# Version 1.00
#
freq[Hz];re:Trc1_S11;im:Trc1_S11;re:Trc2_S21;im:Trc2_S21;
2.400000000000000E+009;1.548641324043274E-001;1.064449176192284E-001;-3.481522668153048E-003;1.794875483028591E-003;
2.400166666666667E+009;1.545680761337280E-001;1.039707213640213E-001;-3.460407024249435E-003;2.044474706053734E-003;
2.400333333333334E+009;1.547147631645203E-001;1.018463671207428E-001;-3.609995357692242E-003;2.237075706943870E-003;
2.400500000000000E+009;1.546292454004288E-001;9.901564568281174E-002;-3.615601919591427E-003;2.195646520704031E-003;
2.400666666666667E+009;1.546363532543182E-001;9.652812033891678E-002;-3.509524278342724E-003;2.508594188839197E-003;
2.400833333333334E+009;1.545523405075073E-001;9.339411556720734E-002;-3.468928392976522E-003;2.598432125523686E-003;
2.401000000000000E+009;1.547938436269760E-001;9.084413200616837E-002;-3.462560707703233E-003;2.813305240124464E-003;
2.401166666666667E+009;1.548587232828140E-001;8.802111446857452E-002;-3.421331290155649E-003;2.800862770527601E-003;
2.401333333333334E+009;1.551013737916946E-001;8.520960807800293E-002;-3.508132649585605E-003;2.965091494843364E-003;
2.401500000000000E+009;1.554045975208283E-001;8.235757052898407E-002;-3.249867353588343E-003;3.089432138949633E-003;
2.401666666666667E+009;1.557575911283493E-001;7.948400825262070E-002;-3.436204977333546E-003;3.220061771571636E-003;
2.401833333333334E+009;1.564313620328903E-001;7.669737935066223E-002;-3.282111370936036E-003;3.292372683063150E-003;
2.402000000000000E+009;1.571396440267563E-001;7.385432720184326E-002;-3.231378505006433E-003;3.595447167754173E-003;
2.402166666666667E+009;1.578202694654465E-001;7.155311107635498E-002;-3.210671944543719E-003;3.701263340190053E-003;
2.402333333333334E+009;1.588699370622635E-001;6.876797229051590E-002;-2.966778120025992E-003;3.794505959376693E-003;
2.402500000000000E+009;1.599051058292389E-001;6.624454259872437E-002;-3.049210645258427E-003;4.124624188989401E-003;
2.402666666666667E+009;1.610081493854523E-001;6.373956799507141E-002;-3.048496320843697E-003;4.131665453314781E-003;
2.402833333333334E+009;1.624192297458649E-001;6.147793680429459E-002;-2.685294952243567E-003;4.435289651155472E-003;
2.403000000000000E+009;1.639890670776367E-001;5.909512192010880E-002;-2.543692477047443E-003;4.836778156459332E-003;
2.403166666666667E+009;1.655435115098953E-001;5.704190209507942E-002;-2.424412406980991E-003;4.724150057882071E-003;
2.403333333333334E+009;1.670840829610825E-001;5.470741912722588E-002;-2.161716343834996E-003;5.200199782848358E-003;
2.403500000000000E+009;1.688350141048431E-001;5.284404754638672E-002;-1.971371239051223E-003;5.272711627185345E-003;
2.403666666666667E+009;1.705608814954758E-001;5.077812820672989E-002;-1.628954662010074E-003;5.401213187724352E-003;
2.403833333333334E+009;1.722037345170975E-001;4.901651665568352E-002;-1.157538616098464E-003;5.363175179809332E-003;
2.404000000000000E+009;1.737263500690460E-001;4.719048365950584E-002;-1.016745110973716E-003;5.409864243119955E-003;
2.404166666666667E+009;1.755252331495285E-001;4.590038582682610E-002;-6.490084924735129E-004;5.453198216855526E-003;
2.404333333333334E+009;1.772032678127289E-001;4.432819783687592E-002;-4.451468994375318E-004;5.160322878509760E-003;
2.404500000000000E+009;1.786888241767883E-001;4.280221462249756E-002;1.428647919965442E-006;5.251033231616020E-003;
2.404666666666667E+009;1.804685443639755E-001;4.178330674767494E-002;3.485049819573760E-005;4.979888442903757E-003;
2.404833333333334E+009;1.822481304407120E-001;4.055565223097801E-002;2.333409647690132E-004;5.093858577311039E-003;
2.405000000000000E+009;1.836225986480713E-001;4.004658013582230E-002;3.514429554343224E-004;4.826011136174202E-003;
2.405166666666667E+009;1.849258691072464E-001;3.921452164649963E-002;5.245184293016791E-004;4.893143661320210E-003;
2.405333333333334E+009;1.863372772932053E-001;3.898422420024872E-002;7.674695225432515E-004;4.637653008103371E-003;
2.405500000000000E+009;1.879106312990189E-001;3.855291754007340E-002;7.813673582859337E-004;4.582803230732679E-003;
2.405666666666667E+009;1.890820115804672E-001;3.817103803157806E-002;8.542769355699420E-004;4.429137334227562E-003;
2.405833333333334E+009;1.904103159904480E-001;3.777329251170158E-002;9.681626688688994E-004;4.294172395020723E-003;
2.406000000000000E+009;1.914546042680740E-001;3.773584961891174E-002;1.004882273264229E-003;4.491379018872976E-003;
2.406166666666667E+009;1.924582719802856E-001;3.760971128940582E-002;1.177730388008058E-003;4.329252056777477E-003;
2.406333333333334E+009;1.933215707540512E-001;3.771055117249489E-002;1.297069480642676E-003;4.372304771095514E-003;
2.406500000000000E+009;1.942725181579590E-001;3.769816458225250E-002;1.443978748284280E-003;4.195114132016897E-003;
2.406666666666667E+009;1.949656009674072E-001;3.770887851715088E-002;1.628963858820498E-003;4.140498582273722E-003;
2.406833333333334E+009;1.952478736639023E-001;3.791000321507454E-002;1.624357071705163E-003;4.133145324885845E-003;
2.407000000000000E+009;1.957405954599381E-001;3.814510256052017E-002;1.743778120726347E-003;4.153177142143250E-003;
2.407166666666667E+009;1.959739625453949E-001;3.796871379017830E-002;1.796695753000677E-003;4.094595555216074E-003;
2.407333333333334E+009;1.959647089242935E-001;3.820449486374855E-002;1.869820640422404E-003;3.975210711359978E-003;
2.407500000000000E+009;1.959488540887833E-001;3.827431797981262E-002;2.050500130280852E-003;3.817264456301928E-003;
2.407666666666667E+009;1.959384083747864E-001;3.850325942039490E-002;2.232413971796632E-003;3.720627864822745E-003;
2.407833333333334E+009;1.955065131187439E-001;3.824958577752113E-002;2.180767944082618E-003;3.563589183613658E-003;
2.408000000000000E+009;1.954667717218399E-001;3.815880790352821E-002;2.227904507890344E-003;3.613037522882223E-003;
2.408166666666667E+009;1.948210000991821E-001;3.780833259224892E-002;2.308199880644679E-003;3.194027114659548E-003;
2.408333333333334E+009;1.945074796676636E-001;3.728370368480682E-002;2.337506273761392E-003;3.294513328000903E-003;
2.408500000000000E+009;1.938785910606384E-001;3.703986480832100E-002;2.478350186720491E-003;3.073912579566240E-003;
2.408666666666667E+009;1.931619793176651E-001;3.648662194609642E-002;2.463713055476546E-003;2.968154149129987E-003;
2.408833333333334E+009;1.926022469997406E-001;3.580819070339203E-002;2.271386096253991E-003;2.924225991591811E-003;
2.409000000000000E+009;1.915610283613205E-001;3.486279398202896E-002;2.416664967313409E-003;2.834910526871681E-003;
2.409166666666667E+009;1.908054798841476E-001;3.381464630365372E-002;2.388552529737353E-003;2.623800653964281E-003;
2.409333333333334E+009;1.897695511579514E-001;3.278051689267159E-002;2.250165445730090E-003;2.555340062826872E-003;
2.409500000000000E+009;1.887737065553665E-001;3.160177543759346E-002;2.336255973204970E-003;2.589476760476828E-003;
2.409666666666667E+009;1.877757906913757E-001;3.023186139762402E-002;2.257667016237974E-003;2.688143867999315E-003;
2.409833333333334E+009;1.867944151163101E-001;2.872584760189056E-002;2.247424563392997E-003;2.626266796141863E-003;
2.410000000000000E+009;1.858435869216919E-001;2.695972286164761E-002;2.257905434817076E-003;2.785645658150315E-003;
2.410166666666667E+009;1.847276538610458E-001;2.535854279994965E-002;2.101929392665625E-003;2.590857446193695E-003;
2.410333333333334E+009;1.837763786315918E-001;2.318658865988255E-002;2.171758562326431E-003;2.651625312864780E-003;
2.410500000000000E+009;1.828235238790512E-001;2.143514715135098E-002;2.191682346165180E-003;2.794333267956972E-003;
2.410666666666667E+009;1.818720102310181E-001;1.913021691143513E-002;2.429093234241009E-003;2.763820346444845E-003;
2.410833333333334E+009;1.811250746250153E-001;1.691503822803497E-002;2.532094717025757E-003;2.778864465653896E-003;
2.411000000000000E+009;1.804437637329102E-001;1.464305911213160E-002;2.507209312170744E-003;2.662875223904848E-003;
2.411166666666667E+009;1.797932982444763E-001;1.235990412533283E-002;2.579114632681012E-003;2.788483630865812E-003;
2.411333333333334E+009;1.793044656515122E-001;9.826705791056156E-003;2.727079903706908E-003;2.666705287992954E-003;
2.411500000000000E+009;1.788556724786758E-001;7.498824503272772E-003;2.881647786125541E-003;2.479900373145938E-003;
2.411666666666667E+009;1.786442250013351E-001;5.200461484491825E-003;2.910996321588755E-003;2.452169079333544E-003;
2.411833333333334E+009;1.782320290803909E-001;2.731182612478733E-003;2.968836342915893E-003;2.497572451829910E-003;
2.412000000000000E+009;1.783574670553207E-001;-3.886676495312713E-005;2.860025269910693E-003;2.406800165772438E-003;
2.412166666666667E+009;1.785660386085510E-001;-2.082429826259613E-003;2.898213220760226E-003;2.402691636234522E-003;
2.412333333333334E+009;1.786749511957169E-001;-4.886320326477289E-003;3.142519388347864E-003;2.405157778412104E-003;
2.412500000000000E+009;1.791691035032272E-001;-7.307113148272038E-003;3.139046020805836E-003;2.305260393768549E-003;
2.412666666666667E+009;1.796767115592957E-001;-9.773136116564274E-003;3.275403287261725E-003;2.405014587566257E-003;
2.412833333333334E+009;1.802899092435837E-001;-1.214649900794029E-002;3.272373462095857E-003;2.367986598983407E-003;
2.413000000000000E+009;1.810553818941116E-001;-1.457078475505114E-002;3.348231781274080E-003;2.323916647583246E-003;
2.413166666666667E+009;1.819110512733460E-001;-1.671596430242062E-002;3.536790609359741E-003;2.452881308272481E-003;
2.413333333333334E+009;1.829905956983566E-001;-1.919697225093842E-002;3.466323018074036E-003;2.248965436592698E-003;
2.413500000000000E+009;1.837124079465866E-001;-2.154861018061638E-002;3.515483345836401E-003;2.465535886585712E-003;
2.413666666666667E+009;1.849745213985443E-001;-2.360095269978046E-002;3.778299316763878E-003;2.209205180406570E-003;
2.413833333333334E+009;1.860938072204590E-001;-2.563997358083725E-002;3.849280998110771E-003;2.270921599119902E-003;
2.414000000000000E+009;1.870417892932892E-001;-2.774107642471790E-002;4.038569517433643E-003;2.304416149854660E-003;
2.414166666666667E+009;1.884206831455231E-001;-2.945300936698914E-002;4.261482972651720E-003;2.072101924568415E-003;
2.414333333333334E+009;1.896132081747055E-001;-3.145038709044457E-002;4.325188696384430E-003;1.946897129528225E-003;
2.414500000000000E+009;1.906760036945343E-001;-3.294129669666290E-002;4.582001361995935E-003;1.808303291909397E-003;
2.414666666666667E+009;1.919619441032410E-001;-3.431244939565659E-002;4.581878893077374E-003;1.602682867087424E-003;
2.414833333333334E+009;1.931760460138321E-001;-3.588662669062614E-002;4.642523359507322E-003;1.428924966603518E-003;
2.415000000000000E+009;1.942477673292160E-001;-3.712819144129753E-002;4.760242067277432E-003;1.257125986739993E-003;
2.415166666666667E+009;1.954184174537659E-001;-3.808090090751648E-002;4.751682281494141E-003;1.020305790007114E-003;
2.415333333333334E+009;1.967257410287857E-001;-3.898621723055840E-002;4.929297603666782E-003;1.153409481048584E-003;
2.415500000000000E+009;1.977424621582031E-001;-3.965555876493454E-002;4.876701626926661E-003;6.971455877646804E-004;
2.415666666666667E+009;1.988055258989334E-001;-4.053883999586105E-002;4.889891017228365E-003;7.549647707492113E-004;
2.415833333333334E+009;1.996255666017532E-001;-4.117609933018684E-002;5.031154025346041E-003;5.895288195461035E-004;
2.416000000000000E+009;2.005201876163483E-001;-4.178993403911591E-002;5.109087564051151E-003;4.461174830794334E-004;
2.416166666666667E+009;2.011936604976654E-001;-4.231756180524826E-002;5.078989081084728E-003;2.895187062676996E-004;
2.416333333333334E+009;2.019066661596298E-001;-4.248078539967537E-002;5.204902496188879E-003;1.068139390554279E-004;
2.416500000000000E+009;2.023136317729950E-001;-4.270036891102791E-002;5.472577642649412E-003;-1.323752258031163E-005;
2.416666666666667E+009;2.026217132806778E-001;-4.313776269555092E-002;5.154132843017578E-003;-1.398796739522368E-004;
2.416833333333334E+009;2.026894837617874E-001;-4.301911219954491E-002;5.457649938762188E-003;-2.583687310107052E-004;
2.417000000000000E+009;2.029760926961899E-001;-4.315942525863648E-002;5.237361881881952E-003;-5.260419566184282E-004;
2.417166666666667E+009;2.025828212499619E-001;-4.306745901703835E-002;5.441755056381226E-003;-6.622365326620638E-004;
2.417333333333334E+009;2.024267762899399E-001;-4.282310605049133E-002;5.463835317641497E-003;-8.937488892115653E-004;
2.417500000000000E+009;2.021232545375824E-001;-4.282493144273758E-002;5.513303913176060E-003;-1.014766748994589E-003;
2.417666666666667E+009;2.015354484319687E-001;-4.262936487793922E-002;5.627261474728584E-003;-1.354598440229893E-003;
2.417833333333334E+009;2.011980116367340E-001;-4.240573942661285E-002;5.512079689651728E-003;-1.455652178265154E-003;
2.418000000000000E+009;2.005528807640076E-001;-4.215952381491661E-002;5.557308439165354E-003;-1.857971190474927E-003;
2.418166666666667E+009;1.997337937355042E-001;-4.207022860646248E-002;5.534120835363865E-003;-2.036468358710408E-003;
2.418333333333334E+009;1.988917738199234E-001;-4.195144400000572E-002;5.490364506840706E-003;-2.241567475721240E-003;
2.418500000000000E+009;1.976496428251267E-001;-4.196488857269287E-002;5.419869441539049E-003;-2.349387155845761E-003;
2.418666666666667E+009;1.969531178474426E-001;-4.192747548222542E-002;5.230643320828676E-003;-2.520041074603796E-003;
2.418833333333334E+009;1.956003755331039E-001;-4.204138740897179E-002;5.106625612825155E-003;-2.861781045794487E-003;
2.419000000000000E+009;1.943551748991013E-001;-4.215379059314728E-002;5.107061471790075E-003;-3.001647302880883E-003;
2.419166666666667E+009;1.930291056632996E-001;-4.247011616826057E-002;5.064588040113449E-003;-3.165561938658357E-003;
2.419333333333334E+009;1.915765702724457E-001;-4.296144843101502E-002;4.892831202596426E-003;-3.275930881500244E-003;
2.419500000000000E+009;1.900494247674942E-001;-4.342006891965866E-002;4.750235937535763E-003;-3.666019998490810E-003;
2.419666666666667E+009;1.885291337966919E-001;-4.426709190011025E-002;4.611720796674490E-003;-3.720899578183889E-003;
2.419833333333334E+009;1.868955343961716E-001;-4.497503116726875E-002;4.588692914694548E-003;-3.909880295395851E-003;
2.420000000000000E+009;1.852977424860001E-001;-4.567511007189751E-002;4.343168810009956E-003;-3.912325482815504E-003;
2.420166666666667E+009;1.836499273777008E-001;-4.664779454469681E-002;4.181516822427511E-003;-4.159666597843170E-003;
2.420333333333334E+009;1.820109039545059E-001;-4.799054935574532E-002;4.091094247996807E-003;-4.140742123126984E-003;
2.420500000000000E+009;1.803362220525742E-001;-4.923988133668900E-002;3.833573078736663E-003;-4.334246739745140E-003;
2.420666666666667E+009;1.787419170141220E-001;-5.042161792516708E-002;3.730503609403968E-003;-4.354604985564947E-003;
2.420833333333334E+009;1.770638674497604E-001;-5.195770412683487E-002;3.773659234866500E-003;-4.461073782294989E-003;
2.421000000000000E+009;1.756387203931809E-001;-5.352413654327393E-002;3.596765454858542E-003;-4.653061274439097E-003;
2.421166666666667E+009;1.741901785135269E-001;-5.529261752963066E-002;3.450048156082630E-003;-4.674799274653196E-003;
2.421333333333334E+009;1.725721955299377E-001;-5.673372372984886E-002;3.393892664462328E-003;-4.767134319990873E-003;
2.421500000000000E+009;1.711256951093674E-001;-5.867754295468330E-002;3.221452469006181E-003;-4.940008744597435E-003;
2.421666666666667E+009;1.700619608163834E-001;-6.049873679876328E-002;3.285367507487536E-003;-5.025143735110760E-003;
2.421833333333334E+009;1.688837409019470E-001;-6.234087422490120E-002;2.903042593970895E-003;-5.261048674583435E-003;
2.422000000000000E+009;1.676756590604782E-001;-6.433761119842529E-002;2.800075337290764E-003;-5.588890053331852E-003;
2.422166666666667E+009;1.668315529823303E-001;-6.647471338510513E-002;2.567616291344166E-003;-5.652445834130049E-003;
2.422333333333334E+009;1.658701449632645E-001;-6.854002177715302E-002;2.306870883330703E-003;-5.643336102366447E-003;
2.422500000000000E+009;1.651601195335388E-001;-7.046350836753845E-002;2.159222029149532E-003;-5.861690733581781E-003;
2.422666666666667E+009;1.644354462623596E-001;-7.260103523731232E-002;1.828128704801202E-003;-5.897019058465958E-003;
2.422833333333334E+009;1.639634072780609E-001;-7.471346110105515E-002;1.562018878757954E-003;-5.934942513704300E-003;
2.423000000000000E+009;1.631873250007629E-001;-7.673684507608414E-002;1.264478312805295E-003;-5.961109418421984E-003;
2.423166666666667E+009;1.631016135215759E-001;-7.872951030731201E-002;1.106716925278306E-003;-6.117735523730516E-003;
2.423333333333334E+009;1.627952754497528E-001;-8.064883947372437E-002;7.943031378090382E-004;-6.067749112844467E-003;
2.423500000000000E+009;1.627356261014938E-001;-8.258918672800064E-002;4.703958693426102E-004;-6.206041667610407E-003;
2.423666666666667E+009;1.627677977085114E-001;-8.451140671968460E-002;2.434208581689745E-004;-6.108341272920370E-003;
2.423833333333334E+009;1.627180278301239E-001;-8.626733720302582E-002;2.258624226669781E-005;-5.831936839967966E-003;
2.424000000000000E+009;1.626919060945511E-001;-8.804798126220703E-002;-4.043125081807375E-004;-5.843821447342634E-003;
2.424166666666667E+009;1.628597527742386E-001;-8.965268731117249E-002;-4.798474546987563E-004;-5.675225518643856E-003;
2.424333333333334E+009;1.632466912269592E-001;-9.108487516641617E-002;-9.693852625787258E-004;-5.550696048885584E-003;
2.424500000000000E+009;1.635214388370514E-001;-9.287127852439880E-002;-9.824271546676755E-004;-5.513935349881649E-003;
2.424666666666667E+009;1.638467907905579E-001;-9.427177160978317E-002;-1.213067676872015E-003;-5.277198273688555E-003;
2.424833333333334E+009;1.643943339586258E-001;-9.559264034032822E-002;-1.294319401495159E-003;-5.218491889536381E-003;
2.425000000000000E+009;1.648028939962387E-001;-9.681946784257889E-002;-1.487291650846601E-003;-5.076081492006779E-003;
2.425166666666667E+009;1.651242971420288E-001;-9.782243520021439E-002;-1.643570372834802E-003;-4.917882848531008E-003;
2.425333333333334E+009;1.654272824525833E-001;-9.876427054405212E-002;-1.564721111208201E-003;-4.795914050191641E-003;
2.425500000000000E+009;1.658660024404526E-001;-9.989306330680847E-002;-1.828178414143622E-003;-4.646144807338715E-003;
2.425666666666667E+009;1.663872599601746E-001;-1.003261730074883E-001;-1.742951921187341E-003;-4.488194361329079E-003;
2.425833333333334E+009;1.666934639215469E-001;-1.011782437562943E-001;-1.858173171058297E-003;-4.394537303596735E-003;
2.426000000000000E+009;1.671684831380844E-001;-1.016390249133110E-001;-2.043361542746425E-003;-4.364619031548500E-003;
2.426166666666667E+009;1.675337702035904E-001;-1.021688133478165E-001;-2.060950733721256E-003;-4.059620667248964E-003;
2.426333333333334E+009;1.677122265100479E-001;-1.026870608329773E-001;-1.984786940738559E-003;-4.073936026543379E-003;
2.426500000000000E+009;1.680021584033966E-001;-1.029701307415962E-001;-2.274928847327828E-003;-4.130317363888025E-003;
2.426666666666667E+009;1.682734042406082E-001;-1.032732874155045E-001;-2.147393999621272E-003;-3.842961974442005E-003;
2.426833333333334E+009;1.684602349996567E-001;-1.034273281693459E-001;-2.149102743715048E-003;-3.857231931760907E-003;
2.427000000000000E+009;1.685174256563187E-001;-1.036917865276337E-001;-2.109689172357321E-003;-3.760001389309764E-003;
2.427166666666667E+009;1.686725020408630E-001;-1.037604510784149E-001;-2.246989170089364E-003;-3.735082224011421E-003;
2.427333333333334E+009;1.683608442544937E-001;-1.039313822984695E-001;-2.395588671788573E-003;-3.647610545158386E-003;
2.427500000000000E+009;1.682286411523819E-001;-1.042115911841393E-001;-2.290809527039528E-003;-3.517701756209135E-003;
2.427666666666667E+009;1.678955703973770E-001;-1.042207032442093E-001;-2.288212301209569E-003;-3.459700848907232E-003;
2.427833333333334E+009;1.675635278224945E-001;-1.044361367821693E-001;-2.622490748763084E-003;-3.270934103056788E-003;
