# Version 1.00
#
freq[Hz];re:Trc1_S11;im:Trc1_S11;re:Trc2_S21;im:Trc2_S21;
2.400000000000000E+009;1.549880504608154E-001;1.063627153635025E-001;-3.489056136459112E-003;2.061773324385285E-003;
2.400166666666667E+009;1.545145213603973E-001;1.039905101060867E-001;-3.489942755550146E-003;1.968795200809836E-003;
2.400333333333334E+009;1.546880304813385E-001;1.016380339860916E-001;-3.595970338210464E-003;2.165561076253653E-003;
2.400500000000000E+009;1.545444577932358E-001;9.898004680871964E-002;-3.530844114720821E-003;2.365996129810810E-003;
2.400666666666667E+009;1.545950472354889E-001;9.642495959997177E-002;-3.454747144132853E-003;2.312667667865753E-003;
2.400833333333334E+009;1.546285897493362E-001;9.369944036006928E-002;-3.574809525161982E-003;2.421091310679913E-003;
2.401000000000000E+009;1.546584367752075E-001;9.076832234859467E-002;-3.553060814738274E-003;2.632460091263056E-003;
2.401166666666667E+009;1.547580361366272E-001;8.808800578117371E-002;-3.576979972422123E-003;2.723310375586152E-003;
2.401333333333334E+009;1.550883054733276E-001;8.526875078678131E-002;-3.430592827498913E-003;2.981608500704169E-003;
2.401500000000000E+009;1.554241925477982E-001;8.220390230417252E-002;-3.460676176473498E-003;3.028338076546788E-003;
2.401666666666667E+009;1.556844264268875E-001;7.944393903017044E-002;-3.331395564600825E-003;3.211840521544218E-003;
2.401833333333334E+009;1.562288701534271E-001;7.684857398271561E-002;-3.372926497831941E-003;3.358270274475217E-003;
2.402000000000000E+009;1.571055054664612E-001;7.402876764535904E-002;-3.156249644234777E-003;3.408444579690695E-003;
2.402166666666667E+009;1.578014642000198E-001;7.140056043863297E-002;-3.155786776915193E-003;3.554297145456076E-003;
2.402333333333334E+009;1.589033603668213E-001;6.888594478368759E-002;-3.048153128474951E-003;4.038000013679266E-003;
2.402500000000000E+009;1.597595065832138E-001;6.630630046129227E-002;-2.844451693817973E-003;3.968165721744299E-003;
2.402666666666667E+009;1.611369997262955E-001;6.398000568151474E-002;-2.912367694079876E-003;4.281507339328528E-003;
2.402833333333334E+009;1.623218357563019E-001;6.142937391996384E-002;-2.812198130413890E-003;4.422549158334732E-003;
2.403000000000000E+009;1.638919562101364E-001;5.920697748661041E-002;-2.561531029641628E-003;4.561610054224730E-003;
2.403166666666667E+009;1.656057685613632E-001;5.694502219557762E-002;-2.417023759335280E-003;4.962609615176916E-003;
2.403333333333334E+009;1.670630425214768E-001;5.474145337939262E-002;-2.036264631897211E-003;5.037426482886076E-003;
2.403500000000000E+009;1.688129454851151E-001;5.270750448107719E-002;-1.844940357841551E-003;5.092089995741844E-003;
2.403666666666667E+009;1.705227494239807E-001;5.086877569556236E-002;-1.612495980225503E-003;5.282595288008452E-003;
2.403833333333334E+009;1.722408831119537E-001;4.884963110089302E-002;-1.256560208275914E-003;5.222902633249760E-003;
2.404000000000000E+009;1.738663315773010E-001;4.709438234567642E-002;-9.629472042433918E-004;5.452646408230066E-003;
2.404166666666667E+009;1.756235212087631E-001;4.564102366566658E-002;-6.200226489454508E-004;5.334895104169846E-003;
2.404333333333334E+009;1.772939860820770E-001;4.422952234745026E-002;-3.050778177566826E-004;5.160838831216097E-003;
2.404500000000000E+009;1.786689609289169E-001;4.300775751471520E-002;-1.488126872573048E-004;5.104394163936377E-003;
2.404666666666667E+009;1.805454343557358E-001;4.185808449983597E-002;7.714839011896402E-005;5.062279291450977E-003;
2.404833333333334E+009;1.822297275066376E-001;4.063608124852181E-002;2.226879005320370E-004;4.888440016657114E-003;
2.405000000000000E+009;1.835317313671112E-001;3.997137770056725E-002;3.965999057982117E-004;4.733095411211252E-003;
2.405166666666667E+009;1.849490851163864E-001;3.939976915717125E-002;6.399148260243237E-004;4.786178935319185E-003;
2.405333333333334E+009;1.864738762378693E-001;3.887386620044708E-002;5.986948381178081E-004;4.714564420282841E-003;
2.405500000000000E+009;1.879678815603256E-001;3.830998763442040E-002;7.445756928063929E-004;4.546163603663445E-003;
2.405666666666667E+009;1.891833543777466E-001;3.811928629875183E-002;8.736037998460233E-004;4.500703420490027E-003;
2.405833333333334E+009;1.903722733259201E-001;3.785101324319840E-002;9.914692491292954E-004;4.444007761776447E-003;
2.406000000000000E+009;1.912577152252197E-001;3.776041418313980E-002;1.079093664884567E-003;4.513846710324287E-003;
2.406166666666667E+009;1.923093646764755E-001;3.763223811984062E-002;1.170269213616848E-003;4.350143019109964E-003;
2.406333333333334E+009;1.933728009462357E-001;3.781431168317795E-002;1.232328475452960E-003;4.262469708919525E-003;
2.406500000000000E+009;1.939703524112701E-001;3.776953741908073E-002;1.294400542974472E-003;4.350843373686075E-003;
2.406666666666667E+009;1.946474462747574E-001;3.787602111697197E-002;1.486606663092971E-003;4.224618431180716E-003;
2.406833333333334E+009;1.952617317438126E-001;3.792376816272736E-002;1.590626197867096E-003;4.130007699131966E-003;
2.407000000000000E+009;1.954469829797745E-001;3.810739144682884E-002;1.781993894837797E-003;4.031615331768990E-003;
2.407166666666667E+009;1.959443539381027E-001;3.790238872170448E-002;1.915735541842878E-003;4.080240149050951E-003;
2.407333333333334E+009;1.959410160779953E-001;3.821939229965210E-002;2.106523374095559E-003;3.978132735937834E-003;
2.407500000000000E+009;1.959232389926910E-001;3.843695670366287E-002;2.071592025458813E-003;3.778808051720262E-003;
2.407666666666667E+009;1.959993839263916E-001;3.830674290657044E-002;1.953834667801857E-003;3.633969929069281E-003;
2.407833333333334E+009;1.955786049365997E-001;3.827003389596939E-002;2.308783587068319E-003;3.784054657444358E-003;
2.408000000000000E+009;1.954013705253601E-001;3.812406212091446E-002;2.278558444231749E-003;3.377808025106788E-003;
2.408166666666667E+009;1.948660761117935E-001;3.786456957459450E-002;2.296539489179850E-003;3.336543915793300E-003;
2.408333333333334E+009;1.945414096117020E-001;3.745907172560692E-002;2.409980399534106E-003;3.317394526675344E-003;
2.408500000000000E+009;1.937856823205948E-001;3.712525591254234E-002;2.358286641538143E-003;3.116182982921600E-003;
2.408666666666667E+009;1.931735724210739E-001;3.655846044421196E-002;2.472652355208993E-003;3.049919148907065E-003;
2.408833333333334E+009;1.924781054258347E-001;3.590119257569313E-002;2.273222664371133E-003;2.954825060442090E-003;
2.409000000000000E+009;1.916452497243881E-001;3.491901233792305E-002;2.399726072326303E-003;2.942654304206371E-003;
2.409166666666667E+009;1.906657665967941E-001;3.402147442102432E-002;2.324572531506419E-003;2.651765476912260E-003;
2.409333333333334E+009;1.899404078722000E-001;3.304362297058106E-002;2.299594227224588E-003;2.721671946346760E-003;
2.409500000000000E+009;1.885889619588852E-001;3.159879148006439E-002;2.145998179912567E-003;2.602059859782457E-003;
2.409666666666667E+009;1.877315789461136E-001;3.030488081276417E-002;2.222495386376977E-003;2.711865585297346E-003;
2.409833333333334E+009;1.866936087608337E-001;2.871651388704777E-002;2.201830269768834E-003;2.662140643224120E-003;
2.410000000000000E+009;1.856809854507446E-001;2.702702581882477E-002;2.222322393208742E-003;2.634605858474970E-003;
2.410166666666667E+009;1.846292167901993E-001;2.521044760942459E-002;2.218540990725160E-003;2.666318789124489E-003;
2.410333333333334E+009;1.838804334402084E-001;2.340337820351124E-002;2.306804526597261E-003;2.693808870390058E-003;
2.410500000000000E+009;1.827752590179443E-001;2.148842625319958E-002;2.308235038071871E-003;2.857176586985588E-003;
2.410666666666667E+009;1.819223016500473E-001;1.905867457389832E-002;2.541384892538190E-003;2.713935682550073E-003;
2.410833333333334E+009;1.812221258878708E-001;1.695787906646729E-002;2.420620759949088E-003;2.786820055916905E-003;
2.411000000000000E+009;1.803309619426727E-001;1.474335510283709E-002;2.700812648981810E-003;2.702329307794571E-003;
2.411166666666667E+009;1.797669827938080E-001;1.257925387471914E-002;2.664431463927031E-003;2.590385498479009E-003;
2.411333333333334E+009;1.791550517082214E-001;9.745409712195396E-003;2.652087248861790E-003;2.568674506619573E-003;
2.411500000000000E+009;1.788381487131119E-001;7.421389687806368E-003;2.651615999639034E-003;2.535244915634394E-003;
2.411666666666667E+009;1.785054653882980E-001;5.265312269330025E-003;2.833378268405795E-003;2.655420685186982E-003;
2.411833333333334E+009;1.782515347003937E-001;2.744691679254174E-003;2.905124099925160E-003;2.689862390980125E-003;
2.412000000000000E+009;1.784466952085495E-001;-3.679092696984299E-005;2.986933337524533E-003;2.483113203197718E-003;
2.412166666666667E+009;1.782966554164887E-001;-2.124273451045156E-003;3.041123738512397E-003;2.480606548488140E-003;
2.412333333333334E+009;1.786598116159439E-001;-4.848941694945097E-003;2.975698560476303E-003;2.550216624513269E-003;
2.412500000000000E+009;1.791282296180725E-001;-7.124815136194229E-003;3.128368174657226E-003;2.343591069802642E-003;
2.412666666666667E+009;1.796750426292419E-001;-9.643016383051872E-003;3.225767752155662E-003;2.483467804268003E-003;
2.412833333333334E+009;1.803630739450455E-001;-1.216827146708965E-002;3.204957814887166E-003;2.536372514441609E-003;
2.413000000000000E+009;1.809786707162857E-001;-1.457923930138350E-002;3.290777327492833E-003;2.349422546103597E-003;
2.413166666666667E+009;1.819077283143997E-001;-1.677360571920872E-002;3.563082544133067E-003;2.413076581433415E-003;
2.413333333333334E+009;1.828396916389465E-001;-1.912122964859009E-002;3.525024047121406E-003;2.364219166338444E-003;
2.413500000000000E+009;1.838478744029999E-001;-2.148459665477276E-002;3.539637429639697E-003;2.369860187172890E-003;
2.413666666666667E+009;1.850301474332809E-001;-2.368831820785999E-002;3.664141753688455E-003;2.360667102038860E-003;
2.413833333333334E+009;1.860555112361908E-001;-2.563914470374584E-002;4.018187522888184E-003;2.229240257292986E-003;
2.414000000000000E+009;1.869767457246780E-001;-2.763269469141960E-002;4.095718264579773E-003;2.269267570227385E-003;
2.414166666666667E+009;1.885195672512054E-001;-2.954068221151829E-002;4.355110228061676E-003;2.185336546972394E-003;
2.414333333333334E+009;1.896163821220398E-001;-3.136907145380974E-002;4.334938246756792E-003;2.074410207569599E-003;
2.414500000000000E+009;1.909540444612503E-001;-3.280631452798843E-002;4.494634922593832E-003;1.831457018852234E-003;
2.414666666666667E+009;1.920051574707031E-001;-3.444379195570946E-002;4.661848302930594E-003;1.553695998154581E-003;
2.414833333333334E+009;1.931881457567215E-001;-3.574807941913605E-002;4.529871977865696E-003;1.579133560881019E-003;
2.415000000000000E+009;1.943198144435883E-001;-3.704383969306946E-002;4.737992305308580E-003;1.221157843247056E-003;
2.415166666666667E+009;1.956763863563538E-001;-3.810065984725952E-002;4.953645169734955E-003;1.099171233363450E-003;
2.415333333333334E+009;1.965944319963455E-001;-3.900472074747086E-002;4.946526139974594E-003;8.969891932792962E-004;
2.415500000000000E+009;1.978504210710526E-001;-3.971619904041290E-002;4.847672302275896E-003;8.607251802459359E-004;
2.415666666666667E+009;1.989191621541977E-001;-4.060982912778854E-002;4.920979030430317E-003;7.476661703549326E-004;
2.415833333333334E+009;1.997406333684921E-001;-4.113280028104782E-002;5.005809478461742E-003;5.162926390767098E-004;
2.416000000000000E+009;2.005309164524078E-001;-4.176777973771095E-002;4.989839158952236E-003;3.511962131597102E-004;
2.416166666666667E+009;2.011976838111877E-001;-4.231081157922745E-002;5.102045834064484E-003;3.762981214094907E-004;
2.416333333333334E+009;2.017994672060013E-001;-4.254694283008575E-002;5.312170833349228E-003;2.061837294604629E-004;
2.416500000000000E+009;2.023554593324661E-001;-4.278626665472984E-002;5.372490733861923E-003;2.253959246445447E-005;
2.416666666666667E+009;2.026479095220566E-001;-4.316718131303787E-002;5.320168100297451E-003;-1.782264298526570E-004;
2.416833333333334E+009;2.027961015701294E-001;-4.303499311208725E-002;5.383118521422148E-003;-2.868193259928376E-004;
2.417000000000000E+009;2.029520720243454E-001;-4.313742369413376E-002;5.506717599928379E-003;-4.852159181609750E-004;
2.417166666666667E+009;2.025928497314453E-001;-4.304371774196625E-002;5.553384777158499E-003;-7.100414950400591E-004;
2.417333333333334E+009;2.024092376232147E-001;-4.288863390684128E-002;5.488806404173374E-003;-9.147515520453453E-004;
2.417500000000000E+009;2.021391838788986E-001;-4.285549372434616E-002;5.568307358771563E-003;-1.060085953213275E-003;
2.417666666666667E+009;2.017688453197479E-001;-4.268367961049080E-002;5.652402993291616E-003;-1.211958355270326E-003;
2.417833333333334E+009;2.013172507286072E-001;-4.237920418381691E-002;5.527609493583441E-003;-1.495073433034122E-003;
2.418000000000000E+009;2.006448954343796E-001;-4.209386929869652E-002;5.462522618472576E-003;-1.653910265304148E-003;
2.418166666666667E+009;1.996809244155884E-001;-4.211693257093430E-002;5.479013081640005E-003;-2.095539355650544E-003;
2.418333333333334E+009;1.988778114318848E-001;-4.194660484790802E-002;5.399553105235100E-003;-2.270306693390012E-003;
2.418500000000000E+009;1.978928446769714E-001;-4.192213341593742E-002;5.319300107657909E-003;-2.227568067610264E-003;
2.418666666666667E+009;1.969667673110962E-001;-4.184873774647713E-002;5.347060039639473E-003;-2.633625408634543E-003;
2.418833333333334E+009;1.956056356430054E-001;-4.193054884672165E-002;5.321213044226170E-003;-2.860613400116563E-003;
2.419000000000000E+009;1.943593919277191E-001;-4.220118001103401E-002;5.214535631239414E-003;-2.992968540638685E-003;
2.419166666666667E+009;1.930789947509766E-001;-4.238032549619675E-002;5.066825542598963E-003;-3.055408364161849E-003;
2.419333333333334E+009;1.915451586246491E-001;-4.301216080784798E-002;5.036192946135998E-003;-3.178909188136458E-003;
2.419500000000000E+009;1.901918947696686E-001;-4.346358776092529E-002;4.805211443454027E-003;-3.592828754335642E-003;
2.419666666666667E+009;1.886363476514816E-001;-4.413391277194023E-002;4.694850649684668E-003;-3.730289638042450E-003;
2.419833333333334E+009;1.869236826896668E-001;-4.483494162559509E-002;4.531566053628922E-003;-3.870648797601461E-003;
2.420000000000000E+009;1.852777898311615E-001;-4.571145027875900E-002;4.321616142988205E-003;-3.896322799846530E-003;
2.420166666666667E+009;1.837327033281326E-001;-4.674774408340454E-002;4.172659479081631E-003;-4.096470773220062E-003;
2.420333333333334E+009;1.820939928293228E-001;-4.787640273571014E-002;4.007608629763126E-003;-4.143690690398216E-003;
2.420500000000000E+009;1.804176568984985E-001;-4.930622503161430E-002;3.921698778867722E-003;-4.289733245968819E-003;
2.420666666666667E+009;1.787116378545761E-001;-5.033047497272492E-002;3.832161659374833E-003;-4.398860502988100E-003;
2.420833333333334E+009;1.771030724048615E-001;-5.188709869980812E-002;3.763661952689290E-003;-4.388055298477411E-003;
2.421000000000000E+009;1.755937188863754E-001;-5.334253981709480E-002;3.635539440438151E-003;-4.539973568171263E-003;
2.421166666666667E+009;1.741663366556168E-001;-5.513330549001694E-002;3.432960947975516E-003;-4.781959112733603E-003;
2.421333333333334E+009;1.726288795471191E-001;-5.666140839457512E-002;3.379928646609187E-003;-4.744649399071932E-003;
2.421500000000000E+009;1.712238341569901E-001;-5.878524109721184E-002;3.235796699300408E-003;-5.005033686757088E-003;
2.421666666666667E+009;1.700053066015244E-001;-6.050750240683556E-002;3.138616913929582E-003;-5.111152771860361E-003;
2.421833333333334E+009;1.688507199287415E-001;-6.235750019550324E-002;2.943799830973148E-003;-5.272409413009882E-003;
2.422000000000000E+009;1.676164120435715E-001;-6.427077949047089E-002;2.744165947660804E-003;-5.391411948949099E-003;
2.422166666666667E+009;1.668891012668610E-001;-6.655300408601761E-002;2.636242657899857E-003;-5.676816683262587E-003;
2.422333333333334E+009;1.657581478357315E-001;-6.850983947515488E-002;2.449278254061937E-003;-5.760099738836289E-003;
2.422500000000000E+009;1.652320176362991E-001;-7.042846083641052E-002;2.201525028795004E-003;-5.808797199279070E-003;
2.422666666666667E+009;1.643546670675278E-001;-7.259807735681534E-002;1.812986331060529E-003;-5.771504249423742E-003;
2.422833333333334E+009;1.640269160270691E-001;-7.463439553976059E-002;1.616370980627835E-003;-6.151553709059954E-003;
2.423000000000000E+009;1.633249372243881E-001;-7.677845656871796E-002;1.476843957789242E-003;-6.209432613104582E-003;
2.423166666666667E+009;1.630732566118240E-001;-7.876739650964737E-002;1.106893643736839E-003;-5.956700537353754E-003;
2.423333333333334E+009;1.626052260398865E-001;-8.074362576007843E-002;7.357274880632758E-004;-6.066460162401199E-003;
2.423500000000000E+009;1.628515869379044E-001;-8.262333273887634E-002;5.379001377150416E-004;-6.162494421005249E-003;
2.423666666666667E+009;1.627693027257919E-001;-8.454965800046921E-002;8.855712076183409E-005;-6.041379645466805E-003;
2.423833333333334E+009;1.628338545560837E-001;-8.638267219066620E-002;-2.400362791377120E-005;-5.958705674856901E-003;
2.424000000000000E+009;1.627538055181503E-001;-8.814857155084610E-002;-3.456671547610313E-004;-5.816985387355089E-003;
2.424166666666667E+009;1.629592180252075E-001;-8.966685086488724E-002;-5.513050127774477E-004;-5.631538573652506E-003;
2.424333333333334E+009;1.632145643234253E-001;-9.125463664531708E-002;-7.462329813279212E-004;-5.665196571499109E-003;
2.424500000000000E+009;1.635851413011551E-001;-9.296386688947678E-002;-8.753201109357178E-004;-5.480754189193249E-003;
2.424666666666667E+009;1.638291180133820E-001;-9.431821107864380E-002;-1.050092163495719E-003;-5.290832836180925E-003;
2.424833333333334E+009;1.643085181713104E-001;-9.559237211942673E-002;-1.270790817216039E-003;-5.166260525584221E-003;
2.425000000000000E+009;1.646923273801804E-001;-9.672550112009049E-002;-1.464577391743660E-003;-5.031993146985769E-003;
2.425166666666667E+009;1.650813072919846E-001;-9.787408262491226E-002;-1.523937098681927E-003;-4.959879908710718E-003;
2.425333333333334E+009;1.653782874345779E-001;-9.892274439334869E-002;-1.531949150376022E-003;-4.690953996032476E-003;
2.425500000000000E+009;1.659885495901108E-001;-9.979324787855148E-002;-1.800009980797768E-003;-4.533752333372831E-003;
2.425666666666667E+009;1.664159744977951E-001;-1.005275174975395E-001;-1.853604218922555E-003;-4.618009086698294E-003;
2.425833333333334E+009;1.666275411844254E-001;-1.013149097561836E-001;-1.860715565271676E-003;-4.391544498503208E-003;
2.426000000000000E+009;1.670384407043457E-001;-1.017634645104408E-001;-1.962207024917007E-003;-4.246400203555822E-003;
2.426166666666667E+009;1.675336509943008E-001;-1.022484451532364E-001;-1.995672238990665E-003;-4.299407359212637E-003;
2.426333333333334E+009;1.675949990749359E-001;-1.027091667056084E-001;-2.003128873184323E-003;-4.262705333530903E-003;
2.426500000000000E+009;1.680544316768646E-001;-1.029046028852463E-001;-2.009637653827667E-003;-4.081255290657282E-003;
2.426666666666667E+009;1.682617962360382E-001;-1.032160371541977E-001;-2.026785630732775E-003;-3.928246907889843E-003;
2.426833333333334E+009;1.685477644205093E-001;-1.035971194505692E-001;-2.051576506346464E-003;-3.699939232319593E-003;
2.427000000000000E+009;1.685112267732620E-001;-1.037736758589745E-001;-2.301584929227829E-003;-3.697455627843738E-003;
2.427166666666667E+009;1.685493886470795E-001;-1.038587614893913E-001;-2.360684331506491E-003;-3.704892005771399E-003;
2.427333333333334E+009;1.684238314628601E-001;-1.040511578321457E-001;-2.249445067718625E-003;-3.689315635710955E-003;
2.427500000000000E+009;1.681580841541290E-001;-1.040989235043526E-001;-2.319199265912175E-003;-3.683842718601227E-003;
2.427666666666667E+009;1.679209470748901E-001;-1.041729748249054E-001;-2.343724016100168E-003;-3.530403366312385E-003;
2.427833333333334E+009;1.674818545579910E-001;-1.042907387018204E-001;-2.207614481449127E-003;-3.586242441087961E-003;
