# Version 1.00
#
freq[Hz];re:Trc1_S11;im:Trc1_S11;re:Trc2_S21;im:Trc2_S21;
2.400000000000000E+009;1.548143178224564E-001;1.064406484365463E-001;-3.425734816119075E-003;1.976187573745847E-003;
2.400166666666667E+009;1.545761376619339E-001;1.041690856218338E-001;-3.559470409527421E-003;2.012251177802682E-003;
2.400333333333334E+009;1.547455638647080E-001;1.017563194036484E-001;-3.533331910148263E-003;2.194414380937815E-003;
2.400500000000000E+009;1.545291841030121E-001;9.904280304908752E-002;-3.529555164277554E-003;2.327464288100600E-003;
2.400666666666667E+009;1.546754240989685E-001;9.643989801406860E-002;-3.480714280158281E-003;2.366964239627123E-003;
2.400833333333334E+009;1.545396596193314E-001;9.363824874162674E-002;-3.346833866089582E-003;2.728365361690521E-003;
2.401000000000000E+009;1.546523571014404E-001;9.092546254396439E-002;-3.452803473919630E-003;2.736325142905116E-003;
2.401166666666667E+009;1.547282040119171E-001;8.804219961166382E-002;-3.425223054364324E-003;2.954127965494990E-003;
2.401333333333334E+009;1.549825668334961E-001;8.534812927246094E-002;-3.264013910666108E-003;2.846711082383990E-003;
2.401500000000000E+009;1.553016602993012E-001;8.233834803104401E-002;-3.395148320123553E-003;2.993246074765921E-003;
2.401666666666667E+009;1.557097285985947E-001;7.961743324995041E-002;-3.412518650293350E-003;3.320751246064901E-003;
2.401833333333334E+009;1.563571244478226E-001;7.680018246173859E-002;-3.374589607119560E-003;3.510909853503108E-003;
2.402000000000000E+009;1.571193337440491E-001;7.406391203403473E-002;-3.191914642229676E-003;3.575180191546679E-003;
2.402166666666667E+009;1.578057110309601E-001;7.166440784931183E-002;-3.088937606662512E-003;3.702718764543533E-003;
2.402333333333334E+009;1.587252914905548E-001;6.856155395507813E-002;-3.012190107256174E-003;3.924707416445017E-003;
2.402500000000000E+009;1.601246744394302E-001;6.635314226150513E-002;-3.034893888980150E-003;4.068091977387667E-003;
2.402666666666667E+009;1.609149575233460E-001;6.396394968032837E-002;-2.837923122569919E-003;4.203058313578367E-003;
2.402833333333334E+009;1.624142229557037E-001;6.138779222965241E-002;-2.659258898347616E-003;4.377275239676237E-003;
2.403000000000000E+009;1.637125760316849E-001;5.908867344260216E-002;-2.430141670629382E-003;4.677494522184134E-003;
2.403166666666667E+009;1.655322164297104E-001;5.703981220722199E-002;-2.293967409059405E-003;4.972415976226330E-003;
2.403333333333334E+009;1.669161915779114E-001;5.477814376354218E-002;-2.150044310837984E-003;5.118281580507755E-003;
2.403500000000000E+009;1.687168627977371E-001;5.277426168322563E-002;-1.781996223144233E-003;5.130744073539972E-003;
2.403666666666667E+009;1.705084890127182E-001;5.080479383468628E-002;-1.509883441030979E-003;5.253535695374012E-003;
2.403833333333334E+009;1.721135526895523E-001;4.898056387901306E-002;-1.341310562565923E-003;5.399609450250864E-003;
2.404000000000000E+009;1.735882461071014E-001;4.737183079123497E-002;-9.285857086069882E-004;5.321940872818232E-003;
2.404166666666667E+009;1.755221188068390E-001;4.563247784972191E-002;-6.948594236746430E-004;5.408520810306072E-003;
2.404333333333334E+009;1.769863665103912E-001;4.411855340003967E-002;-4.618508683051914E-004;5.246667657047510E-003;
2.404500000000000E+009;1.787755787372589E-001;4.290185123682022E-002;-3.588836261769757E-005;5.140405148267746E-003;
2.404666666666667E+009;1.804894804954529E-001;4.190536960959435E-002;1.475201279390603E-004;4.966306500136852E-003;
2.404833333333334E+009;1.820499002933502E-001;4.078021645545960E-002;2.894024946726859E-004;4.967808723449707E-003;
2.405000000000000E+009;1.834803372621536E-001;3.999336808919907E-002;4.809590463992208E-004;4.863243550062180E-003;
2.405166666666667E+009;1.850504428148270E-001;3.949440643191338E-002;4.978213110007346E-004;4.879404325038195E-003;
2.405333333333334E+009;1.863251179456711E-001;3.894148394465447E-002;7.798291044309735E-004;4.796605557203293E-003;
2.405500000000000E+009;1.877969056367874E-001;3.852398693561554E-002;8.368577691726387E-004;4.720438737422228E-003;
2.405666666666667E+009;1.891214996576309E-001;3.804031759500504E-002;9.284758707508445E-004;4.419088829308748E-003;
2.405833333333334E+009;1.903965473175049E-001;3.789355233311653E-002;9.311702451668680E-004;4.624756518751383E-003;
2.406000000000000E+009;1.914519220590591E-001;3.780864551663399E-002;1.168843242339790E-003;4.473811015486717E-003;
2.406166666666667E+009;1.923642754554749E-001;3.767573460936546E-002;1.272562192752957E-003;4.385419189929962E-003;
2.406333333333334E+009;1.933806091547012E-001;3.770208731293678E-002;1.543068210594356E-003;4.321764688938856E-003;
2.406500000000000E+009;1.941174268722534E-001;3.783689811825752E-002;1.434278325177729E-003;4.385982640087605E-003;
2.406666666666667E+009;1.947018206119537E-001;3.796787559986115E-002;1.615620334632695E-003;4.146411549299955E-003;
2.406833333333334E+009;1.952385455369949E-001;3.798853233456612E-002;1.698881038464606E-003;4.112479742616415E-003;
2.407000000000000E+009;1.956900656223297E-001;3.826518729329109E-002;1.724118948914111E-003;3.977787680923939E-003;
2.407166666666667E+009;1.960001140832901E-001;3.805024549365044E-002;1.725537120364606E-003;4.051913507282734E-003;
2.407333333333334E+009;1.958322674036026E-001;3.844597563147545E-002;2.016975777223706E-003;3.789368085563183E-003;
2.407500000000000E+009;1.958876401185989E-001;3.853496909141541E-002;2.076004631817341E-003;3.892758162692189E-003;
2.407666666666667E+009;1.961008012294769E-001;3.840396925806999E-002;2.146269427612424E-003;3.701853333041072E-003;
2.407833333333334E+009;1.955211162567139E-001;3.838455677032471E-002;2.302501583471894E-003;3.651329316198826E-003;
2.408000000000000E+009;1.956128776073456E-001;3.815488889813423E-002;2.307230373844504E-003;3.459546947851777E-003;
2.408166666666667E+009;1.949013918638229E-001;3.793082386255264E-002;2.384593011811376E-003;3.269090550020337E-003;
2.408333333333334E+009;1.945639401674271E-001;3.748386353254318E-002;2.447362523525953E-003;3.173621138557792E-003;
2.408500000000000E+009;1.937068104743958E-001;3.716612979769707E-002;2.411913126707077E-003;3.018570831045508E-003;
2.408666666666667E+009;1.933232992887497E-001;3.662990406155586E-002;2.350772731006146E-003;3.049215069040656E-003;
2.408833333333334E+009;1.926699578762054E-001;3.587660193443298E-002;2.461783587932587E-003;2.907761838287115E-003;
2.409000000000000E+009;1.916708201169968E-001;3.503605350852013E-002;2.325969748198986E-003;2.706219907850027E-003;
2.409166666666667E+009;1.907328963279724E-001;3.401512652635574E-002;2.431490691378713E-003;2.679031109437347E-003;
2.409333333333334E+009;1.899163872003555E-001;3.301816433668137E-002;2.357614226639271E-003;2.685417653992772E-003;
2.409500000000000E+009;1.885787397623062E-001;3.181606158614159E-002;2.273942809551954E-003;2.626676345244050E-003;
2.409666666666667E+009;1.878151148557663E-001;3.025843575596809E-002;2.246154472231865E-003;2.708889544010162E-003;
2.409833333333334E+009;1.868427693843842E-001;2.885178849101067E-002;2.153702778741717E-003;2.851865021511912E-003;
2.410000000000000E+009;1.857678890228272E-001;2.713076025247574E-002;2.292084274813533E-003;2.659802790731192E-003;
2.410166666666667E+009;1.849332749843597E-001;2.533375844359398E-002;2.249959856271744E-003;2.616764511913061E-003;
2.410333333333334E+009;1.838498860597611E-001;2.343917451798916E-002;2.384517574682832E-003;2.693447517231107E-003;
2.410500000000000E+009;1.827202439308167E-001;2.144706621766090E-002;2.353257732465863E-003;2.741380361840129E-003;
2.410666666666667E+009;1.818518042564392E-001;1.912023685872555E-002;2.534247701987624E-003;2.735552843660116E-003;
2.410833333333334E+009;1.813550591468811E-001;1.686561107635498E-002;2.436279319226742E-003;2.665293868631125E-003;
2.411000000000000E+009;1.805074363946915E-001;1.460101176053286E-002;2.471884712576866E-003;2.706825966015458E-003;
2.411166666666667E+009;1.798003464937210E-001;1.249910984188318E-002;2.542391885071993E-003;2.679416211321950E-003;
2.411333333333334E+009;1.792327314615250E-001;1.006176602095366E-002;2.650462789461017E-003;2.711579203605652E-003;
2.411500000000000E+009;1.788180321455002E-001;7.616975344717503E-003;2.779645146802068E-003;2.620389219373465E-003;
2.411666666666667E+009;1.787356883287430E-001;5.081048700958490E-003;2.892091404646635E-003;2.540878718718886E-003;
2.411833333333334E+009;1.783498823642731E-001;2.813626313582063E-003;2.908222377300263E-003;2.561654895544052E-003;
2.412000000000000E+009;1.785434484481812E-001;-1.273515044886153E-005;2.914687618613243E-003;2.511477330699563E-003;
2.412166666666667E+009;1.787628084421158E-001;-2.129030413925648E-003;3.027033293619752E-003;2.389576984569430E-003;
2.412333333333334E+009;1.787782460451126E-001;-4.760681651532650E-003;3.083002753555775E-003;2.463621087372303E-003;
2.412500000000000E+009;1.792979389429092E-001;-7.156415842473507E-003;3.195750992745161E-003;2.397746779024601E-003;
2.412666666666667E+009;1.798534095287323E-001;-9.715686552226543E-003;3.000394441187382E-003;2.441280754283071E-003;
2.412833333333334E+009;1.805057823657990E-001;-1.221271045506001E-002;3.189879236742854E-003;2.320618834346533E-003;
2.413000000000000E+009;1.811742484569550E-001;-1.453839428722858E-002;3.389602759853005E-003;2.446186728775501E-003;
2.413166666666667E+009;1.818411350250244E-001;-1.693300716578960E-002;3.280952805653215E-003;2.315246034413576E-003;
2.413333333333334E+009;1.831053793430328E-001;-1.923263818025589E-002;3.402540925890207E-003;2.273010555654764E-003;
2.413500000000000E+009;1.839548498392105E-001;-2.141170948743820E-002;3.573418129235506E-003;2.300821011886001E-003;
2.413666666666667E+009;1.849980503320694E-001;-2.363412082195282E-002;3.768352093175054E-003;2.284900285303593E-003;
2.413833333333334E+009;1.861886233091354E-001;-2.574650384485722E-002;3.855472896248102E-003;2.239071764051914E-003;
2.414000000000000E+009;1.872532516717911E-001;-2.763654291629791E-002;4.166371654719114E-003;2.175557427108288E-003;
2.414166666666667E+009;1.884173005819321E-001;-2.959359064698219E-002;4.214512649923563E-003;2.060953993350267E-003;
2.414333333333334E+009;1.897412389516830E-001;-3.148258849978447E-002;4.463869612663984E-003;1.898240763694048E-003;
2.414500000000000E+009;1.909357011318207E-001;-3.295402973890305E-002;4.603093024343252E-003;1.817494281567633E-003;
2.414666666666667E+009;1.920344978570938E-001;-3.436100482940674E-002;4.589247982949019E-003;1.761800143867731E-003;
2.414833333333334E+009;1.931664496660233E-001;-3.574155643582344E-002;4.724827595055103E-003;1.435233745723963E-003;
2.415000000000000E+009;1.943292170763016E-001;-3.693748265504837E-002;4.726792685687542E-003;1.163052744232118E-003;
2.415166666666667E+009;1.955803334712982E-001;-3.806541860103607E-002;4.816175904124975E-003;1.016596565023065E-003;
2.415333333333334E+009;1.967691183090210E-001;-3.907298296689987E-002;4.933030344545841E-003;1.053306739777327E-003;
2.415500000000000E+009;1.978478729724884E-001;-3.975849971175194E-002;5.067719146609306E-003;8.475392241962254E-004;
2.415666666666667E+009;1.989365816116333E-001;-4.064114019274712E-002;4.874276928603649E-003;6.832386134192348E-004;
2.415833333333334E+009;1.997947245836258E-001;-4.128136113286018E-002;5.049762316048145E-003;6.621764041483402E-004;
2.416000000000000E+009;2.005102783441544E-001;-4.173978418111801E-002;5.140312016010284E-003;3.969891113229096E-004;
2.416166666666667E+009;2.013193517923355E-001;-4.244939237833023E-002;4.976292140781879E-003;1.825705403462052E-004;
2.416333333333334E+009;2.018816769123077E-001;-4.254619404673576E-002;5.148764234036207E-003;1.855746377259493E-004;
2.416500000000000E+009;2.024225443601608E-001;-4.275143519043922E-002;5.168926902115345E-003;-2.183839824283496E-004;
2.416666666666667E+009;2.026768326759338E-001;-4.310762882232666E-002;5.319329444319010E-003;-1.665230520302430E-004;
2.416833333333334E+009;2.028532326221466E-001;-4.312555491924286E-002;5.274456925690174E-003;-4.554885090328753E-004;
2.417000000000000E+009;2.029131650924683E-001;-4.320821538567543E-002;5.357560236006975E-003;-4.938529455102980E-004;
2.417166666666667E+009;2.026699185371399E-001;-4.308873042464256E-002;5.373898427933455E-003;-7.758068968541920E-004;
2.417333333333334E+009;2.024350464344025E-001;-4.289092123508453E-002;5.465464200824499E-003;-9.687388665042818E-004;
2.417500000000000E+009;2.022606283426285E-001;-4.294665902853012E-002;5.628538783639669E-003;-1.158870407380164E-003;
2.417666666666667E+009;2.016478776931763E-001;-4.263989627361298E-002;5.498114507645369E-003;-1.302969292737544E-003;
2.417833333333334E+009;2.012824267148972E-001;-4.249943792819977E-002;5.494886077940464E-003;-1.524967723526061E-003;
2.418000000000000E+009;2.005890458822250E-001;-4.226018488407135E-002;5.445229355245829E-003;-1.899204566143453E-003;
2.418166666666667E+009;1.997797191143036E-001;-4.212664812803268E-002;5.357210058718920E-003;-1.903868396766484E-003;
2.418333333333334E+009;1.987659931182861E-001;-4.194516316056252E-002;5.417986307293177E-003;-2.289989031851292E-003;
2.418500000000000E+009;1.977691501379013E-001;-4.196987301111221E-002;5.392022896558046E-003;-2.329043112695217E-003;
2.418666666666667E+009;1.968417018651962E-001;-4.182864725589752E-002;5.382102448493242E-003;-2.658917801454663E-003;
2.418833333333334E+009;1.956187486648560E-001;-4.203818365931511E-002;5.150902550667524E-003;-2.820493653416634E-003;
2.419000000000000E+009;1.942823380231857E-001;-4.206794872879982E-002;5.111534614115953E-003;-3.066954202950001E-003;
2.419166666666667E+009;1.930675804615021E-001;-4.259968176484108E-002;5.025849211961031E-003;-3.206578781828284E-003;
2.419333333333334E+009;1.917548030614853E-001;-4.307879880070686E-002;4.843182861804962E-003;-3.392782993614674E-003;
2.419500000000000E+009;1.900290846824646E-001;-4.348040744662285E-002;4.727303050458431E-003;-3.544770414009690E-003;
2.419666666666667E+009;1.884420961141586E-001;-4.426555335521698E-002;4.585137590765953E-003;-3.760744584724307E-003;
2.419833333333334E+009;1.868654936552048E-001;-4.493287205696106E-002;4.462780896574259E-003;-3.808107692748308E-003;
2.420000000000000E+009;1.852665841579437E-001;-4.595641419291496E-002;4.325725603848696E-003;-4.025827627629042E-003;
2.420166666666667E+009;1.836728453636169E-001;-4.681722819805145E-002;4.072632174938917E-003;-4.074836149811745E-003;
2.420333333333334E+009;1.820424199104309E-001;-4.808689653873444E-002;3.973548300564289E-003;-4.257675260305405E-003;
2.420500000000000E+009;1.803859025239945E-001;-4.922943562269211E-002;3.834137925878167E-003;-4.307379014790058E-003;
2.420666666666667E+009;1.787841022014618E-001;-5.058272555470467E-002;3.837421303614974E-003;-4.380600061267614E-003;
2.420833333333334E+009;1.771524548530579E-001;-5.196706950664520E-002;3.735364647582173E-003;-4.479251801967621E-003;
2.421000000000000E+009;1.755357086658478E-001;-5.360373854637146E-002;3.572326153516769E-003;-4.526716191321611E-003;
2.421166666666667E+009;1.743854731321335E-001;-5.518569052219391E-002;3.359817666932941E-003;-4.782760981470347E-003;
2.421333333333334E+009;1.725174635648727E-001;-5.675159767270088E-002;3.362909890711308E-003;-4.716945812106133E-003;
2.421500000000000E+009;1.711401194334030E-001;-5.869221687316895E-002;3.194525837898254E-003;-4.916691686958075E-003;
2.421666666666667E+009;1.698818057775497E-001;-6.063651666045189E-002;2.943791449069977E-003;-5.062841344624758E-003;
2.421833333333334E+009;1.688723862171173E-001;-6.260118633508682E-002;2.996748313307762E-003;-5.262505263090134E-003;
2.422000000000000E+009;1.677664369344711E-001;-6.445023417472839E-002;2.768731676042080E-003;-5.407833959907293E-003;
2.422166666666667E+009;1.667563021183014E-001;-6.664728373289108E-002;2.657562494277954E-003;-5.592482164502144E-003;
2.422333333333334E+009;1.657657623291016E-001;-6.865289807319641E-002;2.345603425055742E-003;-5.648082587867975E-003;
2.422500000000000E+009;1.650594770908356E-001;-7.063659280538559E-002;2.227034652605653E-003;-5.877317395061255E-003;
2.422666666666667E+009;1.644079238176346E-001;-7.268789410591126E-002;1.917476067319512E-003;-5.850787274539471E-003;
2.422833333333334E+009;1.638883650302887E-001;-7.472144067287445E-002;1.626778626814485E-003;-6.019326858222485E-003;
2.423000000000000E+009;1.633678227663040E-001;-7.692082226276398E-002;1.406514667905867E-003;-6.071836221963167E-003;
2.423166666666667E+009;1.630774438381195E-001;-7.872996479272842E-002;1.031071296893060E-003;-6.138886790722609E-003;
2.423333333333334E+009;1.629623770713806E-001;-8.087647706270218E-002;7.820433238521218E-004;-6.077420897781849E-003;
2.423500000000000E+009;1.626696437597275E-001;-8.256528526544571E-002;4.744732286781073E-004;-5.980189889669418E-003;
2.423666666666667E+009;1.628341376781464E-001;-8.464628458023071E-002;1.997367216972634E-004;-5.954424850642681E-003;
2.423833333333334E+009;1.627099215984345E-001;-8.632618188858032E-002;-9.778849926078692E-005;-5.926642566919327E-003;
2.424000000000000E+009;1.627447009086609E-001;-8.819511532783508E-002;-3.343772841617465E-004;-5.796066019684076E-003;
2.424166666666667E+009;1.629645377397537E-001;-8.960313349962235E-002;-7.115377229638398E-004;-5.752690602093935E-003;
2.424333333333334E+009;1.631373465061188E-001;-9.111628681421280E-002;-7.507906993851066E-004;-5.569275934249163E-003;
2.424500000000000E+009;1.634729355573654E-001;-9.307945519685745E-002;-8.879786473698914E-004;-5.558619741350412E-003;
2.424666666666667E+009;1.636540144681931E-001;-9.437212347984314E-002;-1.127655035816133E-003;-5.262316204607487E-003;
2.424833333333334E+009;1.642554700374603E-001;-9.562069177627564E-002;-1.204186002723873E-003;-5.138285923749209E-003;
2.425000000000000E+009;1.646165400743485E-001;-9.681177139282227E-002;-1.288263709284365E-003;-5.105450283735991E-003;
2.425166666666667E+009;1.651506423950195E-001;-9.791790693998337E-002;-1.550131826661527E-003;-4.801453091204166E-003;
2.425333333333334E+009;1.653095632791519E-001;-9.884855896234512E-002;-1.699965447187424E-003;-4.733007866889238E-003;
2.425500000000000E+009;1.658949106931686E-001;-9.977431595325470E-002;-1.710846321657300E-003;-4.555904772132635E-003;
2.425666666666667E+009;1.662239730358124E-001;-1.004697680473328E-001;-1.750854891724885E-003;-4.514257423579693E-003;
2.425833333333334E+009;1.666771918535233E-001;-1.012882813811302E-001;-1.934356405399740E-003;-4.275206010788679E-003;
2.426000000000000E+009;1.670123338699341E-001;-1.017340794205666E-001;-1.983962487429380E-003;-4.364805761724711E-003;
2.426166666666667E+009;1.674384325742722E-001;-1.021706238389015E-001;-2.034323522821069E-003;-4.141937941312790E-003;
2.426333333333334E+009;1.676491349935532E-001;-1.026449650526047E-001;-2.054157201200724E-003;-4.138257820159197E-003;
2.426500000000000E+009;1.679449975490570E-001;-1.030335724353790E-001;-2.238539047539234E-003;-3.912317566573620E-003;
2.426666666666667E+009;1.681839376688004E-001;-1.032272949814796E-001;-2.213540021330118E-003;-3.842788049951196E-003;
2.426833333333334E+009;1.684840917587280E-001;-1.035665348172188E-001;-2.091660862788558E-003;-3.777089528739452E-003;
2.427000000000000E+009;1.683393716812134E-001;-1.036508977413178E-001;-2.259197644889355E-003;-3.742409637197852E-003;
2.427166666666667E+009;1.684592068195343E-001;-1.038462370634079E-001;-2.214390086010099E-003;-3.625219222158194E-003;
2.427333333333334E+009;1.684230715036392E-001;-1.040374934673309E-001;-2.341758226975799E-003;-3.418526612222195E-003;
2.427500000000000E+009;1.681210100650787E-001;-1.041679233312607E-001;-2.319672144949436E-003;-3.617251524701715E-003;
2.427666666666667E+009;1.678029894828796E-001;-1.042275577783585E-001;-2.544439863413572E-003;-3.546735737472773E-003;
2.427833333333334E+009;1.674327552318573E-001;-1.043054014444351E-001;-2.371601294726133E-003;-3.382914699614048E-003;
