# Version 1.00
#
freq[Hz];re:Trc1_S11;im:Trc1_S11;re:Trc2_S21;im:Trc2_S21;
2.400000000000000E+009;1.556650549173355E-001;1.065473034977913E-001;-3.536385484039784E-003;2.068975474685431E-003;
2.400166666666667E+009;1.552518457174301E-001;1.042693257331848E-001;-3.573965514078736E-003;2.039243467152119E-003;
2.400333333333334E+009;1.554011851549149E-001;1.017384454607964E-001;-3.589170053601265E-003;2.325734822079539E-003;
2.400500000000000E+009;1.551725268363953E-001;9.896830469369888E-002;-3.599321236833930E-003;2.364794025197625E-003;
2.400666666666667E+009;1.553207486867905E-001;9.669709950685501E-002;-3.590432461351156E-003;2.548039890825748E-003;
2.400833333333334E+009;1.550715267658234E-001;9.366398304700851E-002;-3.583964426070452E-003;2.586556365713477E-003;
2.401000000000000E+009;1.554652005434036E-001;9.082934260368347E-002;-3.444619476795197E-003;2.828902797773480E-003;
2.401166666666667E+009;1.553338021039963E-001;8.794102817773819E-002;-3.380325855687261E-003;2.858837600797415E-003;
2.401333333333334E+009;1.557779312133789E-001;8.495527505874634E-002;-3.521148813888431E-003;3.004770493134856E-003;
2.401500000000000E+009;1.560600399971008E-001;8.216226845979691E-002;-3.430132055655122E-003;3.187652211636305E-003;
2.401666666666667E+009;1.564074754714966E-001;7.940268516540527E-002;-3.341113450005651E-003;3.482442349195480E-003;
2.401833333333334E+009;1.569922268390656E-001;7.669769227504730E-002;-3.292979905381799E-003;3.610140876844525E-003;
2.402000000000000E+009;1.578088402748108E-001;7.383732497692108E-002;-3.306371392682195E-003;3.676035208627582E-003;
2.402166666666667E+009;1.584898233413696E-001;7.119499891996384E-002;-3.177420236170292E-003;3.954105079174042E-003;
2.402333333333334E+009;1.595614850521088E-001;6.840582937002182E-002;-3.232679562643170E-003;4.174854606389999E-003;
2.402500000000000E+009;1.605737507343292E-001;6.598103791475296E-002;-2.970064524561167E-003;4.157952032983303E-003;
2.402666666666667E+009;1.617489904165268E-001;6.360802799463272E-002;-2.886362140998244E-003;4.469481762498617E-003;
2.402833333333334E+009;1.630221158266068E-001;6.107961758971214E-002;-2.800557762384415E-003;4.676877520978451E-003;
2.403000000000000E+009;1.644436120986939E-001;5.866361781954765E-002;-2.560095861554146E-003;4.911812953650951E-003;
2.403166666666667E+009;1.662070155143738E-001;5.659547075629234E-002;-2.334362361580133E-003;5.127654410898686E-003;
2.403333333333334E+009;1.676816493272781E-001;5.427284911274910E-002;-2.053958829492331E-003;5.280144046992064E-003;
2.403500000000000E+009;1.692097038030624E-001;5.227022990584374E-002;-1.855109818279743E-003;5.457719787955284E-003;
2.403666666666667E+009;1.709342300891876E-001;5.036997050046921E-002;-1.342441653832793E-003;5.492415279150009E-003;
2.403833333333334E+009;1.725468039512634E-001;4.839351773262024E-002;-1.111692283302546E-003;5.491685122251511E-003;
2.404000000000000E+009;1.741379648447037E-001;4.661224409937859E-002;-6.725238636136055E-004;5.660945083945990E-003;
2.404166666666667E+009;1.759647428989410E-001;4.509223625063896E-002;-4.612015036400408E-004;5.414405371993780E-003;
2.404333333333334E+009;1.775790005922318E-001;4.354035109281540E-002;-3.710026794578880E-004;5.455511622130871E-003;
2.404500000000000E+009;1.790943443775177E-001;4.225101321935654E-002;1.626299635972828E-004;5.334633868187666E-003;
2.404666666666667E+009;1.807115525007248E-001;4.110323265194893E-002;3.159825573675335E-004;5.331180524080992E-003;
2.404833333333334E+009;1.824180930852890E-001;4.017383605241776E-002;5.969418562017381E-004;5.212105344980955E-003;
2.405000000000000E+009;1.837059408426285E-001;3.935455158352852E-002;6.729732849635184E-004;4.924975801259279E-003;
2.405166666666667E+009;1.850721687078476E-001;3.878312930464745E-002;1.010832493193448E-003;4.873175639659166E-003;
2.405333333333334E+009;1.866148114204407E-001;3.838610649108887E-002;9.729173034429550E-004;4.673903342336416E-003;
2.405500000000000E+009;1.878592967987061E-001;3.767849132418633E-002;1.049971091561019E-003;4.612323362380266E-003;
2.405666666666667E+009;1.891853064298630E-001;3.743664920330048E-002;1.141930231824517E-003;4.530892241746187E-003;
2.405833333333334E+009;1.902777403593063E-001;3.718285262584686E-002;1.345079857856035E-003;4.413359798491001E-003;
2.406000000000000E+009;1.914254873991013E-001;3.710302338004112E-002;1.433256198652089E-003;4.393777810037136E-003;
2.406166666666667E+009;1.923600286245346E-001;3.687335923314095E-002;1.421602559275925E-003;4.312808159738779E-003;
2.406333333333334E+009;1.933093369007111E-001;3.679572045803070E-002;1.577804330736399E-003;4.080700222402811E-003;
2.406500000000000E+009;1.940120756626129E-001;3.707389160990715E-002;1.707521849311888E-003;4.135015420615673E-003;
2.406666666666667E+009;1.945841163396835E-001;3.703384101390839E-002;1.941380440257490E-003;4.057631827890873E-003;
2.406833333333334E+009;1.951381266117096E-001;3.722625970840454E-002;1.781418686732650E-003;3.828953951597214E-003;
2.407000000000000E+009;1.955152601003647E-001;3.746990114450455E-002;2.024662680923939E-003;3.822010010480881E-003;
2.407166666666667E+009;1.958539187908173E-001;3.735131397843361E-002;1.974933315068483E-003;3.876212518662214E-003;
2.407333333333334E+009;1.956820338964462E-001;3.757766634225845E-002;2.449626568704844E-003;3.587825922295451E-003;
2.407500000000000E+009;1.957047879695892E-001;3.764963895082474E-002;2.236353931948543E-003;3.533278591930866E-003;
2.407666666666667E+009;1.957894563674927E-001;3.755100443959236E-002;2.272594021633267E-003;3.469884395599365E-003;
2.407833333333334E+009;1.952912509441376E-001;3.756492212414742E-002;2.408202271908522E-003;3.367246361449361E-003;
2.408000000000000E+009;1.952046304941177E-001;3.744202852249146E-002;2.530992263928056E-003;3.276272909715772E-003;
2.408166666666667E+009;1.946684867143631E-001;3.722215071320534E-002;2.440197626128793E-003;3.017897251993418E-003;
2.408333333333334E+009;1.941671073436737E-001;3.680321201682091E-002;2.439390867948532E-003;3.094924846664071E-003;
2.408500000000000E+009;1.935279071331024E-001;3.654842823743820E-002;2.491479506716132E-003;2.973453374579549E-003;
2.408666666666667E+009;1.928168088197708E-001;3.597639873623848E-002;2.388700610026717E-003;2.763167489320040E-003;
2.408833333333334E+009;1.921600401401520E-001;3.525874763727188E-002;2.530445577576757E-003;2.635715994983912E-003;
2.409000000000000E+009;1.912730187177658E-001;3.440713882446289E-002;2.357110148295760E-003;2.492979634553194E-003;
2.409166666666667E+009;1.902367770671845E-001;3.349230438470841E-002;2.384819323197007E-003;2.486209850758314E-003;
2.409333333333334E+009;1.893620342016220E-001;3.253961354494095E-002;2.358766272664070E-003;2.359770005568862E-003;
2.409500000000000E+009;1.882755607366562E-001;3.120969980955124E-002;2.232684521004558E-003;2.396746305748820E-003;
2.409666666666667E+009;1.871295273303986E-001;2.977825142443180E-002;2.217314904555678E-003;2.379072364419699E-003;
2.409833333333334E+009;1.860382556915283E-001;2.839658409357071E-002;2.165843732655048E-003;2.448836807161570E-003;
2.410000000000000E+009;1.852161884307861E-001;2.666469104588032E-002;2.184368437156081E-003;2.584346337243915E-003;
2.410166666666667E+009;1.841727346181870E-001;2.478609234094620E-002;2.178397960960865E-003;2.501633483916521E-003;
2.410333333333334E+009;1.830718070268631E-001;2.299557998776436E-002;2.227015560492873E-003;2.599423518404365E-003;
2.410500000000000E+009;1.822818219661713E-001;2.123204991221428E-002;2.370099304243922E-003;2.473062137141824E-003;
2.410666666666667E+009;1.812595427036285E-001;1.891554147005081E-002;2.304599853232503E-003;2.643924672156572E-003;
2.410833333333334E+009;1.807815283536911E-001;1.675176993012428E-002;2.375263022258878E-003;2.713427878916264E-003;
2.411000000000000E+009;1.799251437187195E-001;1.446296926587820E-002;2.376743592321873E-003;2.567033749073744E-003;
2.411166666666667E+009;1.792380511760712E-001;1.243050675839186E-002;2.569115255028009E-003;2.610328374430537E-003;
2.411333333333334E+009;1.786922365427017E-001;9.914721362292767E-003;2.750118728727102E-003;2.535470062866807E-003;
2.411500000000000E+009;1.782176643610001E-001;7.365863304585218E-003;2.618001541122794E-003;2.549406606703997E-003;
2.411666666666667E+009;1.781127154827118E-001;4.991806577891111E-003;2.650529611855745E-003;2.378376200795174E-003;
2.411833333333334E+009;1.779402345418930E-001;2.810105681419373E-003;2.732899272814393E-003;2.313976874575019E-003;
2.412000000000000E+009;1.781319081783295E-001;2.059553371509537E-004;2.847465686500073E-003;2.298638690263033E-003;
2.412166666666667E+009;1.780232638120651E-001;-2.099368022754788E-003;3.040781943127513E-003;2.344024367630482E-003;
2.412333333333334E+009;1.782039254903793E-001;-4.756506532430649E-003;2.965906867757440E-003;2.274536062031984E-003;
2.412500000000000E+009;1.786394715309143E-001;-7.308066822588444E-003;2.953634131699801E-003;2.139893360435963E-003;
2.412666666666667E+009;1.793236136436462E-001;-9.757608175277710E-003;3.037137212231755E-003;2.281230641528964E-003;
2.412833333333334E+009;1.799865216016769E-001;-1.224401872605085E-002;2.986481413245201E-003;2.284946385771036E-003;
2.413000000000000E+009;1.807505339384079E-001;-1.441241987049580E-002;3.115447703748941E-003;2.198864240199328E-003;
2.413166666666667E+009;1.814122200012207E-001;-1.668179035186768E-002;3.265785984694958E-003;2.132247900590301E-003;
2.413333333333334E+009;1.826525628566742E-001;-1.915414258837700E-002;3.329415805637837E-003;2.122268546372652E-003;
2.413500000000000E+009;1.834507435560226E-001;-2.145188115537167E-002;3.449975512921810E-003;2.259671688079834E-003;
2.413666666666667E+009;1.845895648002625E-001;-2.361616306006908E-002;3.616277826949954E-003;2.208657562732697E-003;
2.413833333333334E+009;1.857621818780899E-001;-2.565137483179569E-002;3.727561794221401E-003;2.144544385373592E-003;
2.414000000000000E+009;1.867494583129883E-001;-2.760203368961811E-002;3.849147586151958E-003;2.139602787792683E-003;
2.414166666666667E+009;1.879964917898178E-001;-2.953349798917770E-002;4.077779129147530E-003;2.061279723420739E-003;
2.414333333333334E+009;1.891693621873856E-001;-3.138099983334541E-002;3.949034027755261E-003;2.041330095380545E-003;
2.414500000000000E+009;1.905319392681122E-001;-3.294054046273232E-002;4.194283392280340E-003;1.810891088098288E-003;
2.414666666666667E+009;1.916449517011643E-001;-3.429353237152100E-002;4.416158422827721E-003;1.620815601199865E-003;
2.414833333333334E+009;1.928774565458298E-001;-3.568765893578529E-002;4.416843410581350E-003;1.344104763120413E-003;
2.415000000000000E+009;1.938815265893936E-001;-3.697025775909424E-002;4.506931174546480E-003;1.287832623347640E-003;
2.415166666666667E+009;1.950777471065521E-001;-3.813620656728745E-002;4.609129391610622E-003;1.086845295503736E-003;
2.415333333333334E+009;1.964325904846191E-001;-3.894469514489174E-002;4.748906474560499E-003;9.711197926662862E-004;
2.415500000000000E+009;1.974740475416184E-001;-3.950385004281998E-002;4.689387511461973E-003;9.266577544622123E-004;
2.415666666666667E+009;1.984373033046722E-001;-4.053049162030220E-002;4.789203405380249E-003;7.742114830762148E-004;
2.415833333333334E+009;1.992959529161453E-001;-4.101160168647766E-002;4.897787701338530E-003;6.863955641165376E-004;
2.416000000000000E+009;1.999435871839523E-001;-4.151544719934464E-002;4.862514790147543E-003;5.306646344251931E-004;
2.416166666666667E+009;2.008878290653229E-001;-4.207984358072281E-002;4.984491504728794E-003;4.113254253752530E-004;
2.416333333333334E+009;2.014299631118774E-001;-4.244304448366165E-002;5.102153867483139E-003;2.509517653379589E-004;
2.416500000000000E+009;2.020246088504791E-001;-4.263280332088471E-002;5.065848119556904E-003;1.406978408340365E-004;
2.416666666666667E+009;2.021082043647766E-001;-4.289752244949341E-002;5.148009397089481E-003;-2.742460196714092E-007;
2.416833333333334E+009;2.023640722036362E-001;-4.285450279712677E-002;5.392568185925484E-003;-2.513813960831612E-004;
2.417000000000000E+009;2.025311440229416E-001;-4.306012764573097E-002;5.303035955876112E-003;-3.492112737149000E-004;
2.417166666666667E+009;2.022539526224136E-001;-4.280069097876549E-002;5.441007204353809E-003;-6.325683789327741E-004;
2.417333333333334E+009;2.019996196031570E-001;-4.266838729381561E-002;5.411911290138960E-003;-6.880617002025247E-004;
2.417500000000000E+009;2.018004953861237E-001;-4.260601848363876E-002;5.436605773866177E-003;-9.047882631421089E-004;
2.417666666666667E+009;2.012113928794861E-001;-4.244258254766464E-002;5.578009877353907E-003;-1.068623969331384E-003;
2.417833333333334E+009;2.008137106895447E-001;-4.214166849851608E-002;5.436045117676258E-003;-1.472168019972742E-003;
2.418000000000000E+009;2.002769112586975E-001;-4.177638888359070E-002;5.456916987895966E-003;-1.589127932675183E-003;
2.418166666666667E+009;1.993382573127747E-001;-4.171743988990784E-002;5.419326480478048E-003;-1.749936956912279E-003;
2.418333333333334E+009;1.986293494701386E-001;-4.150567576289177E-002;5.601243115961552E-003;-1.996974227949977E-003;
2.418500000000000E+009;1.974443048238754E-001;-4.160820692777634E-002;5.428072065114975E-003;-2.219276735559106E-003;
2.418666666666667E+009;1.966558694839478E-001;-4.139560833573341E-002;5.238019861280918E-003;-2.436441369354725E-003;
2.418833333333334E+009;1.952351778745651E-001;-4.162982106208801E-002;5.178032442927361E-003;-2.665092702955008E-003;
2.419000000000000E+009;1.940721571445465E-001;-4.183571785688400E-002;5.101016722619534E-003;-2.810585545375943E-003;
2.419166666666667E+009;1.927212774753571E-001;-4.206590354442596E-002;5.119672976434231E-003;-3.093578154221177E-003;
2.419333333333334E+009;1.913208961486816E-001;-4.253897070884705E-002;5.021002609282732E-003;-3.375485539436340E-003;
2.419500000000000E+009;1.898041069507599E-001;-4.298428073525429E-002;4.855600185692310E-003;-3.534505842253566E-003;
2.419666666666667E+009;1.882620751857758E-001;-4.375548660755158E-002;4.669940099120140E-003;-3.718466265127063E-003;
2.419833333333334E+009;1.865986287593842E-001;-4.443002492189407E-002;4.598669242113829E-003;-3.673982108011842E-003;
2.420000000000000E+009;1.850540339946747E-001;-4.538435116410255E-002;4.440584219992161E-003;-4.018795676529408E-003;
2.420166666666667E+009;1.835077852010727E-001;-4.637533053755760E-002;4.287434276193380E-003;-3.904063720256090E-003;
2.420333333333334E+009;1.818965077400208E-001;-4.757241904735565E-002;4.050358198583126E-003;-4.240211099386215E-003;
2.420500000000000E+009;1.800521761178970E-001;-4.880642518401146E-002;4.122319631278515E-003;-4.240414593368769E-003;
2.420666666666667E+009;1.785236299037933E-001;-5.000329762697220E-002;3.866834798827767E-003;-4.272026009857655E-003;
2.420833333333334E+009;1.769819855690002E-001;-5.154743790626526E-002;3.695925232023001E-003;-4.526047967374325E-003;
2.421000000000000E+009;1.754322946071625E-001;-5.307243764400482E-002;3.620075993239880E-003;-4.642026964575052E-003;
2.421166666666667E+009;1.740531772375107E-001;-5.478725209832192E-002;3.477532183751464E-003;-4.631818737834692E-003;
2.421333333333334E+009;1.723946630954742E-001;-5.625291541218758E-002;3.429709933698177E-003;-4.747382830828428E-003;
2.421500000000000E+009;1.710484772920609E-001;-5.827337503433228E-002;3.291870234534144E-003;-4.921442829072475E-003;
2.421666666666667E+009;1.696858257055283E-001;-5.995517596602440E-002;3.119942964985967E-003;-5.059829447418451E-003;
2.421833333333334E+009;1.686818301677704E-001;-6.202193722128868E-002;2.975661773234606E-003;-5.182492081075907E-003;
2.422000000000000E+009;1.676967889070511E-001;-6.388854980468750E-002;2.874730853363872E-003;-5.399947520345449E-003;
2.422166666666667E+009;1.667560786008835E-001;-6.597950309514999E-002;2.598810242488980E-003;-5.447871983051300E-003;
2.422333333333334E+009;1.658347696065903E-001;-6.809268891811371E-002;2.379216253757477E-003;-5.763511173427105E-003;
2.422500000000000E+009;1.649906188249588E-001;-6.998741626739502E-002;2.319977153092623E-003;-5.736491642892361E-003;
2.422666666666667E+009;1.643142253160477E-001;-7.204242050647736E-002;1.995276426896453E-003;-5.789799615740776E-003;
2.422833333333334E+009;1.640297025442123E-001;-7.410788536071777E-002;1.647390192374587E-003;-5.983422975987196E-003;
2.423000000000000E+009;1.632865816354752E-001;-7.621104270219803E-002;1.393950427882373E-003;-5.932071246206760E-003;
2.423166666666667E+009;1.630299687385559E-001;-7.823210209608078E-002;9.982092306017876E-004;-6.054789759218693E-003;
2.423333333333334E+009;1.628235131502152E-001;-8.036610484123230E-002;7.948852144181728E-004;-6.059027276933193E-003;
2.423500000000000E+009;1.626701653003693E-001;-8.206862211227417E-002;4.756055423058569E-004;-6.061009131371975E-003;
2.423666666666667E+009;1.628803163766861E-001;-8.405615389347076E-002;8.219769370043650E-005;-5.946800112724304E-003;
2.423833333333334E+009;1.628173887729645E-001;-8.587563037872315E-002;-1.730723488435615E-005;-5.959636997431517E-003;
2.424000000000000E+009;1.629539579153061E-001;-8.763092011213303E-002;-3.465708286967129E-004;-5.808202549815178E-003;
2.424166666666667E+009;1.630032658576965E-001;-8.907466381788254E-002;-4.118124488741159E-004;-5.753590259701014E-003;
2.424333333333334E+009;1.633887588977814E-001;-9.070543944835663E-002;-6.948607042431831E-004;-5.474565085023642E-003;
2.424500000000000E+009;1.637219339609146E-001;-9.257210046052933E-002;-7.920119678601623E-004;-5.289856810122728E-003;
2.424666666666667E+009;1.638660281896591E-001;-9.389752149581909E-002;-1.127270632423461E-003;-5.414280109107494E-003;
2.424833333333334E+009;1.645939946174622E-001;-9.515198320150375E-002;-1.254301867447794E-003;-5.162996239960194E-003;
2.425000000000000E+009;1.650706529617310E-001;-9.626125544309616E-002;-1.220285776071250E-003;-4.943633452057838E-003;
2.425166666666667E+009;1.653918027877808E-001;-9.758932143449783E-002;-1.463025226257742E-003;-4.899401217699051E-003;
2.425333333333334E+009;1.657431125640869E-001;-9.845636039972305E-002;-1.565281767398119E-003;-4.851158708333969E-003;
2.425500000000000E+009;1.661465466022492E-001;-9.949448704719544E-002;-1.726633054204285E-003;-4.668279550969601E-003;
2.425666666666667E+009;1.668016612529755E-001;-1.001195758581162E-001;-1.736040925607085E-003;-4.638098180294037E-003;
2.425833333333334E+009;1.669912189245224E-001;-1.008785143494606E-001;-1.709254807792604E-003;-4.296682775020599E-003;
2.426000000000000E+009;1.673631519079208E-001;-1.014078408479691E-001;-1.865423517301679E-003;-4.298816435039043E-003;
2.426166666666667E+009;1.678730696439743E-001;-1.019426882266998E-001;-1.936182379722595E-003;-4.217196255922318E-003;
2.426333333333334E+009;1.679940372705460E-001;-1.024066656827927E-001;-1.867410726845264E-003;-4.233900457620621E-003;
2.426500000000000E+009;1.684713065624237E-001;-1.027603074908257E-001;-1.984173664823175E-003;-4.091236740350723E-003;
2.426666666666667E+009;1.687107831239700E-001;-1.029863432049751E-001;-1.910420367494226E-003;-3.964464645832777E-003;
2.426833333333334E+009;1.689981371164322E-001;-1.032490581274033E-001;-2.178765134885907E-003;-3.908722195774317E-003;
2.427000000000000E+009;1.688442230224609E-001;-1.034755036234856E-001;-2.238804707303643E-003;-3.876904491335154E-003;
2.427166666666667E+009;1.689952611923218E-001;-1.036023795604706E-001;-2.267095027491450E-003;-3.730347612872720E-003;
2.427333333333334E+009;1.687627583742142E-001;-1.038306355476379E-001;-2.334495540708304E-003;-3.655276726931334E-003;
2.427500000000000E+009;1.685979217290878E-001;-1.040049418807030E-001;-2.339177764952183E-003;-3.533885348588228E-003;
2.427666666666667E+009;1.683314740657806E-001;-1.041470617055893E-001;-2.321802079677582E-003;-3.500025952234864E-003;
2.427833333333334E+009;1.679404228925705E-001;-1.040838882327080E-001;-2.385438885539770E-003;-3.547906177118421E-003;
