# Version 1.00
#
freq[Hz];re:Trc1_S11;im:Trc1_S11;re:Trc2_S21;im:Trc2_S21;
2.400000000000000E+009;1.548137068748474E-001;1.064798012375832E-001;-3.493318799883127E-003;1.890010782517493E-003;
2.400166666666667E+009;1.545096635818481E-001;1.040267571806908E-001;-3.525259904563427E-003;2.008210169151425E-003;
2.400333333333334E+009;1.545218080282211E-001;1.016478538513184E-001;-3.517459845170379E-003;2.327616792172194E-003;
2.400500000000000E+009;1.544757485389710E-001;9.879996627569199E-002;-3.484675893560052E-003;2.324015600606799E-003;
2.400666666666667E+009;1.545682698488236E-001;9.640061110258102E-002;-3.565390827134252E-003;2.421990036964417E-003;
2.400833333333334E+009;1.543472111225128E-001;9.362497180700302E-002;-3.615680150687695E-003;2.506878692656755E-003;
2.401000000000000E+009;1.547433733940125E-001;9.078887104988098E-002;-3.513100789859891E-003;2.720639109611511E-003;
2.401166666666667E+009;1.546833217144013E-001;8.791981637477875E-002;-3.469676943495870E-003;2.849874086678028E-003;
2.401333333333334E+009;1.550520956516266E-001;8.501729369163513E-002;-3.442531451582909E-003;2.890740754082799E-003;
2.401500000000000E+009;1.555904000997543E-001;8.237709850072861E-002;-3.477915888652206E-003;3.089732723310590E-003;
2.401666666666667E+009;1.557197272777557E-001;7.938435673713684E-002;-3.301238408312202E-003;3.192607779055834E-003;
2.401833333333334E+009;1.562709659337997E-001;7.675310224294663E-002;-3.269077278673649E-003;3.439929801970720E-003;
2.402000000000000E+009;1.570593118667603E-001;7.396662235260010E-002;-3.136286046355963E-003;3.500242019072175E-003;
2.402166666666667E+009;1.579114645719528E-001;7.141809165477753E-002;-2.984947990626097E-003;3.780527738854289E-003;
2.402333333333334E+009;1.588460057973862E-001;6.867849826812744E-002;-3.036569338291884E-003;3.769499715417624E-003;
2.402500000000000E+009;1.598963439464569E-001;6.625302881002426E-002;-2.872111741453409E-003;4.140967968851328E-003;
2.402666666666667E+009;1.611389517784119E-001;6.382911652326584E-002;-2.937251469120383E-003;4.296634811908007E-003;
2.402833333333334E+009;1.625086665153503E-001;6.133235991001129E-002;-2.790835686028004E-003;4.584697075188160E-003;
2.403000000000000E+009;1.638646423816681E-001;5.904313549399376E-002;-2.571042161434889E-003;4.557036794722080E-003;
2.403166666666667E+009;1.655674129724503E-001;5.694320797920227E-002;-2.305129310116172E-003;4.919569473713636E-003;
2.403333333333334E+009;1.669685989618301E-001;5.487561598420143E-002;-2.242912072688341E-003;5.081337876617909E-003;
2.403500000000000E+009;1.687030196189880E-001;5.263494700193405E-002;-1.933453138917685E-003;5.216505844146013E-003;
2.403666666666667E+009;1.704551279544830E-001;5.073520168662071E-002;-1.550856861285865E-003;5.149944219738245E-003;
2.403833333333334E+009;1.721203774213791E-001;4.896943643689156E-002;-1.287071965634823E-003;5.309301428496838E-003;
2.404000000000000E+009;1.738436222076416E-001;4.714611545205116E-002;-1.075341249816120E-003;5.303913261741400E-003;
2.404166666666667E+009;1.754537522792816E-001;4.567969590425491E-002;-5.999177810736001E-004;5.156419705599546E-003;
2.404333333333334E+009;1.772335767745972E-001;4.430200904607773E-002;-4.255268431734294E-004;5.255617201328278E-003;
2.404500000000000E+009;1.787768751382828E-001;4.283945634961128E-002;-2.693801943678409E-004;5.227231420576572E-003;
2.404666666666667E+009;1.803596764802933E-001;4.182255640625954E-002;2.260052315250505E-005;5.115350242704153E-003;
2.404833333333334E+009;1.821123361587524E-001;4.081707820296288E-002;2.586702175904065E-004;5.131808109581471E-003;
2.405000000000000E+009;1.834289878606796E-001;4.016501083970070E-002;4.796655557584018E-004;4.876798950135708E-003;
2.405166666666667E+009;1.849374622106552E-001;3.947099298238754E-002;6.529465899802744E-004;4.853213205933571E-003;
2.405333333333334E+009;1.863095164299011E-001;3.892039135098457E-002;7.062674267217517E-004;4.744176287204027E-003;
2.405500000000000E+009;1.877740025520325E-001;3.858209773898125E-002;7.792013348080218E-004;4.617007449269295E-003;
2.405666666666667E+009;1.890247315168381E-001;3.804597631096840E-002;8.255146676674485E-004;4.540862981230021E-003;
2.405833333333334E+009;1.901901960372925E-001;3.794834390282631E-002;9.652544395066798E-004;4.465019330382347E-003;
2.406000000000000E+009;1.911521255970001E-001;3.772364929318428E-002;1.023524207994342E-003;4.515325650572777E-003;
2.406166666666667E+009;1.922939866781235E-001;3.771030530333519E-002;1.089889323338866E-003;4.359553102403879E-003;
2.406333333333334E+009;1.930784285068512E-001;3.779622912406921E-002;1.377149485051632E-003;4.248100332915783E-003;
2.406500000000000E+009;1.940043419599533E-001;3.781837224960327E-002;1.484641223214567E-003;4.245294723659754E-003;
2.406666666666667E+009;1.946684420108795E-001;3.788021579384804E-002;1.539159333333373E-003;4.307910334318876E-003;
2.406833333333334E+009;1.952755451202393E-001;3.789610788226128E-002;1.611873856745660E-003;4.140795208513737E-003;
2.407000000000000E+009;1.954444646835327E-001;3.819637745618820E-002;1.700985361821950E-003;4.065603949129582E-003;
2.407166666666667E+009;1.959895193576813E-001;3.802017867565155E-002;1.779424725100398E-003;3.974946215748787E-003;
2.407333333333334E+009;1.958784461021423E-001;3.832446783781052E-002;1.992567675188184E-003;3.917022142559290E-003;
2.407500000000000E+009;1.958330571651459E-001;3.839934989809990E-002;1.876962371170521E-003;3.678573761135340E-003;
2.407666666666667E+009;1.958113163709641E-001;3.842899948358536E-002;2.228671917691827E-003;3.663833485916257E-003;
2.407833333333334E+009;1.954871118068695E-001;3.828152641654015E-002;2.172488253563643E-003;3.540276316925883E-003;
2.408000000000000E+009;1.953861564397812E-001;3.822225332260132E-002;2.270206809043884E-003;3.425249829888344E-003;
2.408166666666667E+009;1.948384642601013E-001;3.798577934503555E-002;2.320195082575083E-003;3.346971934661269E-003;
2.408333333333334E+009;1.944322586059570E-001;3.746455535292625E-002;2.429794752970338E-003;3.202999709174037E-003;
2.408500000000000E+009;1.936577707529068E-001;3.712889552116394E-002;2.242257818579674E-003;3.080899827182293E-003;
2.408666666666667E+009;1.931101232767105E-001;3.658190742135048E-002;2.500433009117842E-003;3.003974212333560E-003;
2.408833333333334E+009;1.924721896648407E-001;3.587561100721359E-002;2.268390031531453E-003;2.849353011697531E-003;
2.409000000000000E+009;1.914738565683365E-001;3.508890792727470E-002;2.573064994066954E-003;2.900666557252407E-003;
2.409166666666667E+009;1.906693875789642E-001;3.408687561750412E-002;2.304575638845563E-003;2.781261457130313E-003;
2.409333333333334E+009;1.897756755352020E-001;3.296292200684547E-002;2.299563726410270E-003;2.789838705211878E-003;
2.409500000000000E+009;1.885414421558380E-001;3.169882670044899E-002;2.252866979688406E-003;2.673263661563397E-003;
2.409666666666667E+009;1.877599954605103E-001;3.025088086724281E-002;2.166869817301631E-003;2.600524574518204E-003;
2.409833333333334E+009;1.866822242736816E-001;2.878949046134949E-002;2.204936463385820E-003;2.573627745732665E-003;
2.410000000000000E+009;1.856289207935333E-001;2.708780206739903E-002;2.348428359255195E-003;2.678991528227925E-003;
2.410166666666667E+009;1.848142445087433E-001;2.533061988651753E-002;2.237298758700490E-003;2.754600020125508E-003;
2.410333333333334E+009;1.837511211633682E-001;2.334470674395561E-002;2.372836461290717E-003;2.770941006019712E-003;
2.410500000000000E+009;1.827941387891769E-001;2.144564129412174E-002;2.287758281454444E-003;2.880641026422381E-003;
2.410666666666667E+009;1.818222105503082E-001;1.904965192079544E-002;2.320059575140476E-003;2.741588279604912E-003;
2.410833333333334E+009;1.811400055885315E-001;1.698767580091953E-002;2.456533722579479E-003;2.629832364618778E-003;
2.411000000000000E+009;1.804135143756867E-001;1.472375914454460E-002;2.511680591851473E-003;2.708570333197713E-003;
2.411166666666667E+009;1.796423196792603E-001;1.243239920586348E-002;2.628103364259005E-003;2.686307765543461E-003;
2.411333333333334E+009;1.791868060827255E-001;9.926001541316509E-003;2.663780935108662E-003;2.684502862393856E-003;
2.411500000000000E+009;1.786722093820572E-001;7.562216836959124E-003;2.773847663775086E-003;2.654354786500335E-003;
2.411666666666667E+009;1.784818768501282E-001;5.265138112008572E-003;2.997418399900198E-003;2.700925804674625E-003;
2.411833333333334E+009;1.782679408788681E-001;2.736375434324145E-003;2.863760571926832E-003;2.622492611408234E-003;
2.412000000000000E+009;1.784109622240067E-001;-7.886094681452960E-005;2.901101252064109E-003;2.541493391618133E-003;
2.412166666666667E+009;1.785309314727783E-001;-1.973819453269243E-003;3.060075920075178E-003;2.478577895089984E-003;
2.412333333333334E+009;1.786627620458603E-001;-4.751883447170258E-003;3.040273208171129E-003;2.420079428702593E-003;
2.412500000000000E+009;1.791292876005173E-001;-7.074294146150351E-003;3.091700607910752E-003;2.446582540869713E-003;
2.412666666666667E+009;1.795510351657867E-001;-9.752179495990276E-003;3.100304398685694E-003;2.251193858683109E-003;
2.412833333333334E+009;1.803808510303497E-001;-1.214495673775673E-002;3.223425010219216E-003;2.315788064152002E-003;
2.413000000000000E+009;1.811347752809525E-001;-1.451654266566038E-002;3.177255624905229E-003;2.465030876919627E-003;
2.413166666666667E+009;1.820156723260880E-001;-1.664738729596138E-002;3.420142224058509E-003;2.499743830412626E-003;
2.413333333333334E+009;1.829269081354141E-001;-1.915282197296619E-002;3.417050698772073E-003;2.439078642055392E-003;
2.413500000000000E+009;1.838329583406448E-001;-2.137135714292526E-002;3.626530291512609E-003;2.353597898036242E-003;
2.413666666666667E+009;1.851728409528732E-001;-2.357633039355278E-002;3.734614001587033E-003;2.306642010807991E-003;
2.413833333333334E+009;1.860006600618362E-001;-2.558176033198834E-002;3.846012055873871E-003;2.386836567893624E-003;
2.414000000000000E+009;1.872148513793945E-001;-2.764092199504376E-002;4.091041162610054E-003;2.280833432450891E-003;
2.414166666666667E+009;1.884395480155945E-001;-2.942919358611107E-002;4.234970081597567E-003;1.952936989255250E-003;
2.414333333333334E+009;1.895944178104401E-001;-3.139406442642212E-002;4.395590163767338E-003;1.922601484693587E-003;
2.414500000000000E+009;1.908650547266007E-001;-3.282894194126129E-002;4.368999507278204E-003;1.784857129678130E-003;
2.414666666666667E+009;1.919440031051636E-001;-3.424986824393272E-002;4.660790786147118E-003;1.653330982662737E-003;
2.414833333333334E+009;1.932000070810318E-001;-3.556576371192932E-002;4.613935481756926E-003;1.445551752112806E-003;
2.415000000000000E+009;1.943084448575974E-001;-3.694551438093185E-002;4.740214440971613E-003;1.355016021989286E-003;
2.415166666666667E+009;1.955950707197189E-001;-3.806127980351448E-002;4.798166919499636E-003;9.983964264392853E-004;
2.415333333333334E+009;1.968151926994324E-001;-3.899480774998665E-002;4.931570962071419E-003;1.019374467432499E-003;
2.415500000000000E+009;1.978668123483658E-001;-3.975937515497208E-002;4.989943932741880E-003;8.394855540245771E-004;
2.415666666666667E+009;1.988645195960999E-001;-4.053989425301552E-002;4.984071478247643E-003;6.428744527511299E-004;
2.415833333333334E+009;1.997614055871964E-001;-4.117001220583916E-002;5.013777408748865E-003;5.526498425751925E-004;
2.416000000000000E+009;2.005876004695892E-001;-4.161358997225761E-002;5.076594650745392E-003;3.517700533848256E-004;
2.416166666666667E+009;2.011599391698837E-001;-4.226311296224594E-002;4.990607034415007E-003;3.028907813131809E-004;
2.416333333333334E+009;2.018418908119202E-001;-4.249956458806992E-002;5.116147920489311E-003;2.618437574710697E-004;
2.416500000000000E+009;2.023790925741196E-001;-4.261915758252144E-002;5.270867608487606E-003;4.024208828923293E-005;
2.416666666666667E+009;2.026681005954742E-001;-4.308894649147987E-002;5.362655967473984E-003;-9.207710536429659E-005;
2.416833333333334E+009;2.028308063745499E-001;-4.297174513339996E-002;5.360114388167858E-003;-3.698378859553486E-004;
2.417000000000000E+009;2.030166089534760E-001;-4.313329979777336E-002;5.468581337481737E-003;-6.479017902165651E-004;
2.417166666666667E+009;2.026362568140030E-001;-4.301703721284866E-002;5.534875206649303E-003;-5.857711657881737E-004;
2.417333333333334E+009;2.025560438632965E-001;-4.277615621685982E-002;5.494244396686554E-003;-9.130425751209259E-004;
2.417500000000000E+009;2.021432518959045E-001;-4.277807101607323E-002;5.440630950033665E-003;-1.061611343175173E-003;
2.417666666666667E+009;2.016644030809403E-001;-4.254031926393509E-002;5.539472214877605E-003;-1.168878632597625E-003;
2.417833333333334E+009;2.011955380439758E-001;-4.239721968770027E-002;5.477556958794594E-003;-1.594096771441400E-003;
2.418000000000000E+009;2.006101906299591E-001;-4.203362390398979E-002;5.530193913727999E-003;-1.810219604521990E-003;
2.418166666666667E+009;1.998000890016556E-001;-4.207676276564598E-002;5.359196569770575E-003;-1.936964225023985E-003;
2.418333333333334E+009;1.989283710718155E-001;-4.178536683320999E-002;5.358260124921799E-003;-2.122499980032444E-003;
2.418500000000000E+009;1.978585124015808E-001;-4.196695983409882E-002;5.309395957738161E-003;-2.236895030364394E-003;
2.418666666666667E+009;1.968743652105331E-001;-4.179328307509422E-002;5.330916028469801E-003;-2.517582615837455E-003;
2.418833333333334E+009;1.957203894853592E-001;-4.193098843097687E-002;5.184751003980637E-003;-2.819064073264599E-003;
2.419000000000000E+009;1.944252848625183E-001;-4.202476143836975E-002;5.190247669816017E-003;-2.970668021589518E-003;
2.419166666666667E+009;1.931206434965134E-001;-4.243789240717888E-002;4.975487012416124E-003;-3.115112427622080E-003;
2.419333333333334E+009;1.915683001279831E-001;-4.297717660665512E-002;4.962260834872723E-003;-3.386610653251410E-003;
2.419500000000000E+009;1.900625526905060E-001;-4.328930005431175E-002;4.764723591506481E-003;-3.551493166014552E-003;
2.419666666666667E+009;1.885276585817337E-001;-4.417721182107925E-002;4.644799977540970E-003;-3.545148298144341E-003;
2.419833333333334E+009;1.869146376848221E-001;-4.486708343029022E-002;4.582234658300877E-003;-3.781919367611408E-003;
2.420000000000000E+009;1.855603307485580E-001;-4.567521065473557E-002;4.422288853675127E-003;-4.048360511660576E-003;
2.420166666666667E+009;1.837088912725449E-001;-4.667403176426888E-002;4.142941907048225E-003;-4.095856100320816E-003;
2.420333333333334E+009;1.820600330829620E-001;-4.804209247231484E-002;4.081919789314270E-003;-4.169443622231484E-003;
2.420500000000000E+009;1.805083006620407E-001;-4.925012588500977E-002;3.932101186364889E-003;-4.318513441830874E-003;
2.420666666666667E+009;1.787764281034470E-001;-5.038988962769508E-002;3.929347731173039E-003;-4.451946355402470E-003;
2.420833333333334E+009;1.771394908428192E-001;-5.200571939349175E-002;3.561482531949878E-003;-4.485433455556631E-003;
2.421000000000000E+009;1.757432669401169E-001;-5.349080637097359E-002;3.598968498408794E-003;-4.609051626175642E-003;
2.421166666666667E+009;1.743021309375763E-001;-5.516580119729042E-002;3.372637555003166E-003;-4.755709320306778E-003;
2.421333333333334E+009;1.727206408977509E-001;-5.672086775302887E-002;3.380398266017437E-003;-4.688985645771027E-003;
2.421500000000000E+009;1.713399291038513E-001;-5.881808698177338E-002;3.236840944737196E-003;-4.982202779501677E-003;
2.421666666666667E+009;1.698453277349472E-001;-6.054794415831566E-002;3.059311769902706E-003;-5.123047158122063E-003;
2.421833333333334E+009;1.688753068447113E-001;-6.240858882665634E-002;2.993135480210185E-003;-5.124259274452925E-003;
2.422000000000000E+009;1.678370386362076E-001;-6.433658301830292E-002;2.763151191174984E-003;-5.319508723914623E-003;
2.422166666666667E+009;1.669670492410660E-001;-6.654732674360275E-002;2.547761192545295E-003;-5.687162280082703E-003;
2.422333333333334E+009;1.658974736928940E-001;-6.846817582845688E-002;2.472335472702980E-003;-5.522022023797035E-003;
2.422500000000000E+009;1.651380062103272E-001;-7.051170617341995E-002;2.376456977799535E-003;-5.888703744858503E-003;
2.422666666666667E+009;1.645471304655075E-001;-7.264135777950287E-002;1.989321550354362E-003;-5.960407666862011E-003;
2.422833333333334E+009;1.639426201581955E-001;-7.470718771219254E-002;1.801791368052363E-003;-6.140793208032847E-003;
2.423000000000000E+009;1.635857820510864E-001;-7.670526206493378E-002;1.216078875586391E-003;-6.034455262124538E-003;
2.423166666666667E+009;1.630728393793106E-001;-7.874818146228790E-002;1.077494467608631E-003;-6.210516672581434E-003;
2.423333333333334E+009;1.628628373146057E-001;-8.085729181766510E-002;7.534612668678165E-004;-6.113889627158642E-003;
2.423500000000000E+009;1.628950536251068E-001;-8.269410580396652E-002;5.066433805041015E-004;-6.048921961337328E-003;
2.423666666666667E+009;1.628664135932922E-001;-8.445339649915695E-002;2.154985850211233E-004;-5.990882404148579E-003;
2.423833333333334E+009;1.627000719308853E-001;-8.651624619960785E-002;-1.427958195563406E-004;-5.831540096551180E-003;
2.424000000000000E+009;1.629025489091873E-001;-8.825489878654480E-002;-3.175713354721665E-004;-5.863675847649574E-003;
2.424166666666667E+009;1.629428118467331E-001;-8.978483825922012E-002;-4.800935566890985E-004;-5.700638517737389E-003;
2.424333333333334E+009;1.632257401943207E-001;-9.115403145551682E-002;-7.526420522481203E-004;-5.561036989092827E-003;
2.424500000000000E+009;1.635655760765076E-001;-9.302928298711777E-002;-9.640671778470278E-004;-5.593188572674990E-003;
2.424666666666667E+009;1.638700217008591E-001;-9.432896226644516E-002;-9.868404595181346E-004;-5.445592571049929E-003;
2.424833333333334E+009;1.643858104944229E-001;-9.560240805149078E-002;-1.199553720653057E-003;-5.334433168172836E-003;
2.425000000000000E+009;1.647869646549225E-001;-9.685587882995606E-002;-1.324532902799547E-003;-5.053139291703701E-003;
2.425166666666667E+009;1.651136875152588E-001;-9.792260825634003E-002;-1.287409220822156E-003;-5.037217866629362E-003;
2.425333333333334E+009;1.655358225107193E-001;-9.886568784713745E-002;-1.528868218883872E-003;-4.873692058026791E-003;
2.425500000000000E+009;1.658532321453095E-001;-9.981366991996765E-002;-1.721868524327874E-003;-4.711742978543043E-003;
2.425666666666667E+009;1.663792431354523E-001;-1.005935594439507E-001;-1.668852055445314E-003;-4.650905262678862E-003;
2.425833333333334E+009;1.666882932186127E-001;-1.013797670602799E-001;-1.889442792162299E-003;-4.390744492411614E-003;
2.426000000000000E+009;1.671719551086426E-001;-1.016769856214523E-001;-1.789961708709598E-003;-4.278428386896849E-003;
2.426166666666667E+009;1.675820648670197E-001;-1.022028699517250E-001;-1.761186169460416E-003;-4.185284487903118E-003;
2.426333333333334E+009;1.676384806632996E-001;-1.027186065912247E-001;-1.906703575514257E-003;-4.095281474292278E-003;
2.426500000000000E+009;1.680568903684616E-001;-1.029799282550812E-001;-2.081962302327156E-003;-4.032877273857594E-003;
2.426666666666667E+009;1.683746278285980E-001;-1.032804325222969E-001;-2.189312828704715E-003;-3.927625250071287E-003;
2.426833333333334E+009;1.686188578605652E-001;-1.036361306905747E-001;-2.169274725019932E-003;-4.027595277875662E-003;
2.427000000000000E+009;1.685558557510376E-001;-1.036959961056709E-001;-2.050920855253935E-003;-3.693270497024059E-003;
2.427166666666667E+009;1.686209142208099E-001;-1.037923917174339E-001;-2.172152046114206E-003;-3.708816599100828E-003;
2.427333333333334E+009;1.684163808822632E-001;-1.040656715631485E-001;-2.209953032433987E-003;-3.744965186342597E-003;
2.427500000000000E+009;1.682654917240143E-001;-1.042895764112473E-001;-2.326117595657706E-003;-3.533534938469529E-003;
2.427666666666667E+009;1.679768860340118E-001;-1.043283492326737E-001;-2.249699085950851E-003;-3.510209964588285E-003;
2.427833333333334E+009;1.674478501081467E-001;-1.043616682291031E-001;-2.385998377576470E-003;-3.342803567647934E-003;
