# Version 1.00
#
freq[Hz];re:Trc1_S11;im:Trc1_S11;re:Trc2_S21;im:Trc2_S21;
2.400000000000000E+009;1.637093871831894E-001;5.189164727926254E-002;5.602991441264749E-004;3.214165568351746E-003;
2.400166666666667E+009;1.636289358139038E-001;5.047506839036942E-002;5.445039132609963E-004;3.433549543842673E-003;
2.400333333333334E+009;1.635864228010178E-001;4.852363467216492E-002;5.630697123706341E-004;3.327459795400500E-003;
2.400500000000000E+009;1.635746657848358E-001;4.681187495589256E-002;8.467964944429696E-004;3.344267141073942E-003;
2.400666666666667E+009;1.634731739759445E-001;4.492552950978279E-002;8.790911524556577E-004;3.317010821774602E-003;
2.400833333333334E+009;1.635539382696152E-001;4.323184490203857E-002;8.811777806840837E-004;3.425029804930091E-003;
2.401000000000000E+009;1.636704504489899E-001;4.106812179088593E-002;1.156913815066218E-003;3.348417812958360E-003;
2.401166666666667E+009;1.637239903211594E-001;3.914575278759003E-002;1.205748994834721E-003;3.246811218559742E-003;
2.401333333333334E+009;1.637097597122192E-001;3.714656457304955E-002;1.497248420491815E-003;3.519492223858833E-003;
2.401500000000000E+009;1.639234721660614E-001;3.523449599742889E-002;1.542384736239910E-003;3.483047010377049E-003;
2.401666666666667E+009;1.641294509172440E-001;3.335072845220566E-002;1.759740640409291E-003;3.213462885469198E-003;
2.401833333333334E+009;1.643009781837463E-001;3.129955753684044E-002;1.901526586152613E-003;3.238620935007930E-003;
2.402000000000000E+009;1.646319329738617E-001;2.937760762870312E-002;2.184831071645021E-003;3.301220713183284E-003;
2.402166666666667E+009;1.650007814168930E-001;2.731686457991600E-002;2.227811841294169E-003;3.268393222242594E-003;
2.402333333333334E+009;1.654602885246277E-001;2.559138834476471E-002;2.231374848634005E-003;3.214531345292926E-003;
2.402500000000000E+009;1.659536659717560E-001;2.386070787906647E-002;2.312167081981897E-003;3.044562879949808E-003;
2.402666666666667E+009;1.664226502180100E-001;2.197793312370777E-002;2.596312202513218E-003;2.972410758957267E-003;
2.402833333333334E+009;1.668015420436859E-001;2.038250677287579E-002;2.627629553899169E-003;2.820634981617332E-003;
2.403000000000000E+009;1.673059612512589E-001;1.861830241978169E-002;2.693388145416975E-003;2.701082499697805E-003;
2.403166666666667E+009;1.681246608495712E-001;1.718562655150890E-002;2.880173269659281E-003;2.625285647809506E-003;
2.403333333333334E+009;1.686469912528992E-001;1.567118242383003E-002;3.061850555241108E-003;2.389177680015564E-003;
2.403500000000000E+009;1.694187819957733E-001;1.415656972676516E-002;3.085862146690488E-003;2.446782076731324E-003;
2.403666666666667E+009;1.701579093933106E-001;1.253704354166985E-002;3.138032276183367E-003;2.323203487321734E-003;
2.403833333333334E+009;1.710279136896133E-001;1.141997613012791E-002;3.043161937966943E-003;2.248845994472504E-003;
2.404000000000000E+009;1.716149300336838E-001;1.006717793643475E-002;3.184737637639046E-003;2.001220127567649E-003;
2.404166666666667E+009;1.723609566688538E-001;8.894142694771290E-003;3.263308200985193E-003;1.986057497560978E-003;
2.404333333333334E+009;1.729819327592850E-001;7.823866792023182E-003;3.365190699696541E-003;1.982988556846976E-003;
2.404500000000000E+009;1.736027300357819E-001;6.694624666124582E-003;3.355656983330846E-003;1.706570503301919E-003;
2.404666666666667E+009;1.743796169757843E-001;5.768972914665937E-003;3.385021584108472E-003;1.613868167623878E-003;
2.404833333333334E+009;1.749991476535797E-001;4.871583078056574E-003;3.390651429072022E-003;1.564524252898991E-003;
2.405000000000000E+009;1.756846755743027E-001;4.062833264470100E-003;3.485763911157847E-003;1.476296107284725E-003;
2.405166666666667E+009;1.763123720884323E-001;3.408431308344007E-003;3.405982395634055E-003;1.247904379852116E-003;
2.405333333333334E+009;1.771429926156998E-001;2.539123175665736E-003;3.395871026441455E-003;1.234635361470282E-003;
2.405500000000000E+009;1.775507628917694E-001;2.234604675322771E-003;3.530534682795405E-003;1.213399693369865E-003;
2.405666666666667E+009;1.780301630496979E-001;1.625596429221332E-003;3.560128621757031E-003;1.143779489211738E-003;
2.405833333333334E+009;1.782967895269394E-001;1.096047577448189E-003;3.385035088285804E-003;9.429316851310432E-004;
2.406000000000000E+009;1.789016127586365E-001;5.568729247897863E-004;3.412744496017695E-003;7.800689199939370E-004;
2.406166666666667E+009;1.792418360710144E-001;3.727319126483053E-004;3.545158077031374E-003;8.592702215537429E-004;
2.406333333333334E+009;1.796725690364838E-001;-4.347607682575472E-005;3.664763877168298E-003;7.550360751338303E-004;
2.406500000000000E+009;1.797833591699600E-001;-3.746057045646012E-004;3.534035757184029E-003;6.711031892336905E-004;
2.406666666666667E+009;1.797922551631928E-001;-7.602070691064000E-004;3.594798967242241E-003;5.867185536772013E-004;
2.406833333333334E+009;1.799741834402084E-001;-1.140206120908260E-003;3.624529577791691E-003;4.462198121473193E-004;
2.407000000000000E+009;1.800841093063355E-001;-1.486553228460252E-003;3.837103256955743E-003;3.582801437005401E-004;
2.407166666666667E+009;1.802172064781189E-001;-1.709230476990342E-003;3.675114130601287E-003;2.718660689424723E-004;
2.407333333333334E+009;1.799537837505341E-001;-2.323976019397378E-003;3.783098421990871E-003;3.201873041689396E-004;
2.407500000000000E+009;1.797571331262589E-001;-2.596367849037051E-003;3.789548296481371E-003;1.683037990005687E-004;
2.407666666666667E+009;1.796851158142090E-001;-3.052411833778024E-003;3.860593074932694E-003;-4.007543248008005E-005;
2.407833333333334E+009;1.791713535785675E-001;-3.640246111899614E-003;3.864812897518277E-003;-1.465265086153522E-004;
2.408000000000000E+009;1.788609474897385E-001;-4.185280762612820E-003;3.668043063953519E-003;-1.788648660294712E-004;
2.408166666666667E+009;1.784082353115082E-001;-4.596787039190531E-003;3.899744013324380E-003;-3.050196974072605E-004;
2.408333333333334E+009;1.782281994819641E-001;-5.332929547876120E-003;3.807418514043093E-003;-3.935828863177449E-004;
2.408500000000000E+009;1.774886548519135E-001;-6.135500501841307E-003;3.861200530081987E-003;-4.616160003934056E-004;
2.408666666666667E+009;1.769838631153107E-001;-6.810806691646576E-003;4.086907953023911E-003;-7.674070657230914E-004;
2.408833333333334E+009;1.762593090534210E-001;-7.808533497154713E-003;3.725747577846050E-003;-8.288241806440055E-004;
2.409000000000000E+009;1.756292283535004E-001;-8.674645796418190E-003;3.709760727360845E-003;-8.428040891885757E-004;
2.409166666666667E+009;1.750424653291702E-001;-9.660707786679268E-003;3.679491113871336E-003;-8.579755085520446E-004;
2.409333333333334E+009;1.744885146617889E-001;-1.077525317668915E-002;3.823773236945272E-003;-1.145722344517708E-003;
2.409500000000000E+009;1.735935956239700E-001;-1.220410689711571E-002;3.685477422550321E-003;-1.186261419206858E-003;
2.409666666666667E+009;1.729087233543396E-001;-1.315281074494124E-002;3.562594531103969E-003;-1.383375027216971E-003;
2.409833333333334E+009;1.721463352441788E-001;-1.443670317530632E-002;3.566942643374205E-003;-1.459457445889711E-003;
2.410000000000000E+009;1.715963780879974E-001;-1.583776809275150E-002;3.495100187137723E-003;-1.291968743316829E-003;
2.410166666666667E+009;1.709674745798111E-001;-1.741622574627399E-002;3.440224565565586E-003;-1.487340312451124E-003;
2.410333333333334E+009;1.703565865755081E-001;-1.878397166728973E-002;3.483103588223457E-003;-1.693253405392170E-003;
2.410500000000000E+009;1.696755588054657E-001;-2.035063877701759E-002;3.479426493868232E-003;-1.730901305563748E-003;
2.410666666666667E+009;1.690050959587097E-001;-2.230165526270866E-002;3.423063317313790E-003;-1.618244103156030E-003;
2.410833333333334E+009;1.685013175010681E-001;-2.380852028727531E-002;3.510185983031988E-003;-1.724282512441278E-003;
2.411000000000000E+009;1.681471914052963E-001;-2.544744871556759E-002;3.381439950317144E-003;-1.811165828257799E-003;
2.411166666666667E+009;1.676262319087982E-001;-2.740360610187054E-002;3.284298814833164E-003;-2.076820004731417E-003;
2.411333333333334E+009;1.672346144914627E-001;-2.915916033089161E-002;3.299822565168142E-003;-2.059595659375191E-003;
2.411500000000000E+009;1.667999923229218E-001;-3.116148896515369E-002;3.258692799136043E-003;-2.126483246684074E-003;
2.411666666666667E+009;1.668028235435486E-001;-3.288780897855759E-002;3.118759952485561E-003;-2.303710440173745E-003;
2.411833333333334E+009;1.665491312742233E-001;-3.476970642805100E-002;3.304340178146958E-003;-2.381111495196819E-003;
2.412000000000000E+009;1.664517223834992E-001;-3.670014068484306E-002;3.291090251877904E-003;-2.472140127792954E-003;
2.412166666666667E+009;1.663958728313446E-001;-3.880828991532326E-002;3.124773735180497E-003;-2.561574568971992E-003;
2.412333333333334E+009;1.665733307600021E-001;-4.058710858225822E-002;3.229481168091297E-003;-2.777827205136418E-003;
2.412500000000000E+009;1.665041297674179E-001;-4.242148250341415E-002;3.046950092539191E-003;-2.930170157924295E-003;
2.412666666666667E+009;1.665932685136795E-001;-4.424319043755531E-002;3.073588479310274E-003;-3.035908332094550E-003;
2.412833333333334E+009;1.668226569890976E-001;-4.612664878368378E-002;2.904029795899987E-003;-3.174590179696679E-003;
2.413000000000000E+009;1.671163141727448E-001;-4.789980873465538E-002;2.752372995018959E-003;-3.366914112120867E-003;
2.413166666666667E+009;1.671469211578369E-001;-4.973977804183960E-002;2.612066688016057E-003;-3.526072949171066E-003;
2.413333333333334E+009;1.675204783678055E-001;-5.150904878973961E-002;2.516573294997215E-003;-3.730682190507650E-003;
2.413500000000000E+009;1.679890751838684E-001;-5.317401513457298E-002;2.345141721889377E-003;-3.840478835627437E-003;
2.413666666666667E+009;1.683746576309204E-001;-5.471829324960709E-002;2.433357993140817E-003;-3.871059510856867E-003;
2.413833333333334E+009;1.686441600322723E-001;-5.620207637548447E-002;2.170171122997999E-003;-4.113838076591492E-003;
2.414000000000000E+009;1.689914762973785E-001;-5.779182538390160E-002;1.950824749656022E-003;-3.955245483666658E-003;
2.414166666666667E+009;1.694164723157883E-001;-5.902981385588646E-002;1.869933214038611E-003;-4.068000242114067E-003;
2.414333333333334E+009;1.699937582015991E-001;-6.051774695515633E-002;1.610662089660764E-003;-4.219041671603918E-003;
2.414500000000000E+009;1.705231815576553E-001;-6.151774525642395E-002;1.440653693862259E-003;-4.334886092692614E-003;
2.414666666666667E+009;1.708157509565353E-001;-6.248654797673225E-002;1.139448722824454E-003;-4.399172961711884E-003;
2.414833333333334E+009;1.712455302476883E-001;-6.367642432451248E-002;1.023357966914773E-003;-4.311711527407169E-003;
2.415000000000000E+009;1.716094166040421E-001;-6.442264467477799E-002;8.065821602940559E-004;-4.435793031007052E-003;
2.415166666666667E+009;1.719665229320526E-001;-6.541099399328232E-002;7.232316420413554E-004;-4.367816261947155E-003;
2.415333333333334E+009;1.724755614995956E-001;-6.629413366317749E-002;4.760159645229578E-004;-4.376870580017567E-003;
2.415500000000000E+009;1.726618260145187E-001;-6.684415042400360E-002;4.427102976478636E-004;-4.454490728676319E-003;
2.415666666666667E+009;1.729143559932709E-001;-6.746009737253189E-002;1.826656662160531E-004;-4.198335576802492E-003;
2.415833333333334E+009;1.731803715229034E-001;-6.804899871349335E-002;-2.516105305403471E-004;-4.363153129816055E-003;
2.416000000000000E+009;1.731538921594620E-001;-6.858916580677033E-002;-2.521379501558840E-004;-4.367116838693619E-003;
2.416166666666667E+009;1.733851730823517E-001;-6.898076087236404E-002;-4.088523855898529E-004;-4.239650443196297E-003;
2.416333333333334E+009;1.734230369329453E-001;-6.936036050319672E-002;-5.872632027603686E-004;-4.088782239705324E-003;
2.416500000000000E+009;1.732490956783295E-001;-6.979850679636002E-002;-6.194262532517314E-004;-4.065203480422497E-003;
2.416666666666667E+009;1.731237471103668E-001;-6.986263394355774E-002;-5.605706828646362E-004;-4.000094253569841E-003;
2.416833333333334E+009;1.729147434234619E-001;-7.027056813240051E-002;-8.593288366682828E-004;-4.176624584943056E-003;
2.417000000000000E+009;1.724416166543961E-001;-7.058254629373550E-002;-1.007062382996082E-003;-4.036858677864075E-003;
2.417166666666667E+009;1.720878332853317E-001;-7.078776508569717E-002;-1.255216659046710E-003;-3.888414474204183E-003;
2.417333333333334E+009;1.716675609350205E-001;-7.096759229898453E-002;-1.207351684570313E-003;-3.843864193186164E-003;
2.417500000000000E+009;1.709075123071671E-001;-7.134432345628738E-002;-1.473592361435294E-003;-3.803264116868377E-003;
2.417666666666667E+009;1.704368591308594E-001;-7.137351483106613E-002;-1.459673978388310E-003;-3.602239303290844E-003;
2.417833333333334E+009;1.696095019578934E-001;-7.174062728881836E-002;-1.501012477092445E-003;-3.609574632719159E-003;
2.418000000000000E+009;1.688148826360703E-001;-7.206445187330246E-002;-1.569237676449120E-003;-3.568322630599141E-003;
2.418166666666667E+009;1.678775995969772E-001;-7.214231789112091E-002;-1.778233796358109E-003;-3.434770973399282E-003;
2.418333333333334E+009;1.671517342329025E-001;-7.251281291246414E-002;-1.791646005585790E-003;-3.467886475846171E-003;
2.418500000000000E+009;1.660175174474716E-001;-7.301322370767593E-002;-1.798015437088907E-003;-3.350123763084412E-003;
2.418666666666667E+009;1.650870293378830E-001;-7.325012981891632E-002;-2.012779237702489E-003;-3.173816250637174E-003;
2.418833333333334E+009;1.637537777423859E-001;-7.387917488813400E-002;-2.148562809452415E-003;-3.077794332057238E-003;
2.419000000000000E+009;1.625835746526718E-001;-7.424993813037872E-002;-2.254254650324583E-003;-3.148259595036507E-003;
2.419166666666667E+009;1.614477038383484E-001;-7.481827586889267E-002;-2.292100572958589E-003;-3.029808402061462E-003;
2.419333333333334E+009;1.601047962903976E-001;-7.525394111871719E-002;-2.265969989821315E-003;-2.852704375982285E-003;
2.419500000000000E+009;1.590223610401154E-001;-7.611732929944992E-002;-2.373043913394213E-003;-2.961809048429132E-003;
2.419666666666667E+009;1.578729897737503E-001;-7.698816806077957E-002;-2.409783890470862E-003;-2.914229175075889E-003;
2.419833333333334E+009;1.563933342695236E-001;-7.771285623311997E-002;-2.543081529438496E-003;-2.801823196932674E-003;
2.420000000000000E+009;1.554376780986786E-001;-7.884959131479263E-002;-2.698491793125868E-003;-2.667398657649756E-003;
2.420166666666667E+009;1.541071087121964E-001;-7.962777465581894E-002;-2.738158684223890E-003;-2.618318190798163E-003;
2.420333333333334E+009;1.529979556798935E-001;-8.089206367731094E-002;-2.818041015416384E-003;-2.550063887611032E-003;
2.420500000000000E+009;1.519540101289749E-001;-8.195275068283081E-002;-2.827888354659081E-003;-2.457069698721170E-003;
2.420666666666667E+009;1.508171856403351E-001;-8.300180733203888E-002;-3.034268738701940E-003;-2.267617266625166E-003;
2.420833333333334E+009;1.498764753341675E-001;-8.451662212610245E-002;-2.874204656109214E-003;-2.126843901351094E-003;
2.421000000000000E+009;1.487786024808884E-001;-8.573163300752640E-002;-3.104698611423373E-003;-1.981120090931654E-003;
2.421166666666667E+009;1.479341089725494E-001;-8.701208233833313E-002;-3.106074174866080E-003;-1.972041791304946E-003;
2.421333333333334E+009;1.471095681190491E-001;-8.873949944972992E-002;-3.069446887820959E-003;-1.726347603835166E-003;
2.421500000000000E+009;1.461509913206101E-001;-9.015894681215286E-002;-3.238401841372252E-003;-1.476461999118328E-003;
2.421666666666667E+009;1.456092447042465E-001;-9.183070808649063E-002;-3.084843279793859E-003;-1.550216577015817E-003;
2.421833333333334E+009;1.448721289634705E-001;-9.333493560552597E-002;-3.177211619913578E-003;-1.560948207043111E-003;
2.422000000000000E+009;1.442358046770096E-001;-9.502095729112625E-002;-3.205768298357725E-003;-1.247907406650484E-003;
2.422166666666667E+009;1.438549309968948E-001;-9.682139754295349E-002;-3.153222613036633E-003;-1.216616830788553E-003;
2.422333333333334E+009;1.435416787862778E-001;-9.843945503234863E-002;-3.170187352225184E-003;-1.109069096855819E-003;
2.422500000000000E+009;1.431802809238434E-001;-9.987238794565201E-002;-3.112605074420571E-003;-1.139353727921844E-003;
2.422666666666667E+009;1.428174823522568E-001;-1.017034798860550E-001;-3.104433650150895E-003;-9.919879958033562E-004;
2.422833333333334E+009;1.428073197603226E-001;-1.035984456539154E-001;-3.139952896162868E-003;-8.858973742462695E-004;
2.423000000000000E+009;1.427837908267975E-001;-1.051525026559830E-001;-3.043412463739514E-003;-7.498788763768971E-004;
2.423166666666667E+009;1.429439038038254E-001;-1.068383902311325E-001;-2.987804589793086E-003;-6.485061021521688E-004;
2.423333333333334E+009;1.430767029523850E-001;-1.082102656364441E-001;-3.076798748224974E-003;-4.952985909767449E-004;
2.423500000000000E+009;1.431088894605637E-001;-1.100268363952637E-001;-3.004679689183831E-003;-4.685453022830188E-004;
2.423666666666667E+009;1.431401669979096E-001;-1.116813793778420E-001;-3.018690738826990E-003;-4.594930796884000E-004;
2.423833333333334E+009;1.435146778821945E-001;-1.131388619542122E-001;-3.033811226487160E-003;-4.458428884390742E-004;
2.424000000000000E+009;1.436613649129868E-001;-1.143830865621567E-001;-3.208158304914832E-003;-3.488512302283198E-004;
2.424166666666667E+009;1.439338922500610E-001;-1.158957853913307E-001;-3.088886849582195E-003;-2.696176234167069E-004;
2.424333333333334E+009;1.444288194179535E-001;-1.171214953064919E-001;-2.962456550449133E-003;-1.735252299113199E-004;
2.424500000000000E+009;1.447398811578751E-001;-1.184947416186333E-001;-3.013447392731905E-003;-5.932485873927362E-005;
2.424666666666667E+009;1.450919508934021E-001;-1.194521859288216E-001;-3.110801102593541E-003;-3.102614209637977E-005;
2.424833333333334E+009;1.455185562372208E-001;-1.205212324857712E-001;-2.961843507364392E-003;7.599345553899184E-005;
2.425000000000000E+009;1.458118706941605E-001;-1.215734258294106E-001;-3.042421303689480E-003;1.449247065465897E-004;
2.425166666666667E+009;1.460951715707779E-001;-1.224445030093193E-001;-3.088531782850623E-003;4.901751526631415E-004;
2.425333333333334E+009;1.466091573238373E-001;-1.231291592121124E-001;-3.167544025927782E-003;4.440777411218733E-004;
2.425500000000000E+009;1.469076275825501E-001;-1.239141300320625E-001;-3.132420592010021E-003;4.455451853573322E-004;
2.425666666666667E+009;1.470352262258530E-001;-1.245968267321587E-001;-3.000231925398111E-003;7.196301012299955E-004;
2.425833333333334E+009;1.474172025918961E-001;-1.251717656850815E-001;-3.004800993949175E-003;5.903213750571013E-004;
2.426000000000000E+009;1.475965380668640E-001;-1.256855428218842E-001;-3.005440346896648E-003;7.276558899320662E-004;
2.426166666666667E+009;1.477839946746826E-001;-1.260205209255219E-001;-2.979811746627092E-003;9.811797644942999E-004;
2.426333333333334E+009;1.478535532951355E-001;-1.264383494853973E-001;-2.780546201393008E-003;1.049096346832812E-003;
2.426500000000000E+009;1.478711366653442E-001;-1.266284883022308E-001;-2.866355935111642E-003;1.074137049727142E-003;
2.426666666666667E+009;1.480205804109573E-001;-1.266782581806183E-001;-2.843126188963652E-003;1.285926904529333E-003;
2.426833333333334E+009;1.477768719196320E-001;-1.268926709890366E-001;-2.728096442297101E-003;1.344949938356876E-003;
2.427000000000000E+009;1.475152820348740E-001;-1.271578669548035E-001;-2.777402754873037E-003;1.264093443751335E-003;
2.427166666666667E+009;1.471991091966629E-001;-1.269763410091400E-001;-2.608167240396142E-003;1.367429969832301E-003;
2.427333333333334E+009;1.467574536800385E-001;-1.270455420017242E-001;-2.570772776380181E-003;1.784945023246110E-003;
2.427500000000000E+009;1.463156789541245E-001;-1.270350366830826E-001;-2.332817297428846E-003;1.600065617822111E-003;
2.427666666666667E+009;1.457284539937973E-001;-1.270035803318024E-001;-2.437485847622156E-003;1.676579006016254E-003;
