# Version 1.00
#
freq[Hz];re:Trc1_S11;im:Trc1_S11;re:Trc2_S21;im:Trc2_S21;
2.400000000000000E+009;1.561330854892731E-001;1.067664548754692E-001;-3.387422068044543E-003;-4.170436412096024E-003;
2.400166666666667E+009;1.558738499879837E-001;1.042841896414757E-001;-3.301973687484860E-003;-4.119443707168102E-003;
2.400333333333334E+009;1.557470262050629E-001;1.018783599138260E-001;-3.602150129154325E-003;-3.776961937546730E-003;
2.400500000000000E+009;1.557025313377380E-001;9.907507151365280E-002;-3.867756342515349E-003;-3.354912623763084E-003;
2.400666666666667E+009;1.558283269405365E-001;9.670455008745194E-002;-3.846120322123170E-003;-3.139442764222622E-003;
2.400833333333334E+009;1.558337360620499E-001;9.376373142004013E-002;-4.076805897057056E-003;-2.904998837038875E-003;
2.401000000000000E+009;1.561681777238846E-001;9.073992818593979E-002;-4.097677301615477E-003;-2.414593473076820E-003;
2.401166666666667E+009;1.562131792306900E-001;8.791013807058334E-002;-3.885537153109908E-003;-2.204466378316283E-003;
2.401333333333334E+009;1.564833670854569E-001;8.519318699836731E-002;-3.995319362729788E-003;-2.148737898096442E-003;
2.401500000000000E+009;1.570574343204498E-001;8.220510184764862E-002;-3.822572994977236E-003;-1.655674888752401E-003;
2.401666666666667E+009;1.572252959012985E-001;7.925878465175629E-002;-3.681180765852332E-003;-1.587921055033803E-003;
2.401833333333334E+009;1.578122675418854E-001;7.652699947357178E-002;-3.634886816143990E-003;-1.281015924178064E-003;
2.402000000000000E+009;1.584681421518326E-001;7.372555136680603E-002;-3.549233078956604E-003;-1.276155351661146E-003;
2.402166666666667E+009;1.591888070106506E-001;7.106684893369675E-002;-3.458217252045870E-003;-1.157956547103822E-003;
2.402333333333334E+009;1.600983440876007E-001;6.829058378934860E-002;-3.258374985307455E-003;-1.098439795896411E-003;
2.402500000000000E+009;1.614548861980438E-001;6.566225737333298E-002;-3.078025998547673E-003;-1.152464188635349E-003;
2.402666666666667E+009;1.624429374933243E-001;6.331712752580643E-002;-3.095495980232954E-003;-1.043813768774271E-003;
2.402833333333334E+009;1.637844145298004E-001;6.089200451970100E-002;-3.122392809018493E-003;-9.941090829670429E-004;
2.403000000000000E+009;1.651053428649902E-001;5.847402289509773E-002;-3.060735296458006E-003;-1.112092053517699E-003;
2.403166666666667E+009;1.667196005582809E-001;5.614436045289040E-002;-3.125536721199751E-003;-1.116383238695562E-003;
2.403333333333334E+009;1.680131256580353E-001;5.414976179599762E-002;-3.298448631539941E-003;-1.071951584890485E-003;
2.403500000000000E+009;1.697186529636383E-001;5.200399830937386E-002;-3.171375486999750E-003;-1.084435032680631E-003;
2.403666666666667E+009;1.714416593313217E-001;5.002514272928238E-002;-3.354136366397142E-003;-9.260688093490899E-004;
2.403833333333334E+009;1.732276678085327E-001;4.807744547724724E-002;-3.346971701830626E-003;-8.827907149679959E-004;
2.404000000000000E+009;1.746069043874741E-001;4.636475071310997E-002;-3.403620561584830E-003;-6.837930413894355E-004;
2.404166666666667E+009;1.763160377740860E-001;4.498311132192612E-002;-3.296702401712537E-003;-7.348734652623534E-004;
2.404333333333334E+009;1.779499351978302E-001;4.345693439245224E-002;-3.454829566180706E-003;-6.092350231483579E-004;
2.404500000000000E+009;1.795492172241211E-001;4.184293746948242E-002;-3.464323934167624E-003;-4.552896716631949E-004;
2.404666666666667E+009;1.812390387058258E-001;4.093103855848312E-002;-3.427874762564898E-003;-4.498378548305482E-004;
2.404833333333334E+009;1.828589439392090E-001;3.986624255776405E-002;-3.246198175475001E-003;-1.336134009761736E-004;
2.405000000000000E+009;1.841791570186615E-001;3.910727426409721E-002;-3.390427911654115E-003;7.118450594134629E-005;
2.405166666666667E+009;1.857103854417801E-001;3.857945650815964E-002;-3.349986393004656E-003;7.761404049233533E-006;
2.405333333333334E+009;1.872079372406006E-001;3.799209743738174E-002;-3.168806200847030E-003;1.176805380964652E-004;
2.405500000000000E+009;1.885044127702713E-001;3.749500215053558E-002;-3.131257137283683E-003;2.993483212776482E-004;
2.405666666666667E+009;1.896034330129623E-001;3.721327707171440E-002;-3.282635472714901E-003;3.898436843883246E-004;
2.405833333333334E+009;1.909701377153397E-001;3.697574883699417E-002;-2.992262132465839E-003;3.084503114223480E-004;
2.406000000000000E+009;1.919102668762207E-001;3.690776973962784E-002;-2.939163940027356E-003;3.909278893843293E-004;
2.406166666666667E+009;1.927752643823624E-001;3.654295206069946E-002;-2.741135191172361E-003;4.565387789625675E-004;
2.406333333333334E+009;1.938276588916779E-001;3.667530417442322E-002;-2.773198997601867E-003;5.045417346991599E-004;
2.406500000000000E+009;1.945433616638184E-001;3.669583052396774E-002;-2.573802135884762E-003;4.301396547816694E-004;
2.406666666666667E+009;1.951705962419510E-001;3.676606342196465E-002;-2.705750288441777E-003;3.077191940974444E-004;
2.406833333333334E+009;1.956126242876053E-001;3.668716549873352E-002;-2.594520803540945E-003;5.553474766202271E-004;
2.407000000000000E+009;1.959708631038666E-001;3.684286773204804E-002;-2.639689715579152E-003;5.915307556279004E-004;
2.407166666666667E+009;1.961962729692459E-001;3.683424741029739E-002;-2.581566805019975E-003;3.568754764273763E-004;
2.407333333333334E+009;1.960838586091995E-001;3.694869950413704E-002;-2.454743022099137E-003;2.844233531504870E-004;
2.407500000000000E+009;1.959888637065888E-001;3.703538328409195E-002;-2.406169893220067E-003;4.336642741691321E-004;
2.407666666666667E+009;1.959668993949890E-001;3.702925518155098E-002;-2.409079577773809E-003;1.404443464707583E-004;
2.407833333333334E+009;1.955127716064453E-001;3.686379641294479E-002;-2.527997596189380E-003;7.234654185594991E-005;
2.408000000000000E+009;1.951918005943298E-001;3.681290149688721E-002;-2.401191275566816E-003;1.758877624524757E-004;
2.408166666666667E+009;1.947564780712128E-001;3.675789013504982E-002;-2.476198598742485E-003;5.877553121536039E-006;
2.408333333333334E+009;1.944132298231125E-001;3.620981425046921E-002;-2.590268617495894E-003;-4.702074511442334E-005;
2.408500000000000E+009;1.936025321483612E-001;3.580058738589287E-002;-2.744112629443407E-003;-5.831896487507038E-005;
2.408666666666667E+009;1.927900612354279E-001;3.529419377446175E-002;-2.749928273260593E-003;-1.397382875438780E-004;
2.408833333333334E+009;1.920742988586426E-001;3.460912406444550E-002;-3.032384207472205E-003;-2.431419998174533E-004;
2.409000000000000E+009;1.911127567291260E-001;3.369935974478722E-002;-2.943552797660232E-003;-4.384266867418774E-005;
2.409166666666667E+009;1.901644617319107E-001;3.278713673353195E-002;-3.291821340098977E-003;4.060673381900415E-005;
2.409333333333334E+009;1.891298294067383E-001;3.184992074966431E-002;-3.422110574319959E-003;-1.355971562588820E-005;
2.409500000000000E+009;1.880201995372772E-001;3.066544234752655E-002;-3.664305433630943E-003;1.750036899466068E-004;
2.409666666666667E+009;1.871634721755981E-001;2.918502874672413E-002;-3.557156305760145E-003;4.099564976058900E-004;
2.409833333333334E+009;1.859984248876572E-001;2.777907624840736E-002;-3.821236547082663E-003;4.549165023490787E-004;
2.410000000000000E+009;1.852176189422607E-001;2.621966041624546E-002;-4.034879617393017E-003;6.604884983971715E-004;
2.410166666666667E+009;1.841889470815659E-001;2.434985153377056E-002;-3.998369444161654E-003;7.870983681641519E-004;
2.410333333333334E+009;1.831798404455185E-001;2.258253283798695E-002;-3.930306527763605E-003;1.202738727442920E-003;
2.410500000000000E+009;1.821445077657700E-001;2.068157121539116E-002;-3.961924929171801E-003;1.395435421727598E-003;
2.410666666666667E+009;1.813764423131943E-001;1.836623251438141E-002;-4.058835562318564E-003;1.615851884707809E-003;
2.410833333333334E+009;1.807905882596970E-001;1.628998667001724E-002;-3.851178800687194E-003;1.733495853841305E-003;
2.411000000000000E+009;1.798726916313171E-001;1.409975439310074E-002;-3.858217271044850E-003;2.018654718995094E-003;
2.411166666666667E+009;1.792875230312347E-001;1.180707477033138E-002;-3.804018255323172E-003;2.075764350593090E-003;
2.411333333333334E+009;1.786655038595200E-001;9.371588937938213E-003;-3.682835493236780E-003;2.321215113624930E-003;
2.411500000000000E+009;1.783252656459808E-001;6.995601579546928E-003;-3.533920738846064E-003;2.421575365588069E-003;
2.411666666666667E+009;1.781404912471771E-001;4.659743979573250E-003;-3.521082224324346E-003;2.631940413266420E-003;
2.411833333333334E+009;1.778469532728195E-001;2.230640267953277E-003;-3.339458256959915E-003;2.594550373032689E-003;
2.412000000000000E+009;1.779558062553406E-001;-4.555366467684507E-004;-3.270113375037909E-003;2.750848652794957E-003;
2.412166666666667E+009;1.780400425195694E-001;-2.713127993047237E-003;-3.212319919839501E-003;2.895108889788389E-003;
2.412333333333334E+009;1.780309081077576E-001;-5.113592371344566E-003;-3.082139417529106E-003;2.978190314024687E-003;
2.412500000000000E+009;1.786467880010605E-001;-7.707267999649048E-003;-3.073809435591102E-003;2.945589134469628E-003;
2.412666666666667E+009;1.791286319494247E-001;-1.037856098264456E-002;-3.019663272425532E-003;2.955329837277532E-003;
2.412833333333334E+009;1.798241287469864E-001;-1.261988375335932E-002;-2.958978060632944E-003;3.006587037816644E-003;
2.413000000000000E+009;1.806736439466476E-001;-1.476331800222397E-002;-2.888580085709691E-003;3.124812850728631E-003;
2.413166666666667E+009;1.812705695629120E-001;-1.711887307465076E-002;-2.896101912483573E-003;3.154810518026352E-003;
2.413333333333334E+009;1.824418753385544E-001;-1.938187144696713E-002;-2.871138742193580E-003;3.318052738904953E-003;
2.413500000000000E+009;1.832562088966370E-001;-2.182347327470779E-002;-2.853765850886703E-003;3.413795027881861E-003;
2.413666666666667E+009;1.844670474529266E-001;-2.396981976926327E-002;-2.694256836548448E-003;3.553445218130946E-003;
2.413833333333334E+009;1.854175478219986E-001;-2.591852471232414E-002;-2.673889277502894E-003;3.651376347988844E-003;
2.414000000000000E+009;1.868226528167725E-001;-2.796721830964088E-002;-2.690630964934826E-003;3.792836098000407E-003;
2.414166666666667E+009;1.880112141370773E-001;-2.964846603572369E-002;-2.755070338025689E-003;4.122063517570496E-003;
2.414333333333334E+009;1.891442388296127E-001;-3.166503086686134E-002;-2.443612087517977E-003;4.354583099484444E-003;
2.414500000000000E+009;1.905293613672257E-001;-3.310206159949303E-002;-2.308671362698078E-003;4.438123665750027E-003;
2.414666666666667E+009;1.915472298860550E-001;-3.457842022180557E-002;-2.283971058204770E-003;4.723350051790476E-003;
2.414833333333334E+009;1.927303969860077E-001;-3.610716387629509E-002;-2.097807824611664E-003;4.869276657700539E-003;
2.415000000000000E+009;1.938904374837875E-001;-3.728259727358818E-002;-1.883815857581794E-003;5.095519591122866E-003;
2.415166666666667E+009;1.951152831315994E-001;-3.831999748945236E-002;-1.494109164923430E-003;5.130317993462086E-003;
2.415333333333334E+009;1.963336169719696E-001;-3.928283229470253E-002;-1.237309770658612E-003;5.271052941679955E-003;
2.415500000000000E+009;1.973490715026856E-001;-4.003871604800224E-002;-1.057585934177041E-003;5.499858409166336E-003;
2.415666666666667E+009;1.982780247926712E-001;-4.079763963818550E-002;-7.259937701746821E-004;5.539834033697844E-003;
2.415833333333334E+009;1.991998702287674E-001;-4.135236144065857E-002;-4.542258393485099E-004;5.482729524374008E-003;
2.416000000000000E+009;1.999282091856003E-001;-4.206599667668343E-002;-7.712015212746337E-005;5.503947846591473E-003;
2.416166666666667E+009;2.005958110094070E-001;-4.252424836158752E-002;2.518052933737636E-004;5.442849826067686E-003;
2.416333333333334E+009;2.013097405433655E-001;-4.271771013736725E-002;3.765484434552491E-004;5.291575565934181E-003;
2.416500000000000E+009;2.016257941722870E-001;-4.292061924934387E-002;6.994614959694445E-004;5.342066287994385E-003;
2.416666666666667E+009;2.019722610712051E-001;-4.319002851843834E-002;8.009173325262964E-004;5.105621181428433E-003;
2.416833333333334E+009;2.020308077335358E-001;-4.330648481845856E-002;1.123831141740084E-003;5.076607223600149E-003;
2.417000000000000E+009;2.022124081850052E-001;-4.327242821455002E-002;1.281214761547744E-003;4.931819159537554E-003;
2.417166666666667E+009;2.019053548574448E-001;-4.314805939793587E-002;1.598457689397037E-003;4.857732914388180E-003;
2.417333333333334E+009;2.016644626855850E-001;-4.279445111751556E-002;1.527903717942536E-003;4.585612565279007E-003;
2.417500000000000E+009;2.014493048191071E-001;-4.291490837931633E-002;1.742105116136372E-003;4.490408580750227E-003;
2.417666666666667E+009;2.009009122848511E-001;-4.259814321994782E-002;1.773246680386365E-003;4.465707577764988E-003;
2.417833333333334E+009;2.004611790180206E-001;-4.243196547031403E-002;2.022894797846675E-003;4.068030975759029E-003;
2.418000000000000E+009;1.997767835855484E-001;-4.210224002599716E-002;1.945467316545546E-003;4.177226219326258E-003;
2.418166666666667E+009;1.990090161561966E-001;-4.199811816215515E-002;2.216771943494678E-003;3.889120649546385E-003;
2.418333333333334E+009;1.981538981199265E-001;-4.183264076709747E-002;2.265931107103825E-003;3.826383501291275E-003;
2.418500000000000E+009;1.970826983451843E-001;-4.175737127661705E-002;2.324381610378623E-003;3.729890100657940E-003;
2.418666666666667E+009;1.960785835981369E-001;-4.165528714656830E-002;2.544293412938714E-003;3.612426808103919E-003;
2.418833333333334E+009;1.948953717947006E-001;-4.173452779650688E-002;2.479775575920939E-003;3.276353003457189E-003;
2.419000000000000E+009;1.935903131961823E-001;-4.196654260158539E-002;2.601274056360126E-003;3.272185334935784E-003;
2.419166666666667E+009;1.923301517963409E-001;-4.232123121619225E-002;2.542712492868304E-003;3.077354747802019E-003;
2.419333333333334E+009;1.909069865942001E-001;-4.270718246698380E-002;2.679043449461460E-003;2.940264297649264E-003;
2.419500000000000E+009;1.893722116947174E-001;-4.305626451969147E-002;2.653725445270538E-003;2.915526507422328E-003;
2.419666666666667E+009;1.877714097499847E-001;-4.386635124683380E-002;2.706656930968165E-003;2.752339234575629E-003;
2.419833333333334E+009;1.861045360565186E-001;-4.458859935402870E-002;2.758882706984878E-003;2.712436951696873E-003;
2.420000000000000E+009;1.846038550138474E-001;-4.540688544511795E-002;2.761560259386897E-003;2.579497871920466E-003;
2.420166666666667E+009;1.828679293394089E-001;-4.632014036178589E-002;2.732414053753018E-003;2.454546047374606E-003;
2.420333333333334E+009;1.813040524721146E-001;-4.759741574525833E-002;2.743255347013474E-003;2.363232430070639E-003;
2.420500000000000E+009;1.796759516000748E-001;-4.890150576829910E-002;2.733247121796012E-003;2.165213227272034E-003;
2.420666666666667E+009;1.780134141445160E-001;-4.997694864869118E-002;2.621582243591547E-003;2.096042735502124E-003;
2.420833333333334E+009;1.764793992042542E-001;-5.150714516639710E-002;2.668040804564953E-003;2.101592952385545E-003;
2.421000000000000E+009;1.748182028532028E-001;-5.309842154383659E-002;2.637009834870696E-003;1.935593551024795E-003;
2.421166666666667E+009;1.736969202756882E-001;-5.481383949518204E-002;2.602235879749060E-003;1.674144412390888E-003;
2.421333333333334E+009;1.719971895217896E-001;-5.629603192210197E-002;2.500610193237662E-003;1.721204258501530E-003;
2.421500000000000E+009;1.707319021224976E-001;-5.811101198196411E-002;2.458025468513370E-003;1.677556894719601E-003;
2.421666666666667E+009;1.693801581859589E-001;-6.010854616761208E-002;2.254002029076219E-003;1.604903256520629E-003;
2.421833333333334E+009;1.683656275272369E-001;-6.185507401823998E-002;2.307994989678264E-003;1.724408008158207E-003;
2.422000000000000E+009;1.673077791929245E-001;-6.380331516265869E-002;2.205424010753632E-003;1.697854837402701E-003;
2.422166666666667E+009;1.665780693292618E-001;-6.593234091997147E-002;2.196217887103558E-003;1.739000203087926E-003;
2.422333333333334E+009;1.655002832412720E-001;-6.783336400985718E-002;2.166025806218386E-003;1.845734659582377E-003;
2.422500000000000E+009;1.647527962923050E-001;-6.986681371927261E-002;2.091630129143596E-003;1.803157269023359E-003;
2.422666666666667E+009;1.641753613948822E-001;-7.192398607730866E-002;2.165889833122492E-003;1.947661163285375E-003;
2.422833333333334E+009;1.635930985212326E-001;-7.401882857084274E-002;2.330199582502246E-003;2.071839757263660E-003;
2.423000000000000E+009;1.632342189550400E-001;-7.604555040597916E-002;2.279289998114109E-003;2.035591518506408E-003;
2.423166666666667E+009;1.629454642534256E-001;-7.799445092678070E-002;2.333314623683691E-003;2.118426840752363E-003;
2.423333333333334E+009;1.627116799354553E-001;-8.009118586778641E-002;2.513191895559430E-003;2.011802047491074E-003;
2.423500000000000E+009;1.628485769033432E-001;-8.196748793125153E-002;2.579191466793418E-003;2.117458730936050E-003;
2.423666666666667E+009;1.628663986921310E-001;-8.386436104774475E-002;2.741005038842559E-003;2.221896545961499E-003;
2.423833333333334E+009;1.627824157476425E-001;-8.556839078664780E-002;2.798132132738829E-003;2.039999701082707E-003;
2.424000000000000E+009;1.629893630743027E-001;-8.753380924463272E-002;2.796149114146829E-003;2.164306584745646E-003;
2.424166666666667E+009;1.632235795259476E-001;-8.906789869070053E-002;2.792464103549719E-003;2.128865569829941E-003;
2.424333333333334E+009;1.633436083793640E-001;-9.068217873573303E-002;2.982813864946365E-003;2.112258691340685E-003;
2.424500000000000E+009;1.637506335973740E-001;-9.248077869415283E-002;3.114481922239065E-003;2.080544596537948E-003;
2.424666666666667E+009;1.640185266733170E-001;-9.372542053461075E-002;3.267262130975723E-003;2.084204228594899E-003;
2.424833333333334E+009;1.647195219993591E-001;-9.505762159824371E-002;3.443070221692324E-003;2.064437838271260E-003;
2.425000000000000E+009;1.650280952453613E-001;-9.632670134305954E-002;3.511995309963822E-003;1.972283469513059E-003;
2.425166666666667E+009;1.653435081243515E-001;-9.744736552238464E-002;3.627407830208540E-003;2.003662521019578E-003;
2.425333333333334E+009;1.657107323408127E-001;-9.839403629302979E-002;3.756378078833222E-003;1.835176837630570E-003;
2.425500000000000E+009;1.661999225616455E-001;-9.935994446277618E-002;4.019964020699263E-003;1.810285495594144E-003;
2.425666666666667E+009;1.665865480899811E-001;-1.000308990478516E-001;4.028011113405228E-003;1.543398830108345E-003;
2.425833333333334E+009;1.669139862060547E-001;-1.009345725178719E-001;4.192633088678122E-003;1.570722903124988E-003;
2.426000000000000E+009;1.674716770648956E-001;-1.013379171490669E-001;4.327163565903902E-003;1.339358044788241E-003;
2.426166666666667E+009;1.678636521100998E-001;-1.018791496753693E-001;4.571517463773489E-003;1.192897325381637E-003;
2.426333333333334E+009;1.679348200559616E-001;-1.025469899177551E-001;4.534224048256874E-003;8.170214714482427E-004;
2.426500000000000E+009;1.683670729398727E-001;-1.027453020215035E-001;4.526128992438316E-003;7.889840635471046E-004;
2.426666666666667E+009;1.685861051082611E-001;-1.030729115009308E-001;4.657501354813576E-003;6.275758496485651E-004;
2.426833333333334E+009;1.688726097345352E-001;-1.033400669693947E-001;4.689806606620550E-003;4.523342067841440E-004;
2.427000000000000E+009;1.688209027051926E-001;-1.035033911466599E-001;4.576757550239563E-003;3.787831228692085E-004;
2.427166666666667E+009;1.688632220029831E-001;-1.036930754780769E-001;4.895451944321394E-003;2.037262165686116E-004;
2.427333333333334E+009;1.687403321266174E-001;-1.039511710405350E-001;4.752343520522118E-003;-1.021536590997130E-004;
2.427500000000000E+009;1.684192121028900E-001;-1.040081754326820E-001;4.763119854032993E-003;-3.067648794967681E-004;
2.427666666666667E+009;1.681035757064819E-001;-1.040164008736610E-001;4.697878379374743E-003;-4.116543277632445E-004;
2.427833333333334E+009;1.678119301795960E-001;-1.042193993926048E-001;4.710894543677568E-003;-4.413528367877007E-004;
