# Version 1.00
#
freq[Hz];re:Trc1_S11;im:Trc1_S11;re:Trc2_S21;im:Trc2_S21;
2.400000000000000E+009;1.557103395462036E-001;1.068878322839737E-001;-3.545028390362859E-003;-4.009982571005821E-003;
2.400166666666667E+009;1.554247438907623E-001;1.045835092663765E-001;-3.673385130241513E-003;-3.692817874252796E-003;
2.400333333333334E+009;1.555442810058594E-001;1.022101342678070E-001;-3.738958155736327E-003;-3.590635256841779E-003;
2.400500000000000E+009;1.555227190256119E-001;9.928192943334580E-002;-3.944525495171547E-003;-3.299742005765438E-003;
2.400666666666667E+009;1.556068956851959E-001;9.682708233594894E-002;-4.121161065995693E-003;-2.793699968606234E-003;
2.400833333333334E+009;1.555244028568268E-001;9.397467225790024E-002;-4.139868542551994E-003;-2.589885843917728E-003;
2.401000000000000E+009;1.557314246892929E-001;9.103540331125259E-002;-4.173694644123316E-003;-2.350442111492157E-003;
2.401166666666667E+009;1.557624340057373E-001;8.831891417503357E-002;-4.188417457044125E-003;-2.053562784567475E-003;
2.401333333333334E+009;1.561703681945801E-001;8.540842682123184E-002;-4.100539255887270E-003;-1.734088407829404E-003;
2.401500000000000E+009;1.565427184104919E-001;8.247592300176621E-002;-4.083602223545313E-003;-1.487293746322393E-003;
2.401666666666667E+009;1.568958014249802E-001;7.969573885202408E-002;-3.774344688281417E-003;-1.260564778931439E-003;
2.401833333333334E+009;1.574693173170090E-001;7.701762020587921E-002;-3.615778870880604E-003;-1.042303279973567E-003;
2.402000000000000E+009;1.582316607236862E-001;7.402376085519791E-002;-3.442517947405577E-003;-1.147823757492006E-003;
2.402166666666667E+009;1.590623259544373E-001;7.145062088966370E-002;-3.376957029104233E-003;-8.757809409871697E-004;
2.402333333333334E+009;1.600381284952164E-001;6.861480325460434E-002;-3.364336211234331E-003;-7.828539237380028E-004;
2.402500000000000E+009;1.611727178096771E-001;6.597208231687546E-002;-3.245356027036905E-003;-9.660063660703600E-004;
2.402666666666667E+009;1.622947603464127E-001;6.372063606977463E-002;-3.140372224152088E-003;-8.828259888105094E-004;
2.402833333333334E+009;1.637417674064636E-001;6.122607365250588E-002;-3.039402421563864E-003;-8.458113297820091E-004;
2.403000000000000E+009;1.649446338415146E-001;5.876180902123451E-002;-3.077939385548234E-003;-8.359841303899884E-004;
2.403166666666667E+009;1.666573733091354E-001;5.661309882998467E-002;-3.125875722616911E-003;-9.005164611153305E-004;
2.403333333333334E+009;1.680970489978790E-001;5.415889993309975E-002;-3.022177377715707E-003;-8.482126286253333E-004;
2.403500000000000E+009;1.697906404733658E-001;5.228462070226669E-002;-3.005123930051923E-003;-6.515783607028425E-004;
2.403666666666667E+009;1.715535223484039E-001;5.027696862816811E-002;-3.076839959248900E-003;-7.384218624792993E-004;
2.403833333333334E+009;1.732245981693268E-001;4.839011654257774E-002;-3.177416976541281E-003;-7.908781990408897E-004;
2.404000000000000E+009;1.747285127639771E-001;4.669421166181564E-002;-3.136740531772375E-003;-5.232018884271383E-004;
2.404166666666667E+009;1.763941496610642E-001;4.513096809387207E-002;-3.318091854453087E-003;-3.981312038376927E-004;
2.404333333333334E+009;1.780926883220673E-001;4.372444376349449E-002;-3.352809464558959E-003;-4.075970791745931E-004;
2.404500000000000E+009;1.796716153621674E-001;4.228387400507927E-002;-3.153391182422638E-003;-2.724537043832243E-004;
2.404666666666667E+009;1.814194023609161E-001;4.105940833687782E-002;-3.009991720318794E-003;-6.045695408829488E-005;
2.404833333333334E+009;1.828654259443283E-001;3.996642306447029E-002;-3.131800331175327E-003;3.134398866677657E-005;
2.405000000000000E+009;1.843662112951279E-001;3.932737559080124E-002;-3.112923586741090E-003;1.876266323961318E-004;
2.405166666666667E+009;1.858284920454025E-001;3.879286721348763E-002;-3.055453533306718E-003;2.210129605373368E-004;
2.405333333333334E+009;1.872301846742630E-001;3.815114498138428E-002;-3.210842376574874E-003;2.951065253000706E-004;
2.405500000000000E+009;1.885862648487091E-001;3.771770745515823E-002;-3.030118299648166E-003;3.587524988688529E-004;
2.405666666666667E+009;1.897348612546921E-001;3.748427703976631E-002;-2.830912591889501E-003;3.363520081620663E-004;
2.405833333333334E+009;1.910625696182251E-001;3.713525086641312E-002;-2.753177192062140E-003;5.275701987557113E-004;
2.406000000000000E+009;1.920427381992340E-001;3.685109689831734E-002;-2.786618191748858E-003;5.529581685550511E-004;
2.406166666666667E+009;1.930534541606903E-001;3.680514544248581E-002;-2.726510167121887E-003;6.123901694081724E-004;
2.406333333333334E+009;1.939671337604523E-001;3.690265864133835E-002;-2.603134606033564E-003;4.412315320223570E-004;
2.406500000000000E+009;1.945643723011017E-001;3.679682686924934E-002;-2.371951704844832E-003;6.154507864266634E-004;
2.406666666666667E+009;1.952434480190277E-001;3.676600009202957E-002;-2.220017137005925E-003;5.567496991716325E-004;
2.406833333333334E+009;1.958401203155518E-001;3.685392811894417E-002;-2.233493607491255E-003;4.840665496885777E-004;
2.407000000000000E+009;1.960756033658981E-001;3.709416836500168E-002;-2.322151325643063E-003;5.171372322365642E-004;
2.407166666666667E+009;1.963623315095902E-001;3.690043464303017E-002;-2.127939136698842E-003;3.839612763840705E-004;
2.407333333333334E+009;1.963165104389191E-001;3.715953975915909E-002;-2.150852233171463E-003;4.614942590706050E-004;
2.407500000000000E+009;1.960807442665100E-001;3.730730339884758E-002;-2.210323233157396E-003;9.027713531395420E-005;
2.407666666666667E+009;1.962460130453110E-001;3.717461228370667E-002;-2.265738323330879E-003;1.627977908356115E-004;
2.407833333333334E+009;1.957342624664307E-001;3.707569092512131E-002;-2.232682658359408E-003;2.001708926400170E-004;
2.408000000000000E+009;1.955367922782898E-001;3.688806667923927E-002;-2.295094309374690E-003;1.245278326678090E-005;
2.408166666666667E+009;1.950712651014328E-001;3.670180216431618E-002;-2.264104783535004E-003;-1.322288881056011E-005;
2.408333333333334E+009;1.944533735513687E-001;3.622816875576973E-002;-2.482456853613257E-003;-2.235258943983354E-005;
2.408500000000000E+009;1.937861442565918E-001;3.603865206241608E-002;-2.402273938059807E-003;-2.428928419249132E-004;
2.408666666666667E+009;1.931269466876984E-001;3.539775311946869E-002;-2.614799421280623E-003;-1.316527923336253E-004;
2.408833333333334E+009;1.922680139541626E-001;3.472569957375526E-002;-2.704791724681854E-003;-3.686049894895405E-004;
2.409000000000000E+009;1.914328038692474E-001;3.388344496488571E-002;-2.980219665914774E-003;-9.354567737318575E-005;
2.409166666666667E+009;1.904490739107132E-001;3.273321315646172E-002;-3.072684397920966E-003;-7.325581100303680E-005;
2.409333333333334E+009;1.895816475152969E-001;3.183003515005112E-002;-3.179531078785658E-003;-6.104830390540883E-005;
2.409500000000000E+009;1.884232610464096E-001;3.053808957338333E-002;-3.400896210223436E-003;-5.696553853340447E-005;
2.409666666666667E+009;1.873349994421005E-001;2.910398133099079E-002;-3.637195331975818E-003;1.604324788786471E-004;
2.409833333333334E+009;1.863941550254822E-001;2.778559923171997E-002;-3.715771483257413E-003;1.394251012243331E-004;
2.410000000000000E+009;1.852350383996964E-001;2.613457106053829E-002;-3.700607223436236E-003;5.106800235807896E-004;
2.410166666666667E+009;1.843153089284897E-001;2.432250790297985E-002;-3.892946988344193E-003;7.195677026174963E-004;
2.410333333333334E+009;1.832890361547470E-001;2.262847498059273E-002;-3.900169162079692E-003;9.219311177730560E-004;
2.410500000000000E+009;1.823344528675079E-001;2.054018713533878E-002;-4.004637710750103E-003;1.060318434610963E-003;
2.410666666666667E+009;1.814380884170532E-001;1.819946989417076E-002;-3.976281266659498E-003;1.276187947951257E-003;
2.410833333333334E+009;1.806555837392807E-001;1.611442677676678E-002;-3.893034765496850E-003;1.617891481146216E-003;
2.411000000000000E+009;1.798853576183319E-001;1.389040332287550E-002;-3.821308957412839E-003;1.576125738210976E-003;
2.411166666666667E+009;1.792286783456802E-001;1.183942332863808E-002;-3.648104611784220E-003;1.890339073725045E-003;
2.411333333333334E+009;1.787529438734055E-001;9.264013729989529E-003;-3.799021244049072E-003;2.057373290881515E-003;
2.411500000000000E+009;1.782327741384506E-001;6.830962840467691E-003;-3.469217568635941E-003;2.215416403487325E-003;
2.411666666666667E+009;1.780559569597244E-001;4.445773549377918E-003;-3.504081163555384E-003;2.302530687302351E-003;
2.411833333333334E+009;1.777129322290421E-001;2.081277081742883E-003;-3.460887819528580E-003;2.377016935497522E-003;
2.412000000000000E+009;1.778042763471603E-001;-5.950528429821134E-004;-3.293947782367468E-003;2.565512899309397E-003;
2.412166666666667E+009;1.780343651771545E-001;-2.901089843362570E-003;-3.321646712720394E-003;2.387975575402379E-003;
2.412333333333334E+009;1.781331896781921E-001;-5.412961822003126E-003;-3.242901526391506E-003;2.582675777375698E-003;
2.412500000000000E+009;1.787332892417908E-001;-7.842319086194038E-003;-3.085960866883397E-003;2.806953387334943E-003;
2.412666666666667E+009;1.790957003831863E-001;-1.032214798033238E-002;-3.085460513830185E-003;2.695293864235282E-003;
2.412833333333334E+009;1.798231005668640E-001;-1.265669893473387E-002;-2.949639456346631E-003;2.900506369769573E-003;
2.413000000000000E+009;1.806818544864655E-001;-1.492527406662703E-002;-2.951922826468945E-003;2.945014741271734E-003;
2.413166666666667E+009;1.814170628786087E-001;-1.735818572342396E-002;-3.020122880116105E-003;2.883220091462135E-003;
2.413333333333334E+009;1.824265867471695E-001;-1.956755854189396E-002;-3.001022385433316E-003;3.024233970791102E-003;
2.413500000000000E+009;1.834287047386169E-001;-2.190539240837097E-002;-2.814744133502245E-003;3.177792765200138E-003;
2.413666666666667E+009;1.845644414424896E-001;-2.388888038694859E-002;-2.940852893516421E-003;3.505637636408210E-003;
2.413833333333334E+009;1.855438798666000E-001;-2.605818398296833E-002;-2.883518580347300E-003;3.548610955476761E-003;
2.414000000000000E+009;1.866186410188675E-001;-2.799633704125881E-002;-2.904438180848956E-003;3.725741989910603E-003;
2.414166666666667E+009;1.879425644874573E-001;-2.987252362072468E-002;-2.677845535799861E-003;3.778419923037291E-003;
2.414333333333334E+009;1.892094612121582E-001;-3.184692934155464E-002;-2.700771670788527E-003;4.235674627125263E-003;
2.414500000000000E+009;1.903241872787476E-001;-3.323541581630707E-002;-2.658979967236519E-003;4.427760373800993E-003;
2.414666666666667E+009;1.914934068918228E-001;-3.467103838920593E-002;-2.492646453902125E-003;4.567426629364491E-003;
2.414833333333334E+009;1.927545517683029E-001;-3.622053936123848E-002;-2.250988269224763E-003;4.755738656967878E-003;
2.415000000000000E+009;1.939103752374649E-001;-3.735953941941261E-002;-1.882216194644570E-003;4.924775566905737E-003;
2.415166666666667E+009;1.949770748615265E-001;-3.849763050675392E-002;-1.756050274707377E-003;5.224788095802069E-003;
2.415333333333334E+009;1.961533874273300E-001;-3.941708430647850E-002;-1.517988857813180E-003;5.207008682191372E-003;
2.415500000000000E+009;1.971965581178665E-001;-4.018612578511238E-002;-1.212303410284221E-003;5.366258788853884E-003;
2.415666666666667E+009;1.982862502336502E-001;-4.105992615222931E-002;-9.683655807748437E-004;5.375856999307871E-003;
2.415833333333334E+009;1.990458965301514E-001;-4.140246659517288E-002;-6.957025034353137E-004;5.483706481754780E-003;
2.416000000000000E+009;1.997604221105576E-001;-4.209001734852791E-002;-3.359866095706821E-004;5.369357764720917E-003;
2.416166666666667E+009;2.006206661462784E-001;-4.265997186303139E-002;4.320302105043083E-005;5.370681639760733E-003;
2.416333333333334E+009;2.011241167783737E-001;-4.302780330181122E-002;2.928886679001153E-004;5.337505601346493E-003;
2.416500000000000E+009;2.016194015741348E-001;-4.308864101767540E-002;5.979540874250233E-004;5.154180340468884E-003;
2.416666666666667E+009;2.018228322267532E-001;-4.331311956048012E-002;6.919740117155016E-004;5.260399542748928E-003;
2.416833333333334E+009;2.020845413208008E-001;-4.327227920293808E-002;1.005853875540197E-003;5.020429380238056E-003;
2.417000000000000E+009;2.020433545112610E-001;-4.333645105361939E-002;1.015470828860998E-003;4.943005740642548E-003;
2.417166666666667E+009;2.018263787031174E-001;-4.325242340564728E-002;1.398651744239032E-003;4.870656877756119E-003;
2.417333333333334E+009;2.016434818506241E-001;-4.293347895145416E-002;1.524971798062325E-003;4.694576840847731E-003;
2.417500000000000E+009;2.013326138257980E-001;-4.285330325365067E-002;1.717164879664779E-003;4.602951463311911E-003;
2.417666666666667E+009;2.007764577865601E-001;-4.268723353743553E-002;1.786025473847985E-003;4.334621597081423E-003;
2.417833333333334E+009;2.003031075000763E-001;-4.247755557298660E-002;1.931815175339580E-003;4.330351483076811E-003;
2.418000000000000E+009;1.998654901981354E-001;-4.212054237723351E-002;1.859763753600419E-003;4.146900493651629E-003;
2.418166666666667E+009;1.988889127969742E-001;-4.192631319165230E-002;2.178521128371358E-003;4.012642428278923E-003;
2.418333333333334E+009;1.979390531778336E-001;-4.174815863370895E-002;2.063200110569596E-003;3.916929010301828E-003;
2.418500000000000E+009;1.969782710075378E-001;-4.166033118963242E-002;2.198618836700916E-003;3.759692888706923E-003;
2.418666666666667E+009;1.959885209798813E-001;-4.165175184607506E-002;2.318673767149448E-003;3.615538589656353E-003;
2.418833333333334E+009;1.946980357170105E-001;-4.181675985455513E-002;2.321862382814288E-003;3.485278692096472E-003;
2.419000000000000E+009;1.933667808771133E-001;-4.196486994624138E-002;2.414381597191095E-003;3.386997384950519E-003;
2.419166666666667E+009;1.920821666717529E-001;-4.230838641524315E-002;2.308194292709231E-003;3.345885546877980E-003;
2.419333333333334E+009;1.907873302698135E-001;-4.266711696982384E-002;2.567488001659513E-003;3.242532256990671E-003;
2.419500000000000E+009;1.892112642526627E-001;-4.298694804310799E-002;2.552629914134741E-003;3.146331058815122E-003;
2.419666666666667E+009;1.876852065324783E-001;-4.371559247374535E-002;2.520139329135418E-003;3.043351462110877E-003;
2.419833333333334E+009;1.860975176095963E-001;-4.451766610145569E-002;2.679355209693313E-003;2.904606983065605E-003;
2.420000000000000E+009;1.845436394214630E-001;-4.541779309511185E-002;2.578849438577890E-003;2.709090011194348E-003;
2.420166666666667E+009;1.828006058931351E-001;-4.634194448590279E-002;2.671224763616920E-003;2.643031068146229E-003;
2.420333333333334E+009;1.811944991350174E-001;-4.746865853667259E-002;2.581034786999226E-003;2.565431408584118E-003;
2.420500000000000E+009;1.796569079160690E-001;-4.877761378884316E-002;2.620502375066280E-003;2.424232894554734E-003;
2.420666666666667E+009;1.780131757259369E-001;-4.986752197146416E-002;2.556001534685493E-003;2.162309829145670E-003;
2.420833333333334E+009;1.764257699251175E-001;-5.143821239471436E-002;2.638359554111958E-003;2.179030561819673E-003;
2.421000000000000E+009;1.749086827039719E-001;-5.306583642959595E-002;2.371152164414525E-003;2.097500488162041E-003;
2.421166666666667E+009;1.734900921583176E-001;-5.463686957955360E-002;2.436106326058507E-003;1.925102900713682E-003;
2.421333333333334E+009;1.718584001064301E-001;-5.610981211066246E-002;2.387946704402566E-003;1.976845087483525E-003;
2.421500000000000E+009;1.705284863710403E-001;-5.814332887530327E-002;2.320947125554085E-003;1.947499462403357E-003;
2.421666666666667E+009;1.693168133497238E-001;-5.993541330099106E-002;2.383077517151833E-003;1.886402838863432E-003;
2.421833333333334E+009;1.682916581630707E-001;-6.185917556285858E-002;2.160974312573671E-003;1.895426074042916E-003;
2.422000000000000E+009;1.670823991298676E-001;-6.363821774721146E-002;2.103670500218868E-003;2.052910160273314E-003;
2.422166666666667E+009;1.664291173219681E-001;-6.578511744737625E-002;2.189510734751821E-003;1.946294214576483E-003;
2.422333333333334E+009;1.653514951467514E-001;-6.771102547645569E-002;2.211868995800614E-003;2.127466723322868E-003;
2.422500000000000E+009;1.646096557378769E-001;-6.978177279233933E-002;2.059780992567539E-003;2.232145983725786E-003;
2.422666666666667E+009;1.639220863580704E-001;-7.177734375000000E-002;2.218405716121197E-003;2.259806031361222E-003;
2.422833333333334E+009;1.636238843202591E-001;-7.387679815292358E-002;2.409557113423944E-003;2.171994186937809E-003;
2.423000000000000E+009;1.630520224571228E-001;-7.597193866968155E-002;2.297282684594393E-003;2.328040543943644E-003;
2.423166666666667E+009;1.626555472612381E-001;-7.787525653839111E-002;2.313913311809301E-003;2.351370407268405E-003;
2.423333333333334E+009;1.626129299402237E-001;-7.987719774246216E-002;2.499195048585534E-003;2.396039897575975E-003;
2.423500000000000E+009;1.625870615243912E-001;-8.179783076047897E-002;2.679468132555485E-003;2.482700161635876E-003;
2.423666666666667E+009;1.627794057130814E-001;-8.372956514358521E-002;2.522240625694394E-003;2.293732017278671E-003;
2.423833333333334E+009;1.626912355422974E-001;-8.555302023887634E-002;2.925733104348183E-003;2.290921751409769E-003;
2.424000000000000E+009;1.629110872745514E-001;-8.732194453477860E-002;2.950212452560663E-003;2.272178651764989E-003;
2.424166666666667E+009;1.630855649709702E-001;-8.893611282110214E-002;3.004773054271936E-003;2.445260295644403E-003;
2.424333333333334E+009;1.632700562477112E-001;-9.040974080562592E-002;3.148721298202872E-003;2.379323588684201E-003;
2.424500000000000E+009;1.638395190238953E-001;-9.235192835330963E-002;3.311321139335632E-003;2.223227173089981E-003;
2.424666666666667E+009;1.639194637537003E-001;-9.361633658409119E-002;3.352494677528739E-003;2.153783338144422E-003;
2.424833333333334E+009;1.646151393651962E-001;-9.493488818407059E-002;3.573630703613162E-003;2.193443477153778E-003;
2.425000000000000E+009;1.649951040744782E-001;-9.612802416086197E-002;3.706857794895768E-003;2.216337481513619E-003;
2.425166666666667E+009;1.652932465076447E-001;-9.724755585193634E-002;3.754580160602927E-003;2.011853270232678E-003;
2.425333333333334E+009;1.656649559736252E-001;-9.814007580280304E-002;3.927121870219708E-003;2.112467540428042E-003;
2.425500000000000E+009;1.662871539592743E-001;-9.913649410009384E-002;4.135375376790762E-003;1.929827150888741E-003;
2.425666666666667E+009;1.666415631771088E-001;-9.985776990652084E-002;4.191610496491194E-003;1.727044815197587E-003;
2.425833333333334E+009;1.670039147138596E-001;-1.007106080651283E-001;4.397884476929903E-003;1.524180872365832E-003;
2.426000000000000E+009;1.673682779073715E-001;-1.012324914336205E-001;4.504035227000713E-003;1.314666471444070E-003;
2.426166666666667E+009;1.678540259599686E-001;-1.017410531640053E-001;4.666746594011784E-003;1.291898195631802E-003;
2.426333333333334E+009;1.681031882762909E-001;-1.022498533129692E-001;4.762195050716400E-003;8.949574548751116E-004;
2.426500000000000E+009;1.684041768312454E-001;-1.024831011891365E-001;4.891539923846722E-003;9.572854032739997E-004;
2.426666666666667E+009;1.685997545719147E-001;-1.028444170951843E-001;4.982152953743935E-003;7.219735416583717E-004;
2.426833333333334E+009;1.688597053289414E-001;-1.031174138188362E-001;4.986058454960585E-003;5.414712359197438E-004;
2.427000000000000E+009;1.687226146459580E-001;-1.033210009336472E-001;5.030124448239803E-003;2.219028247054666E-004;
2.427166666666667E+009;1.688697636127472E-001;-1.035295426845551E-001;4.825401119887829E-003;6.853258673800156E-005;
2.427333333333334E+009;1.688438653945923E-001;-1.036562696099281E-001;5.021995864808559E-003;-1.238149270648137E-004;
2.427500000000000E+009;1.684881597757340E-001;-1.038565561175346E-001;5.049945786595345E-003;-1.452098804293200E-004;
2.427666666666667E+009;1.682183146476746E-001;-1.038509234786034E-001;5.015017930418253E-003;-3.305716090835631E-004;
2.427833333333334E+009;1.678420752286911E-001;-1.038991734385490E-001;5.035495385527611E-003;-5.995888495817781E-004;
