# Version 1.00
#
freq[Hz];re:Trc1_S11;im:Trc1_S11;re:Trc2_S21;im:Trc2_S21;
2.400000000000000E+009;1.606725454330444E-001;5.704664438962936E-002;4.576057544909418E-004;1.095045154215768E-004;
2.400166666666667E+009;1.606371253728867E-001;5.554423108696938E-002;5.835843621753156E-004;2.698769967537373E-004;
2.400333333333334E+009;1.607562601566315E-001;5.352680385112763E-002;6.006468902342022E-004;3.910824016202241E-004;
2.400500000000000E+009;1.608920991420746E-001;5.190645903348923E-002;6.381102139130235E-004;4.113384347874671E-004;
2.400666666666667E+009;1.608264595270157E-001;4.994971677660942E-002;7.522936211898923E-004;2.939546247944236E-004;
2.400833333333334E+009;1.612201482057571E-001;4.815365746617317E-002;7.771303644403815E-004;4.837900341954082E-004;
2.401000000000000E+009;1.614664047956467E-001;4.615309089422226E-002;8.930681506171823E-004;2.858093357644975E-004;
2.401166666666667E+009;1.616545617580414E-001;4.424912482500076E-002;1.073180348612368E-003;3.419149143155664E-004;
2.401333333333334E+009;1.617636531591415E-001;4.234980046749115E-002;1.252750516869128E-003;4.715109826065600E-004;
2.401500000000000E+009;1.623455137014389E-001;4.065734520554543E-002;1.023660995997489E-003;4.463900695554912E-004;
2.401666666666667E+009;1.627381443977356E-001;3.886918351054192E-002;1.238952041603625E-003;3.950648533646017E-004;
2.401833333333334E+009;1.632732897996903E-001;3.683491423726082E-002;1.402142108418047E-003;4.526080156210810E-004;
2.402000000000000E+009;1.633735895156860E-001;3.516793623566628E-002;1.317403279244900E-003;2.721812925301492E-004;
2.402166666666667E+009;1.639999598264694E-001;3.335859999060631E-002;1.530770561657846E-003;3.700035158544779E-004;
2.402333333333334E+009;1.643600910902023E-001;3.166377544403076E-002;1.455148681998253E-003;2.672756090760231E-004;
2.402500000000000E+009;1.650981754064560E-001;3.011219017207623E-002;1.753149204887450E-003;2.409683511359617E-004;
2.402666666666667E+009;1.657386571168900E-001;2.849582396447659E-002;1.827491330914199E-003;-3.600270065362565E-005;
2.402833333333334E+009;1.663204580545425E-001;2.703369036316872E-002;1.651471247896552E-003;-8.065685688052326E-005;
2.403000000000000E+009;1.670407652854919E-001;2.551998384296894E-002;1.749174552969635E-003;-2.851560711860657E-004;
2.403166666666667E+009;1.676627844572067E-001;2.415887080132961E-002;1.830050372518599E-003;-1.885265228338540E-004;
2.403333333333334E+009;1.684294193983078E-001;2.288146503269672E-002;1.788934809155762E-003;-3.168344555888325E-004;
2.403500000000000E+009;1.690831929445267E-001;2.157704904675484E-002;1.859690179117024E-003;-5.638036527670920E-004;
2.403666666666667E+009;1.698979288339615E-001;2.029973268508911E-002;1.821425161324441E-003;-6.026759510859847E-004;
2.403833333333334E+009;1.707239001989365E-001;1.933394372463226E-002;1.810329733416438E-003;-6.759785464964807E-004;
2.404000000000000E+009;1.714120358228684E-001;1.815885491669178E-002;1.822351710870862E-003;-8.304263465106487E-004;
2.404166666666667E+009;1.721681654453278E-001;1.723477989435196E-002;1.714399317279458E-003;-8.797683403827250E-004;
2.404333333333334E+009;1.728900671005249E-001;1.625799015164375E-002;1.664880779571831E-003;-1.011372543871403E-003;
2.404500000000000E+009;1.734510660171509E-001;1.525514759123325E-002;1.670421217568219E-003;-1.048908103257418E-003;
2.404666666666667E+009;1.740586161613464E-001;1.453843899071217E-002;1.553794485516846E-003;-1.121527049690485E-003;
2.404833333333334E+009;1.747489869594574E-001;1.382380537688732E-002;1.212729839608073E-003;-1.207396620884538E-003;
2.405000000000000E+009;1.753192096948624E-001;1.297335978597403E-002;1.394391176290810E-003;-1.023354590870440E-003;
2.405166666666667E+009;1.759958714246750E-001;1.226634904742241E-002;1.092617050744593E-003;-1.116976607590914E-003;
2.405333333333334E+009;1.766337752342224E-001;1.172955054789782E-002;1.097795204259455E-003;-1.186293549835682E-003;
2.405500000000000E+009;1.769464164972305E-001;1.146488171070814E-002;1.098621054552496E-003;-1.199764898046851E-003;
2.405666666666667E+009;1.774372458457947E-001;1.079889386892319E-002;8.697049343027175E-004;-1.058195019140840E-003;
2.405833333333334E+009;1.776499450206757E-001;1.038590911775827E-002;7.422672933898866E-004;-1.118425279855728E-003;
2.406000000000000E+009;1.781457215547562E-001;9.998079389333725E-003;8.685405482538045E-004;-1.009993022307754E-003;
2.406166666666667E+009;1.781367063522339E-001;9.649280458688736E-003;8.340523345395923E-004;-1.143484259955585E-003;
2.406333333333334E+009;1.785009950399399E-001;9.305500425398350E-003;6.052944227121770E-004;-9.601613273844123E-004;
2.406500000000000E+009;1.786205917596817E-001;8.741726167500019E-003;6.128249806351960E-004;-8.779821218922734E-004;
2.406666666666667E+009;1.784744709730148E-001;8.392315357923508E-003;5.893700290471315E-004;-8.516940870322287E-004;
2.406833333333334E+009;1.786078065633774E-001;8.018869906663895E-003;7.389133097603917E-004;-8.566770120523870E-004;
2.407000000000000E+009;1.784681826829910E-001;7.556586991995573E-003;7.076424662955105E-004;-7.479899795725942E-004;
2.407166666666667E+009;1.784965246915817E-001;7.146228570491076E-003;6.507314974442124E-004;-8.324673399329186E-004;
2.407333333333334E+009;1.780894845724106E-001;6.541510578244925E-003;7.937753689475358E-004;-6.312900804914534E-004;
2.407500000000000E+009;1.779023408889771E-001;5.993554368615151E-003;7.029549451544881E-004;-7.699986454099417E-004;
2.407666666666667E+009;1.777560561895371E-001;5.404971539974213E-003;8.002644754014909E-004;-6.926993955858052E-004;
2.407833333333334E+009;1.772008538246155E-001;4.633735865354538E-003;9.152289712801576E-004;-7.466746028512716E-004;
2.408000000000000E+009;1.768159717321396E-001;3.889913903549314E-003;9.390102350153029E-004;-7.335373084060848E-004;
2.408166666666667E+009;1.763137876987457E-001;3.229276277124882E-003;9.197988547384739E-004;-5.820083897560835E-004;
2.408333333333334E+009;1.760354042053223E-001;2.421527402475476E-003;9.450761717744172E-004;-6.614329759031534E-004;
2.408500000000000E+009;1.753940135240555E-001;1.444799709133804E-003;9.685428231023252E-004;-7.049793493933976E-004;
2.408666666666667E+009;1.748472303152084E-001;3.250825975555927E-004;8.051703916862607E-004;-6.348736933432519E-004;
2.408833333333334E+009;1.743295341730118E-001;-7.245923043228686E-004;1.032706582918763E-003;-6.718889344483614E-004;
2.409000000000000E+009;1.735886037349701E-001;-1.894631073810160E-003;1.148172770626843E-003;-7.173632038757205E-004;
2.409166666666667E+009;1.731855124235153E-001;-3.058656817302108E-003;1.169613213278353E-003;-8.252690895460546E-004;
2.409333333333334E+009;1.725764870643616E-001;-4.409180488437414E-003;1.237116986885667E-003;-7.046639220789075E-004;
2.409500000000000E+009;1.718968600034714E-001;-5.932158324867487E-003;1.303012832067907E-003;-6.985238287597895E-004;
2.409666666666667E+009;1.713487058877945E-001;-7.220980245620012E-003;1.296844333410263E-003;-8.491175249218941E-004;
2.409833333333334E+009;1.707877367734909E-001;-8.790022693574429E-003;1.374932006001473E-003;-9.093184489756823E-004;
2.410000000000000E+009;1.703385710716248E-001;-1.028808951377869E-002;1.523632789030671E-003;-9.978718589991331E-004;
2.410166666666667E+009;1.698201596736908E-001;-1.161021646112204E-002;1.451931544579566E-003;-8.628809591755271E-004;
2.410333333333334E+009;1.693531572818756E-001;-1.349907275289297E-002;1.470190589316189E-003;-1.048085861839354E-003;
2.410500000000000E+009;1.691585332155228E-001;-1.534768193960190E-002;1.570371328853071E-003;-1.123973983339965E-003;
2.410666666666667E+009;1.686206012964249E-001;-1.712733879685402E-002;1.745230751112104E-003;-1.267040963284671E-003;
2.410833333333334E+009;1.683655679225922E-001;-1.864456944167614E-002;1.780305639840663E-003;-1.199861755594611E-003;
2.411000000000000E+009;1.681229919195175E-001;-2.076819725334644E-002;1.795626594685018E-003;-1.450457726605237E-003;
2.411166666666667E+009;1.679388880729675E-001;-2.253321371972561E-002;1.658439636230469E-003;-1.618920825421810E-003;
2.411333333333334E+009;1.678686141967773E-001;-2.432679012417793E-002;1.753456075675786E-003;-1.508608693256974E-003;
2.411500000000000E+009;1.676755994558334E-001;-2.639039047062397E-002;1.681761001236737E-003;-1.879501505754888E-003;
2.411666666666667E+009;1.678285151720047E-001;-2.833834663033485E-002;1.754774246364832E-003;-1.994432648643851E-003;
2.411833333333334E+009;1.677293628454208E-001;-2.997085452079773E-002;1.758303609676659E-003;-2.188668120652437E-003;
2.412000000000000E+009;1.679666191339493E-001;-3.185442835092545E-002;1.742099178954959E-003;-2.272262237966061E-003;
2.412166666666667E+009;1.680263876914978E-001;-3.373827412724495E-002;1.679427921772003E-003;-2.479747869074345E-003;
2.412333333333334E+009;1.684779226779938E-001;-3.558887168765068E-002;1.617085072211921E-003;-2.577758859843016E-003;
2.412500000000000E+009;1.685477048158646E-001;-3.732547163963318E-002;1.516241114586592E-003;-2.896829042583704E-003;
2.412666666666667E+009;1.689465790987015E-001;-3.931537643074989E-002;1.387305208481848E-003;-2.996355760842562E-003;
2.412833333333334E+009;1.693397462368012E-001;-4.098922386765480E-002;1.186588197015226E-003;-3.155918093398213E-003;
2.413000000000000E+009;1.696942597627640E-001;-4.253754019737244E-002;1.121356268413365E-003;-3.317935625091195E-003;
2.413166666666667E+009;1.701446771621704E-001;-4.412663727998734E-002;1.080534653738141E-003;-3.529956564307213E-003;
2.413333333333334E+009;1.705240905284882E-001;-4.571302980184555E-002;7.041410426609218E-004;-3.676201216876507E-003;
2.413500000000000E+009;1.712343543767929E-001;-4.720000550150871E-002;5.455416394397616E-004;-3.824213985353708E-003;
2.413666666666667E+009;1.716214418411255E-001;-4.872458428144455E-002;3.004662576131523E-004;-3.785032778978348E-003;
2.413833333333334E+009;1.720935851335526E-001;-4.999850690364838E-002;9.909080108627677E-005;-3.866291837766767E-003;
2.414000000000000E+009;1.725953072309494E-001;-5.142269283533096E-002;-1.214881121995859E-004;-3.898423630744219E-003;
2.414166666666667E+009;1.730756014585495E-001;-5.251196026802063E-002;-4.916407051496208E-004;-4.137175157666206E-003;
2.414333333333334E+009;1.736542582511902E-001;-5.355298891663551E-002;-5.206879577599466E-004;-4.117864184081554E-003;
2.414500000000000E+009;1.743452250957489E-001;-5.463183671236038E-002;-8.978563710115850E-004;-4.079248290508986E-003;
2.414666666666667E+009;1.747485399246216E-001;-5.551263689994812E-002;-1.076206099241972E-003;-4.189665429294109E-003;
2.414833333333334E+009;1.750669032335281E-001;-5.651237815618515E-002;-1.319178496487439E-003;-3.959003835916519E-003;
2.415000000000000E+009;1.753762811422348E-001;-5.708563700318337E-002;-1.591577893123031E-003;-3.997673746198416E-003;
2.415166666666667E+009;1.756885200738907E-001;-5.782749131321907E-002;-1.751671545207501E-003;-3.963857423514128E-003;
2.415333333333334E+009;1.762208342552185E-001;-5.861584097146988E-002;-1.934156985953450E-003;-3.809649264439941E-003;
2.415500000000000E+009;1.764315962791443E-001;-5.889968201518059E-002;-2.102594589814544E-003;-3.624950302764773E-003;
2.415666666666667E+009;1.766326874494553E-001;-5.939678475260735E-002;-2.383204409852624E-003;-3.534090938046575E-003;
2.415833333333334E+009;1.767931431531906E-001;-5.996879562735558E-002;-2.787845209240913E-003;-3.383038099855185E-003;
2.416000000000000E+009;1.766832619905472E-001;-6.031055748462677E-002;-2.810183214023709E-003;-3.198149846866727E-003;
2.416166666666667E+009;1.768364906311035E-001;-6.062785536050797E-002;-2.941802609711886E-003;-3.205168060958386E-003;
2.416333333333334E+009;1.766373813152313E-001;-6.097965314984322E-002;-3.190672723576427E-003;-3.016796894371510E-003;
2.416500000000000E+009;1.764936447143555E-001;-6.127599999308586E-002;-3.212336683645845E-003;-2.592508913949132E-003;
2.416666666666667E+009;1.762011498212814E-001;-6.131637468934059E-002;-3.355413675308228E-003;-2.585706068202853E-003;
2.416833333333334E+009;1.759373694658279E-001;-6.170370802283287E-002;-3.531233873218298E-003;-2.295013517141342E-003;
2.417000000000000E+009;1.753561943769455E-001;-6.200729310512543E-002;-3.553182585164905E-003;-2.081042621284723E-003;
2.417166666666667E+009;1.748048067092896E-001;-6.206176057457924E-002;-3.592911176383495E-003;-1.744122128002346E-003;
2.417333333333334E+009;1.742819249629974E-001;-6.232761964201927E-002;-3.644458483904600E-003;-1.766509842127562E-003;
2.417500000000000E+009;1.736336648464203E-001;-6.273788213729858E-002;-3.715735161677003E-003;-1.609178842045367E-003;
2.417666666666667E+009;1.729019731283188E-001;-6.272717565298080E-002;-3.658966859802604E-003;-1.250578905455768E-003;
2.417833333333334E+009;1.720916479825974E-001;-6.314922124147415E-002;-3.808869980275631E-003;-1.158491824753583E-003;
2.418000000000000E+009;1.711653023958206E-001;-6.359007954597473E-002;-3.785313107073307E-003;-9.361217962577939E-004;
2.418166666666667E+009;1.700605899095535E-001;-6.375452876091003E-002;-3.799124620854855E-003;-6.601152708753943E-004;
2.418333333333334E+009;1.692549288272858E-001;-6.429336965084076E-002;-3.708937671035528E-003;-5.976265529170632E-004;
2.418500000000000E+009;1.681913733482361E-001;-6.469716876745224E-002;-3.600280499085784E-003;-4.326526832301170E-004;
2.418666666666667E+009;1.670270115137100E-001;-6.519632041454315E-002;-3.700262866914272E-003;-4.063216620124877E-004;
2.418833333333334E+009;1.658139377832413E-001;-6.569995731115341E-002;-3.699441440403462E-003;-6.860988651169464E-005;
2.419000000000000E+009;1.645137369632721E-001;-6.628115475177765E-002;-3.514802316203713E-003;-4.358893420430832E-006;
2.419166666666667E+009;1.635609865188599E-001;-6.700938940048218E-002;-3.563935402780771E-003;3.080316819250584E-004;
2.419333333333334E+009;1.620443910360336E-001;-6.760504096746445E-002;-3.512597177177668E-003;1.830880937632173E-004;
2.419500000000000E+009;1.610238254070282E-001;-6.869132071733475E-002;-3.306610276922584E-003;4.059100756421685E-004;
2.419666666666667E+009;1.598059237003326E-001;-6.969581544399262E-002;-3.405064344406128E-003;6.261744420044124E-004;
2.419833333333334E+009;1.584572941064835E-001;-7.042808830738068E-002;-3.237628843635321E-003;7.281756843440235E-004;
2.420000000000000E+009;1.573522388935089E-001;-7.162602245807648E-002;-3.153121098876000E-003;7.211221382021904E-004;
2.420166666666667E+009;1.562826633453369E-001;-7.280250638723373E-002;-3.099622670561075E-003;9.048659121617675E-004;
2.420333333333334E+009;1.551789790391922E-001;-7.407705485820770E-002;-3.162767738103867E-003;8.674393757246435E-004;
2.420500000000000E+009;1.542394310235977E-001;-7.510699331760407E-002;-3.083224641159177E-003;9.671948500908911E-004;
2.420666666666667E+009;1.531384587287903E-001;-7.640168815851212E-002;-2.974672242999077E-003;1.305943704210222E-003;
2.420833333333334E+009;1.522620022296906E-001;-7.787317037582398E-002;-2.801461843773723E-003;1.298354822210968E-003;
2.421000000000000E+009;1.512631773948669E-001;-7.935363799333572E-002;-2.689579036086798E-003;1.466350164264441E-003;
2.421166666666667E+009;1.504892706871033E-001;-8.090312033891678E-002;-2.651821589097381E-003;1.585596939548850E-003;
2.421333333333334E+009;1.498562097549439E-001;-8.242683857679367E-002;-2.449818188324571E-003;1.734700868837535E-003;
2.421500000000000E+009;1.490987390279770E-001;-8.400200307369232E-002;-2.348779002204537E-003;1.640450092963874E-003;
2.421666666666667E+009;1.486047059297562E-001;-8.562103658914566E-002;-2.175273373723030E-003;1.819445868022740E-003;
2.421833333333334E+009;1.481400281190872E-001;-8.726643770933151E-002;-2.071626717224717E-003;1.938120694831014E-003;
2.422000000000000E+009;1.476899385452271E-001;-8.893505483865738E-002;-1.873893663287163E-003;1.874099252745509E-003;
2.422166666666667E+009;1.474628746509552E-001;-9.079483896493912E-002;-1.838875701650977E-003;2.061339793726802E-003;
2.422333333333334E+009;1.470615118741989E-001;-9.230022132396698E-002;-1.513700466603041E-003;1.995975151658058E-003;
2.422500000000000E+009;1.467872560024262E-001;-9.398236870765686E-002;-1.478970050811768E-003;1.929490361362696E-003;
2.422666666666667E+009;1.466643959283829E-001;-9.584115445613861E-002;-1.331204897724092E-003;2.043975051492453E-003;
2.422833333333334E+009;1.467447131872177E-001;-9.756512194871903E-002;-1.185481785796583E-003;2.065161708742380E-003;
2.423000000000000E+009;1.466457098722458E-001;-9.904889017343521E-002;-1.127077150158584E-003;1.682623755186796E-003;
2.423166666666667E+009;1.469390690326691E-001;-1.007678583264351E-001;-1.015048241242766E-003;1.927501638419926E-003;
2.423333333333334E+009;1.471291035413742E-001;-1.022156402468681E-001;-9.809379698708654E-004;1.853271853178740E-003;
2.423500000000000E+009;1.473159343004227E-001;-1.040566936135292E-001;-8.643703768029809E-004;1.718831248581410E-003;
2.423666666666667E+009;1.473883241415024E-001;-1.054024174809456E-001;-7.402967894449830E-004;1.678755390457809E-003;
2.423833333333334E+009;1.477961689233780E-001;-1.069732531905174E-001;-6.829163176007569E-004;1.734525198116899E-003;
2.424000000000000E+009;1.480132490396500E-001;-1.081555187702179E-001;-4.884157679043710E-004;1.631175982765853E-003;
2.424166666666667E+009;1.482394337654114E-001;-1.096273213624954E-001;-5.539680132642388E-004;1.656176289543510E-003;
2.424333333333334E+009;1.489817202091217E-001;-1.106757000088692E-001;-5.666876095347107E-004;1.474005402997136E-003;
2.424500000000000E+009;1.491716355085373E-001;-1.120295599102974E-001;-4.411966365296394E-004;1.476668985560536E-003;
2.424666666666667E+009;1.497281491756439E-001;-1.127629578113556E-001;-4.107559216208756E-004;1.345394179224968E-003;
2.424833333333334E+009;1.499539017677307E-001;-1.139534711837769E-001;-3.870647342409939E-004;1.350297708995640E-003;
2.425000000000000E+009;1.503307074308395E-001;-1.151271909475327E-001;-4.273014492355287E-004;1.292407279834151E-003;
2.425166666666667E+009;1.504437178373337E-001;-1.158821657299995E-001;-2.656476572155953E-004;1.280311844311655E-003;
2.425333333333334E+009;1.509396880865097E-001;-1.167227476835251E-001;-3.264079277869314E-004;1.197838922962546E-003;
2.425500000000000E+009;1.512406021356583E-001;-1.174302324652672E-001;-3.439261636231095E-004;1.208328641951084E-003;
2.425666666666667E+009;1.514277309179306E-001;-1.179176941514015E-001;-3.820745332632214E-004;1.142274122685194E-003;
2.425833333333334E+009;1.515970081090927E-001;-1.186117157340050E-001;-3.180193598382175E-004;1.064477255567908E-003;
2.426000000000000E+009;1.517486125230789E-001;-1.191335842013359E-001;-3.142028581351042E-004;1.094658975489438E-003;
2.426166666666667E+009;1.519827842712402E-001;-1.195877045392990E-001;-4.189239116385579E-004;1.088688382878900E-003;
2.426333333333334E+009;1.518496870994568E-001;-1.199035495519638E-001;-2.783238305710256E-004;1.091827638447285E-003;
2.426500000000000E+009;1.519066244363785E-001;-1.202366054058075E-001;-1.324000040767714E-004;1.010814448818564E-003;
2.426666666666667E+009;1.519404351711273E-001;-1.203459352254868E-001;-2.446978760417551E-004;9.957235306501389E-004;
2.426833333333334E+009;1.516184806823731E-001;-1.206491142511368E-001;-3.902633325196803E-004;9.380498668178916E-004;
2.427000000000000E+009;1.512705683708191E-001;-1.208779513835907E-001;-3.530691319610924E-004;8.560058195143938E-004;
2.427166666666667E+009;1.509512662887573E-001;-1.208951398730278E-001;-2.934191434178501E-004;8.414497715421021E-004;
2.427333333333334E+009;1.503893733024597E-001;-1.210785061120987E-001;-3.876325208693743E-004;1.009565428830683E-003;
2.427500000000000E+009;1.500474661588669E-001;-1.213101744651794E-001;-3.866195329464972E-004;9.099129820242524E-004;
2.427666666666667E+009;1.493907719850540E-001;-1.213026195764542E-001;-3.804009465966374E-004;8.096092496998608E-004;
