# Version 1.00
#
freq[Hz];re:Trc1_S11;im:Trc1_S11;re:Trc2_S21;im:Trc2_S21;
2.400000000000000E+009;1.604502946138382E-001;5.689586699008942E-002;5.240614991635084E-004;2.316302125109360E-004;
2.400166666666667E+009;1.605583429336548E-001;5.535286292433739E-002;6.701213424094021E-004;1.965447154361755E-004;
2.400333333333334E+009;1.605379432439804E-001;5.359494313597679E-002;6.997134187258780E-004;1.863107754616067E-004;
2.400500000000000E+009;1.607862859964371E-001;5.182562023401260E-002;7.662645657546818E-004;2.933413197752088E-004;
2.400666666666667E+009;1.608582884073257E-001;4.999804869294167E-002;7.302096346393228E-004;3.413464000914246E-004;
2.400833333333334E+009;1.611204892396927E-001;4.813444986939430E-002;8.625621558167040E-004;3.926386416424066E-004;
2.401000000000000E+009;1.612101346254349E-001;4.622107744216919E-002;1.012200140394270E-003;4.569724551402032E-004;
2.401166666666667E+009;1.614401042461395E-001;4.432284086942673E-002;1.011164160445333E-003;3.824729938060045E-004;
2.401333333333334E+009;1.618052423000336E-001;4.241054505109787E-002;1.027968944981694E-003;4.210145270917565E-004;
2.401500000000000E+009;1.623213440179825E-001;4.057501628994942E-002;1.092222868464887E-003;4.598161904141307E-004;
2.401666666666667E+009;1.625409275293350E-001;3.891402855515480E-002;1.172143500298262E-003;3.135014267172664E-004;
2.401833333333334E+009;1.627895087003708E-001;3.686064109206200E-002;1.319874776527286E-003;4.280917928554118E-004;
2.402000000000000E+009;1.632463634014130E-001;3.518748655915260E-002;1.300671836361289E-003;3.766134032048285E-004;
2.402166666666667E+009;1.638014912605286E-001;3.325918316841126E-002;1.324586104601622E-003;4.505447577685118E-004;
2.402333333333334E+009;1.643430739641190E-001;3.166206181049347E-002;1.630655373446643E-003;2.900697581935674E-004;
2.402500000000000E+009;1.653259694576263E-001;3.014194034039974E-002;1.640521571971476E-003;1.656704698689282E-004;
2.402666666666667E+009;1.656036376953125E-001;2.857878804206848E-002;1.690189004875720E-003;2.446120779495686E-004;
2.402833333333334E+009;1.662291437387466E-001;2.722148597240448E-002;1.683199545368552E-003;-1.167915979749523E-005;
2.403000000000000E+009;1.668383777141571E-001;2.547178417444229E-002;1.804352272301912E-003;-2.458131057210267E-004;
2.403166666666667E+009;1.677126735448837E-001;2.415899559855461E-002;1.791663467884064E-003;-2.914098731707782E-004;
2.403333333333334E+009;1.685117483139038E-001;2.277225442230701E-002;1.808080822229385E-003;-2.512799401301891E-004;
2.403500000000000E+009;1.690992712974548E-001;2.156459726393223E-002;1.871864427812398E-003;-4.574985068757087E-004;
2.403666666666667E+009;1.696856617927551E-001;2.033940702676773E-002;1.617785310372710E-003;-5.341679789125919E-004;
2.403833333333334E+009;1.705377697944641E-001;1.920916698873043E-002;1.739553874358535E-003;-7.503814995288849E-004;
2.404000000000000E+009;1.715783923864365E-001;1.821747981011868E-002;1.646485296078026E-003;-7.456215680576861E-004;
2.404166666666667E+009;1.721630245447159E-001;1.706908829510212E-002;1.742479274980724E-003;-8.420319645665586E-004;
2.404333333333334E+009;1.728008091449738E-001;1.616520248353481E-002;1.640347414650023E-003;-9.977369336411357E-004;
2.404500000000000E+009;1.734298467636108E-001;1.522995438426733E-002;1.476989942602813E-003;-9.290004381909967E-004;
2.404666666666667E+009;1.740025877952576E-001;1.445184554904699E-002;1.415959908626974E-003;-1.227614120580256E-003;
2.404833333333334E+009;1.747467517852783E-001;1.373053994029760E-002;1.367112970910966E-003;-1.073173945769668E-003;
2.405000000000000E+009;1.754628568887711E-001;1.304788980633020E-002;1.331242150627077E-003;-1.101696863770485E-003;
2.405166666666667E+009;1.759659498929977E-001;1.247837021946907E-002;1.143702771514654E-003;-1.108532887883484E-003;
2.405333333333334E+009;1.765881329774857E-001;1.170710194855928E-002;1.012540538795292E-003;-1.100493711419404E-003;
2.405500000000000E+009;1.769246309995651E-001;1.140039693564177E-002;9.666662663221359E-004;-1.027824124321342E-003;
2.405666666666667E+009;1.772886961698532E-001;1.090454123914242E-002;9.571922128088772E-004;-1.090704347006977E-003;
2.405833333333334E+009;1.775697916746140E-001;1.048676110804081E-002;9.472226956859231E-004;-9.749046876095235E-004;
2.406000000000000E+009;1.780313104391098E-001;9.948599152266979E-003;6.840627174824476E-004;-1.117476029321551E-003;
2.406166666666667E+009;1.781105399131775E-001;9.667113423347473E-003;7.698853150941432E-004;-9.313308983109891E-004;
2.406333333333334E+009;1.783863604068756E-001;9.221429936587811E-003;6.257307250052691E-004;-1.003048149868846E-003;
2.406500000000000E+009;1.784915030002594E-001;8.785378187894821E-003;7.529376307502389E-004;-9.613014408387244E-004;
2.406666666666667E+009;1.783900856971741E-001;8.404397405683994E-003;8.027005242183805E-004;-8.781492942944169E-004;
2.406833333333334E+009;1.785907894372940E-001;7.958834990859032E-003;3.816838725470007E-004;-6.204161909408867E-004;
2.407000000000000E+009;1.784843355417252E-001;7.620532065629959E-003;6.885834736749530E-004;-9.194989106617868E-004;
2.407166666666667E+009;1.784709841012955E-001;7.130872923880816E-003;6.160876364447177E-004;-7.086846162565053E-004;
2.407333333333334E+009;1.781112104654312E-001;6.651126779615879E-003;6.475351401604712E-004;-7.932562730275095E-004;
2.407500000000000E+009;1.778735965490341E-001;6.072981283068657E-003;7.350308587774634E-004;-7.038266630843282E-004;
2.407666666666667E+009;1.775832176208496E-001;5.538362544029951E-003;8.897171937860549E-004;-6.647691479884088E-004;
2.407833333333334E+009;1.771857738494873E-001;4.844892304390669E-003;8.822767413221300E-004;-5.748557741753757E-004;
2.408000000000000E+009;1.767681688070297E-001;3.961883019655943E-003;7.430904661305249E-004;-6.327794981189072E-004;
2.408166666666667E+009;1.763224750757217E-001;3.325609955936670E-003;8.660038001835346E-004;-6.510192179121077E-004;
2.408333333333334E+009;1.759758740663528E-001;2.419100375846028E-003;1.054283580742776E-003;-6.590252742171288E-004;
2.408500000000000E+009;1.754673421382904E-001;1.424153801053762E-003;9.601157507859170E-004;-6.330164032988250E-004;
2.408666666666667E+009;1.747835874557495E-001;5.080058472231031E-004;9.818077087402344E-004;-6.822108989581466E-004;
2.408833333333334E+009;1.742450147867203E-001;-5.913754575885832E-004;1.037210691720247E-003;-7.358501898124814E-004;
2.409000000000000E+009;1.737056970596314E-001;-1.698972191661596E-003;1.007469603791833E-003;-7.444191724061966E-004;
2.409166666666667E+009;1.730436235666275E-001;-3.029907355085015E-003;1.039480324834585E-003;-8.086497546173632E-004;
2.409333333333334E+009;1.726365387439728E-001;-4.380124621093273E-003;1.311661791987717E-003;-7.361766765825450E-004;
2.409500000000000E+009;1.718567162752152E-001;-5.783538334071636E-003;1.395994331687689E-003;-7.348691578954458E-004;
2.409666666666667E+009;1.712233573198319E-001;-7.050196640193462E-003;1.251575071364641E-003;-9.681048104539514E-004;
2.409833333333334E+009;1.708236485719681E-001;-8.404376916587353E-003;1.332676736637950E-003;-6.601980421692133E-004;
2.410000000000000E+009;1.703802645206451E-001;-1.015195809304714E-002;1.324281445704401E-003;-9.610626148059964E-004;
2.410166666666667E+009;1.697629094123840E-001;-1.176298595964909E-002;1.409329357556999E-003;-1.039523282088339E-003;
2.410333333333334E+009;1.693331748247147E-001;-1.333666406571865E-002;1.685040071606636E-003;-1.019164337776601E-003;
2.410500000000000E+009;1.689615398645401E-001;-1.514044590294361E-002;1.540806842967868E-003;-1.123401336371899E-003;
2.410666666666667E+009;1.687001436948776E-001;-1.693655923008919E-002;1.793838571757078E-003;-1.293886802159250E-003;
2.410833333333334E+009;1.683152318000794E-001;-1.864230446517468E-002;1.760430051945150E-003;-1.365731703117490E-003;
2.411000000000000E+009;1.680877357721329E-001;-2.051645331084728E-002;1.729724579490721E-003;-1.367131830193102E-003;
2.411166666666667E+009;1.678640544414520E-001;-2.248429879546166E-002;1.812307629734278E-003;-1.571374828927219E-003;
2.411333333333334E+009;1.678228974342346E-001;-2.420267090201378E-002;1.676244428381324E-003;-1.653435872867703E-003;
2.411500000000000E+009;1.676065027713776E-001;-2.609813213348389E-002;1.790310372598469E-003;-1.801240490749478E-003;
2.411666666666667E+009;1.678305417299271E-001;-2.810850739479065E-002;1.806373824365437E-003;-1.946683274582028E-003;
2.411833333333334E+009;1.679034680128098E-001;-2.982886508107185E-002;1.846123836003244E-003;-2.079160884022713E-003;
2.412000000000000E+009;1.680545210838318E-001;-3.179994970560074E-002;1.775111537426710E-003;-2.271745819598436E-003;
2.412166666666667E+009;1.680659204721451E-001;-3.375816345214844E-002;1.768194371834397E-003;-2.500457456335425E-003;
2.412333333333334E+009;1.687180548906326E-001;-3.571209311485291E-002;1.657623215578497E-003;-2.782011870294809E-003;
2.412500000000000E+009;1.686537414789200E-001;-3.712849691510201E-002;1.505951397120953E-003;-2.922400599345565E-003;
2.412666666666667E+009;1.690033674240112E-001;-3.922269865870476E-002;1.307799713686109E-003;-3.058520378544927E-003;
2.412833333333334E+009;1.692765057086945E-001;-4.092420265078545E-002;1.410254510119557E-003;-3.257750766351819E-003;
2.413000000000000E+009;1.697984933853149E-001;-4.253701865673065E-002;1.211893511936069E-003;-3.377694170922041E-003;
2.413166666666667E+009;1.701602637767792E-001;-4.420247301459312E-002;1.062622759491205E-003;-3.415029263123870E-003;
2.413333333333334E+009;1.706432700157166E-001;-4.569142311811447E-002;7.837166776880622E-004;-3.647961653769016E-003;
2.413500000000000E+009;1.711438596248627E-001;-4.732322692871094E-002;5.589383654296398E-004;-3.976426087319851E-003;
2.413666666666667E+009;1.717472821474075E-001;-4.859781637787819E-002;4.808944941032678E-004;-3.949943464249373E-003;
2.413833333333334E+009;1.720288693904877E-001;-4.999504610896111E-002;2.500363916624337E-004;-4.182926844805479E-003;
2.414000000000000E+009;1.725543588399887E-001;-5.124683305621147E-002;-2.492803032509983E-004;-4.134118556976318E-003;
2.414166666666667E+009;1.730506569147110E-001;-5.247240141034126E-002;-3.887095372192562E-004;-4.044000525027514E-003;
2.414333333333334E+009;1.736113429069519E-001;-5.340385809540749E-002;-7.589879096485674E-004;-4.139327444136143E-003;
2.414500000000000E+009;1.743988245725632E-001;-5.446370318531990E-002;-7.186423754319549E-004;-4.106164909899235E-003;
2.414666666666667E+009;1.747158467769623E-001;-5.548761785030365E-002;-1.035633031278849E-003;-4.091978538781405E-003;
2.414833333333334E+009;1.750560700893402E-001;-5.633939430117607E-002;-1.341778901405633E-003;-4.053632728755474E-003;
2.415000000000000E+009;1.753285527229309E-001;-5.705839395523071E-002;-1.675255945883691E-003;-3.778361715376377E-003;
2.415166666666667E+009;1.757692545652390E-001;-5.777716636657715E-002;-1.681813038885593E-003;-3.712669480592012E-003;
2.415333333333334E+009;1.761493384838104E-001;-5.849226564168930E-002;-1.904706470668316E-003;-3.634186694398522E-003;
2.415500000000000E+009;1.764320582151413E-001;-5.904655158519745E-002;-2.246121875941753E-003;-3.744843415915966E-003;
2.415666666666667E+009;1.766470521688461E-001;-5.946976318955421E-002;-2.344843465834856E-003;-3.605352016165853E-003;
2.415833333333334E+009;1.767771393060684E-001;-5.989121645689011E-002;-2.563242567703128E-003;-3.271221183240414E-003;
2.416000000000000E+009;1.767762303352356E-001;-6.031559035181999E-002;-2.814418170601130E-003;-3.144897054880858E-003;
2.416166666666667E+009;1.767803728580475E-001;-6.062930822372437E-002;-2.974068280309439E-003;-3.096268745139241E-003;
2.416333333333334E+009;1.766972839832306E-001;-6.074715033173561E-002;-3.190119750797749E-003;-2.871419303119183E-003;
2.416500000000000E+009;1.764569282531738E-001;-6.128571555018425E-002;-3.135957987979055E-003;-2.686782972887158E-003;
2.416666666666667E+009;1.761710941791534E-001;-6.133413314819336E-002;-3.295267000794411E-003;-2.542478730902076E-003;
2.416833333333334E+009;1.759197860956192E-001;-6.167258322238922E-002;-3.454677993431687E-003;-2.306184964254499E-003;
2.417000000000000E+009;1.752597093582153E-001;-6.195885688066483E-002;-3.551384899765253E-003;-2.121578203514218E-003;
2.417166666666667E+009;1.748744100332260E-001;-6.205669790506363E-002;-3.457608865574002E-003;-1.877218950539827E-003;
2.417333333333334E+009;1.743101030588150E-001;-6.222230568528175E-002;-3.674753708764911E-003;-1.640739268623292E-003;
2.417500000000000E+009;1.736030876636505E-001;-6.262950599193573E-002;-3.728982526808977E-003;-1.464484608732164E-003;
2.417666666666667E+009;1.728058308362961E-001;-6.276733428239822E-002;-3.691042540594935E-003;-1.477519632317126E-003;
2.417833333333334E+009;1.719138473272324E-001;-6.304279714822769E-002;-3.687557764351368E-003;-1.156820333562791E-003;
2.418000000000000E+009;1.709608286619186E-001;-6.347393989562988E-002;-3.679132554680109E-003;-9.223227389156818E-004;
2.418166666666667E+009;1.700298935174942E-001;-6.359882652759552E-002;-3.645032411441207E-003;-6.454176036641002E-004;
2.418333333333334E+009;1.693381667137146E-001;-6.414926797151566E-002;-3.757925936952233E-003;-5.664639174938202E-004;
2.418500000000000E+009;1.680562794208527E-001;-6.453090161085129E-002;-3.690370125696063E-003;-4.688416665885598E-004;
2.418666666666667E+009;1.670020818710327E-001;-6.508698314428330E-002;-3.538308432325721E-003;-3.738163795787841E-004;
2.418833333333334E+009;1.656581908464432E-001;-6.568982452154160E-002;-3.468847833573818E-003;-1.809934183256701E-004;
2.419000000000000E+009;1.645813137292862E-001;-6.627023965120316E-002;-3.577877068892121E-003;-8.123729639919475E-005;
2.419166666666667E+009;1.634014099836350E-001;-6.704922765493393E-002;-3.521474776789546E-003;6.117472366895527E-005;
2.419333333333334E+009;1.620808392763138E-001;-6.747695803642273E-002;-3.472280688583851E-003;2.648066147230566E-004;
2.419500000000000E+009;1.610857844352722E-001;-6.864256411790848E-002;-3.493455238640308E-003;3.083232440985739E-004;
2.419666666666667E+009;1.597779989242554E-001;-6.959110498428345E-002;-3.371498314663768E-003;4.024953814223409E-004;
2.419833333333334E+009;1.585407108068466E-001;-7.040582597255707E-002;-3.252476919442415E-003;7.441494963131845E-004;
2.420000000000000E+009;1.573343873023987E-001;-7.147100567817688E-002;-3.262247890233994E-003;8.343099616467953E-004;
2.420166666666667E+009;1.562846004962921E-001;-7.256760448217392E-002;-3.118428867310286E-003;1.003990066237748E-003;
2.420333333333334E+009;1.552153378725052E-001;-7.395395636558533E-002;-3.100767498835921E-003;9.495989652350545E-004;
2.420500000000000E+009;1.543304175138474E-001;-7.519123703241348E-002;-3.160352353006601E-003;1.156977377831936E-003;
2.420666666666667E+009;1.530092358589172E-001;-7.644437998533249E-002;-2.857284853234887E-003;1.260230899788439E-003;
2.420833333333334E+009;1.522425562143326E-001;-7.787713408470154E-002;-2.874619793146849E-003;1.363055780529976E-003;
2.421000000000000E+009;1.513461321592331E-001;-7.947570085525513E-002;-2.748091472312808E-003;1.321479328908026E-003;
2.421166666666667E+009;1.505926400423050E-001;-8.078145235776901E-002;-2.762079471722245E-003;1.471015508286655E-003;
2.421333333333334E+009;1.500370055437088E-001;-8.250300586223602E-002;-2.537480322644115E-003;1.610537525266409E-003;
2.421500000000000E+009;1.490494310855866E-001;-8.399228006601334E-002;-2.480611670762301E-003;1.754180877469480E-003;
2.421666666666667E+009;1.486371308565140E-001;-8.565970510244370E-002;-2.383761340752244E-003;2.002333756536245E-003;
2.421833333333334E+009;1.481366008520126E-001;-8.719151467084885E-002;-2.098915632814169E-003;1.878001843579114E-003;
2.422000000000000E+009;1.476615518331528E-001;-8.900531381368637E-002;-1.915301894769073E-003;1.919642440043390E-003;
2.422166666666667E+009;1.472004503011704E-001;-9.087111055850983E-002;-1.679572043940425E-003;1.934038358740509E-003;
2.422333333333334E+009;1.471578627824783E-001;-9.243734180927277E-002;-1.734309946186841E-003;1.897325622849166E-003;
2.422500000000000E+009;1.469694375991821E-001;-9.410122036933899E-002;-1.501740771345794E-003;1.859348150901496E-003;
2.422666666666667E+009;1.466235220432282E-001;-9.572576731443405E-002;-1.551580498926342E-003;1.969299977645278E-003;
2.422833333333334E+009;1.468180269002914E-001;-9.764583408832550E-002;-1.305703422985971E-003;1.900293747894466E-003;
2.423000000000000E+009;1.468007564544678E-001;-9.904616326093674E-002;-1.160331536084414E-003;1.877482165582478E-003;
2.423166666666667E+009;1.468289196491242E-001;-1.007319092750549E-001;-1.030110521242023E-003;1.908185076899827E-003;
2.423333333333334E+009;1.471650749444962E-001;-1.022109687328339E-001;-9.432307560928166E-004;1.735712052322924E-003;
2.423500000000000E+009;1.473564803600311E-001;-1.038746088743210E-001;-7.038632174953818E-004;1.857851515524089E-003;
2.423666666666667E+009;1.473833918571472E-001;-1.055619344115257E-001;-7.113987230695784E-004;1.806488726288080E-003;
2.423833333333334E+009;1.478982865810394E-001;-1.068622991442680E-001;-6.605302332900465E-004;1.719002611935139E-003;
2.424000000000000E+009;1.479431688785553E-001;-1.081433147192001E-001;-6.131642148829997E-004;1.463050022721291E-003;
2.424166666666667E+009;1.482577919960022E-001;-1.096160858869553E-001;-5.419422523118556E-004;1.502004102803767E-003;
2.424333333333334E+009;1.487912833690643E-001;-1.107160449028015E-001;-4.121676029171795E-004;1.620836788788438E-003;
2.424500000000000E+009;1.492488533258438E-001;-1.119185313582420E-001;-3.692408790811896E-004;1.405814546160400E-003;
2.424666666666667E+009;1.496330350637436E-001;-1.127967014908791E-001;-3.665619879029691E-004;1.477390527725220E-003;
2.424833333333334E+009;1.498515307903290E-001;-1.139450147747994E-001;-3.365527081768960E-004;1.312192762270570E-003;
2.425000000000000E+009;1.503963023424149E-001;-1.149470433592796E-001;-3.607136895880103E-004;1.160704880021513E-003;
2.425166666666667E+009;1.504288911819458E-001;-1.157736703753471E-001;-2.430392778478563E-004;1.200157450512052E-003;
2.425333333333334E+009;1.507672369480133E-001;-1.166196912527084E-001;-2.143272286048159E-004;1.027502003125846E-003;
2.425500000000000E+009;1.512359976768494E-001;-1.172801926732063E-001;-2.903939748648554E-004;1.238338300026953E-003;
2.425666666666667E+009;1.513256877660751E-001;-1.178570762276650E-001;-2.049197064479813E-004;1.077436958439648E-003;
2.425833333333334E+009;1.516217142343521E-001;-1.184308677911758E-001;-2.229988458566368E-004;1.016934402287006E-003;
2.426000000000000E+009;1.517881304025650E-001;-1.190722510218620E-001;-2.602985478006303E-004;9.871302172541618E-004;
2.426166666666667E+009;1.519493907690048E-001;-1.195101439952850E-001;-2.137015253538266E-004;1.061037182807922E-003;
2.426333333333334E+009;1.519109308719635E-001;-1.198817342519760E-001;-2.422443649265915E-004;1.003846409730613E-003;
2.426500000000000E+009;1.518931239843369E-001;-1.200764775276184E-001;-1.897594484034926E-004;9.823282016441226E-004;
2.426666666666667E+009;1.518638283014298E-001;-1.202439963817596E-001;-1.870336127467454E-004;9.099781746044755E-004;
2.426833333333334E+009;1.515695899724960E-001;-1.205326616764069E-001;-2.610157243907452E-004;8.458181982859969E-004;
2.427000000000000E+009;1.513134837150574E-001;-1.207749396562576E-001;-3.058583824895322E-004;8.609773358330131E-004;
2.427166666666667E+009;1.510571539402008E-001;-1.207923293113709E-001;-2.488853933755308E-004;8.478957461193204E-004;
2.427333333333334E+009;1.505949199199677E-001;-1.210179105401039E-001;-2.813992032315582E-004;8.055654470808804E-004;
2.427500000000000E+009;1.501328945159912E-001;-1.211472898721695E-001;-3.842014411929995E-004;7.470464915968478E-004;
2.427666666666667E+009;1.493717432022095E-001;-1.213336512446404E-001;-4.174218920525163E-004;6.226521218195558E-004;
