# Version 1.00
#
freq[Hz];re:Trc1_S11;im:Trc1_S11;re:Trc2_S21;im:Trc2_S21;
2.400000000000000E+009;1.606668233871460E-001;5.699673667550087E-002;5.428369622677565E-004;-2.135386966983788E-005;
2.400166666666667E+009;1.605957001447678E-001;5.538528785109520E-002;7.518652128055692E-004;2.452768094372004E-004;
2.400333333333334E+009;1.606224030256271E-001;5.358861759305000E-002;8.180287550203502E-004;3.378647379577160E-004;
2.400500000000000E+009;1.608441919088364E-001;5.186014994978905E-002;8.348263800144196E-004;1.743572356645018E-004;
2.400666666666667E+009;1.609647125005722E-001;5.004159733653069E-002;8.854172192513943E-004;1.625163713470101E-004;
2.400833333333334E+009;1.611239910125732E-001;4.825212806463242E-002;8.091778727248311E-004;2.207463403465226E-004;
2.401000000000000E+009;1.614061295986176E-001;4.628990218043327E-002;1.014656038023531E-003;3.606624668464065E-004;
2.401166666666667E+009;1.616599708795548E-001;4.439624398946762E-002;1.185939298011363E-003;4.604054847732186E-004;
2.401333333333334E+009;1.618987321853638E-001;4.250955954194069E-002;1.078703673556447E-003;2.743447839748114E-004;
2.401500000000000E+009;1.624590456485748E-001;4.062372818589211E-002;1.304784440435469E-003;3.120278997812420E-004;
2.401666666666667E+009;1.627234816551209E-001;3.887223079800606E-002;1.260630553588271E-003;2.630318049341440E-004;
2.401833333333334E+009;1.631296724081039E-001;3.705311939120293E-002;1.437946688383818E-003;2.260638430016115E-004;
2.402000000000000E+009;1.634612530469894E-001;3.530438989400864E-002;1.479583675973117E-003;3.577260358724743E-004;
2.402166666666667E+009;1.639564782381058E-001;3.341880813241005E-002;1.721984939649701E-003;2.012108016060665E-004;
2.402333333333334E+009;1.643110215663910E-001;3.175159171223640E-002;1.706912298686802E-003;1.752785465214402E-004;
2.402500000000000E+009;1.651273220777512E-001;3.017070889472961E-002;1.656571286730468E-003;-3.305109657958383E-006;
2.402666666666667E+009;1.657574772834778E-001;2.849790826439858E-002;1.711006974801421E-003;-4.591117976815440E-005;
2.402833333333334E+009;1.664668768644333E-001;2.695716917514801E-002;1.669142511673272E-003;-2.220042224507779E-004;
2.403000000000000E+009;1.670566052198410E-001;2.563816495239735E-002;1.736385282129049E-003;-3.063075419049710E-004;
2.403166666666667E+009;1.677612513303757E-001;2.413656376302242E-002;1.762154395692051E-003;-5.114300874993205E-004;
2.403333333333334E+009;1.686708182096481E-001;2.293332293629646E-002;1.771412440575659E-003;-5.459100939333439E-004;
2.403500000000000E+009;1.691628098487854E-001;2.172374725341797E-002;1.802156213670969E-003;-6.928226212039590E-004;
2.403666666666667E+009;1.698723286390305E-001;2.038049884140492E-002;1.700050313957036E-003;-7.559038349427283E-004;
2.403833333333334E+009;1.706882417201996E-001;1.918695308268070E-002;1.655136351473630E-003;-8.130726055242121E-004;
2.404000000000000E+009;1.716229915618897E-001;1.808102428913117E-002;1.531536225229502E-003;-7.676499080844224E-004;
2.404166666666667E+009;1.722071915864945E-001;1.710203662514687E-002;1.586750382557511E-003;-1.092139165848494E-003;
2.404333333333334E+009;1.730047613382340E-001;1.618081144988537E-002;1.473370939493179E-003;-1.134734484367073E-003;
2.404500000000000E+009;1.735037714242935E-001;1.534515153616667E-002;1.486032735556364E-003;-1.194433891214430E-003;
2.404666666666667E+009;1.742655336856842E-001;1.461509335786104E-002;1.357918605208397E-003;-1.113309757784009E-003;
2.404833333333334E+009;1.748307049274445E-001;1.381046418100596E-002;1.306442194618285E-003;-1.098445500247181E-003;
2.405000000000000E+009;1.754955500364304E-001;1.305244304239750E-002;1.147004775702953E-003;-1.259654061868787E-003;
2.405166666666667E+009;1.759060025215149E-001;1.245148293673992E-002;1.039180555380881E-003;-1.277890405617654E-003;
2.405333333333334E+009;1.767353117465973E-001;1.172783505171537E-002;9.875758551061153E-004;-1.135489554144442E-003;
2.405500000000000E+009;1.770466715097427E-001;1.140289753675461E-002;8.368826820515096E-004;-1.154224155470729E-003;
2.405666666666667E+009;1.774355173110962E-001;1.098649017512798E-002;1.018396578729153E-003;-1.224651467055082E-003;
2.405833333333334E+009;1.776303797960281E-001;1.057315990328789E-002;7.674291846342385E-004;-1.006480655632913E-003;
2.406000000000000E+009;1.780780255794525E-001;9.961321949958801E-003;6.776607478968799E-004;-1.176659716293216E-003;
2.406166666666667E+009;1.781677752733231E-001;9.690366685390472E-003;7.932833977974951E-004;-1.107898191548884E-003;
2.406333333333334E+009;1.785021573305130E-001;9.166060015559197E-003;7.000490440987051E-004;-9.774420177564025E-004;
2.406500000000000E+009;1.786716282367706E-001;8.788345381617546E-003;6.797069218009710E-004;-9.439300047233701E-004;
2.406666666666667E+009;1.783803105354309E-001;8.410209789872170E-003;5.440959939733148E-004;-9.426769101992250E-004;
2.406833333333334E+009;1.785266101360321E-001;7.876388728618622E-003;6.074950797483325E-004;-9.144885116256774E-004;
2.407000000000000E+009;1.785142868757248E-001;7.508883252739906E-003;5.953776999376714E-004;-9.270269656553865E-004;
2.407166666666667E+009;1.784841865301132E-001;6.969182286411524E-003;5.401416565291584E-004;-8.387306588701904E-004;
2.407333333333334E+009;1.782503873109818E-001;6.536138243973255E-003;6.111718830652535E-004;-6.958621088415384E-004;
2.407500000000000E+009;1.778641194105148E-001;6.040927954018116E-003;7.233670330606401E-004;-7.974436739459634E-004;
2.407666666666667E+009;1.775151491165161E-001;5.528625100851059E-003;6.457036943174899E-004;-7.898702169768512E-004;
2.407833333333334E+009;1.770779639482498E-001;4.718004260212183E-003;7.618718082085252E-004;-8.459763485006988E-004;
2.408000000000000E+009;1.768323928117752E-001;3.838710719719529E-003;6.962593761272728E-004;-7.066646357998252E-004;
2.408166666666667E+009;1.763914674520493E-001;3.224902320653200E-003;7.384328637272120E-004;-6.000520079396665E-004;
2.408333333333334E+009;1.760420352220535E-001;2.340527717024088E-003;9.066021884791553E-004;-7.032078574411571E-004;
2.408500000000000E+009;1.754840612411499E-001;1.367291668429971E-003;8.638591389171779E-004;-7.072614389471710E-004;
2.408666666666667E+009;1.747620999813080E-001;3.695129707921296E-004;1.045022392645478E-003;-6.429246859624982E-004;
2.408833333333334E+009;1.743222475051880E-001;-6.813483196310699E-004;9.905833285301924E-004;-6.065574125386775E-004;
2.409000000000000E+009;1.735844761133194E-001;-1.829124521464109E-003;1.135693630203605E-003;-7.127556600607932E-004;
2.409166666666667E+009;1.730973869562149E-001;-3.124252893030644E-003;1.083486364223063E-003;-7.180116372182965E-004;
2.409333333333334E+009;1.725671440362930E-001;-4.382741171866655E-003;1.061960589140654E-003;-8.331270073540509E-004;
2.409500000000000E+009;1.717754900455475E-001;-5.787692032754421E-003;1.203034655191004E-003;-8.301763446070254E-004;
2.409666666666667E+009;1.712774187326431E-001;-7.295156363397837E-003;1.178434817120433E-003;-8.109346381388605E-004;
2.409833333333334E+009;1.708003431558609E-001;-8.492527529597282E-003;1.270952983759344E-003;-9.090412640944123E-004;
2.410000000000000E+009;1.704588681459427E-001;-1.016192045062780E-002;1.329298946075141E-003;-8.225272176787257E-004;
2.410166666666667E+009;1.700023412704468E-001;-1.196948438882828E-002;1.418401021510363E-003;-9.176244493573904E-004;
2.410333333333334E+009;1.693902164697647E-001;-1.340284850448370E-002;1.565347425639629E-003;-1.113271806389093E-003;
2.410500000000000E+009;1.690586507320404E-001;-1.529370807111263E-002;1.618484733626247E-003;-1.008568913675845E-003;
2.410666666666667E+009;1.686189323663712E-001;-1.708986796438694E-002;1.562390360049903E-003;-9.874610695987940E-004;
2.410833333333334E+009;1.683495044708252E-001;-1.884193159639835E-002;1.687306095845997E-003;-1.255620038136840E-003;
2.411000000000000E+009;1.681853830814362E-001;-2.045515924692154E-002;1.761396997608244E-003;-1.266898005269468E-003;
2.411166666666667E+009;1.681293845176697E-001;-2.259955182671547E-002;1.825088751502335E-003;-1.495106611400843E-003;
2.411333333333334E+009;1.678221225738525E-001;-2.418876439332962E-002;1.795419841073453E-003;-1.620551571249962E-003;
2.411500000000000E+009;1.678019911050797E-001;-2.620555832982063E-002;1.796055352315307E-003;-1.852893619798124E-003;
2.411666666666667E+009;1.678757071495056E-001;-2.823249064385891E-002;1.843488076701760E-003;-1.900542411021888E-003;
2.411833333333334E+009;1.678817421197891E-001;-3.007191233336926E-002;1.703828806057572E-003;-2.083826577290893E-003;
2.412000000000000E+009;1.679070293903351E-001;-3.186487406492233E-002;1.787055633030832E-003;-2.363633131608367E-003;
2.412166666666667E+009;1.681482791900635E-001;-3.392010182142258E-002;1.769721973687410E-003;-2.434010151773691E-003;
2.412333333333334E+009;1.685705333948135E-001;-3.550782799720764E-002;1.650270307436585E-003;-2.559320768341422E-003;
2.412500000000000E+009;1.686359196901321E-001;-3.728380799293518E-002;1.608194666914642E-003;-2.901926636695862E-003;
2.412666666666667E+009;1.690688878297806E-001;-3.922444581985474E-002;1.393213286064565E-003;-2.865179907530546E-003;
2.412833333333334E+009;1.694648712873459E-001;-4.094906896352768E-002;1.250672852620482E-003;-3.189417533576489E-003;
2.413000000000000E+009;1.697981506586075E-001;-4.248566552996635E-002;1.296193571761251E-003;-3.360583679750562E-003;
2.413166666666667E+009;1.702857315540314E-001;-4.412360861897469E-002;1.186031731776893E-003;-3.568735206499696E-003;
2.413333333333334E+009;1.706865429878235E-001;-4.569302871823311E-002;8.587801130488515E-004;-3.687763120979071E-003;
2.413500000000000E+009;1.714076697826386E-001;-4.726029932498932E-002;5.898529198020697E-004;-3.828327404335141E-003;
2.413666666666667E+009;1.716656237840653E-001;-4.873730614781380E-002;3.866474144160748E-004;-3.949272911995649E-003;
2.413833333333334E+009;1.722652018070221E-001;-5.005943030118942E-002;3.708586882567033E-005;-4.158147610723972E-003;
2.414000000000000E+009;1.725622266530991E-001;-5.130931362509728E-002;-2.182135176553857E-006;-4.066703375428915E-003;
2.414166666666667E+009;1.732518523931503E-001;-5.247328430414200E-002;-2.925143344327807E-004;-4.083505365997553E-003;
2.414333333333334E+009;1.736827492713928E-001;-5.356869474053383E-002;-5.635423585772514E-004;-3.945213742554188E-003;
2.414500000000000E+009;1.743620932102203E-001;-5.461253970861435E-002;-8.065731963142753E-004;-4.069897811859846E-003;
2.414666666666667E+009;1.747399121522903E-001;-5.551785975694656E-002;-1.045722048729658E-003;-4.118211567401886E-003;
2.414833333333334E+009;1.750636845827103E-001;-5.639331415295601E-002;-1.342069706879556E-003;-3.964267205446959E-003;
2.415000000000000E+009;1.753740161657333E-001;-5.718966946005821E-002;-1.584195648320019E-003;-4.038073122501373E-003;
2.415166666666667E+009;1.757396757602692E-001;-5.800602585077286E-002;-1.796372001990676E-003;-3.891922300681472E-003;
2.415333333333334E+009;1.761819124221802E-001;-5.854441598057747E-002;-2.076794160529971E-003;-3.963935654610395E-003;
2.415500000000000E+009;1.765961498022080E-001;-5.901288613677025E-002;-2.189374994486570E-003;-3.601139876991510E-003;
2.415666666666667E+009;1.765072494745255E-001;-5.956795439124107E-002;-2.385717816650868E-003;-3.623464843258262E-003;
2.415833333333334E+009;1.767252385616303E-001;-5.999447032809258E-002;-2.592690987512469E-003;-3.510408336296678E-003;
2.416000000000000E+009;1.766445040702820E-001;-6.038373336195946E-002;-2.701822901144624E-003;-3.265358740463853E-003;
2.416166666666667E+009;1.768340319395065E-001;-6.063942611217499E-002;-3.072909312322736E-003;-3.265627659857273E-003;
2.416333333333334E+009;1.767575591802597E-001;-6.090708822011948E-002;-3.006023587659001E-003;-2.793776337057352E-003;
2.416500000000000E+009;1.764695644378662E-001;-6.128678098320961E-002;-3.074117470532656E-003;-2.709125168621540E-003;
2.416666666666667E+009;1.760760992765427E-001;-6.142138689756393E-002;-3.357241395860910E-003;-2.453962108120322E-003;
2.416833333333334E+009;1.759034842252731E-001;-6.176476553082466E-002;-3.399339737370610E-003;-2.315521007403731E-003;
2.417000000000000E+009;1.753249615430832E-001;-6.200682744383812E-002;-3.442717483267188E-003;-2.289439318701625E-003;
2.417166666666667E+009;1.747398823499680E-001;-6.214506179094315E-002;-3.620070172473788E-003;-1.953430240973830E-003;
2.417333333333334E+009;1.741758435964584E-001;-6.226431205868721E-002;-3.648489713668823E-003;-1.794206909835339E-003;
2.417500000000000E+009;1.736078262329102E-001;-6.265898048877716E-002;-3.721499582752585E-003;-1.528594759292901E-003;
2.417666666666667E+009;1.728132665157318E-001;-6.284430623054504E-002;-3.646492725238204E-003;-1.370246754959226E-003;
2.417833333333334E+009;1.719579249620438E-001;-6.301116198301315E-002;-3.693947102874517E-003;-1.321877702139318E-003;
2.418000000000000E+009;1.709397584199905E-001;-6.346964091062546E-002;-3.856318071484566E-003;-1.177998026832938E-003;
2.418166666666667E+009;1.700822860002518E-001;-6.363615393638611E-002;-3.715660423040390E-003;-8.115122909657657E-004;
2.418333333333334E+009;1.692688614130020E-001;-6.413152068853378E-002;-3.607146209105849E-003;-8.127248729579151E-004;
2.418500000000000E+009;1.680401116609573E-001;-6.448863446712494E-002;-3.650873433798552E-003;-4.852509009651840E-004;
2.418666666666667E+009;1.670661270618439E-001;-6.507425755262375E-002;-3.551391651853919E-003;-4.740500298794359E-004;
2.418833333333334E+009;1.656816750764847E-001;-6.564737856388092E-002;-3.677554661408067E-003;-1.752055395627394E-004;
2.419000000000000E+009;1.645240634679794E-001;-6.623424589633942E-002;-3.542546415701509E-003;-1.941219088621438E-004;
2.419166666666667E+009;1.633327007293701E-001;-6.703915446996689E-002;-3.558103693649173E-003;1.631805935176089E-004;
2.419333333333334E+009;1.621566712856293E-001;-6.765721738338471E-002;-3.556996351107955E-003;1.155076024588198E-004;
2.419500000000000E+009;1.610083132982254E-001;-6.852646172046661E-002;-3.509508213028312E-003;3.736528160516173E-004;
2.419666666666667E+009;1.598060578107834E-001;-6.949883699417114E-002;-3.472610842436552E-003;5.372035666368902E-004;
2.419833333333334E+009;1.585214436054230E-001;-7.043836265802383E-002;-3.300234209746122E-003;4.747014900203794E-004;
2.420000000000000E+009;1.574328988790512E-001;-7.151617109775543E-002;-3.319986630231142E-003;6.794416112825275E-004;
2.420166666666667E+009;1.563356816768646E-001;-7.265804708003998E-002;-3.360923612490296E-003;8.932276396080852E-004;
2.420333333333334E+009;1.551742255687714E-001;-7.398036122322083E-002;-3.127030795440078E-003;9.216474718414247E-004;
2.420500000000000E+009;1.543596088886261E-001;-7.506608963012695E-002;-2.986941952258349E-003;9.852818911895156E-004;
2.420666666666667E+009;1.532464474439621E-001;-7.631669938564301E-002;-3.065619850531220E-003;1.296451431699097E-003;
2.420833333333334E+009;1.522494554519653E-001;-7.770644873380661E-002;-2.781585324555636E-003;1.229349989444017E-003;
2.421000000000000E+009;1.512670964002609E-001;-7.937646657228470E-002;-2.754242857918143E-003;1.515359501354396E-003;
2.421166666666667E+009;1.505593806505203E-001;-8.098717778921127E-002;-2.777242101728916E-003;1.501865684986115E-003;
2.421333333333334E+009;1.499201804399490E-001;-8.231533318758011E-002;-2.523982664570212E-003;1.509178197011352E-003;
2.421500000000000E+009;1.490239948034287E-001;-8.395452797412872E-002;-2.324099885299802E-003;1.509565277956426E-003;
2.421666666666667E+009;1.485528349876404E-001;-8.561915159225464E-002;-2.395692979916930E-003;1.842442783527076E-003;
2.421833333333334E+009;1.481957584619522E-001;-8.725926280021668E-002;-2.211888553574681E-003;1.839540316723287E-003;
2.422000000000000E+009;1.475390046834946E-001;-8.889754861593247E-002;-1.982213463634253E-003;1.922430587001145E-003;
2.422166666666667E+009;1.473886072635651E-001;-9.076873213052750E-002;-1.901231473311782E-003;1.913671498186886E-003;
2.422333333333334E+009;1.469848304986954E-001;-9.242185950279236E-002;-1.592776505276561E-003;1.880342024378479E-003;
2.422500000000000E+009;1.467699855566025E-001;-9.398463368415833E-002;-1.651906059123576E-003;2.015231642872095E-003;
2.422666666666667E+009;1.465909481048584E-001;-9.577035158872604E-002;-1.484473934397101E-003;1.899244613014162E-003;
2.422833333333334E+009;1.465456634759903E-001;-9.743782877922058E-002;-1.345382770523429E-003;1.837682910263538E-003;
2.423000000000000E+009;1.467760503292084E-001;-9.904655069112778E-002;-1.105069299228489E-003;1.804744475521147E-003;
2.423166666666667E+009;1.469900161027908E-001;-1.008815020322800E-001;-1.160557731054723E-003;1.765597844496369E-003;
2.423333333333334E+009;1.471041589975357E-001;-1.022155210375786E-001;-9.626608807593584E-004;1.772685791365802E-003;
2.423500000000000E+009;1.470697075128555E-001;-1.039250195026398E-001;-8.555551175959408E-004;1.832970418035984E-003;
2.423666666666667E+009;1.473342329263687E-001;-1.054245755076408E-001;-7.196972146630287E-004;1.729461713694036E-003;
2.423833333333334E+009;1.480056196451187E-001;-1.068642213940620E-001;-7.582046673633158E-004;1.521889702416956E-003;
2.424000000000000E+009;1.480451673269272E-001;-1.081490218639374E-001;-7.588006556034088E-004;1.639612833969295E-003;
2.424166666666667E+009;1.483737826347351E-001;-1.096827015280724E-001;-6.677572382614017E-004;1.642268151044846E-003;
2.424333333333334E+009;1.489577591419220E-001;-1.107906773686409E-001;-6.042360910214484E-004;1.438176608644426E-003;
2.424500000000000E+009;1.491588950157166E-001;-1.117941066622734E-001;-5.931452033109963E-004;1.503382576629520E-003;
2.424666666666667E+009;1.495600938796997E-001;-1.129019334912300E-001;-5.720651824958623E-004;1.282234443351626E-003;
2.424833333333334E+009;1.498001515865326E-001;-1.139868497848511E-001;-4.815455467905849E-004;1.357719069346786E-003;
2.425000000000000E+009;1.504161655902863E-001;-1.149060875177383E-001;-5.277110612951219E-004;1.190099865198135E-003;
2.425166666666667E+009;1.504359096288681E-001;-1.157541498541832E-001;-5.092967767268419E-004;1.403077854774892E-003;
2.425333333333334E+009;1.508551985025406E-001;-1.165340021252632E-001;-4.352071264293045E-004;1.027351128868759E-003;
2.425500000000000E+009;1.513749659061432E-001;-1.173077300190926E-001;-2.326245448784903E-004;1.069708028808236E-003;
2.425666666666667E+009;1.511818170547485E-001;-1.179222986102104E-001;-4.644774890039116E-004;1.228620414622128E-003;
2.425833333333334E+009;1.515769064426422E-001;-1.184532269835472E-001;-3.482916799839586E-004;1.226990600116551E-003;
2.426000000000000E+009;1.516901552677155E-001;-1.191571801900864E-001;-3.537597658578306E-004;1.069061225280166E-003;
2.426166666666667E+009;1.519206166267395E-001;-1.194117590785027E-001;-3.890182415489107E-004;1.170710776932538E-003;
2.426333333333334E+009;1.518806815147400E-001;-1.198517754673958E-001;-2.774993772618473E-004;1.050780178047717E-003;
2.426500000000000E+009;1.518136858940125E-001;-1.201338469982147E-001;-2.665231877472252E-004;9.852271759882569E-004;
2.426666666666667E+009;1.519144028425217E-001;-1.202493384480476E-001;-2.836183120962232E-004;8.841263479553163E-004;
2.426833333333334E+009;1.515268087387085E-001;-1.205409169197083E-001;-3.410294593777508E-004;9.188381955027580E-004;
2.427000000000000E+009;1.512520760297775E-001;-1.207818910479546E-001;-4.256484680809081E-004;9.073101100511849E-004;
2.427166666666667E+009;1.510419845581055E-001;-1.208218559622765E-001;-3.519869060255587E-004;8.078325190581381E-004;
2.427333333333334E+009;1.504581570625305E-001;-1.210541799664497E-001;-3.835042880382389E-004;7.975843618623912E-004;
2.427500000000000E+009;1.500835269689560E-001;-1.211594864726067E-001;-3.551808767952025E-004;8.794837049208581E-004;
2.427666666666667E+009;1.493684053421021E-001;-1.212884113192558E-001;-4.834029241465032E-004;9.036746923811734E-004;
