# Version 1.00
#
freq[Hz];re:Trc1_S11;im:Trc1_S11;re:Trc2_S21;im:Trc2_S21;
2.400000000000000E+009;1.555189192295075E-001;1.094739288091660E-001;-5.922108539380133E-004;7.249510847032070E-003;
2.400166666666667E+009;1.552728116512299E-001;1.071757823228836E-001;-3.547221422195435E-004;7.412595674395561E-003;
2.400333333333334E+009;1.552464067935944E-001;1.049063801765442E-001;-1.052983570843935E-004;7.555788382887840E-003;
2.400500000000000E+009;1.550009101629257E-001;1.022101193666458E-001;1.653799881751183E-005;7.493357639759779E-003;
2.400666666666667E+009;1.549929529428482E-001;9.977418929338455E-002;4.794363921973854E-004;7.604892831295729E-003;
2.400833333333334E+009;1.550107598304749E-001;9.675105661153793E-002;6.685340777039528E-004;7.852495647966862E-003;
2.401000000000000E+009;1.549513936042786E-001;9.404253959655762E-002;9.455059189349413E-004;7.740613073110580E-003;
2.401166666666667E+009;1.550242900848389E-001;9.113270044326782E-002;1.426788396202028E-003;7.961079478263855E-003;
2.401333333333334E+009;1.552736461162567E-001;8.823817223310471E-002;1.782734994776547E-003;7.922400720417500E-003;
2.401500000000000E+009;1.556923836469650E-001;8.535264432430267E-002;1.972681609913707E-003;7.939476519823074E-003;
2.401666666666667E+009;1.559044420719147E-001;8.240982145071030E-002;2.423565834760666E-003;7.987010292708874E-003;
2.401833333333334E+009;1.565202027559280E-001;7.951160520315170E-002;2.823240589350462E-003;7.917354814708233E-003;
2.402000000000000E+009;1.572120934724808E-001;7.669845223426819E-002;3.187843132764101E-003;7.695281878113747E-003;
2.402166666666667E+009;1.579191684722900E-001;7.419151067733765E-002;3.618340939283371E-003;7.748141884803772E-003;
2.402333333333334E+009;1.589467376470566E-001;7.136890292167664E-002;4.165276419371367E-003;7.565858308225870E-003;
2.402500000000000E+009;1.599258631467819E-001;6.874853372573853E-002;4.485341254621744E-003;7.291348651051521E-003;
2.402666666666667E+009;1.610910743474960E-001;6.631565839052200E-002;4.684719722718000E-003;7.056049071252346E-003;
2.402833333333334E+009;1.624474674463272E-001;6.370070576667786E-002;5.152311641722918E-003;6.906781811267138E-003;
2.403000000000000E+009;1.637086868286133E-001;6.121017783880234E-002;5.333126522600651E-003;6.415995769202709E-003;
2.403166666666667E+009;1.654719859361649E-001;5.907018110156059E-002;5.737078841775656E-003;6.249513011425734E-003;
2.403333333333334E+009;1.667298376560211E-001;5.663685500621796E-002;5.918871145695448E-003;5.898503586649895E-003;
2.403500000000000E+009;1.687960028648377E-001;5.447329953312874E-002;6.049635354429483E-003;5.629855208098888E-003;
2.403666666666667E+009;1.703927069902420E-001;5.260804668068886E-002;6.385067012161017E-003;5.248347297310829E-003;
2.403833333333334E+009;1.720553636550903E-001;5.061868578195572E-002;6.406505592167378E-003;4.865532740950584E-003;
2.404000000000000E+009;1.736902147531509E-001;4.869808629155159E-002;6.531814578920603E-003;4.708207212388516E-003;
2.404166666666667E+009;1.755352020263672E-001;4.705470427870750E-002;7.361031137406826E-003;4.866920877248049E-003;
2.404333333333334E+009;1.771538555622101E-001;4.531254619359970E-002;6.713583134114742E-003;3.705858951434493E-003;
2.404500000000000E+009;1.788892745971680E-001;4.381778836250305E-002;6.751592271029949E-003;3.433085512369871E-003;
2.404666666666667E+009;1.806880682706833E-001;4.277084767818451E-002;6.471516564488411E-003;4.095747135579586E-003;
2.404833333333334E+009;1.824395358562470E-001;4.139178246259689E-002;7.315605878829956E-003;3.240036545321345E-003;
2.405000000000000E+009;1.837650835514069E-001;4.086335375905037E-002;6.220858078449965E-003;3.132293699309230E-003;
2.405166666666667E+009;1.855521798133850E-001;3.995890170335770E-002;7.457376457750797E-003;2.638656180351973E-003;
2.405333333333334E+009;1.868968755006790E-001;3.929016739130020E-002;7.706208154559135E-003;1.731124590151012E-003;
2.405500000000000E+009;1.884026527404785E-001;3.876314312219620E-002;7.555268704891205E-003;1.733862562105060E-003;
2.405666666666667E+009;1.895609647035599E-001;3.833582997322083E-002;7.134593557566404E-003;1.209029112942517E-003;
2.405833333333334E+009;1.911182105541229E-001;3.826923295855522E-002;7.291218265891075E-003;1.575635513290763E-003;
2.406000000000000E+009;1.921806484460831E-001;3.810626640915871E-002;7.380591705441475E-003;1.155146164819598E-003;
2.406166666666667E+009;1.933206766843796E-001;3.785793110728264E-002;7.194902747869492E-003;1.070282305590808E-003;
2.406333333333334E+009;1.943184137344360E-001;3.784417733550072E-002;7.205317262560129E-003;6.468425272032619E-004;
2.406500000000000E+009;1.951381415128708E-001;3.796394914388657E-002;7.041400298476219E-003;3.724486741703004E-004;
2.406666666666667E+009;1.960447579622269E-001;3.812520951032639E-002;7.015509530901909E-003;-9.733967453939840E-005;
2.406833333333334E+009;1.966431587934494E-001;3.820535540580750E-002;6.851790938526392E-003;-9.454637620365247E-005;
2.407000000000000E+009;1.970132887363434E-001;3.852699324488640E-002;6.829631049185991E-003;-3.711102472152561E-004;
2.407166666666667E+009;1.974333971738815E-001;3.849792852997780E-002;6.729471031576395E-003;-5.986370379105210E-004;
2.407333333333334E+009;1.973635405302048E-001;3.875320404767990E-002;6.693580187857151E-003;-7.400262984447181E-004;
2.407500000000000E+009;1.975785195827484E-001;3.892948105931282E-002;6.386860739439726E-003;-1.125210546888411E-003;
2.407666666666667E+009;1.977453380823135E-001;3.905927017331123E-002;6.249780766665936E-003;-1.353628234937787E-003;
2.407833333333334E+009;1.972338855266571E-001;3.909784182906151E-002;6.176155526190996E-003;-1.407458446919918E-003;
2.408000000000000E+009;1.973188221454620E-001;3.900839015841484E-002;5.986711475998163E-003;-1.386785414069891E-003;
2.408166666666667E+009;1.968225091695786E-001;3.889889270067215E-002;5.915560759603977E-003;-1.570652122609317E-003;
2.408333333333334E+009;1.963090598583221E-001;3.856873512268066E-002;5.782218649983406E-003;-1.776385121047497E-003;
2.408500000000000E+009;1.957753747701645E-001;3.832119330763817E-002;5.649861413985491E-003;-1.840622397139669E-003;
2.408666666666667E+009;1.951911151409149E-001;3.788713738322258E-002;5.511844530701637E-003;-1.805541920475662E-003;
2.408833333333334E+009;1.944268494844437E-001;3.740309551358223E-002;5.444462411105633E-003;-2.002761699259281E-003;
2.409000000000000E+009;1.934953182935715E-001;3.645812720060349E-002;5.503756925463677E-003;-1.885707955807447E-003;
2.409166666666667E+009;1.925752013921738E-001;3.575986996293068E-002;5.343392957001925E-003;-2.027509501203895E-003;
2.409333333333334E+009;1.916097104549408E-001;3.492324426770210E-002;5.170805379748344E-003;-2.175936708226800E-003;
2.409500000000000E+009;1.905033141374588E-001;3.378343954682350E-002;5.207482725381851E-003;-2.146339975297451E-003;
2.409666666666667E+009;1.894052177667618E-001;3.240289166569710E-002;5.096057429909706E-003;-2.316457917913795E-003;
2.409833333333334E+009;1.883761733770371E-001;3.112763538956642E-002;5.087784025818110E-003;-2.371992683038116E-003;
2.410000000000000E+009;1.872424632310867E-001;2.962644584476948E-002;4.993495997041464E-003;-2.654558280482888E-003;
2.410166666666667E+009;1.861862838268280E-001;2.781886421144009E-002;5.188126116991043E-003;-2.574515528976917E-003;
2.410333333333334E+009;1.851581782102585E-001;2.620985545217991E-002;5.067583173513413E-003;-2.682420425117016E-003;
2.410500000000000E+009;1.839371472597122E-001;2.434002608060837E-002;4.979026503860951E-003;-2.884835470467806E-003;
2.410666666666667E+009;1.832088232040405E-001;2.214550226926804E-002;4.922982305288315E-003;-3.050386207178235E-003;
2.410833333333334E+009;1.824738979339600E-001;1.985155604779720E-002;4.858662839978933E-003;-3.248110646381974E-003;
2.411000000000000E+009;1.815288811922073E-001;1.779669336974621E-002;4.585709888488054E-003;-3.191841766238213E-003;
2.411166666666667E+009;1.808103024959564E-001;1.563246734440327E-002;4.606580827385187E-003;-3.373259445652366E-003;
2.411333333333334E+009;1.803015470504761E-001;1.304631400853396E-002;4.542386159300804E-003;-3.540588775649667E-003;
2.411500000000000E+009;1.796158701181412E-001;1.074687484651804E-002;4.451190121471882E-003;-3.703500609844923E-003;
2.411666666666667E+009;1.796263009309769E-001;8.261272683739662E-003;4.201194271445274E-003;-3.668767865747213E-003;
2.411833333333334E+009;1.788822114467621E-001;5.778717808425427E-003;4.146723542362452E-003;-3.873903537169099E-003;
2.412000000000000E+009;1.791487634181976E-001;3.238186473026872E-003;4.051038064062595E-003;-3.929870668798685E-003;
2.412166666666667E+009;1.790340393781662E-001;9.673462482169271E-004;4.091888200491667E-003;-4.006569739431143E-003;
2.412333333333334E+009;1.792693883180618E-001;-1.803737133741379E-003;3.857199801132083E-003;-3.916527610272169E-003;
2.412500000000000E+009;1.796705424785614E-001;-4.346771165728569E-003;3.902879077941179E-003;-4.043727181851864E-003;
2.412666666666667E+009;1.800125390291214E-001;-6.878536194562912E-003;3.832639660686255E-003;-4.159884061664343E-003;
2.412833333333334E+009;1.807134300470352E-001;-9.333694353699684E-003;3.819614183157682E-003;-4.332282580435276E-003;
2.413000000000000E+009;1.814719736576080E-001;-1.170662418007851E-002;3.612228436395526E-003;-4.467399325221777E-003;
2.413166666666667E+009;1.818884015083313E-001;-1.420952472835779E-002;3.553186077624559E-003;-4.623775836080313E-003;
2.413333333333334E+009;1.831036657094955E-001;-1.639057509601116E-002;3.454988589510322E-003;-4.721357487142086E-003;
2.413500000000000E+009;1.839394420385361E-001;-1.893341541290283E-002;3.324548248201609E-003;-4.863305948674679E-003;
2.413666666666667E+009;1.852006167173386E-001;-2.118027023971081E-002;3.255170537158847E-003;-5.010865163058043E-003;
2.413833333333334E+009;1.862353235483170E-001;-2.326560206711292E-002;3.157911356538534E-003;-5.179089959710836E-003;
2.414000000000000E+009;1.874057799577713E-001;-2.544942498207092E-002;2.730724634602666E-003;-5.383768118917942E-003;
2.414166666666667E+009;1.886985301971436E-001;-2.735377475619316E-002;2.647430403158069E-003;-5.241591017693281E-003;
2.414333333333334E+009;1.897528916597366E-001;-2.937003970146179E-002;2.511873608455062E-003;-5.562840029597282E-003;
2.414500000000000E+009;1.911932379007340E-001;-3.105906769633293E-002;2.207251964136958E-003;-5.573195405304432E-003;
2.414666666666667E+009;1.922954171895981E-001;-3.264397382736206E-002;1.945800380781293E-003;-5.810691043734551E-003;
2.414833333333334E+009;1.933560073375702E-001;-3.413248434662819E-002;1.811809255741537E-003;-5.644685588777065E-003;
2.415000000000000E+009;1.945611238479614E-001;-3.541206568479538E-002;1.618646783754230E-003;-5.755966994911432E-003;
2.415166666666667E+009;1.959864348173142E-001;-3.672342374920845E-002;1.482364023104310E-003;-5.749111063778400E-003;
2.415333333333334E+009;1.972128152847290E-001;-3.778113797307015E-002;1.384158851578832E-003;-5.776430014520884E-003;
2.415500000000000E+009;1.982819586992264E-001;-3.857298567891121E-002;1.134743914008141E-003;-5.796087905764580E-003;
2.415666666666667E+009;1.995292156934738E-001;-3.950519859790802E-002;9.613148868083954E-004;-5.764821078628302E-003;
2.415833333333334E+009;2.003486305475235E-001;-4.008202254772186E-002;7.431075791828334E-004;-5.667919293045998E-003;
2.416000000000000E+009;2.013181895017624E-001;-4.071077331900597E-002;5.930498009547591E-004;-5.797679536044598E-003;
2.416166666666667E+009;2.021726816892624E-001;-4.135661944746971E-002;5.048231687396765E-004;-5.714741069823504E-003;
2.416333333333334E+009;2.028177231550217E-001;-4.164844378829002E-002;4.797390720341355E-004;-5.854533519595861E-003;
2.416500000000000E+009;2.033972591161728E-001;-4.187168926000595E-002;2.272031706525013E-004;-5.867243744432926E-003;
2.416666666666667E+009;2.038078904151917E-001;-4.223796352744103E-002;6.694017793051899E-005;-5.929975304752588E-003;
2.416833333333334E+009;2.041282653808594E-001;-4.207330942153931E-002;2.875541213143151E-006;-5.948450416326523E-003;
2.417000000000000E+009;2.043633610010147E-001;-4.223693907260895E-002;-1.414341531926766E-004;-6.024181377142668E-003;
2.417166666666667E+009;2.042078077793121E-001;-4.215889796614647E-002;-2.549397759139538E-004;-6.094764452427626E-003;
2.417333333333334E+009;2.041708976030350E-001;-4.197039827704430E-002;-5.449352902360261E-004;-6.303452886641026E-003;
2.417500000000000E+009;2.039317339658737E-001;-4.195316880941391E-002;-7.211130578070879E-004;-6.286348216235638E-003;
2.417666666666667E+009;2.035220116376877E-001;-4.180265590548515E-002;-8.355948375537992E-004;-6.287626922130585E-003;
2.417833333333334E+009;2.031778395175934E-001;-4.145660996437073E-002;-1.223244587890804E-003;-6.212807726114988E-003;
2.418000000000000E+009;2.026520818471909E-001;-4.124011471867561E-002;-1.440310501493514E-003;-6.169747095555067E-003;
2.418166666666667E+009;2.018445134162903E-001;-4.106616973876953E-002;-1.699012471362948E-003;-6.095262710005045E-003;
2.418333333333334E+009;2.008657157421112E-001;-4.084967076778412E-002;-1.947260228917003E-003;-6.185234524309635E-003;
2.418500000000000E+009;1.999447047710419E-001;-4.073207825422287E-002;-2.432538429275155E-003;-6.054827477782965E-003;
2.418666666666667E+009;1.990343630313873E-001;-4.056482762098312E-002;-2.602111082524061E-003;-6.106874439865351E-003;
2.418833333333334E+009;1.977447718381882E-001;-4.063588753342629E-002;-2.814849372953177E-003;-5.869771353900433E-003;
2.419000000000000E+009;1.965067833662033E-001;-4.073751717805862E-002;-3.164228284731507E-003;-5.613656714558601E-003;
2.419166666666667E+009;1.951749920845032E-001;-4.105507954955101E-002;-3.250869223847985E-003;-5.545342341065407E-003;
2.419333333333334E+009;1.937822699546814E-001;-4.137226566672325E-002;-3.322963370010257E-003;-5.278037395328283E-003;
2.419500000000000E+009;1.922008246183395E-001;-4.168572276830673E-002;-3.544037230312824E-003;-5.158383864909411E-003;
2.419666666666667E+009;1.905449330806732E-001;-4.232995212078095E-002;-3.619631985202432E-003;-5.114971660077572E-003;
2.419833333333334E+009;1.889317482709885E-001;-4.297427833080292E-002;-3.617273876443505E-003;-5.035969428718090E-003;
2.420000000000000E+009;1.873672008514404E-001;-4.377201199531555E-002;-3.763838438317180E-003;-4.857110325247049E-003;
2.420166666666667E+009;1.856884360313416E-001;-4.461685940623283E-002;-3.911928273737431E-003;-4.630974028259516E-003;
2.420333333333334E+009;1.839050203561783E-001;-4.579709097743034E-002;-4.025894217193127E-003;-4.709682893007994E-003;
2.420500000000000E+009;1.821897625923157E-001;-4.708252847194672E-002;-4.276157822459936E-003;-4.481135867536068E-003;
2.420666666666667E+009;1.804237216711044E-001;-4.812830314040184E-002;-4.333437886089087E-003;-4.525180440396071E-003;
2.420833333333334E+009;1.788899749517441E-001;-4.968709498643875E-002;-4.628639202564955E-003;-4.286454990506172E-003;
2.421000000000000E+009;1.772381812334061E-001;-5.107569321990013E-002;-4.838292486965656E-003;-4.230936523526907E-003;
2.421166666666667E+009;1.756496727466583E-001;-5.293133109807968E-002;-4.878752864897251E-003;-3.949726466089487E-003;
2.421333333333334E+009;1.739320904016495E-001;-5.421116948127747E-002;-5.084025673568249E-003;-3.779312595725060E-003;
2.421500000000000E+009;1.723268032073975E-001;-5.627320706844330E-002;-5.163846071809530E-003;-3.494177944958210E-003;
2.421666666666667E+009;1.712176948785782E-001;-5.794347822666168E-002;-5.431728437542915E-003;-3.347939345985651E-003;
2.421833333333334E+009;1.699584871530533E-001;-5.994917452335358E-002;-5.405891221016645E-003;-3.115811850875616E-003;
2.422000000000000E+009;1.686274409294128E-001;-6.197677180171013E-002;-5.507706198841333E-003;-2.827365882694721E-003;
2.422166666666667E+009;1.677357107400894E-001;-6.415449082851410E-002;-5.604764912277460E-003;-2.414984395727515E-003;
2.422333333333334E+009;1.665119826793671E-001;-6.616207957267761E-002;-5.565286614000797E-003;-2.236217493191361E-003;
2.422500000000000E+009;1.656963825225830E-001;-6.811715662479401E-002;-5.680982023477554E-003;-1.960410503670573E-003;
2.422666666666667E+009;1.649081408977509E-001;-7.030510902404785E-002;-5.582251586019993E-003;-1.703121815808117E-003;
2.422833333333334E+009;1.642777323722839E-001;-7.223266363143921E-002;-5.508337635546923E-003;-1.527435262687504E-003;
2.423000000000000E+009;1.636946946382523E-001;-7.461521774530411E-002;-5.307747516781092E-003;-1.238501397892833E-003;
2.423166666666667E+009;1.633446216583252E-001;-7.656972855329514E-002;-5.330775398761034E-003;-8.608080097474158E-004;
2.423333333333334E+009;1.629348099231720E-001;-7.865734398365021E-002;-5.189951974898577E-003;-7.919644704088569E-004;
2.423500000000000E+009;1.629592329263687E-001;-8.066096901893616E-002;-5.277945194393396E-003;-6.871020304970443E-004;
2.423666666666667E+009;1.629145741462708E-001;-8.252322673797607E-002;-5.129404366016388E-003;-5.336907343007624E-004;
2.423833333333334E+009;1.628348529338837E-001;-8.429268002510071E-002;-4.882322624325752E-003;-3.040437877643853E-004;
2.424000000000000E+009;1.629720926284790E-001;-8.635231107473373E-002;-4.935693461447954E-003;-1.417382300132886E-004;
2.424166666666667E+009;1.630471199750900E-001;-8.800240606069565E-002;-4.808010533452034E-003;-1.780126476660371E-004;
2.424333333333334E+009;1.633005291223526E-001;-8.962317556142807E-002;-4.684410989284515E-003;-3.504105188767426E-005;
2.424500000000000E+009;1.637499034404755E-001;-9.150192141532898E-002;-4.628296941518784E-003;2.113199734594673E-004;
2.424666666666667E+009;1.639810353517532E-001;-9.284567832946777E-002;-4.593467339873314E-003;1.776881545083597E-004;
2.424833333333334E+009;1.645253896713257E-001;-9.450418502092362E-002;-4.543316550552845E-003;3.449647920206189E-004;
2.425000000000000E+009;1.648917794227600E-001;-9.553302079439163E-002;-4.491735715419054E-003;2.966554020531476E-004;
2.425166666666667E+009;1.654115021228790E-001;-9.686798602342606E-002;-4.435686394572258E-003;4.250966594554484E-004;
2.425333333333334E+009;1.658328324556351E-001;-9.791059792041779E-002;-4.248608835041523E-003;5.361668299883604E-004;
2.425500000000000E+009;1.663685888051987E-001;-9.882237762212753E-002;-4.190390463918448E-003;4.898598417639732E-004;
2.425666666666667E+009;1.668941229581833E-001;-9.959830343723297E-002;-4.221465904265642E-003;6.823932635597885E-004;
2.425833333333334E+009;1.673874557018280E-001;-1.005271375179291E-001;-4.015450831502676E-003;6.977148586884141E-004;
2.426000000000000E+009;1.679152846336365E-001;-1.009864807128906E-001;-3.994166851043701E-003;7.671908824704588E-004;
2.426166666666667E+009;1.685036271810532E-001;-1.015423312783241E-001;-4.044563043862581E-003;8.530676714144647E-004;
2.426333333333334E+009;1.687494963407517E-001;-1.021021828055382E-001;-4.000781103968620E-003;8.336351602338255E-004;
2.426500000000000E+009;1.692510992288590E-001;-1.023530885577202E-001;-3.920189570635557E-003;7.737781852483749E-004;
2.426666666666667E+009;1.696555614471436E-001;-1.027025207877159E-001;-4.043566528707743E-003;9.548151865601540E-004;
2.426833333333334E+009;1.700449287891388E-001;-1.029972061514854E-001;-4.002884496003389E-003;1.089726807549596E-003;
2.427000000000000E+009;1.701806187629700E-001;-1.031757667660713E-001;-3.937314264476299E-003;9.993688436225057E-004;
2.427166666666667E+009;1.705083549022675E-001;-1.032533943653107E-001;-3.648212878033519E-003;1.129102078266442E-003;
2.427333333333334E+009;1.704844236373901E-001;-1.035853028297424E-001;-3.771560732275248E-003;1.062103314325213E-003;
2.427500000000000E+009;1.704305857419968E-001;-1.036302074790001E-001;-3.770737908780575E-003;1.107277581468225E-003;
2.427666666666667E+009;1.702368259429932E-001;-1.036215722560883E-001;-3.770700190216303E-003;1.141625340096653E-003;
