# Version 1.00
#
freq[Hz];re:Trc1_S11;im:Trc1_S11;re:Trc2_S21;im:Trc2_S21;
2.400000000000000E+009;1.581684201955795E-001;6.251505017280579E-002;1.512893592007458E-003;1.649398007430136E-003;
2.400166666666667E+009;1.580991446971893E-001;6.097708642482758E-002;1.488191657699645E-003;1.567323226481676E-003;
2.400333333333334E+009;1.579470187425613E-001;5.897226929664612E-002;1.634594518691301E-003;1.597560592927039E-003;
2.400500000000000E+009;1.579098403453827E-001;5.688865110278130E-002;1.652143779210746E-003;1.608849153853953E-003;
2.400666666666667E+009;1.577627211809158E-001;5.505737289786339E-002;1.641738926991820E-003;1.440395717509091E-003;
2.400833333333334E+009;1.578737050294876E-001;5.324453487992287E-002;1.788258785381913E-003;1.369908801279962E-003;
2.401000000000000E+009;1.580347269773483E-001;5.104443058371544E-002;1.760637387633324E-003;1.475907047279179E-003;
2.401166666666667E+009;1.582647264003754E-001;4.907195642590523E-002;1.740422449074686E-003;1.169378869235516E-003;
2.401333333333334E+009;1.583232581615448E-001;4.683073982596397E-002;1.958845416083932E-003;1.155175850726664E-003;
2.401500000000000E+009;1.585154086351395E-001;4.494095221161842E-002;1.896598841995001E-003;1.025781151838601E-003;
2.401666666666667E+009;1.588872224092484E-001;4.287316277623177E-002;1.828079926781356E-003;1.229787361808121E-003;
2.401833333333334E+009;1.592649370431900E-001;4.071863740682602E-002;1.925600459799171E-003;9.330651955679059E-004;
2.402000000000000E+009;1.596130281686783E-001;3.877041488885880E-002;1.937609049491584E-003;9.176170569844544E-004;
2.402166666666667E+009;1.602248102426529E-001;3.664495050907135E-002;1.875181798823178E-003;7.844594656489790E-004;
2.402333333333334E+009;1.608116626739502E-001;3.498700633645058E-002;1.959878485649824E-003;7.124360417947173E-004;
2.402500000000000E+009;1.614692807197571E-001;3.310316801071167E-002;1.843097270466387E-003;7.164253620430827E-004;
2.402666666666667E+009;1.622485220432282E-001;3.120327927172184E-002;1.866319566033781E-003;6.850544014014304E-004;
2.402833333333334E+009;1.631159484386444E-001;2.942793630063534E-002;2.018277766183019E-003;6.916709244251251E-004;
2.403000000000000E+009;1.635557562112808E-001;2.805301733314991E-002;2.088706474751234E-003;5.198633880354464E-004;
2.403166666666667E+009;1.645269244909287E-001;2.642155066132546E-002;1.923178322613239E-003;3.891965025104582E-004;
2.403333333333334E+009;1.655022799968720E-001;2.492932043969631E-002;1.726687652990222E-003;5.194759578444064E-004;
2.403500000000000E+009;1.663102209568024E-001;2.352860197424889E-002;1.807450898922980E-003;3.110519610345364E-004;
2.403666666666667E+009;1.672811806201935E-001;2.199030853807926E-002;1.856700982898474E-003;4.130277957301587E-004;
2.403833333333334E+009;1.681956797838211E-001;2.076081372797489E-002;1.877575647085905E-003;3.290685708634555E-004;
2.404000000000000E+009;1.692953556776047E-001;1.959222927689552E-002;1.856979914009571E-003;2.015443897107616E-004;
2.404166666666667E+009;1.703119277954102E-001;1.841865852475166E-002;1.872358960099518E-003;3.075111890211701E-004;
2.404333333333334E+009;1.711670011281967E-001;1.750091277062893E-002;1.858112635090947E-003;1.678061671555042E-004;
2.404500000000000E+009;1.719592809677124E-001;1.646872796118259E-002;1.910438993945718E-003;1.751759118633345E-004;
2.404666666666667E+009;1.731612086296082E-001;1.566668413579464E-002;1.738460618071258E-003;1.414849830325693E-004;
2.404833333333334E+009;1.738954335451126E-001;1.476193219423294E-002;1.645786338485777E-003;1.128894291468896E-004;
2.405000000000000E+009;1.748967617750168E-001;1.413276884704828E-002;1.863379264250398E-003;-2.502470670151524E-005;
2.405166666666667E+009;1.756610274314880E-001;1.338122412562370E-002;1.818783930502832E-003;-2.072698771371506E-005;
2.405333333333334E+009;1.764996796846390E-001;1.285783946514130E-002;1.887312741018832E-003;-4.338207509135827E-005;
2.405500000000000E+009;1.772367507219315E-001;1.229953672736883E-002;1.708248048089445E-003;-1.555083726998419E-004;
2.405666666666667E+009;1.780009120702744E-001;1.199659332633019E-002;1.863336539827287E-003;-2.050787406915333E-005;
2.405833333333334E+009;1.783611923456192E-001;1.152105350047350E-002;1.849132939241827E-003;1.139324158430100E-004;
2.406000000000000E+009;1.790540218353272E-001;1.108822412788868E-002;1.795618911273778E-003;-1.753813558025286E-004;
2.406166666666667E+009;1.794083267450333E-001;1.092616375535727E-002;1.910657389089465E-003;-1.186479858006351E-004;
2.406333333333334E+009;1.800146251916885E-001;1.051400229334831E-002;1.978128217160702E-003;-1.338987058261409E-004;
2.406500000000000E+009;1.803558468818665E-001;1.020364370197058E-002;1.860497286543250E-003;-1.977358479052782E-004;
2.406666666666667E+009;1.804005205631256E-001;9.962916374206543E-003;1.824039383791387E-003;-3.521277394611388E-004;
2.406833333333334E+009;1.806573569774628E-001;9.594026021659374E-003;1.945290947332978E-003;-2.175395202357322E-004;
2.407000000000000E+009;1.808223277330399E-001;9.404907934367657E-003;1.795089105144143E-003;-3.852881200145930E-004;
2.407166666666667E+009;1.808231025934219E-001;9.029901586472988E-003;1.796147902496159E-003;-3.270756860729307E-004;
2.407333333333334E+009;1.806854605674744E-001;8.687146939337254E-003;1.846729894168675E-003;-5.292714922688901E-004;
2.407500000000000E+009;1.806020885705948E-001;8.292512968182564E-003;1.810789690352976E-003;-4.274437378626317E-004;
2.407666666666667E+009;1.804907619953156E-001;7.811686955392361E-003;1.882917480543256E-003;-7.647775346413255E-004;
2.407833333333334E+009;1.799106448888779E-001;7.103475276380777E-003;1.935586333274841E-003;-7.909958367235959E-004;
2.408000000000000E+009;1.796442121267319E-001;6.587990559637547E-003;2.052993746474385E-003;-6.745849386788905E-004;
2.408166666666667E+009;1.792735308408737E-001;6.169289816170931E-003;1.923371222801507E-003;-7.059833733364940E-004;
2.408333333333334E+009;1.789190173149109E-001;5.379953421652317E-003;1.963189104571939E-003;-8.013398619368672E-004;
2.408500000000000E+009;1.782683879137039E-001;4.477460868656635E-003;1.849112333729863E-003;-9.257280034944415E-004;
2.408666666666667E+009;1.777898669242859E-001;3.554129507392645E-003;1.790371024981141E-003;-8.505600271746516E-004;
2.408833333333334E+009;1.769545078277588E-001;2.577426144853234E-003;1.913142506964505E-003;-9.859881829470396E-004;
2.409000000000000E+009;1.764108687639237E-001;1.555158058181405E-003;1.752943266183138E-003;-9.848139015957713E-004;
2.409166666666667E+009;1.757856011390686E-001;3.853077942039818E-004;1.714446232654154E-003;-1.072264974936843E-003;
2.409333333333334E+009;1.751521080732346E-001;-7.813953561708331E-004;1.801722100935876E-003;-1.133162993937731E-003;
2.409500000000000E+009;1.744161397218704E-001;-2.227048156782985E-003;1.767696579918265E-003;-1.148316310718656E-003;
2.409666666666667E+009;1.736621707677841E-001;-3.594974055886269E-003;1.785623491741717E-003;-1.294221961870790E-003;
2.409833333333334E+009;1.729538142681122E-001;-5.027992185205221E-003;1.793627860024571E-003;-1.322547439485788E-003;
2.410000000000000E+009;1.722839176654816E-001;-6.473920773714781E-003;1.778042293153703E-003;-1.523745944723487E-003;
2.410166666666667E+009;1.716181784868240E-001;-8.183945901691914E-003;1.809226116165519E-003;-1.280077965930104E-003;
2.410333333333334E+009;1.708535104990006E-001;-9.725223295390606E-003;1.780063495971263E-003;-1.554447575472295E-003;
2.410500000000000E+009;1.703338325023651E-001;-1.155846938490868E-002;1.674570958130062E-003;-1.551755587570369E-003;
2.410666666666667E+009;1.697608232498169E-001;-1.346693933010101E-002;1.632378785870969E-003;-1.628413563594222E-003;
2.410833333333334E+009;1.694934219121933E-001;-1.500732358545065E-002;1.610510633327067E-003;-1.792523427866399E-003;
2.411000000000000E+009;1.689344793558121E-001;-1.699563674628735E-002;1.491618459112942E-003;-1.766709028743208E-003;
2.411166666666667E+009;1.685068309307098E-001;-1.897223480045795E-002;1.499745994806290E-003;-1.893761218525469E-003;
2.411333333333334E+009;1.682351678609848E-001;-2.086522802710533E-002;1.472884323447943E-003;-1.907403580844402E-003;
2.411500000000000E+009;1.680187880992889E-001;-2.288475260138512E-002;1.513169845566154E-003;-1.940154936164618E-003;
2.411666666666667E+009;1.680850386619568E-001;-2.481330931186676E-002;1.390375779010356E-003;-1.977372216060758E-003;
2.411833333333334E+009;1.679705381393433E-001;-2.671367861330509E-002;1.271279994398356E-003;-2.258874708786607E-003;
2.412000000000000E+009;1.680516004562378E-001;-2.866190299391747E-002;1.156006823293865E-003;-2.253254409879446E-003;
2.412166666666667E+009;1.679777950048447E-001;-3.062466718256474E-002;9.802673012018204E-004;-2.354875672608614E-003;
2.412333333333334E+009;1.681493073701859E-001;-3.253307566046715E-002;1.057970919646323E-003;-2.445515245199204E-003;
2.412500000000000E+009;1.684488207101822E-001;-3.456481173634529E-002;7.539937505498529E-004;-2.366327913478017E-003;
2.412666666666667E+009;1.686242967844009E-001;-3.656864538788796E-002;7.242684951052070E-004;-2.539510140195489E-003;
2.412833333333334E+009;1.690956503152847E-001;-3.837449476122856E-002;6.841011927463114E-004;-2.598509425297380E-003;
2.413000000000000E+009;1.693097949028015E-001;-3.999059274792671E-002;4.918883205391467E-004;-2.575874095782638E-003;
2.413166666666667E+009;1.698026955127716E-001;-4.163640365004540E-002;4.186860460322350E-004;-2.658396726474166E-003;
2.413333333333334E+009;1.703221499919891E-001;-4.338367655873299E-002;3.586116363294423E-004;-2.726264996454120E-003;
2.413500000000000E+009;1.708753257989883E-001;-4.520208388566971E-002;1.403303758706898E-004;-2.643216866999865E-003;
2.413666666666667E+009;1.713887155056000E-001;-4.686767235398293E-002;8.286237425636500E-005;-2.722015604376793E-003;
2.413833333333334E+009;1.718048751354218E-001;-4.815974831581116E-002;-1.113284160965122E-004;-2.705428982153535E-003;
2.414000000000000E+009;1.723387837409973E-001;-4.964204132556915E-002;-2.969743509311229E-004;-2.471203217282891E-003;
2.414166666666667E+009;1.729455292224884E-001;-5.092589184641838E-002;-2.518748806323856E-004;-2.788197714835405E-003;
2.414333333333334E+009;1.735434532165527E-001;-5.220707133412361E-002;-4.552482569124550E-004;-2.615743549540639E-003;
2.414500000000000E+009;1.742135882377625E-001;-5.326885357499123E-002;-5.751676508225501E-004;-2.555982908234000E-003;
2.414666666666667E+009;1.746001690626144E-001;-5.436513200402260E-002;-7.467023679055274E-004;-2.499465132132173E-003;
2.414833333333334E+009;1.751747131347656E-001;-5.530927330255508E-002;-6.933478289283812E-004;-2.297969302162528E-003;
2.415000000000000E+009;1.755344420671463E-001;-5.607616528868675E-002;-9.759913082234561E-004;-2.372097456827760E-003;
2.415166666666667E+009;1.760323047637940E-001;-5.693186447024345E-002;-1.027579070068896E-003;-2.243013121187687E-003;
2.415333333333334E+009;1.764657795429230E-001;-5.778127908706665E-002;-1.158404513262212E-003;-2.396038966253400E-003;
2.415500000000000E+009;1.767822951078415E-001;-5.829701945185661E-002;-1.305856741964817E-003;-2.162843476980925E-003;
2.415666666666667E+009;1.771006286144257E-001;-5.865090340375900E-002;-1.378979068249464E-003;-2.106963424012065E-003;
2.415833333333334E+009;1.774549782276154E-001;-5.921588838100433E-002;-1.250687171705067E-003;-2.019911538809538E-003;
2.416000000000000E+009;1.773475110530853E-001;-5.972538143396378E-002;-1.483767875470221E-003;-1.894523156806827E-003;
2.416166666666667E+009;1.776749640703201E-001;-6.018923968076706E-002;-1.533251139335334E-003;-1.878859824500978E-003;
2.416333333333334E+009;1.775984615087509E-001;-6.028404459357262E-002;-1.534103532321751E-003;-1.563178142532706E-003;
2.416500000000000E+009;1.776011884212494E-001;-6.053353473544121E-002;-1.627734862267971E-003;-1.648026984184980E-003;
2.416666666666667E+009;1.772900372743607E-001;-6.078383326530457E-002;-1.529552973806858E-003;-1.512049231678248E-003;
2.416833333333334E+009;1.770973652601242E-001;-6.114081293344498E-002;-1.637662295252085E-003;-1.344899297691882E-003;
2.417000000000000E+009;1.765809059143066E-001;-6.129749491810799E-002;-1.812417060136795E-003;-1.228527398779988E-003;
2.417166666666667E+009;1.761246323585510E-001;-6.141588836908341E-002;-1.800317200832069E-003;-1.159870997071266E-003;
2.417333333333334E+009;1.756752282381058E-001;-6.165033578872681E-002;-1.591214328072965E-003;-1.157870865426958E-003;
2.417500000000000E+009;1.751659959554672E-001;-6.198696047067642E-002;-1.577385351993144E-003;-1.026011770591140E-003;
2.417666666666667E+009;1.744798123836517E-001;-6.187853589653969E-002;-1.677553402259946E-003;-8.637218270450831E-004;
2.417833333333334E+009;1.736304014921188E-001;-6.227955222129822E-002;-1.621325849555433E-003;-7.637488306500018E-004;
2.418000000000000E+009;1.727931052446365E-001;-6.256213784217835E-002;-1.473111682571471E-003;-7.789168157614768E-004;
2.418166666666667E+009;1.719214022159576E-001;-6.279996782541275E-002;-1.507840352132917E-003;-5.184194887988269E-004;
2.418333333333334E+009;1.710953414440155E-001;-6.322016566991806E-002;-1.593915745615959E-003;-6.770606269128621E-004;
2.418500000000000E+009;1.699240505695343E-001;-6.352613121271133E-002;-1.410789554938674E-003;-4.434798029251397E-004;
2.418666666666667E+009;1.688949912786484E-001;-6.387367099523544E-002;-1.496326527558267E-003;-5.509221809916198E-004;
2.418833333333334E+009;1.676508933305740E-001;-6.450580805540085E-002;-1.310580526478589E-003;-4.991519381292164E-004;
2.419000000000000E+009;1.664457619190216E-001;-6.508941948413849E-002;-1.356911263428628E-003;-4.106920969206840E-004;
2.419166666666667E+009;1.652811020612717E-001;-6.579374521970749E-002;-1.265020458959043E-003;-5.093124345876277E-004;
2.419333333333334E+009;1.640093922615051E-001;-6.631647795438767E-002;-1.148133305832744E-003;-4.816894070245326E-004;
2.419500000000000E+009;1.627967059612274E-001;-6.716734170913696E-002;-1.161808846518397E-003;-4.215167718939483E-004;
2.419666666666667E+009;1.616354137659073E-001;-6.797427684068680E-002;-1.119448686949909E-003;-4.213312058709562E-004;
2.419833333333334E+009;1.604110449552536E-001;-6.898354738950729E-002;-1.230897847563028E-003;-3.665724943857640E-004;
2.420000000000000E+009;1.593786329030991E-001;-7.007237523794174E-002;-1.185296219773591E-003;-4.104797844775021E-004;
2.420166666666667E+009;1.582411378622055E-001;-7.117443531751633E-002;-1.105139846913517E-003;-4.452478024177253E-004;
2.420333333333334E+009;1.571098119020462E-001;-7.244786620140076E-002;-1.136096310801804E-003;-3.866237238980830E-004;
2.420500000000000E+009;1.561630815267563E-001;-7.358825206756592E-002;-1.131773809902370E-003;-4.773399850819260E-004;
2.420666666666667E+009;1.549564450979233E-001;-7.482887059450150E-002;-1.140473061241210E-003;-3.312703047413379E-004;
2.420833333333334E+009;1.541856080293655E-001;-7.629617303609848E-002;-1.006931881420314E-003;-4.076171026099473E-004;
2.421000000000000E+009;1.532464325428009E-001;-7.777257263660431E-002;-9.985610377043486E-004;-5.365310935303569E-004;
2.421166666666667E+009;1.525176018476486E-001;-7.937035709619522E-002;-1.072644488885999E-003;-4.753404646180570E-004;
2.421333333333334E+009;1.519375741481781E-001;-8.091749250888825E-002;-1.086044940166175E-003;-6.432874943129718E-004;
2.421500000000000E+009;1.511190831661224E-001;-8.244504034519196E-002;-1.023859251290560E-003;-5.232978728599846E-004;
2.421666666666667E+009;1.507184356451035E-001;-8.411549776792526E-002;-1.156421029008925E-003;-6.254740292206407E-004;
2.421833333333334E+009;1.503190696239471E-001;-8.573118597269058E-002;-1.120696892030537E-003;-5.785043467767537E-004;
2.422000000000000E+009;1.496848464012146E-001;-8.745234459638596E-002;-1.240102341398597E-003;-6.346213631331921E-004;
2.422166666666667E+009;1.494884788990021E-001;-8.930436521768570E-002;-1.284926664084196E-003;-5.408523720689118E-004;
2.422333333333334E+009;1.494477391242981E-001;-9.112060070037842E-002;-1.297164126299322E-003;-7.275550742633641E-004;
2.422500000000000E+009;1.493479460477829E-001;-9.269311279058456E-002;-1.407633419148624E-003;-5.884874844923616E-004;
2.422666666666667E+009;1.491096317768097E-001;-9.441863000392914E-002;-1.507444190792739E-003;-5.665955250151455E-004;
2.422833333333334E+009;1.492720097303391E-001;-9.616222232580185E-002;-1.550624729134142E-003;-6.008253549225628E-004;
2.423000000000000E+009;1.493691951036453E-001;-9.777405858039856E-002;-1.539349090307951E-003;-4.645712324418128E-004;
2.423166666666667E+009;1.495969146490097E-001;-9.956263750791550E-002;-1.629502978175879E-003;-4.685034509748220E-004;
2.423333333333334E+009;1.498630940914154E-001;-1.009832024574280E-001;-1.651935512199998E-003;-3.513522678986192E-004;
2.423500000000000E+009;1.501180231571198E-001;-1.027690321207047E-001;-1.718934974633157E-003;-2.821933885570616E-004;
2.423666666666667E+009;1.503047943115234E-001;-1.041960790753365E-001;-1.817453070543706E-003;-2.552370715420693E-004;
2.423833333333334E+009;1.509199738502502E-001;-1.057429388165474E-001;-1.730994903482497E-003;-3.983484639320523E-004;
2.424000000000000E+009;1.511872410774231E-001;-1.070697084069252E-001;-1.825651270337403E-003;-6.410626519937068E-005;
2.424166666666667E+009;1.516164988279343E-001;-1.084503233432770E-001;-1.982160378247500E-003;-3.562005076673813E-005;
2.424333333333334E+009;1.522059291601181E-001;-1.094751283526421E-001;-2.002806868404150E-003;-3.242136244807625E-006;
2.424500000000000E+009;1.526885032653809E-001;-1.108848750591278E-001;-2.048004185780883E-003;7.584124250570312E-005;
2.424666666666667E+009;1.532274782657623E-001;-1.116927787661552E-001;-1.914750668220222E-003;2.380857768002898E-004;
2.424833333333334E+009;1.536252349615097E-001;-1.128161177039146E-001;-1.945016672834754E-003;2.809831348713487E-004;
2.425000000000000E+009;1.541985571384430E-001;-1.138601377606392E-001;-1.867462997324765E-003;3.497195721138269E-004;
2.425166666666667E+009;1.544075161218643E-001;-1.146482005715370E-001;-1.889123930595815E-003;4.917394253425300E-004;
2.425333333333334E+009;1.549289822578430E-001;-1.153991073369980E-001;-1.970702549442649E-003;6.002350128255785E-004;
2.425500000000000E+009;1.553215831518173E-001;-1.161161586642265E-001;-1.840779441408813E-003;6.482584285549820E-004;
2.425666666666667E+009;1.555157601833344E-001;-1.167814657092094E-001;-1.961832866072655E-003;7.167723379097879E-004;
2.425833333333334E+009;1.557194739580154E-001;-1.173194125294685E-001;-1.958979060873389E-003;9.211297729052603E-004;
2.426000000000000E+009;1.559907495975494E-001;-1.179661005735397E-001;-1.694824197329581E-003;8.869809680618346E-004;
2.426166666666667E+009;1.563347727060318E-001;-1.182435974478722E-001;-1.720726490020752E-003;8.439730154350400E-004;
2.426333333333334E+009;1.562940925359726E-001;-1.184925138950348E-001;-1.607354497537017E-003;1.034230808727443E-003;
2.426500000000000E+009;1.563610881567001E-001;-1.187873631715775E-001;-1.430908101610839E-003;1.169447554275394E-003;
2.426666666666667E+009;1.564045548439026E-001;-1.188515946269035E-001;-1.496693585067987E-003;1.194360782392323E-003;
2.426833333333334E+009;1.561260074377060E-001;-1.190859153866768E-001;-1.368258032016456E-003;1.150658586993814E-003;
2.427000000000000E+009;1.557717770338059E-001;-1.192536279559135E-001;-1.376673229970038E-003;1.218819990754128E-003;
2.427166666666667E+009;1.554468125104904E-001;-1.192125305533409E-001;-1.290092361159623E-003;1.305315061472356E-003;
2.427333333333334E+009;1.549732834100723E-001;-1.194011121988297E-001;-1.205711043439806E-003;1.397647778503597E-003;
2.427500000000000E+009;1.546215862035751E-001;-1.193798333406448E-001;-1.190026174299419E-003;1.334143686108291E-003;
2.427666666666667E+009;1.538941115140915E-001;-1.195434257388115E-001;-9.973208652809262E-004;1.463443855755031E-003;
