# Version 1.00
#
freq[Hz];re:Trc1_S11;im:Trc1_S11;re:Trc2_S21;im:Trc2_S21;
2.400000000000000E+009;1.579657047986984E-001;6.236311048269272E-002;1.313893240876496E-003;1.766046159900725E-003;
2.400166666666667E+009;1.579549014568329E-001;6.086567789316177E-002;1.535056973807514E-003;1.600381801836193E-003;
2.400333333333334E+009;1.577542126178742E-001;5.907954275608063E-002;1.437037833966315E-003;1.622901763767004E-003;
2.400500000000000E+009;1.577992290258408E-001;5.709227547049522E-002;1.529200933873653E-003;1.590297673828900E-003;
2.400666666666667E+009;1.577073782682419E-001;5.522726103663445E-002;1.656302832998335E-003;1.659699366427958E-003;
2.400833333333334E+009;1.578555256128311E-001;5.318353325128555E-002;1.565535669215024E-003;1.375151681713760E-003;
2.401000000000000E+009;1.579335629940033E-001;5.103516578674316E-002;1.643876894377172E-003;1.262482022866607E-003;
2.401166666666667E+009;1.579952090978622E-001;4.892926290631294E-002;1.685989787802100E-003;1.422249013558030E-003;
2.401333333333334E+009;1.581038236618042E-001;4.689523577690125E-002;1.670288387686014E-003;1.296435133554041E-003;
2.401500000000000E+009;1.587048470973969E-001;4.473916441202164E-002;1.748444279655814E-003;1.157166436314583E-003;
2.401666666666667E+009;1.589744538068771E-001;4.284342005848885E-002;1.756078447215259E-003;1.120909582823515E-003;
2.401833333333334E+009;1.593188047409058E-001;4.081105068325996E-002;1.870482927188277E-003;1.145192771218717E-003;
2.402000000000000E+009;1.596572995185852E-001;3.880051895976067E-002;1.898416550830007E-003;1.091648126021028E-003;
2.402166666666667E+009;1.601387113332748E-001;3.688542917370796E-002;1.906722434796393E-003;1.022353186272085E-003;
2.402333333333334E+009;1.606882363557816E-001;3.493129462003708E-002;1.808625995181501E-003;7.690941565670073E-004;
2.402500000000000E+009;1.614779680967331E-001;3.314620628952980E-002;1.851485925726593E-003;8.267937228083611E-004;
2.402666666666667E+009;1.622060537338257E-001;3.143247961997986E-002;1.952218008227646E-003;6.950801471248269E-004;
2.402833333333334E+009;1.628120243549347E-001;2.951330505311489E-002;1.733700628392398E-003;7.545356056652963E-004;
2.403000000000000E+009;1.636618822813034E-001;2.795846015214920E-002;1.812276430428028E-003;6.429739878512919E-004;
2.403166666666667E+009;1.645774543285370E-001;2.634944021701813E-002;1.934639061801136E-003;6.681995000690222E-004;
2.403333333333334E+009;1.655713766813278E-001;2.482128329575062E-002;2.040321705862880E-003;3.152871504426003E-004;
2.403500000000000E+009;1.664294302463532E-001;2.353697456419468E-002;1.560657634399831E-003;5.334445741027594E-004;
2.403666666666667E+009;1.674089729785919E-001;2.196950837969780E-002;1.706293318420649E-003;5.530237103812397E-004;
2.403833333333334E+009;1.684179157018662E-001;2.074786089360714E-002;1.829165965318680E-003;3.099078894592822E-004;
2.404000000000000E+009;1.694702357053757E-001;1.960008963942528E-002;1.712630037218332E-003;4.980359226465225E-004;
2.404166666666667E+009;1.701987832784653E-001;1.826928369700909E-002;2.011423697695136E-003;3.445737820584327E-004;
2.404333333333334E+009;1.712793707847595E-001;1.731596328318119E-002;1.808133209124208E-003;3.512781404424459E-004;
2.404500000000000E+009;1.720312684774399E-001;1.656438969075680E-002;1.909505110234022E-003;-6.162325735203922E-005;
2.404666666666667E+009;1.732179671525955E-001;1.565109938383102E-002;1.422662404365838E-003;2.115906827384606E-004;
2.404833333333334E+009;1.738362014293671E-001;1.489087939262390E-002;1.882588025182486E-003;2.387576969340444E-004;
2.405000000000000E+009;1.750818192958832E-001;1.414205972105265E-002;1.474118791520596E-003;9.689146827440709E-005;
2.405166666666667E+009;1.757538020610809E-001;1.345121208578348E-002;1.847852487117052E-003;1.552870671730489E-004;
2.405333333333334E+009;1.766636669635773E-001;1.278864312916994E-002;1.685609575361013E-003;7.022744739515474E-006;
2.405500000000000E+009;1.772739142179489E-001;1.243921369314194E-002;1.911336556077004E-003;-1.329875231022015E-004;
2.405666666666667E+009;1.778083294630051E-001;1.192921213805676E-002;1.996015664190054E-003;1.085587136913091E-004;
2.405833333333334E+009;1.784327328205109E-001;1.154881343245506E-002;1.814319053664804E-003;7.303238089662045E-005;
2.406000000000000E+009;1.791207641363144E-001;1.120590139180422E-002;1.783867366611958E-003;-1.968719516298734E-005;
2.406166666666667E+009;1.793816089630127E-001;1.084437966346741E-002;1.713052624836564E-003;-1.605033867235761E-005;
2.406333333333334E+009;1.800420582294464E-001;1.059259939938784E-002;1.865495229139924E-003;1.120881424867548E-004;
2.406500000000000E+009;1.803218573331833E-001;1.027679257094860E-002;1.899730879813433E-003;-1.425046066287905E-004;
2.406666666666667E+009;1.802897006273270E-001;1.002638507634401E-002;1.901128562167287E-003;-9.003924787975848E-005;
2.406833333333334E+009;1.807014495134354E-001;9.645041078329086E-003;1.996569801121950E-003;-2.394494367763400E-004;
2.407000000000000E+009;1.809059977531433E-001;9.382151998579502E-003;1.897854614071548E-003;-3.206163819413632E-004;
2.407166666666667E+009;1.809276491403580E-001;9.077213704586029E-003;1.728893257677555E-003;-4.495604953262955E-004;
2.407333333333334E+009;1.807459741830826E-001;8.573536761105061E-003;1.788449473679066E-003;-4.752439563162625E-004;
2.407500000000000E+009;1.805020272731781E-001;8.188538253307343E-003;1.832184731028974E-003;-3.514006384648383E-004;
2.407666666666667E+009;1.804332882165909E-001;7.827997207641602E-003;1.854748348705471E-003;-4.611207114066929E-004;
2.407833333333334E+009;1.799587011337280E-001;7.306534796953201E-003;1.921870163641870E-003;-6.344454013742507E-004;
2.408000000000000E+009;1.796921938657761E-001;6.550970952957869E-003;1.978656044229865E-003;-5.259047029539943E-004;
2.408166666666667E+009;1.791465878486633E-001;6.163206882774830E-003;1.983846304938197E-003;-5.223247571848333E-004;
2.408333333333334E+009;1.789407134056091E-001;5.409377627074719E-003;1.936348737217486E-003;-8.087320602498949E-004;
2.408500000000000E+009;1.783636063337326E-001;4.424023441970348E-003;1.732874196022749E-003;-7.875286391936243E-004;
2.408666666666667E+009;1.777721792459488E-001;3.595606656745076E-003;1.934978645294905E-003;-7.845555082894862E-004;
2.408833333333334E+009;1.769798547029495E-001;2.541105262935162E-003;1.853420631960034E-003;-8.598104468546808E-004;
2.409000000000000E+009;1.763934493064880E-001;1.661263289861381E-003;1.837813993915916E-003;-8.749832632020116E-004;
2.409166666666667E+009;1.756832897663117E-001;6.390718044713140E-004;1.712832832708955E-003;-9.519218583591282E-004;
2.409333333333334E+009;1.752354651689529E-001;-7.731046644039452E-004;1.907186699099839E-003;-1.078333938494325E-003;
2.409500000000000E+009;1.742857992649078E-001;-2.203131793066859E-003;1.905037672258914E-003;-1.138503313995898E-003;
2.409666666666667E+009;1.736297011375427E-001;-3.593415720388293E-003;1.879801857285202E-003;-1.253413851372898E-003;
2.409833333333334E+009;1.729194223880768E-001;-4.836054518818855E-003;1.874144538305700E-003;-1.272500376217067E-003;
2.410000000000000E+009;1.723081618547440E-001;-6.462266668677330E-003;1.817366341128945E-003;-1.240258570760489E-003;
2.410166666666667E+009;1.715821325778961E-001;-7.982678711414337E-003;1.580580719746649E-003;-1.321357325650752E-003;
2.410333333333334E+009;1.710141152143478E-001;-9.679987095296383E-003;1.804556581191719E-003;-1.468073693104088E-003;
2.410500000000000E+009;1.704756021499634E-001;-1.146017294377089E-002;1.749432412907481E-003;-1.457134494557977E-003;
2.410666666666667E+009;1.699378341436386E-001;-1.323461253196001E-002;1.663330243900418E-003;-1.553252921439707E-003;
2.410833333333334E+009;1.693740189075470E-001;-1.503538992255926E-002;1.467850641347468E-003;-1.597479335032404E-003;
2.411000000000000E+009;1.690393388271332E-001;-1.690115220844746E-002;1.532791997306049E-003;-1.718155806884170E-003;
2.411166666666667E+009;1.686426401138306E-001;-1.893247291445732E-002;1.626012148335576E-003;-1.842919504269958E-003;
2.411333333333334E+009;1.685119122266769E-001;-2.082533761858940E-002;1.514078932814300E-003;-1.838089665398002E-003;
2.411500000000000E+009;1.680635511875153E-001;-2.295265719294548E-002;1.433778321370482E-003;-1.874572248198092E-003;
2.411666666666667E+009;1.681402623653412E-001;-2.478366345167160E-002;1.366797136142850E-003;-2.045544562861323E-003;
2.411833333333334E+009;1.680269837379456E-001;-2.663061395287514E-002;1.328165642917156E-003;-2.110651461407542E-003;
2.412000000000000E+009;1.680925935506821E-001;-2.888160012662411E-002;1.295122085139155E-003;-2.173491520807147E-003;
2.412166666666667E+009;1.680421084165573E-001;-3.068450465798378E-002;1.180933439172804E-003;-2.192227635532618E-003;
2.412333333333334E+009;1.683922260999680E-001;-3.255316987633705E-002;1.059282221831381E-003;-2.275885082781315E-003;
2.412500000000000E+009;1.684257686138153E-001;-3.452237695455551E-002;8.824520045891404E-004;-2.383020007982850E-003;
2.412666666666667E+009;1.687464267015457E-001;-3.659604489803314E-002;8.285575895570219E-004;-2.561641624197364E-003;
2.412833333333334E+009;1.690173298120499E-001;-3.816350549459457E-002;6.420144345611334E-004;-2.605147892609239E-003;
2.413000000000000E+009;1.693283021450043E-001;-4.010573402047157E-002;5.977387772873044E-004;-2.586233429610729E-003;
2.413166666666667E+009;1.699001938104630E-001;-4.188602417707443E-002;6.088744266889989E-004;-2.672629430890083E-003;
2.413333333333334E+009;1.702858507633209E-001;-4.358560964465141E-002;4.024812951683998E-004;-2.676575444638729E-003;
2.413500000000000E+009;1.707036495208740E-001;-4.519078135490418E-002;2.178213326260448E-004;-2.636176999658346E-003;
2.413666666666667E+009;1.713103204965591E-001;-4.674019291996956E-002;1.336248678853735E-004;-2.629915950819850E-003;
2.413833333333334E+009;1.718994528055191E-001;-4.823983833193779E-002;-5.881047400180250E-005;-2.541846362873912E-003;
2.414000000000000E+009;1.723922938108444E-001;-4.952023178339005E-002;-2.335752360522747E-004;-2.576988190412521E-003;
2.414166666666667E+009;1.729476004838944E-001;-5.075429007411003E-002;-2.936231321655214E-004;-2.552292076870799E-003;
2.414333333333334E+009;1.733391433954239E-001;-5.208818241953850E-002;-3.396746178623289E-004;-2.418979071080685E-003;
2.414500000000000E+009;1.742639839649200E-001;-5.323404073715210E-002;-4.317419079598039E-004;-2.414704998955131E-003;
2.414666666666667E+009;1.747326403856278E-001;-5.421442911028862E-002;-5.821958766318858E-004;-2.343738451600075E-003;
2.414833333333334E+009;1.751413494348526E-001;-5.526785925030708E-002;-6.439202697947621E-004;-2.443551318719983E-003;
2.415000000000000E+009;1.755790114402771E-001;-5.595127493143082E-002;-7.719355635344982E-004;-2.299491316080093E-003;
2.415166666666667E+009;1.761400401592255E-001;-5.685824528336525E-002;-1.010035630315542E-003;-2.124769845977426E-003;
2.415333333333334E+009;1.763340383768082E-001;-5.754693597555161E-002;-1.023627817630768E-003;-2.250682795420289E-003;
2.415500000000000E+009;1.769347935914993E-001;-5.818390473723412E-002;-1.072630868293345E-003;-2.303605666384101E-003;
2.415666666666667E+009;1.771022230386734E-001;-5.864035338163376E-002;-1.034106593579054E-003;-2.069415291771293E-003;
2.415833333333334E+009;1.773327142000198E-001;-5.924516916275024E-002;-1.239184173755348E-003;-1.970055978745222E-003;
2.416000000000000E+009;1.774096339941025E-001;-5.966728180646896E-002;-1.330544939264655E-003;-1.778645324520767E-003;
2.416166666666667E+009;1.776921302080154E-001;-5.998204648494721E-002;-1.333009218797088E-003;-1.700871158391237E-003;
2.416333333333334E+009;1.776805967092514E-001;-6.011622026562691E-002;-1.415698556229472E-003;-1.674623810686171E-003;
2.416500000000000E+009;1.775197833776474E-001;-6.067644059658051E-002;-1.442239503376186E-003;-1.560939708724618E-003;
2.416666666666667E+009;1.772761195898056E-001;-6.063997000455856E-002;-1.438143313862383E-003;-1.449552946723998E-003;
2.416833333333334E+009;1.772008836269379E-001;-6.103866174817085E-002;-1.564507372677326E-003;-1.466833404265344E-003;
2.417000000000000E+009;1.766643524169922E-001;-6.124032661318779E-002;-1.449059462174773E-003;-1.247855834662914E-003;
2.417166666666667E+009;1.763332635164261E-001;-6.142160668969154E-002;-1.515524345450103E-003;-1.265907310880721E-003;
2.417333333333334E+009;1.758396625518799E-001;-6.143495440483093E-002;-1.695866347290576E-003;-1.164900604635477E-003;
2.417500000000000E+009;1.750935614109039E-001;-6.176646426320076E-002;-1.442422508262098E-003;-1.156820566393435E-003;
2.417666666666667E+009;1.745629757642746E-001;-6.190394237637520E-002;-1.499957288615406E-003;-9.765906725078821E-004;
2.417833333333334E+009;1.737472116947174E-001;-6.210153177380562E-002;-1.505024032667279E-003;-7.447906536981463E-004;
2.418000000000000E+009;1.727384775876999E-001;-6.247214600443840E-002;-1.512798480689526E-003;-8.245449862442911E-004;
2.418166666666667E+009;1.718873232603073E-001;-6.278429925441742E-002;-1.595892943441868E-003;-7.405191427096725E-004;
2.418333333333334E+009;1.711234599351883E-001;-6.318355351686478E-002;-1.341206254437566E-003;-5.321676144376397E-004;
2.418500000000000E+009;1.701184511184692E-001;-6.340195983648300E-002;-1.259003765881062E-003;-5.644418997690082E-004;
2.418666666666667E+009;1.689041852951050E-001;-6.395932286977768E-002;-1.361717120744288E-003;-6.117348675616086E-004;
2.418833333333334E+009;1.676942706108093E-001;-6.460685282945633E-002;-1.311941188760102E-003;-6.819730042479932E-004;
2.419000000000000E+009;1.663182824850082E-001;-6.502312421798706E-002;-1.239708741195500E-003;-5.356583278626204E-004;
2.419166666666667E+009;1.653829813003540E-001;-6.568510085344315E-002;-1.233079354278743E-003;-3.439439751673490E-004;
2.419333333333334E+009;1.639681607484818E-001;-6.626717001199722E-002;-1.202640123665333E-003;-4.227654135320336E-004;
2.419500000000000E+009;1.627824604511261E-001;-6.737365573644638E-002;-1.156677142716944E-003;-4.309926298446953E-004;
2.419666666666667E+009;1.617568731307983E-001;-6.809343397617340E-002;-1.075531938113272E-003;-3.623497323133051E-004;
2.419833333333334E+009;1.603727936744690E-001;-6.896352022886276E-002;-1.185363274998963E-003;-5.295914015732706E-004;
2.420000000000000E+009;1.594362556934357E-001;-7.005930691957474E-002;-1.133331330493093E-003;-4.397648444864899E-004;
2.420166666666667E+009;1.582320928573608E-001;-7.118085026741028E-002;-1.046192715875804E-003;-4.005527589470148E-004;
2.420333333333334E+009;1.571698337793350E-001;-7.231951504945755E-002;-9.735118364915252E-004;-4.693644295912236E-004;
2.420500000000000E+009;1.562442034482956E-001;-7.351260632276535E-002;-1.076907501555979E-003;-5.152103258296847E-004;
2.420666666666667E+009;1.551588773727417E-001;-7.480578869581223E-002;-9.548859670758247E-004;-4.647869209293276E-004;
2.420833333333334E+009;1.542914509773254E-001;-7.623033970594406E-002;-9.482138557359576E-004;-4.760576412081718E-004;
2.421000000000000E+009;1.533344089984894E-001;-7.777233421802521E-002;-1.068336074240506E-003;-6.025423645041883E-004;
2.421166666666667E+009;1.526170969009399E-001;-7.917674630880356E-002;-9.088136721402407E-004;-5.359398201107979E-004;
2.421333333333334E+009;1.518866419792175E-001;-8.098604530096054E-002;-9.369008475914598E-004;-7.056065369397402E-004;
2.421500000000000E+009;1.510558426380158E-001;-8.249071240425110E-002;-1.113630481995642E-003;-6.372794159688056E-004;
2.421666666666667E+009;1.507466584444046E-001;-8.418946713209152E-002;-1.042005489580333E-003;-5.903955316171050E-004;
2.421833333333334E+009;1.502641588449478E-001;-8.579058945178986E-002;-1.039908733218908E-003;-5.659633316099644E-004;
2.422000000000000E+009;1.499111503362656E-001;-8.758566528558731E-002;-1.108017866499722E-003;-7.327663479372859E-004;
2.422166666666667E+009;1.496147662401199E-001;-8.942239731550217E-002;-1.369293662719429E-003;-7.778518483974040E-004;
2.422333333333334E+009;1.494880467653275E-001;-9.093299508094788E-002;-1.353515777736902E-003;-7.647179299965501E-004;
2.422500000000000E+009;1.491733938455582E-001;-9.262990951538086E-002;-1.239048317074776E-003;-6.294131744652987E-004;
2.422666666666667E+009;1.491350233554840E-001;-9.443207085132599E-002;-1.627934630960226E-003;-7.180983084253967E-004;
2.422833333333334E+009;1.492590010166168E-001;-9.614811837673187E-002;-1.490352093242109E-003;-6.528791273012757E-004;
2.423000000000000E+009;1.492183953523636E-001;-9.785205870866776E-002;-1.622491632588208E-003;-6.384077714756131E-004;
2.423166666666667E+009;1.495238095521927E-001;-9.950959682464600E-002;-1.639008289203048E-003;-4.573794431053102E-004;
2.423333333333334E+009;1.497780382633209E-001;-1.009911000728607E-001;-1.670127967372537E-003;-5.570801440626383E-004;
2.423500000000000E+009;1.502722352743149E-001;-1.026879400014877E-001;-1.805580453947187E-003;-3.955824358854443E-004;
2.423666666666667E+009;1.503439098596573E-001;-1.043351143598557E-001;-1.817021402530372E-003;-4.860560293309391E-004;
2.423833333333334E+009;1.508089154958725E-001;-1.057598963379860E-001;-1.799532677978277E-003;-3.614797606132925E-004;
2.424000000000000E+009;1.512862443923950E-001;-1.070308536291122E-001;-1.771072158589959E-003;-1.848830579547212E-004;
2.424166666666667E+009;1.515668779611588E-001;-1.083768829703331E-001;-1.952638849616051E-003;-3.697020247273031E-006;
2.424333333333334E+009;1.521709114313126E-001;-1.095964387059212E-001;-1.927476492710412E-003;-2.195399574702606E-004;
2.424500000000000E+009;1.526984274387360E-001;-1.109363809227943E-001;-2.010048599913716E-003;-2.729717562033329E-005;
2.424666666666667E+009;1.532478630542755E-001;-1.118010282516480E-001;-2.029265975579619E-003;1.993452460737899E-004;
2.424833333333334E+009;1.535741090774536E-001;-1.128306388854981E-001;-2.009288175031543E-003;3.644521057140082E-004;
2.425000000000000E+009;1.541884839534760E-001;-1.138604879379273E-001;-2.015445381402969E-003;4.509924328885973E-004;
2.425166666666667E+009;1.543994545936585E-001;-1.146921664476395E-001;-1.926231081597507E-003;4.964491818100214E-004;
2.425333333333334E+009;1.548008471727371E-001;-1.155294030904770E-001;-1.754943281412125E-003;4.166106518823654E-004;
2.425500000000000E+009;1.553365439176559E-001;-1.162576228380203E-001;-1.856447663158178E-003;5.222370964474976E-004;
2.425666666666667E+009;1.554781496524811E-001;-1.168048605322838E-001;-1.937068765982986E-003;6.393125513568521E-004;
2.425833333333334E+009;1.557807326316834E-001;-1.172607243061066E-001;-1.727080671116710E-003;8.226799545809627E-004;
2.426000000000000E+009;1.560318768024445E-001;-1.176830381155014E-001;-1.791927032172680E-003;8.630159427411854E-004;
2.426166666666667E+009;1.562820822000504E-001;-1.181660592556000E-001;-1.735410653054714E-003;9.246401605196297E-004;
2.426333333333334E+009;1.563032418489456E-001;-1.185431927442551E-001;-1.679316977970302E-003;8.927147137001157E-004;
2.426500000000000E+009;1.564212590456009E-001;-1.187261939048767E-001;-1.649504993110895E-003;9.777680970728397E-004;
2.426666666666667E+009;1.563962846994400E-001;-1.187377199530602E-001;-1.619710703380406E-003;1.108314376324415E-003;
2.426833333333334E+009;1.562274098396301E-001;-1.190947443246841E-001;-1.437195576727390E-003;1.170723000541329E-003;
2.427000000000000E+009;1.558675915002823E-001;-1.192144826054573E-001;-1.476999954320490E-003;1.039151800796390E-003;
2.427166666666667E+009;1.556588262319565E-001;-1.192202270030975E-001;-1.357462024316192E-003;1.214178511872888E-003;
2.427333333333334E+009;1.550674885511398E-001;-1.193779110908508E-001;-1.295857364311814E-003;1.237809075973928E-003;
2.427500000000000E+009;1.546127647161484E-001;-1.194508671760559E-001;-1.128647942095995E-003;1.252187183126807E-003;
2.427666666666667E+009;1.539243757724762E-001;-1.195359379053116E-001;-1.154456636868417E-003;1.238067517988384E-003;
