# Version 1.00
#
freq[Hz];re:Trc1_S11;im:Trc1_S11;re:Trc2_S21;im:Trc2_S21;
2.400000000000000E+009;1.567797213792801E-001;1.055216938257217E-001;5.920526105910540E-003;6.769155617803335E-003;
2.400166666666667E+009;1.567611545324326E-001;1.033065766096115E-001;6.232366897165775E-003;6.530475802719593E-003;
2.400333333333334E+009;1.570348739624023E-001;1.009920910000801E-001;6.623643916100264E-003;6.117738317698240E-003;
2.400500000000000E+009;1.572181880474091E-001;9.835597872734070E-002;6.865101400762796E-003;5.809444468468428E-003;
2.400666666666667E+009;1.575480252504349E-001;9.605725109577179E-002;7.185510359704495E-003;5.410022102296352E-003;
2.400833333333334E+009;1.576348096132278E-001;9.337758272886276E-002;7.418843917548657E-003;4.936067387461662E-003;
2.401000000000000E+009;1.580851823091507E-001;9.095359593629837E-002;7.482671644538641E-003;4.697729833424091E-003;
2.401166666666667E+009;1.582611054182053E-001;8.822007477283478E-002;7.443427573889494E-003;3.965019248425961E-003;
2.401333333333334E+009;1.589104831218720E-001;8.566353470087051E-002;7.503964006900787E-003;3.554057329893112E-003;
2.401500000000000E+009;1.592911183834076E-001;8.290141075849533E-002;7.453014608472586E-003;3.292341018095613E-003;
2.401666666666667E+009;1.598077118396759E-001;8.029222488403320E-002;7.409970276057720E-003;2.845357172191143E-003;
2.401833333333334E+009;1.604709923267365E-001;7.773476839065552E-002;7.194120902568102E-003;2.757423324510455E-003;
2.402000000000000E+009;1.611418575048447E-001;7.528541237115860E-002;7.227000314742327E-003;2.451365813612938E-003;
2.402166666666667E+009;1.618549525737763E-001;7.292929291725159E-002;6.947467103600502E-003;2.211192389950156E-003;
2.402333333333334E+009;1.629997938871384E-001;7.041172683238983E-002;6.905179936438799E-003;1.985226990655065E-003;
2.402500000000000E+009;1.637748330831528E-001;6.796406209468842E-002;6.852332036942244E-003;1.807223889045417E-003;
2.402666666666667E+009;1.647779047489166E-001;6.600399315357208E-002;6.788850296288729E-003;1.846282393671572E-003;
2.402833333333334E+009;1.662322580814362E-001;6.358148157596588E-002;6.963490974158049E-003;1.557620358653367E-003;
2.403000000000000E+009;1.675172150135040E-001;6.152569502592087E-002;6.965387612581253E-003;1.419921056367457E-003;
2.403166666666667E+009;1.689556092023850E-001;5.946386232972145E-002;6.891046650707722E-003;1.150125754065812E-003;
2.403333333333334E+009;1.702843904495239E-001;5.753791332244873E-002;6.864102557301521E-003;9.648898849263787E-004;
2.403500000000000E+009;1.715859621763229E-001;5.548535287380219E-002;6.989368237555027E-003;9.189941338263452E-004;
2.403666666666667E+009;1.731715947389603E-001;5.362099036574364E-002;6.909157149493694E-003;7.359101437032223E-004;
2.403833333333334E+009;1.745869666337967E-001;5.199879035353661E-002;7.062816526740789E-003;5.115555250085890E-004;
2.404000000000000E+009;1.757967472076416E-001;5.024406313896179E-002;6.928807124495506E-003;3.146300441585481E-004;
2.404166666666667E+009;1.774226129055023E-001;4.901763796806335E-002;7.150383666157723E-003;1.244193117599934E-005;
2.404333333333334E+009;1.788869202136993E-001;4.746788367629051E-002;7.138577289879322E-003;-4.396699659992009E-004;
2.404500000000000E+009;1.801455914974213E-001;4.586159065365791E-002;7.083068136125803E-003;-5.166791961528361E-004;
2.404666666666667E+009;1.815278679132462E-001;4.490590468049049E-002;7.028121035546064E-003;-7.415410946123302E-004;
2.404833333333334E+009;1.830446273088455E-001;4.382786527276039E-002;6.804003845900297E-003;-9.873171802610159E-004;
2.405000000000000E+009;1.840794980525971E-001;4.310905933380127E-002;6.876496598124504E-003;-1.425662543624640E-003;
2.405166666666667E+009;1.852636486291885E-001;4.232692345976830E-002;6.629353389143944E-003;-1.592632732354105E-003;
2.405333333333334E+009;1.864773482084274E-001;4.180755093693733E-002;6.540514528751373E-003;-1.775244949385524E-003;
2.405500000000000E+009;1.876425743103027E-001;4.111414402723312E-002;6.424209102988243E-003;-1.944378251209855E-003;
2.405666666666667E+009;1.886344552040100E-001;4.073929041624069E-002;6.181088741868734E-003;-2.069897484034300E-003;
2.405833333333334E+009;1.897144913673401E-001;4.028747230768204E-002;6.087648216634989E-003;-2.439906354993582E-003;
2.406000000000000E+009;1.905022114515305E-001;3.999371081590653E-002;5.988809745758772E-003;-2.524332376196981E-003;
2.406166666666667E+009;1.913153678178787E-001;3.983316943049431E-002;5.645217839628458E-003;-2.610414754599333E-003;
2.406333333333334E+009;1.921713501214981E-001;3.953812643885613E-002;5.507147870957851E-003;-2.732010092586279E-003;
2.406500000000000E+009;1.927280873060226E-001;3.938343003392220E-002;5.288406275212765E-003;-2.780428621917963E-003;
2.406666666666667E+009;1.931745260953903E-001;3.926212340593338E-002;5.275617353618145E-003;-2.852778648957610E-003;
2.406833333333334E+009;1.937350630760193E-001;3.902517259120941E-002;4.946563392877579E-003;-2.952140057459474E-003;
2.407000000000000E+009;1.938734352588654E-001;3.897459805011749E-002;4.840009380131960E-003;-3.069360041990876E-003;
2.407166666666667E+009;1.942979246377945E-001;3.859990090131760E-002;4.765838850289583E-003;-3.110973630100489E-003;
2.407333333333334E+009;1.942462176084518E-001;3.866223990917206E-002;4.584305919706821E-003;-2.986143110319972E-003;
2.407500000000000E+009;1.942399889230728E-001;3.854791820049286E-002;4.518036730587483E-003;-2.941138111054897E-003;
2.407666666666667E+009;1.942616105079651E-001;3.815435618162155E-002;4.552465397864580E-003;-3.005014965310693E-003;
2.407833333333334E+009;1.938791871070862E-001;3.784479573369026E-002;4.458849318325520E-003;-3.030304564163089E-003;
2.408000000000000E+009;1.937854588031769E-001;3.755131363868713E-002;4.424446728080511E-003;-2.985566621646285E-003;
2.408166666666667E+009;1.933661252260208E-001;3.702258318662643E-002;4.456033464521170E-003;-2.986853243783116E-003;
2.408333333333334E+009;1.930404156446457E-001;3.643798828125000E-002;4.358149133622646E-003;-3.012712113559246E-003;
2.408500000000000E+009;1.924425661563873E-001;3.596239909529686E-002;4.449733998626471E-003;-3.059777198359370E-003;
2.408666666666667E+009;1.920105665922165E-001;3.518733382225037E-002;4.371507558971643E-003;-3.123378148302436E-003;
2.408833333333334E+009;1.914850175380707E-001;3.452769666910172E-002;4.689438268542290E-003;-3.242760896682739E-003;
2.409000000000000E+009;1.907435804605484E-001;3.350507095456123E-002;4.594630096107721E-003;-3.371767699718475E-003;
2.409166666666667E+009;1.900006830692291E-001;3.239225223660469E-002;4.571843892335892E-003;-3.472779178991914E-003;
2.409333333333334E+009;1.892979145050049E-001;3.149440884590149E-002;4.566967487335205E-003;-3.663176903501153E-003;
2.409500000000000E+009;1.884524673223496E-001;3.013587370514870E-002;4.686879925429821E-003;-3.789441660046578E-003;
2.409666666666667E+009;1.878427267074585E-001;2.872532233595848E-002;4.582884721457958E-003;-3.831424517557025E-003;
2.409833333333334E+009;1.869705915451050E-001;2.717275358736515E-002;4.598743747919798E-003;-4.122455604374409E-003;
2.410000000000000E+009;1.861634254455566E-001;2.570351026952267E-002;4.586091265082359E-003;-4.330675583332777E-003;
2.410166666666667E+009;1.854777932167053E-001;2.404157258570194E-002;4.503170959651470E-003;-4.584748763591051E-003;
2.410333333333334E+009;1.848486512899399E-001;2.222232893109322E-002;4.566468298435211E-003;-4.785577300935984E-003;
2.410500000000000E+009;1.839854866266251E-001;2.055959217250347E-002;4.344658926129341E-003;-5.004892591387034E-003;
2.410666666666667E+009;1.834475994110107E-001;1.841875351965427E-002;4.158751107752323E-003;-5.253046285361052E-003;
2.410833333333334E+009;1.829403340816498E-001;1.647629961371422E-002;4.046677146106958E-003;-5.569589789956808E-003;
2.411000000000000E+009;1.823959052562714E-001;1.426434051245451E-002;3.918597474694252E-003;-5.544849205762148E-003;
2.411166666666667E+009;1.819005608558655E-001;1.235509105026722E-002;3.563113743439317E-003;-5.757433827966452E-003;
2.411333333333334E+009;1.817124933004379E-001;1.006181165575981E-002;3.395070321857929E-003;-5.964374169707298E-003;
2.411500000000000E+009;1.812295466661453E-001;7.903327234089375E-003;3.147552721202374E-003;-6.226674187928438E-003;
2.411666666666667E+009;1.812298446893692E-001;5.594565998762846E-003;2.865064889192581E-003;-6.415052805095911E-003;
2.411833333333334E+009;1.809785515069962E-001;3.500952385365963E-003;2.513914369046688E-003;-6.367861758917570E-003;
2.412000000000000E+009;1.812039911746979E-001;1.145113143138588E-003;2.522194758057594E-003;-6.473786663264036E-003;
2.412166666666667E+009;1.813698261976242E-001;-9.379326365888119E-004;2.285376889631152E-003;-6.568412762135267E-003;
2.412333333333334E+009;1.815882474184036E-001;-3.019191324710846E-003;2.007868373766542E-003;-6.618838757276535E-003;
2.412500000000000E+009;1.822071522474289E-001;-5.231834016740322E-003;1.723275519907475E-003;-6.583706475794315E-003;
2.412666666666667E+009;1.823500245809555E-001;-7.579223718494177E-003;1.613471191376448E-003;-6.641026120632887E-003;
2.412833333333334E+009;1.831070929765701E-001;-9.868890978395939E-003;1.452169613912702E-003;-6.640239618718624E-003;
2.413000000000000E+009;1.837807446718216E-001;-1.184395793825388E-002;1.013953005895019E-003;-6.631560623645783E-003;
2.413166666666667E+009;1.843290776014328E-001;-1.395656447857618E-002;8.363313390873373E-004;-6.742330733686686E-003;
2.413333333333334E+009;1.855554580688477E-001;-1.621067337691784E-002;8.435423951596022E-004;-6.685576867312193E-003;
2.413500000000000E+009;1.860835105180740E-001;-1.808319427073002E-002;5.414732149802148E-004;-6.594463717192411E-003;
2.413666666666667E+009;1.871804296970367E-001;-2.018093876540661E-002;4.650021728593856E-004;-6.756029557436705E-003;
2.413833333333334E+009;1.880744099617004E-001;-2.193516865372658E-002;1.611914194654673E-004;-6.864930503070355E-003;
2.414000000000000E+009;1.890874505043030E-001;-2.370456233620644E-002;5.984554445603862E-005;-6.809536833316088E-003;
2.414166666666667E+009;1.900951564311981E-001;-2.546767331659794E-002;-9.474068065173924E-005;-6.887489929795265E-003;
2.414333333333334E+009;1.910711675882340E-001;-2.735107205808163E-002;-3.711925237439573E-004;-6.902822759002447E-003;
2.414500000000000E+009;1.920872181653976E-001;-2.873669750988483E-002;-6.187511025927961E-004;-7.045663427561522E-003;
2.414666666666667E+009;1.931476444005966E-001;-3.029649890959263E-002;-8.463970734737814E-004;-7.021009922027588E-003;
2.414833333333334E+009;1.938862800598145E-001;-3.136400133371353E-002;-1.264404971152544E-003;-7.131720893085003E-003;
2.415000000000000E+009;1.949369162321091E-001;-3.263631090521812E-002;-1.355928834527731E-003;-7.054613903164864E-003;
2.415166666666667E+009;1.960458159446716E-001;-3.385538980364800E-002;-1.830249559134245E-003;-6.887183059006929E-003;
2.415333333333334E+009;1.969820708036423E-001;-3.476408123970032E-002;-2.046136185526848E-003;-7.028481923043728E-003;
2.415500000000000E+009;1.978209018707275E-001;-3.563409298658371E-002;-2.378931501880288E-003;-7.082593627274036E-003;
2.415666666666667E+009;1.986370384693146E-001;-3.653367981314659E-002;-2.817613538354635E-003;-6.762737408280373E-003;
2.415833333333334E+009;1.994008719921112E-001;-3.717102855443955E-002;-3.143190639093518E-003;-6.828636862337589E-003;
2.416000000000000E+009;1.999944150447846E-001;-3.784959390759468E-002;-3.594547742977738E-003;-6.576034240424633E-003;
2.416166666666667E+009;2.003884315490723E-001;-3.865874558687210E-002;-3.684387775138021E-003;-6.469475105404854E-003;
2.416333333333334E+009;2.008884996175766E-001;-3.893248364329338E-002;-4.061741288751364E-003;-6.017208099365234E-003;
2.416500000000000E+009;2.012146562337875E-001;-3.947316855192184E-002;-4.214704036712647E-003;-5.906571168452501E-003;
2.416666666666667E+009;2.014447301626205E-001;-3.980773687362671E-002;-4.542727489024401E-003;-5.622412078082562E-003;
2.416833333333334E+009;2.013914585113525E-001;-4.008358344435692E-002;-4.497601650655270E-003;-5.238187499344349E-003;
2.417000000000000E+009;2.014903575181961E-001;-4.040904715657234E-002;-4.844502545893192E-003;-5.176191683858633E-003;
2.417166666666667E+009;2.011617124080658E-001;-4.052596166729927E-002;-4.967017099261284E-003;-4.797198809683323E-003;
2.417333333333334E+009;2.008231878280640E-001;-4.045991227030754E-002;-5.002672318369150E-003;-4.442204255610704E-003;
2.417500000000000E+009;2.005080729722977E-001;-4.067222028970718E-002;-5.018539261072874E-003;-4.207670222967863E-003;
2.417666666666667E+009;2.000044584274292E-001;-4.071820527315140E-002;-5.161167588084936E-003;-3.955042455345392E-003;
2.417833333333334E+009;1.996049284934998E-001;-4.070067033171654E-002;-5.067950580269098E-003;-3.942756447941065E-003;
2.418000000000000E+009;1.988616436719894E-001;-4.067447409033775E-002;-5.141576286405325E-003;-3.581010969355702E-003;
2.418166666666667E+009;1.982352137565613E-001;-4.082119092345238E-002;-5.139368120580912E-003;-3.448113333433867E-003;
2.418333333333334E+009;1.974486410617828E-001;-4.076154530048370E-002;-5.170900840312243E-003;-3.321887925267220E-003;
2.418500000000000E+009;1.965228915214539E-001;-4.098775982856751E-002;-5.256048403680325E-003;-3.078169422224164E-003;
2.418666666666667E+009;1.956335306167603E-001;-4.103351756930351E-002;-5.296954885125160E-003;-3.065912518650293E-003;
2.418833333333334E+009;1.946527808904648E-001;-4.146221280097961E-002;-5.071133840829134E-003;-2.920026192441583E-003;
2.419000000000000E+009;1.934210807085037E-001;-4.191257432103157E-002;-5.164869595319033E-003;-2.748826984316111E-003;
2.419166666666667E+009;1.922848820686340E-001;-4.218047112226486E-002;-5.286163650453091E-003;-2.646125620231032E-003;
2.419333333333334E+009;1.910534799098969E-001;-4.279883950948715E-002;-5.336767062544823E-003;-2.414242131635547E-003;
2.419500000000000E+009;1.898380815982819E-001;-4.348221048712730E-002;-5.293805617839098E-003;-2.237824490293860E-003;
2.419666666666667E+009;1.883772164583206E-001;-4.438089579343796E-002;-5.179307889193296E-003;-2.146945334970951E-003;
2.419833333333334E+009;1.870545744895935E-001;-4.506041854619980E-002;-5.470376927405596E-003;-2.065349835902453E-003;
2.420000000000000E+009;1.857735961675644E-001;-4.577779397368431E-002;-5.562330596148968E-003;-1.823176164180040E-003;
2.420166666666667E+009;1.843109726905823E-001;-4.691819846630096E-002;-5.545809864997864E-003;-1.628564437851310E-003;
2.420333333333334E+009;1.830013990402222E-001;-4.800998419523239E-002;-5.517977755516768E-003;-1.409560325555503E-003;
2.420500000000000E+009;1.814556121826172E-001;-4.930515959858894E-002;-5.404312629252672E-003;-1.300248550251126E-003;
2.420666666666667E+009;1.800836473703384E-001;-5.047355219721794E-002;-5.505871027708054E-003;-1.111553749069572E-003;
2.420833333333334E+009;1.787867546081543E-001;-5.191705003380776E-002;-5.347622092813253E-003;-7.340944721363485E-004;
2.421000000000000E+009;1.773939877748489E-001;-5.335319787263870E-002;-5.304561927914619E-003;-4.456339811440557E-004;
2.421166666666667E+009;1.764956563711166E-001;-5.507404357194901E-002;-5.050797015428543E-003;-3.646669210866094E-004;
2.421333333333334E+009;1.749796420335770E-001;-5.646577477455139E-002;-5.012248177081347E-003;-2.553574740886688E-004;
2.421500000000000E+009;1.736532002687454E-001;-5.819671601057053E-002;-5.036765709519386E-003;-1.827993837650865E-004;
2.421666666666667E+009;1.725245416164398E-001;-5.989892780780792E-002;-4.867949988692999E-003;-2.705938095459715E-005;
2.421833333333334E+009;1.716894060373306E-001;-6.153510510921478E-002;-4.636383149772883E-003;4.979269215255044E-005;
2.422000000000000E+009;1.704509407281876E-001;-6.329062581062317E-002;-4.514035303145647E-003;-7.119374640751630E-005;
2.422166666666667E+009;1.699297875165939E-001;-6.526776403188705E-002;-4.430904053151608E-003;-3.077489236602560E-005;
2.422333333333334E+009;1.689245253801346E-001;-6.705619394779205E-002;-4.348059650510550E-003;-1.397497981088236E-004;
2.422500000000000E+009;1.681965440511704E-001;-6.890445947647095E-002;-4.413470160216093E-003;-1.507425913587213E-004;
2.422666666666667E+009;1.674399673938751E-001;-7.069722563028336E-002;-4.274344071745873E-003;-1.422473433194682E-004;
2.422833333333334E+009;1.671586483716965E-001;-7.263509929180145E-002;-4.388816189020872E-003;-2.747517137322575E-004;
2.423000000000000E+009;1.666382253170013E-001;-7.424113154411316E-002;-4.328875802457333E-003;-1.363120682071894E-004;
2.423166666666667E+009;1.661873906850815E-001;-7.621188461780548E-002;-4.443409852683544E-003;-1.022426586132497E-004;
2.423333333333334E+009;1.660425812005997E-001;-7.801255583763123E-002;-4.455534741282463E-003;-1.024010925902985E-004;
2.423500000000000E+009;1.659682542085648E-001;-7.969707995653153E-002;-4.707159940153360E-003;-1.029075501719490E-004;
2.423666666666667E+009;1.657895594835281E-001;-8.133128285408020E-002;-4.770604427903891E-003;7.354380068136379E-005;
2.423833333333334E+009;1.656049191951752E-001;-8.294828981161118E-002;-4.799712914973497E-003;2.481471165083349E-004;
2.424000000000000E+009;1.656307131052017E-001;-8.470230549573898E-002;-4.784250166267157E-003;2.884491404984146E-004;
2.424166666666667E+009;1.656899154186249E-001;-8.621366322040558E-002;-4.780268296599388E-003;3.242412058170885E-004;
2.424333333333334E+009;1.659524589776993E-001;-8.757259696722031E-002;-4.928853828459978E-003;4.081724619027227E-004;
2.424500000000000E+009;1.662312746047974E-001;-8.919139206409454E-002;-4.991842433810234E-003;6.056959973648191E-004;
2.424666666666667E+009;1.662007123231888E-001;-9.045829623937607E-002;-5.017676856368780E-003;6.583121721632779E-004;
2.424833333333334E+009;1.665180772542954E-001;-9.180638939142227E-002;-5.044781137257814E-003;8.990323985926807E-004;
2.425000000000000E+009;1.667215377092362E-001;-9.298940002918243E-002;-5.101116839796305E-003;9.080584859475493E-004;
2.425166666666667E+009;1.669650226831436E-001;-9.393720328807831E-002;-5.228324793279171E-003;1.102437148801982E-003;
2.425333333333334E+009;1.672012507915497E-001;-9.503008425235748E-002;-5.248112138360739E-003;1.390303601510823E-003;
2.425500000000000E+009;1.674696356058121E-001;-9.612319618463516E-002;-5.220416933298111E-003;1.437654951587319E-003;
2.425666666666667E+009;1.677736937999725E-001;-9.669166058301926E-002;-5.227557383477688E-003;1.540240482427180E-003;
2.425833333333334E+009;1.679280400276184E-001;-9.762792289257050E-002;-5.247117020189762E-003;1.685869181528688E-003;
2.426000000000000E+009;1.681505143642426E-001;-9.814207255840302E-002;-5.288681946694851E-003;2.033963333815336E-003;
2.426166666666667E+009;1.686307489871979E-001;-9.887251257896423E-002;-5.281586665660143E-003;2.143448218703270E-003;
2.426333333333334E+009;1.685188710689545E-001;-9.956920146942139E-002;-5.119293928146362E-003;2.530642319470644E-003;
2.426500000000000E+009;1.687427759170532E-001;-9.981695562601090E-002;-5.197647027671337E-003;2.532068872824311E-003;
2.426666666666667E+009;1.689610034227371E-001;-1.003362536430359E-001;-5.192817188799381E-003;2.893438562750816E-003;
2.426833333333334E+009;1.691505610942841E-001;-1.007826626300812E-001;-5.018673371523619E-003;2.963036764413118E-003;
2.427000000000000E+009;1.690162718296051E-001;-1.012154296040535E-001;-4.959586076438427E-003;3.069739323109388E-003;
2.427166666666667E+009;1.690710633993149E-001;-1.014936491847038E-001;-4.854775033891201E-003;3.275782335549593E-003;
2.427333333333334E+009;1.689195781946182E-001;-1.018713191151619E-001;-4.814224783331156E-003;3.406888805329800E-003;
2.427500000000000E+009;1.686176061630249E-001;-1.022139340639114E-001;-4.692004527896643E-003;3.446717048063874E-003;
2.427666666666667E+009;1.682750433683395E-001;-1.025644913315773E-001;-4.620224237442017E-003;3.734462196007371E-003;
