# Version 1.00
#
freq[Hz];re:Trc1_S11;im:Trc1_S11;re:Trc2_S21;im:Trc2_S21;
2.400000000000000E+009;1.564715206623077E-001;1.056067943572998E-001;6.103632505983114E-003;6.848028395324945E-003;
2.400166666666667E+009;1.563312858343124E-001;1.033203676342964E-001;6.448518950492144E-003;6.582550238817930E-003;
2.400333333333334E+009;1.566471904516220E-001;1.011023521423340E-001;6.740685086697340E-003;6.295806728303433E-003;
2.400500000000000E+009;1.568203121423721E-001;9.866090118885040E-002;7.089348509907723E-003;5.941540934145451E-003;
2.400666666666667E+009;1.570468693971634E-001;9.624341130256653E-002;7.259946316480637E-003;5.532522685825825E-003;
2.400833333333334E+009;1.570893228054047E-001;9.358253329992294E-002;7.563721388578415E-003;4.999018274247646E-003;
2.401000000000000E+009;1.575729995965958E-001;9.095137566328049E-002;7.530374918133020E-003;4.766975063830614E-003;
2.401166666666667E+009;1.578609049320221E-001;8.851786702871323E-002;7.664981298148632E-003;4.063080996274948E-003;
2.401333333333334E+009;1.582830697298050E-001;8.589719980955124E-002;7.593971211463213E-003;3.683437360450625E-003;
2.401500000000000E+009;1.589436978101730E-001;8.330364525318146E-002;7.641964126378298E-003;3.427177900448442E-003;
2.401666666666667E+009;1.592504382133484E-001;8.065432310104370E-002;7.512823212891817E-003;3.043949836865068E-003;
2.401833333333334E+009;1.599679589271545E-001;7.815810292959213E-002;7.429492659866810E-003;2.654910553246737E-003;
2.402000000000000E+009;1.606327742338181E-001;7.563349604606628E-002;7.299753371626139E-003;2.458905568346381E-003;
2.402166666666667E+009;1.616082191467285E-001;7.330861687660217E-002;7.269728928804398E-003;2.309927251189947E-003;
2.402333333333334E+009;1.624428182840347E-001;7.091531157493591E-002;7.164614275097847E-003;2.030102536082268E-003;
2.402500000000000E+009;1.635050475597382E-001;6.836828589439392E-002;7.038708776235580E-003;1.928940764628351E-003;
2.402666666666667E+009;1.646192520856857E-001;6.640992313623428E-002;7.009953726083040E-003;1.709925709292293E-003;
2.402833333333334E+009;1.656900793313980E-001;6.407893449068070E-002;7.030182518064976E-003;1.664660521782935E-003;
2.403000000000000E+009;1.669952869415283E-001;6.176757812500000E-002;6.980004720389843E-003;1.462546526454389E-003;
2.403166666666667E+009;1.686348617076874E-001;5.979721620678902E-002;7.119736168533564E-003;1.361751114018261E-003;
2.403333333333334E+009;1.699265390634537E-001;5.784969404339790E-002;7.063717115670443E-003;1.086352742277086E-003;
2.403500000000000E+009;1.712842285633087E-001;5.597034469246864E-002;7.148218806833029E-003;1.011735177598894E-003;
2.403666666666667E+009;1.730148345232010E-001;5.415182188153267E-002;7.208387367427349E-003;7.342240423895419E-004;
2.403833333333334E+009;1.743841022253037E-001;5.233956873416901E-002;7.120462134480476E-003;6.146218511275947E-004;
2.404000000000000E+009;1.757726073265076E-001;5.073902010917664E-002;7.138444576412439E-003;2.870651951525360E-004;
2.404166666666667E+009;1.772876679897308E-001;4.935957491397858E-002;7.205067202448845E-003;8.446568972431123E-005;
2.404333333333334E+009;1.786310821771622E-001;4.781044274568558E-002;7.327307946980000E-003;-2.605512563604862E-004;
2.404500000000000E+009;1.800729334354401E-001;4.657928645610809E-002;7.202053442597389E-003;-4.830008547287434E-004;
2.404666666666667E+009;1.813866049051285E-001;4.543473944067955E-002;7.127197925001383E-003;-7.475577294826508E-004;
2.404833333333334E+009;1.828747093677521E-001;4.419658705592156E-002;7.050204090774059E-003;-1.039050170220435E-003;
2.405000000000000E+009;1.839968860149384E-001;4.368354007601738E-002;7.123436778783798E-003;-1.334025990217924E-003;
2.405166666666667E+009;1.852525919675827E-001;4.285155609250069E-002;6.907367613166571E-003;-1.630932791158557E-003;
2.405333333333334E+009;1.863183230161667E-001;4.236328974366188E-002;6.829062942415476E-003;-1.792488154023886E-003;
2.405500000000000E+009;1.876553297042847E-001;4.177055880427361E-002;6.696297321468592E-003;-2.041218802332878E-003;
2.405666666666667E+009;1.886069625616074E-001;4.116510599851608E-002;6.433374248445034E-003;-2.254872350022197E-003;
2.405833333333334E+009;1.897191554307938E-001;4.084913805127144E-002;6.381412036716938E-003;-2.430273452773690E-003;
2.406000000000000E+009;1.905196905136108E-001;4.044776409864426E-002;6.202776450663805E-003;-2.554836915805936E-003;
2.406166666666667E+009;1.914231330156326E-001;4.013706371188164E-002;5.805008113384247E-003;-2.618992002680898E-003;
2.406333333333334E+009;1.922427266836166E-001;3.999448940157890E-002;5.807526409626007E-003;-2.890984527766705E-003;
2.406500000000000E+009;1.927463114261627E-001;3.982656821608543E-002;5.629626568406820E-003;-2.917263889685273E-003;
2.406666666666667E+009;1.933586299419403E-001;3.967825695872307E-002;5.365720950067043E-003;-3.098014974966645E-003;
2.406833333333334E+009;1.936848312616348E-001;3.943779319524765E-002;5.134803708642721E-003;-3.065823344513774E-003;
2.407000000000000E+009;1.940422207117081E-001;3.949028626084328E-002;4.990539047867060E-003;-2.957678167149425E-003;
2.407166666666667E+009;1.944507658481598E-001;3.913425654172897E-002;4.958779551088810E-003;-3.200297942385078E-003;
2.407333333333334E+009;1.942733526229858E-001;3.906856849789619E-002;4.923592787235975E-003;-2.975747920572758E-003;
2.407500000000000E+009;1.943370848894119E-001;3.904942423105240E-002;4.868783988058567E-003;-2.994012553244829E-003;
2.407666666666667E+009;1.944207400083542E-001;3.853617608547211E-002;4.472716711461544E-003;-3.262980142608285E-003;
2.407833333333334E+009;1.940894126892090E-001;3.834619745612145E-002;4.205575678497553E-003;-3.927621524780989E-003;
2.408000000000000E+009;1.939461380243301E-001;3.772320598363876E-002;3.792308038100600E-003;-2.505911281332374E-003;
2.408166666666667E+009;1.936607658863068E-001;3.741224855184555E-002;3.563185920938849E-003;-3.505926812067628E-003;
2.408333333333334E+009;1.932845413684845E-001;3.669440001249313E-002;4.402333404868841E-003;-3.160480177029967E-003;
2.408500000000000E+009;1.927715986967087E-001;3.633111342787743E-002;3.925436642020941E-003;-3.778212470933795E-003;
2.408666666666667E+009;1.921229958534241E-001;3.562749549746513E-002;5.078135058283806E-003;-3.330069594085217E-003;
2.408833333333334E+009;1.917022168636322E-001;3.463421761989594E-002;4.570845514535904E-003;-3.231895389035344E-003;
2.409000000000000E+009;1.908525079488754E-001;3.372444957494736E-002;4.619925282895565E-003;-3.570276079699397E-003;
2.409166666666667E+009;1.901876628398895E-001;3.277299180626869E-002;4.642751999199390E-003;-3.490457311272621E-003;
2.409333333333334E+009;1.894878447055817E-001;3.172389045357704E-002;4.582252819091082E-003;-3.772228956222534E-003;
2.409500000000000E+009;1.886421442031860E-001;3.037026338279247E-002;4.719208925962448E-003;-4.033842589706183E-003;
2.409666666666667E+009;1.879708170890808E-001;2.897935733199120E-002;4.655157215893269E-003;-4.118996206671000E-003;
2.409833333333334E+009;1.870881468057632E-001;2.761556394398212E-002;4.696182906627655E-003;-4.463368095457554E-003;
2.410000000000000E+009;1.863995939493179E-001;2.586482465267181E-002;4.518668632954359E-003;-4.646232351660729E-003;
2.410166666666667E+009;1.857382357120514E-001;2.431104704737663E-002;4.527405835688114E-003;-4.693109542131424E-003;
2.410333333333334E+009;1.850386410951614E-001;2.266659028828144E-002;4.428359214216471E-003;-5.078416783362627E-003;
2.410500000000000E+009;1.841081231832504E-001;2.075256593525410E-002;4.296666942536831E-003;-5.185922607779503E-003;
2.410666666666667E+009;1.836789250373840E-001;1.875748857855797E-002;4.152342677116394E-003;-5.487916525453329E-003;
2.410833333333334E+009;1.830551177263260E-001;1.657483167946339E-002;3.867515828460455E-003;-5.630356259644032E-003;
2.411000000000000E+009;1.825030744075775E-001;1.467815972864628E-002;3.838151693344116E-003;-5.794227588921785E-003;
2.411166666666667E+009;1.820500940084457E-001;1.263314671814442E-002;3.654151689261198E-003;-5.872208625078201E-003;
2.411333333333334E+009;1.817335486412048E-001;1.031458470970392E-002;3.310960950329900E-003;-6.142944563180208E-003;
2.411500000000000E+009;1.814208328723908E-001;8.110333234071732E-003;3.122000256553292E-003;-6.335295271128416E-003;
2.411666666666667E+009;1.814707517623901E-001;5.981200840324163E-003;2.916384954005480E-003;-6.459182128310204E-003;
2.411833333333334E+009;1.811043620109558E-001;3.758733160793781E-003;2.576876664534211E-003;-6.500911433249712E-003;
2.412000000000000E+009;1.815248280763626E-001;1.401632442139089E-003;2.333258278667927E-003;-6.439090706408024E-003;
2.412166666666667E+009;1.814811229705811E-001;-6.310543976724148E-004;2.034673001617193E-003;-6.685624364763498E-003;
2.412333333333334E+009;1.817076057195664E-001;-2.960394835099578E-003;1.784935942851007E-003;-6.670814473181963E-003;
2.412500000000000E+009;1.822777390480042E-001;-5.189097486436367E-003;1.667841337621212E-003;-6.768235471099615E-003;
2.412666666666667E+009;1.828349679708481E-001;-7.487625349313021E-003;1.305154524743557E-003;-6.718268617987633E-003;
2.412833333333334E+009;1.834620982408524E-001;-9.747428819537163E-003;1.095603685826063E-003;-6.665757391601801E-003;
2.413000000000000E+009;1.840370297431946E-001;-1.176258921623230E-002;1.020836294628680E-003;-6.681378465145826E-003;
2.413166666666667E+009;1.847877353429794E-001;-1.369578298181295E-002;8.094133227132261E-004;-6.722178775817156E-003;
2.413333333333334E+009;1.856795698404312E-001;-1.588580757379532E-002;5.802728701382875E-004;-6.639365106821060E-003;
2.413500000000000E+009;1.863733977079392E-001;-1.789254695177078E-002;3.282693214714527E-004;-6.780837196856737E-003;
2.413666666666667E+009;1.874129176139832E-001;-2.006038837134838E-002;3.259817895013839E-004;-6.796138826757669E-003;
2.413833333333334E+009;1.885064095258713E-001;-2.185925841331482E-002;2.499100810382515E-005;-6.916676647961140E-003;
2.414000000000000E+009;1.893891096115112E-001;-2.358427084982395E-002;-1.003803336061537E-004;-6.919800769537687E-003;
2.414166666666667E+009;1.904909759759903E-001;-2.532509528100491E-002;-4.078038618899882E-004;-6.866399198770523E-003;
2.414333333333334E+009;1.912190318107605E-001;-2.715874463319778E-002;-5.239513702690601E-004;-6.919625215232372E-003;
2.414500000000000E+009;1.924839168787003E-001;-2.858868055045605E-002;-8.241093019023538E-004;-6.864123977720738E-003;
2.414666666666667E+009;1.932872682809830E-001;-2.999284490942955E-002;-8.645449997857213E-004;-7.122531067579985E-003;
2.414833333333334E+009;1.942566037178040E-001;-3.132151439785957E-002;-1.208889298141003E-003;-7.150315213948488E-003;
2.415000000000000E+009;1.952690929174423E-001;-3.259695693850517E-002;-1.362732495181263E-003;-7.209292612969875E-003;
2.415166666666667E+009;1.964002251625061E-001;-3.377299010753632E-002;-1.871873857453466E-003;-7.078801281750202E-003;
2.415333333333334E+009;1.973755657672882E-001;-3.480675444006920E-002;-2.199650276452303E-003;-7.159585598856211E-003;
2.415500000000000E+009;1.981798112392426E-001;-3.548085689544678E-002;-2.444243058562279E-003;-7.135103456676006E-003;
2.415666666666667E+009;1.990493983030319E-001;-3.654085844755173E-002;-2.878402825444937E-003;-7.064667064696550E-003;
2.415833333333334E+009;1.995706856250763E-001;-3.712850064039230E-002;-3.329386236146092E-003;-6.854650564491749E-003;
2.416000000000000E+009;2.001728266477585E-001;-3.787038102746010E-002;-3.638978116214275E-003;-6.577992811799049E-003;
2.416166666666667E+009;2.008150368928909E-001;-3.855944052338600E-002;-3.751801559701562E-003;-6.490931846201420E-003;
2.416333333333334E+009;2.012505531311035E-001;-3.892475739121437E-002;-4.083483479917049E-003;-6.153740920126438E-003;
2.416500000000000E+009;2.015641331672669E-001;-3.933350741863251E-002;-4.305874928832054E-003;-5.809818394482136E-003;
2.416666666666667E+009;2.017231732606888E-001;-3.999416902661324E-002;-4.675191361457110E-003;-5.628719460219145E-003;
2.416833333333334E+009;2.017306238412857E-001;-4.013081267476082E-002;-4.784053657203913E-003;-5.360995884984732E-003;
2.417000000000000E+009;2.017396092414856E-001;-4.040966182947159E-002;-5.066333338618279E-003;-5.169868934899569E-003;
2.417166666666667E+009;2.014227062463760E-001;-4.050701484084129E-002;-5.139028187841177E-003;-4.857975989580154E-003;
2.417333333333334E+009;2.011490911245346E-001;-4.056838527321816E-002;-5.169516894966364E-003;-4.446855746209621E-003;
2.417500000000000E+009;2.008422166109085E-001;-4.076105356216431E-002;-5.238454323261976E-003;-4.304806701838970E-003;
2.417666666666667E+009;2.002431750297546E-001;-4.074743017554283E-002;-5.176048725843430E-003;-4.067697096616030E-003;
2.417833333333334E+009;1.998911350965500E-001;-4.075607657432556E-002;-5.252537783235312E-003;-3.780757775530219E-003;
2.418000000000000E+009;1.992743015289307E-001;-4.071097075939179E-002;-5.301151890307665E-003;-3.711491590365768E-003;
2.418166666666667E+009;1.985158771276474E-001;-4.085602238774300E-002;-5.385264288634062E-003;-3.478667465969920E-003;
2.418333333333334E+009;1.976561844348908E-001;-4.093260318040848E-002;-5.295539740473032E-003;-3.380754962563515E-003;
2.418500000000000E+009;1.967784762382507E-001;-4.120635613799095E-002;-5.326308310031891E-003;-3.094047773629427E-003;
2.418666666666667E+009;1.959639638662338E-001;-4.123790189623833E-002;-5.336313974112272E-003;-2.995929913595319E-003;
2.418833333333334E+009;1.947901397943497E-001;-4.162667319178581E-002;-5.222676321864128E-003;-2.790191676467657E-003;
2.419000000000000E+009;1.937589943408966E-001;-4.201721027493477E-002;-5.252117291092873E-003;-2.693491522222757E-003;
2.419166666666667E+009;1.925034672021866E-001;-4.243454337120056E-002;-5.308827850967646E-003;-2.680128905922175E-003;
2.419333333333334E+009;1.913953572511673E-001;-4.302285611629486E-002;-5.284679122269154E-003;-2.477221889421344E-003;
2.419500000000000E+009;1.902185380458832E-001;-4.367065057158470E-002;-5.452682264149189E-003;-2.235120162367821E-003;
2.419666666666667E+009;1.886906325817108E-001;-4.442987591028214E-002;-5.386391654610634E-003;-2.092043869197369E-003;
2.419833333333334E+009;1.873561292886734E-001;-4.515235871076584E-002;-5.575029179453850E-003;-1.941463793627918E-003;
2.420000000000000E+009;1.860749423503876E-001;-4.601088911294937E-002;-5.652333144098520E-003;-1.826416351832449E-003;
2.420166666666667E+009;1.847125738859177E-001;-4.708334058523178E-002;-5.535870324820280E-003;-1.653385697863996E-003;
2.420333333333334E+009;1.832579970359802E-001;-4.810877516865730E-002;-5.726723466068506E-003;-1.461485750041902E-003;
2.420500000000000E+009;1.817408204078674E-001;-4.946090281009674E-002;-5.551719106733799E-003;-1.109005650505424E-003;
2.420666666666667E+009;1.805218160152435E-001;-5.076468735933304E-002;-5.486711859703064E-003;-9.938905714079738E-004;
2.420833333333334E+009;1.788688749074936E-001;-5.210943520069122E-002;-5.511157680302858E-003;-8.261461043730378E-004;
2.421000000000000E+009;1.777104884386063E-001;-5.352434143424034E-002;-5.533507559448481E-003;-6.100255413912237E-004;
2.421166666666667E+009;1.765735745429993E-001;-5.511856824159622E-002;-5.353388842195272E-003;-4.436299495864660E-004;
2.421333333333334E+009;1.750361174345017E-001;-5.657576024532318E-002;-5.193484481424093E-003;-1.300347066717222E-004;
2.421500000000000E+009;1.738612353801727E-001;-5.844281241297722E-002;-5.015066359192133E-003;-5.563443846767768E-005;
2.421666666666667E+009;1.729782223701477E-001;-6.019153073430061E-002;-4.920971114188433E-003;-4.477792754187249E-005;
2.421833333333334E+009;1.717192977666855E-001;-6.177612766623497E-002;-4.788904916495085E-003;1.521869853604585E-004;
2.422000000000000E+009;1.709127873182297E-001;-6.343972682952881E-002;-4.683292005211115E-003;1.514250907348469E-004;
2.422166666666667E+009;1.699163019657135E-001;-6.559198349714279E-002;-4.533392842859030E-003;7.848691893741489E-005;
2.422333333333334E+009;1.691403687000275E-001;-6.741433590650559E-002;-4.470969084650278E-003;-1.032648069667630E-004;
2.422500000000000E+009;1.684974879026413E-001;-6.905365735292435E-002;-4.370219074189663E-003;1.348420937574701E-006;
2.422666666666667E+009;1.678481847047806E-001;-7.098002731800079E-002;-4.350653849542141E-003;-1.987379073398188E-005;
2.422833333333334E+009;1.675270348787308E-001;-7.294388860464096E-002;-4.301543347537518E-003;-7.664089935133234E-005;
2.423000000000000E+009;1.668183505535126E-001;-7.479260116815567E-002;-4.481823649257422E-003;-7.648636528756470E-005;
2.423166666666667E+009;1.664515137672424E-001;-7.645518332719803E-002;-4.493355751037598E-003;-1.221533748321235E-004;
2.423333333333334E+009;1.662337630987167E-001;-7.836371660232544E-002;-4.550361074507237E-003;-1.040453134919517E-004;
2.423500000000000E+009;1.660851985216141E-001;-7.998929917812347E-002;-4.811107646673918E-003;9.205308015225455E-005;
2.423666666666667E+009;1.659892201423645E-001;-8.184397965669632E-002;-4.763941746205092E-003;1.277000701520592E-004;
2.423833333333334E+009;1.657002121210098E-001;-8.333496004343033E-002;-4.856266546994448E-003;1.617438101675361E-004;
2.424000000000000E+009;1.660050600767136E-001;-8.504159748554230E-002;-4.998505581170321E-003;2.725170925259590E-004;
2.424166666666667E+009;1.658392250537872E-001;-8.652309328317642E-002;-5.000136326998472E-003;3.719503874890506E-004;
2.424333333333334E+009;1.660011261701584E-001;-8.793295174837112E-002;-5.038057919591665E-003;3.856216790154576E-004;
2.424500000000000E+009;1.661617308855057E-001;-8.959128707647324E-002;-5.319838412106037E-003;7.026400999166071E-004;
2.424666666666667E+009;1.662771403789520E-001;-9.099407494068146E-002;-5.002939607948065E-003;8.466839208267629E-004;
2.424833333333334E+009;1.666915863752365E-001;-9.220672398805618E-002;-5.020600277930498E-003;1.085718278773129E-003;
2.425000000000000E+009;1.668477505445480E-001;-9.325338155031204E-002;-5.367535166442394E-003;1.051879255101085E-003;
2.425166666666667E+009;1.669420599937439E-001;-9.443983435630798E-002;-5.292839370667934E-003;1.307494007050991E-003;
2.425333333333334E+009;1.672803312540054E-001;-9.538161009550095E-002;-5.215168464928865E-003;1.529870554804802E-003;
2.425500000000000E+009;1.676663309335709E-001;-9.639161080121994E-002;-5.337927490472794E-003;1.494286465458572E-003;
2.425666666666667E+009;1.678238511085510E-001;-9.712974727153778E-002;-5.312406457960606E-003;1.685149734839797E-003;
2.425833333333334E+009;1.678411811590195E-001;-9.803874790668488E-002;-5.418897140771151E-003;1.938037108629942E-003;
2.426000000000000E+009;1.682299822568893E-001;-9.852797538042069E-002;-5.362005438655615E-003;2.128638559952378E-003;
2.426166666666667E+009;1.684435606002808E-001;-9.912770986557007E-002;-5.352145526558161E-003;2.347078640013933E-003;
2.426333333333334E+009;1.684211939573288E-001;-9.979946911334992E-002;-5.284096114337444E-003;2.588809467852116E-003;
2.426500000000000E+009;1.687464267015457E-001;-1.001544296741486E-001;-5.067037418484688E-003;2.891016891226172E-003;
2.426666666666667E+009;1.688897162675858E-001;-1.006672009825707E-001;-5.122088361531496E-003;2.883919281885028E-003;
2.426833333333334E+009;1.690044701099396E-001;-1.010748073458672E-001;-5.012912210077047E-003;3.228091867640615E-003;
2.427000000000000E+009;1.689102649688721E-001;-1.014806330204010E-001;-5.026059690862894E-003;3.239051671698690E-003;
2.427166666666667E+009;1.688577383756638E-001;-1.018073409795761E-001;-4.931742325425148E-003;3.628392936661840E-003;
2.427333333333334E+009;1.687765419483185E-001;-1.021983698010445E-001;-4.874442238360643E-003;3.486971370875835E-003;
2.427500000000000E+009;1.684682220220566E-001;-1.024125367403030E-001;-4.735301714390516E-003;3.619280410930514E-003;
2.427666666666667E+009;1.680926978588104E-001;-1.028078049421310E-001;-4.641738720238209E-003;3.744395216926932E-003;
