# Version 1.00
#
freq[Hz];re:Trc1_S11;im:Trc1_S11;re:Trc2_S21;im:Trc2_S21;
2.400000000000000E+009;1.561401933431625E-001;1.054705306887627E-001;6.052326876670122E-003;6.646971683949232E-003;
2.400166666666667E+009;1.560951471328735E-001;1.031028851866722E-001;6.222692783921957E-003;6.398586556315422E-003;
2.400333333333334E+009;1.563571095466614E-001;1.011231690645218E-001;6.505754776299000E-003;5.949400365352631E-003;
2.400500000000000E+009;1.565390825271606E-001;9.861484915018082E-002;6.770320702344179E-003;5.794754717499018E-003;
2.400666666666667E+009;1.567330360412598E-001;9.639359265565872E-002;7.077365182340145E-003;5.184473469853401E-003;
2.400833333333334E+009;1.569043248891830E-001;9.360619634389877E-002;7.217551115900278E-003;4.592288751155138E-003;
2.401000000000000E+009;1.572555303573608E-001;9.132739901542664E-002;7.324768230319023E-003;4.418129567056894E-003;
2.401166666666667E+009;1.575857996940613E-001;8.852130174636841E-002;7.471750956028700E-003;3.928218036890030E-003;
2.401333333333334E+009;1.579836905002594E-001;8.590086549520493E-002;7.429660763591528E-003;3.480146173387766E-003;
2.401500000000000E+009;1.586630940437317E-001;8.352412283420563E-002;7.333919871598482E-003;3.159301821142435E-003;
2.401666666666667E+009;1.589855849742889E-001;8.089149743318558E-002;7.147583179175854E-003;2.712652087211609E-003;
2.401833333333334E+009;1.597727686166763E-001;7.821296155452728E-002;7.245471235364676E-003;2.494531450793147E-003;
2.402000000000000E+009;1.606248766183853E-001;7.580401003360748E-002;7.070026826113462E-003;2.194927074015141E-003;
2.402166666666667E+009;1.611780971288681E-001;7.345402240753174E-002;7.160021923482418E-003;2.018871949985623E-003;
2.402333333333334E+009;1.623887866735458E-001;7.086674869060516E-002;6.787522695958614E-003;1.856223680078983E-003;
2.402500000000000E+009;1.633093506097794E-001;6.858137995004654E-002;6.888228934258223E-003;1.790734240785241E-003;
2.402666666666667E+009;1.642236262559891E-001;6.653534621000290E-002;6.762890610843897E-003;1.520017394796014E-003;
2.402833333333334E+009;1.655847281217575E-001;6.424330919981003E-002;6.787873338907957E-003;1.463227206841111E-003;
2.403000000000000E+009;1.670189797878265E-001;6.199024990200996E-002;6.832662504166365E-003;1.077212975360453E-003;
2.403166666666667E+009;1.686028540134430E-001;6.004360318183899E-002;6.677834782749414E-003;1.128701376728714E-003;
2.403333333333334E+009;1.699143201112747E-001;5.777237191796303E-002;6.766880862414837E-003;1.058249850757420E-003;
2.403500000000000E+009;1.713297069072723E-001;5.597657337784767E-002;6.755965761840344E-003;8.382688392885029E-004;
2.403666666666667E+009;1.730554550886154E-001;5.433420091867447E-002;6.834286265075207E-003;5.742242792621255E-004;
2.403833333333334E+009;1.743199825286865E-001;5.262684449553490E-002;6.669734604656696E-003;4.634422657545656E-004;
2.404000000000000E+009;1.757788062095642E-001;5.083453655242920E-002;6.901663262397051E-003;2.410713932476938E-004;
2.404166666666667E+009;1.772298961877823E-001;4.945190250873566E-002;6.934399250894785E-003;-1.536018244223669E-004;
2.404333333333334E+009;1.785329133272171E-001;4.802647233009338E-002;7.031595334410667E-003;-4.188823222648352E-004;
2.404500000000000E+009;1.800635904073715E-001;4.647283256053925E-002;7.085044868290424E-003;-6.201169453561306E-004;
2.404666666666667E+009;1.815995573997498E-001;4.549898579716682E-002;6.976895034313202E-003;-8.993892115540803E-004;
2.404833333333334E+009;1.828491538763046E-001;4.433131217956543E-002;6.877051200717688E-003;-1.173117198050022E-003;
2.405000000000000E+009;1.841053068637848E-001;4.369938746094704E-002;6.783018354326487E-003;-1.413905294612050E-003;
2.405166666666667E+009;1.854873597621918E-001;4.299476742744446E-002;6.675096228718758E-003;-1.708612311631441E-003;
2.405333333333334E+009;1.864538639783859E-001;4.227001592516899E-002;6.392337381839752E-003;-1.792092807590962E-003;
2.405500000000000E+009;1.877767294645309E-001;4.174830019474030E-002;6.307330448180437E-003;-2.048208145424724E-003;
2.405666666666667E+009;1.888399273157120E-001;4.123898223042488E-002;6.147783715277910E-003;-2.221673494204879E-003;
2.405833333333334E+009;1.897737681865692E-001;4.083218052983284E-002;5.865135695785284E-003;-2.386316191405058E-003;
2.406000000000000E+009;1.907345503568649E-001;4.051575064659119E-002;5.612552631646395E-003;-2.510103397071362E-003;
2.406166666666667E+009;1.915148347616196E-001;4.009046033024788E-002;5.552566144615412E-003;-2.603101078420878E-003;
2.406333333333334E+009;1.922874748706818E-001;4.004721716046333E-002;5.518989637494087E-003;-2.868158742785454E-003;
2.406500000000000E+009;1.930418610572815E-001;3.981763124465942E-002;5.064276047050953E-003;-2.802299568429589E-003;
2.406666666666667E+009;1.934432685375214E-001;3.960382938385010E-002;4.983444698154926E-003;-2.786067314445972E-003;
2.406833333333334E+009;1.938889175653458E-001;3.940656781196594E-002;4.758990369737148E-003;-3.004244994372129E-003;
2.407000000000000E+009;1.942334622144699E-001;3.942264616489410E-002;4.681001417338848E-003;-2.865809714421630E-003;
2.407166666666667E+009;1.944781392812729E-001;3.909431770443916E-002;4.528989549726248E-003;-3.009133273735642E-003;
2.407333333333334E+009;1.944295316934586E-001;3.895030170679092E-002;4.390935413539410E-003;-3.012411994859576E-003;
2.407500000000000E+009;1.943177133798599E-001;3.888241574168205E-002;4.414474591612816E-003;-2.714972943067551E-003;
2.407666666666667E+009;1.944405138492584E-001;3.849018737673760E-002;4.328908864408732E-003;-2.775864442810416E-003;
2.407833333333334E+009;1.940156519412994E-001;3.819401189684868E-002;4.151630681008101E-003;-2.862130291759968E-003;
2.408000000000000E+009;1.939910203218460E-001;3.791241720318794E-002;4.203928168863058E-003;-2.803126117214561E-003;
2.408166666666667E+009;1.935553848743439E-001;3.750970214605331E-002;4.103288985788822E-003;-2.928759204223752E-003;
2.408333333333334E+009;1.933345496654511E-001;3.674479201436043E-002;4.165122751146555E-003;-3.042971249669790E-003;
2.408500000000000E+009;1.927311718463898E-001;3.634518012404442E-002;4.109439440071583E-003;-2.844561124220491E-003;
2.408666666666667E+009;1.921929568052292E-001;3.561759740114212E-002;4.339986946433783E-003;-3.014957299456000E-003;
2.408833333333334E+009;1.916649639606476E-001;3.483644127845764E-002;4.334656521677971E-003;-3.086245385929942E-003;
2.409000000000000E+009;1.910005807876587E-001;3.392243757843971E-002;4.327727481722832E-003;-3.105539595708251E-003;
2.409166666666667E+009;1.901669204235077E-001;3.270571678876877E-002;4.383775871247053E-003;-3.256086027249694E-003;
2.409333333333334E+009;1.895456761121750E-001;3.178890421986580E-002;4.404855892062187E-003;-3.507123794406653E-003;
2.409500000000000E+009;1.887811720371246E-001;3.041345998644829E-002;4.514513071626425E-003;-3.576924325898290E-003;
2.409666666666667E+009;1.879162639379501E-001;2.915876172482967E-002;4.524865187704563E-003;-3.756263293325901E-003;
2.409833333333334E+009;1.870776861906052E-001;2.762367203831673E-002;4.466145299375057E-003;-3.920314367860556E-003;
2.410000000000000E+009;1.863962560892105E-001;2.599825896322727E-002;4.324269946664572E-003;-3.905369434505701E-003;
2.410166666666667E+009;1.856682449579239E-001;2.428488433361054E-002;4.433394409716129E-003;-4.401647020131350E-003;
2.410333333333334E+009;1.850707530975342E-001;2.258477918803692E-002;4.209192935377359E-003;-4.496538080275059E-003;
2.410500000000000E+009;1.841857284307480E-001;2.075528353452683E-002;4.087992478162050E-003;-4.767579957842827E-003;
2.410666666666667E+009;1.834444701671600E-001;1.877594925463200E-002;4.002870060503483E-003;-5.008321721106768E-003;
2.410833333333334E+009;1.830892413854599E-001;1.646279357373714E-002;3.892884124070406E-003;-5.235641729086638E-003;
2.411000000000000E+009;1.825805753469467E-001;1.472534984350205E-002;3.806269960477948E-003;-5.299897398799658E-003;
2.411166666666667E+009;1.822280734777451E-001;1.256378088146448E-002;3.522749058902264E-003;-5.614088848233223E-003;
2.411333333333334E+009;1.818277686834335E-001;1.019279286265373E-002;3.359214868396521E-003;-5.690508987754583E-003;
2.411500000000000E+009;1.813485175371170E-001;8.060285821557045E-003;3.178968559950590E-003;-5.899779032915831E-003;
2.411666666666667E+009;1.814180910587311E-001;5.853234324604273E-003;2.953457180410624E-003;-6.021319888532162E-003;
2.411833333333334E+009;1.811679303646088E-001;3.709025681018829E-003;2.553578699007630E-003;-6.150152068585157E-003;
2.412000000000000E+009;1.815560460090637E-001;1.337058260105550E-003;2.439212286844850E-003;-6.361186970025301E-003;
2.412166666666667E+009;1.814438700675964E-001;-6.808634498156607E-004;2.022226806730032E-003;-6.208877544850111E-003;
2.412333333333334E+009;1.817024052143097E-001;-3.126394469290972E-003;1.873024972155690E-003;-6.355871446430683E-003;
2.412500000000000E+009;1.821303069591522E-001;-5.291956476867199E-003;1.804279047064483E-003;-6.389383226633072E-003;
2.412666666666667E+009;1.825867146253586E-001;-7.421874906867743E-003;1.567283645272255E-003;-6.394380703568459E-003;
2.412833333333334E+009;1.832395792007446E-001;-9.806689806282520E-003;1.522414502687752E-003;-6.338017992675304E-003;
2.413000000000000E+009;1.839924305677414E-001;-1.184465829282999E-002;1.184755237773061E-003;-6.515396293252707E-003;
2.413166666666667E+009;1.844507902860642E-001;-1.362891122698784E-002;8.961640996858478E-004;-6.402897648513317E-003;
2.413333333333334E+009;1.855508089065552E-001;-1.586989313364029E-002;6.676307530142367E-004;-6.457922514528036E-003;
2.413500000000000E+009;1.863224059343338E-001;-1.800832524895668E-002;6.752614281140268E-004;-6.534542422741652E-003;
2.413666666666667E+009;1.873646080493927E-001;-1.995742134749889E-002;3.184816450811923E-004;-6.506250705569983E-003;
2.413833333333334E+009;1.882872879505158E-001;-2.181039005517960E-002;1.640512055018917E-004;-6.427720654755831E-003;
2.414000000000000E+009;1.892368346452713E-001;-2.367269992828369E-002;7.345913036260754E-005;-6.558438763022423E-003;
2.414166666666667E+009;1.903265565633774E-001;-2.532225847244263E-002;-1.072386075975373E-004;-6.682014558464289E-003;
2.414333333333334E+009;1.912253797054291E-001;-2.724125795066357E-002;-2.130036009475589E-004;-6.621879059821367E-003;
2.414500000000000E+009;1.924041509628296E-001;-2.856706827878952E-002;-4.925848916172981E-004;-6.588055286556482E-003;
2.414666666666667E+009;1.934528797864914E-001;-2.996923774480820E-002;-6.903999019414187E-004;-6.843564100563526E-003;
2.414833333333334E+009;1.942525655031204E-001;-3.131970763206482E-002;-1.010775333270431E-003;-6.855329498648644E-003;
2.415000000000000E+009;1.950985491275787E-001;-3.258025273680687E-002;-1.231321250088513E-003;-6.980427075177431E-003;
2.415166666666667E+009;1.961846053600311E-001;-3.373660892248154E-002;-1.720962696708739E-003;-6.952412892132998E-003;
2.415333333333334E+009;1.972415745258331E-001;-3.474835678935051E-002;-1.879793242551386E-003;-7.010049186646938E-003;
2.415500000000000E+009;1.979955285787582E-001;-3.551099076867104E-002;-2.376039512455463E-003;-6.866939365863800E-003;
2.415666666666667E+009;1.988526135683060E-001;-3.642471134662628E-002;-2.566522220149636E-003;-6.840170826762915E-003;
2.415833333333334E+009;1.996280848979950E-001;-3.706685453653336E-002;-2.924307715147734E-003;-6.583031266927719E-003;
2.416000000000000E+009;2.000469714403153E-001;-3.791762515902519E-002;-3.316806396469474E-003;-6.563662551343441E-003;
2.416166666666667E+009;2.007060497999191E-001;-3.849763050675392E-002;-3.642052644863725E-003;-6.149869877845049E-003;
2.416333333333334E+009;2.010375261306763E-001;-3.898772224783897E-002;-3.857234027236700E-003;-6.187241058796644E-003;
2.416500000000000E+009;2.014081329107285E-001;-3.936275094747543E-002;-4.312761127948761E-003;-5.728101357817650E-003;
2.416666666666667E+009;2.015709131956101E-001;-3.996081277728081E-002;-4.393497947603464E-003;-5.551577080041170E-003;
2.416833333333334E+009;2.017126232385635E-001;-4.007925465703011E-002;-4.762289579957724E-003;-5.275332834571600E-003;
2.417000000000000E+009;2.017136216163635E-001;-4.040310159325600E-002;-4.756002686917782E-003;-4.968926776200533E-003;
2.417166666666667E+009;2.012597322463989E-001;-4.043941944837570E-002;-4.834237974137068E-003;-4.703320097178221E-003;
2.417333333333334E+009;2.010975480079651E-001;-4.045229032635689E-002;-4.872923251241446E-003;-4.428033716976643E-003;
2.417500000000000E+009;2.008380144834518E-001;-4.061773046851158E-002;-5.069665610790253E-003;-4.151831846684218E-003;
2.417666666666667E+009;2.002442628145218E-001;-4.059210047125816E-002;-4.951525013893843E-003;-3.884442383423448E-003;
2.417833333333334E+009;1.998941898345947E-001;-4.068384692072868E-002;-4.908329807221890E-003;-3.664457472041249E-003;
2.418000000000000E+009;1.992963254451752E-001;-4.058720543980598E-002;-5.058201961219311E-003;-3.552314825356007E-003;
2.418166666666667E+009;1.985190361738205E-001;-4.076424613595009E-002;-4.933891352266073E-003;-3.195882774889469E-003;
2.418333333333334E+009;1.976167261600494E-001;-4.079894721508026E-002;-4.989457316696644E-003;-3.213258692994714E-003;
2.418500000000000E+009;1.967331916093826E-001;-4.113228619098663E-002;-5.014725029468536E-003;-2.953274874016643E-003;
2.418666666666667E+009;1.960040032863617E-001;-4.096602648496628E-002;-4.986895713955164E-003;-2.797008957713842E-003;
2.418833333333334E+009;1.948318183422089E-001;-4.142225533723831E-002;-4.949008580297232E-003;-2.729339059442282E-003;
2.419000000000000E+009;1.936957091093063E-001;-4.166050627827644E-002;-5.013637244701386E-003;-2.622886793687940E-003;
2.419166666666667E+009;1.926499009132385E-001;-4.222151264548302E-002;-4.979370627552271E-003;-2.463510027155280E-003;
2.419333333333334E+009;1.914123296737671E-001;-4.282154515385628E-002;-5.060784984380007E-003;-2.252716338261962E-003;
2.419500000000000E+009;1.902137696743012E-001;-4.341080784797669E-002;-5.087795201689005E-003;-2.162211108952761E-003;
2.419666666666667E+009;1.887759864330292E-001;-4.419776797294617E-002;-5.187609232962132E-003;-1.998378662392497E-003;
2.419833333333334E+009;1.874747574329376E-001;-4.496948048472405E-002;-5.209829192608595E-003;-1.979496097192168E-003;
2.420000000000000E+009;1.860805004835129E-001;-4.587426409125328E-002;-5.146041046828032E-003;-1.811941503547132E-003;
2.420166666666667E+009;1.846870929002762E-001;-4.690499231219292E-002;-5.338220857083798E-003;-1.581825898028910E-003;
2.420333333333334E+009;1.834412962198257E-001;-4.809387400746346E-002;-5.408111494034529E-003;-1.311442814767361E-003;
2.420500000000000E+009;1.819518655538559E-001;-4.945893958210945E-002;-5.359948147088289E-003;-1.079796114936471E-003;
2.420666666666667E+009;1.805954426527023E-001;-5.055889114737511E-002;-5.235859658569098E-003;-9.330134489573538E-004;
2.420833333333334E+009;1.791836023330689E-001;-5.193556845188141E-002;-5.230947397649288E-003;-7.338753202930093E-004;
2.421000000000000E+009;1.779110580682755E-001;-5.358039215207100E-002;-5.066087469458580E-003;-2.998070558533073E-004;
2.421166666666667E+009;1.767577975988388E-001;-5.511885508894920E-002;-5.030114203691483E-003;-3.525443025864661E-004;
2.421333333333334E+009;1.752950549125671E-001;-5.653720721602440E-002;-4.853326361626387E-003;-1.408208190696314E-004;
2.421500000000000E+009;1.741615980863571E-001;-5.839460343122482E-002;-4.774732049554586E-003;4.624776192940772E-005;
2.421666666666667E+009;1.730981767177582E-001;-6.010876968502998E-002;-4.386931657791138E-003;-6.723947444697842E-005;
2.421833333333334E+009;1.721059978008270E-001;-6.185523793101311E-002;-4.399484489113092E-003;5.148095169715816E-006;
2.422000000000000E+009;1.710688620805740E-001;-6.363537907600403E-002;-4.186260048300028E-003;4.769688530359417E-005;
2.422166666666667E+009;1.702593863010407E-001;-6.549087166786194E-002;-4.037218168377876E-003;-1.883765435195528E-005;
2.422333333333334E+009;1.692468672990799E-001;-6.745740026235580E-002;-4.050063434988260E-003;-9.017540833156090E-006;
2.422500000000000E+009;1.685887873172760E-001;-6.912782043218613E-002;-4.017222207039595E-003;-7.680022099521011E-005;
2.422666666666667E+009;1.679003834724426E-001;-7.106627523899078E-002;-3.990497440099716E-003;-2.275344013469294E-004;
2.422833333333334E+009;1.675089746713638E-001;-7.293225824832916E-002;-4.149078857153654E-003;-3.432909143157303E-004;
2.423000000000000E+009;1.670059859752655E-001;-7.491369545459747E-002;-4.079066216945648E-003;-2.255051076645032E-004;
2.423166666666667E+009;1.665233671665192E-001;-7.667202502489090E-002;-4.107633139938116E-003;-2.148250641766936E-004;
2.423333333333334E+009;1.662401705980301E-001;-7.836158573627472E-002;-4.280056338757277E-003;-2.056439407169819E-004;
2.423500000000000E+009;1.660214513540268E-001;-8.003880828619003E-002;-4.237929359078407E-003;-1.646326127229258E-004;
2.423666666666667E+009;1.659834831953049E-001;-8.179375529289246E-002;-4.321320913732052E-003;-3.103199996985495E-004;
2.423833333333334E+009;1.658666878938675E-001;-8.336726576089859E-002;-4.500983748584986E-003;-2.163997996831313E-004;
2.424000000000000E+009;1.659288704395294E-001;-8.511021733283997E-002;-4.650704097002745E-003;2.825531191774644E-005;
2.424166666666667E+009;1.658231765031815E-001;-8.657765388488770E-002;-4.675777629017830E-003;-6.333312921924517E-005;
2.424333333333334E+009;1.658592820167542E-001;-8.798654377460480E-002;-4.703942220658064E-003;1.871250133262947E-004;
2.424500000000000E+009;1.661434620618820E-001;-8.968689292669296E-002;-4.821995738893747E-003;2.624061307869852E-004;
2.424666666666667E+009;1.662745326757431E-001;-9.087257832288742E-002;-4.900407046079636E-003;2.871690085157752E-004;
2.424833333333334E+009;1.666862368583679E-001;-9.201142191886902E-002;-4.996028728783131E-003;4.672576324082911E-004;
2.425000000000000E+009;1.669166386127472E-001;-9.336225688457489E-002;-5.110902711749077E-003;7.056715548969805E-004;
2.425166666666667E+009;1.670269221067429E-001;-9.435606747865677E-002;-5.106585565954447E-003;8.442465914413333E-004;
2.425333333333334E+009;1.671504676342011E-001;-9.533897787332535E-002;-5.127640906721354E-003;1.098072505556047E-003;
2.425500000000000E+009;1.674658507108688E-001;-9.640476852655411E-002;-5.220416933298111E-003;1.201311708427966E-003;
2.425666666666667E+009;1.676627099514008E-001;-9.704718738794327E-002;-5.257108248770237E-003;1.206628396175802E-003;
2.425833333333334E+009;1.678225249052048E-001;-9.797417372465134E-002;-5.242177750915289E-003;1.497181016020477E-003;
2.426000000000000E+009;1.682006865739822E-001;-9.857033193111420E-002;-5.246605258435011E-003;1.646602875553072E-003;
2.426166666666667E+009;1.684722453355789E-001;-9.912923723459244E-002;-5.241664126515389E-003;1.830801600590348E-003;
2.426333333333334E+009;1.683594882488251E-001;-9.977553784847260E-002;-4.947245586663485E-003;2.046621171757579E-003;
2.426500000000000E+009;1.687045842409134E-001;-1.002302914857864E-001;-5.045161582529545E-003;2.176116453483701E-003;
2.426666666666667E+009;1.688893586397171E-001;-1.007277816534042E-001;-5.214595701545477E-003;2.559216925874353E-003;
2.426833333333334E+009;1.690557748079300E-001;-1.010515987873077E-001;-5.067320540547371E-003;2.618717728182674E-003;
2.427000000000000E+009;1.689260154962540E-001;-1.014885008335114E-001;-5.032730754464865E-003;2.881877124309540E-003;
2.427166666666667E+009;1.689259111881256E-001;-1.016840934753418E-001;-4.971814341843128E-003;2.858530730009079E-003;
2.427333333333334E+009;1.688614636659622E-001;-1.022150963544846E-001;-4.934921860694885E-003;2.845512935891748E-003;
2.427500000000000E+009;1.685038208961487E-001;-1.025005728006363E-001;-4.852808546274900E-003;3.237212542444468E-003;
2.427666666666667E+009;1.683084368705750E-001;-1.027443781495094E-001;-4.671491216868162E-003;3.309061983600259E-003;
