# Version 1.00
#
freq[Hz];re:Trc1_S11;im:Trc1_S11;re:Trc2_S21;im:Trc2_S21;
2.400000000000000E+009;1.636516302824020E-001;5.193805322051048E-002;-3.492418443784118E-003;3.912914544343948E-003;
2.400166666666667E+009;1.635996401309967E-001;5.051070451736450E-002;-3.389252815395594E-003;4.103498999029398E-003;
2.400333333333334E+009;1.633704453706741E-001;4.884153231978416E-002;-3.292994340881705E-003;4.288090392947197E-003;
2.400500000000000E+009;1.633203327655792E-001;4.677037149667740E-002;-3.192656440660358E-003;4.348251968622208E-003;
2.400666666666667E+009;1.633262038230896E-001;4.484754428267479E-002;-3.281738841906190E-003;4.495774395763874E-003;
2.400833333333334E+009;1.635784506797791E-001;4.328637942671776E-002;-3.152802819386125E-003;4.678160883486271E-003;
2.401000000000000E+009;1.634493172168732E-001;4.116034135222435E-002;-2.943834057077766E-003;4.892942961305380E-003;
2.401166666666667E+009;1.636092364788055E-001;3.924420848488808E-002;-2.778382739052177E-003;4.965461324900389E-003;
2.401333333333334E+009;1.635715514421463E-001;3.723799809813500E-002;-2.510724356397986E-003;5.221657454967499E-003;
2.401500000000000E+009;1.638759076595306E-001;3.523099422454834E-002;-2.211563056334853E-003;5.265803541988134E-003;
2.401666666666667E+009;1.641536206007004E-001;3.343471512198448E-002;-2.161645796149969E-003;5.476870108395815E-003;
2.401833333333334E+009;1.643289178609848E-001;3.127773106098175E-002;-1.780669670552015E-003;5.662652198225260E-003;
2.402000000000000E+009;1.644619703292847E-001;2.939697727560997E-002;-1.844444079324603E-003;5.727973766624928E-003;
2.402166666666667E+009;1.648702323436737E-001;2.751379087567329E-002;-1.540895435027778E-003;5.968738812953234E-003;
2.402333333333334E+009;1.650615930557251E-001;2.569427900016308E-002;-1.201191334985197E-003;5.787563975900412E-003;
2.402500000000000E+009;1.657496839761734E-001;2.377405948936939E-002;-9.300349629484117E-004;5.933101288974285E-003;
2.402666666666667E+009;1.662689000368118E-001;2.210262976586819E-002;-8.085332810878754E-004;5.928772967308760E-003;
2.402833333333334E+009;1.668360680341721E-001;2.050903998315334E-002;-3.590747655835003E-004;6.052132230252028E-003;
2.403000000000000E+009;1.674902439117432E-001;1.876454055309296E-002;-5.482176493387669E-005;6.101388949900866E-003;
2.403166666666667E+009;1.680505573749542E-001;1.718119904398918E-002;5.558844051734013E-008;6.099139805883169E-003;
2.403333333333334E+009;1.686005443334580E-001;1.573470048606396E-002;3.616906178649515E-004;6.068821065127850E-003;
2.403500000000000E+009;1.692217886447907E-001;1.417826022952795E-002;6.530050886794925E-004;5.981906317174435E-003;
2.403666666666667E+009;1.699353009462357E-001;1.268228236585856E-002;8.767356630414724E-004;6.071842741221190E-003;
2.403833333333334E+009;1.709499508142471E-001;1.149128191173077E-002;1.198815065436065E-003;5.919503048062325E-003;
2.404000000000000E+009;1.714571863412857E-001;1.016259007155895E-002;1.416340353898704E-003;5.607310682535172E-003;
2.404166666666667E+009;1.722909212112427E-001;8.934161625802517E-003;1.868557301349938E-003;5.568021908402443E-003;
2.404333333333334E+009;1.729222685098648E-001;8.068171329796314E-003;1.871744287200272E-003;5.391373299062252E-003;
2.404500000000000E+009;1.735492944717407E-001;6.684322841465473E-003;2.195397857576609E-003;5.358798429369927E-003;
2.404666666666667E+009;1.743792146444321E-001;5.786153022199869E-003;2.388219814747572E-003;5.110973957926035E-003;
2.404833333333334E+009;1.751091927289963E-001;4.972181748598814E-003;2.598053775727749E-003;5.040976684540510E-003;
2.405000000000000E+009;1.758328974246979E-001;4.087059292942286E-003;2.832146361470223E-003;4.725687205791473E-003;
2.405166666666667E+009;1.766001284122467E-001;3.337698057293892E-003;2.817163942381740E-003;4.667805042117834E-003;
2.405333333333334E+009;1.771771311759949E-001;2.661615377292037E-003;3.189397277310491E-003;4.396827891469002E-003;
2.405500000000000E+009;1.777094900608063E-001;2.048992551863194E-003;3.354292828589678E-003;4.134596325457096E-003;
2.405666666666667E+009;1.779910475015640E-001;1.587735721841455E-003;3.313077148050070E-003;4.219777416437864E-003;
2.405833333333334E+009;1.784521490335465E-001;1.132154255174100E-003;3.609445178881288E-003;3.951818682253361E-003;
2.406000000000000E+009;1.791360378265381E-001;5.891847540624440E-004;3.634714521467686E-003;3.726071678102016E-003;
2.406166666666667E+009;1.793799698352814E-001;2.715682785492390E-004;3.649496706202626E-003;3.591428278014064E-003;
2.406333333333334E+009;1.797519922256470E-001;-9.051828965311870E-005;3.734828671440482E-003;3.487491048872471E-003;
2.406500000000000E+009;1.799629330635071E-001;-5.911543266847730E-004;3.838729113340378E-003;3.217421239241958E-003;
2.406666666666667E+009;1.799814701080322E-001;-7.877635653130710E-004;3.878167131915689E-003;3.003482474014163E-003;
2.406833333333334E+009;1.801141053438187E-001;-1.193483243696392E-003;3.900605952367187E-003;2.863196190446615E-003;
2.407000000000000E+009;1.801942735910416E-001;-1.611098181456327E-003;3.922736272215843E-003;2.641425002366304E-003;
2.407166666666667E+009;1.803080290555954E-001;-1.933956169523299E-003;3.965862561017275E-003;2.497157081961632E-003;
2.407333333333334E+009;1.802084743976593E-001;-2.329526701942086E-003;4.015193786472082E-003;2.370661590248346E-003;
2.407500000000000E+009;1.800097823143005E-001;-2.676234813407064E-003;4.047035239636898E-003;2.271470846608281E-003;
2.407666666666667E+009;1.797325611114502E-001;-3.065055469051004E-003;4.065941553562880E-003;2.061473205685616E-003;
2.407833333333334E+009;1.793279796838760E-001;-3.803297877311707E-003;4.005799535661936E-003;1.894111977890134E-003;
2.408000000000000E+009;1.789819598197937E-001;-4.327571019530296E-003;4.146046936511993E-003;1.803918741643429E-003;
2.408166666666667E+009;1.785009801387787E-001;-4.781472496688366E-003;3.987913951277733E-003;1.534486771561205E-003;
2.408333333333334E+009;1.783312857151032E-001;-5.449868738651276E-003;4.034236539155245E-003;1.349160331301391E-003;
2.408500000000000E+009;1.775781065225601E-001;-6.159838754683733E-003;4.017560742795467E-003;1.145402318798006E-003;
2.408666666666667E+009;1.770492941141129E-001;-7.008981425315142E-003;3.908131737262011E-003;1.078994246199727E-003;
2.408833333333334E+009;1.763257980346680E-001;-7.834824733436108E-003;3.999401349574328E-003;8.774338639341295E-004;
2.409000000000000E+009;1.757728010416031E-001;-8.866426534950733E-003;3.862348617985845E-003;9.256557677872479E-004;
2.409166666666667E+009;1.751366108655930E-001;-9.737647138535976E-003;3.985324408859015E-003;7.751156808808446E-004;
2.409333333333334E+009;1.745259910821915E-001;-1.093219686299563E-002;3.917262889444828E-003;6.529892561957240E-004;
2.409500000000000E+009;1.736756265163422E-001;-1.217413693666458E-002;3.837371245026588E-003;4.958029603585601E-004;
2.409666666666667E+009;1.730164438486099E-001;-1.330091897398233E-002;3.646331606432796E-003;3.649214631877840E-004;
2.409833333333334E+009;1.721708327531815E-001;-1.448842696845532E-002;3.621181473135948E-003;3.783259599003941E-004;
2.410000000000000E+009;1.715577542781830E-001;-1.596052013337612E-002;3.647237084805965E-003;2.559223212301731E-004;
2.410166666666667E+009;1.710149198770523E-001;-1.739973016083241E-002;3.635670524090529E-003;1.964867551578209E-004;
2.410333333333334E+009;1.702166050672531E-001;-1.888960413634777E-002;3.434517420828342E-003;2.045958972303197E-004;
2.410500000000000E+009;1.696274131536484E-001;-2.058862335979939E-002;3.568311454728246E-003;2.037655212916434E-004;
2.410666666666667E+009;1.689665317535400E-001;-2.230997942388058E-002;3.454472403973341E-003;-9.689446596894413E-005;
2.410833333333334E+009;1.685704439878464E-001;-2.372795529663563E-002;3.559684613719583E-003;-6.450334331020713E-005;
2.411000000000000E+009;1.679435670375824E-001;-2.545456029474735E-002;3.518904326483607E-003;-1.572388100612443E-005;
2.411166666666667E+009;1.675870120525360E-001;-2.742373570799828E-002;3.329802304506302E-003;-1.137293002102524E-004;
2.411333333333334E+009;1.670697182416916E-001;-2.922947891056538E-002;3.536530770361424E-003;-6.753150955773890E-005;
2.411500000000000E+009;1.668455898761749E-001;-3.144336864352226E-002;3.493816358968616E-003;-2.819366345647723E-004;
2.411666666666667E+009;1.667090654373169E-001;-3.303716704249382E-002;3.450185293331742E-003;-2.894593344535679E-004;
2.411833333333334E+009;1.664464473724365E-001;-3.491508588194847E-002;3.435337683185935E-003;-2.582188753876835E-004;
2.412000000000000E+009;1.663069427013397E-001;-3.678461536765099E-002;3.569254418835044E-003;-3.866954066324979E-004;
2.412166666666667E+009;1.661661863327026E-001;-3.880888968706131E-002;3.575252601876855E-003;-4.784292250405997E-004;
2.412333333333334E+009;1.664087772369385E-001;-4.055102914571762E-002;3.568204352632165E-003;-6.867471383884549E-004;
2.412500000000000E+009;1.662992686033249E-001;-4.236168414354324E-002;3.478847211226821E-003;-6.346677546389401E-004;
2.412666666666667E+009;1.664730161428452E-001;-4.427074640989304E-002;3.420438617467880E-003;-9.397521498613060E-004;
2.412833333333334E+009;1.667373925447464E-001;-4.634792730212212E-002;3.411509562283754E-003;-1.041701878421009E-003;
2.413000000000000E+009;1.668116897344589E-001;-4.806157201528549E-002;3.353344043716788E-003;-1.267243758775294E-003;
2.413166666666667E+009;1.670178323984146E-001;-4.970074445009232E-002;3.395523643121123E-003;-1.336446264758706E-003;
2.413333333333334E+009;1.674184352159500E-001;-5.138216540217400E-002;3.274114802479744E-003;-1.394637511111796E-003;
2.413500000000000E+009;1.678543388843536E-001;-5.312291532754898E-002;3.231819719076157E-003;-1.560514559969306E-003;
2.413666666666667E+009;1.681865900754929E-001;-5.474083125591278E-002;3.222092287614942E-003;-1.712830853648484E-003;
2.413833333333334E+009;1.683858335018158E-001;-5.620576813817024E-002;3.221068065613508E-003;-2.012798096984625E-003;
2.414000000000000E+009;1.689237207174301E-001;-5.764697492122650E-002;3.134185448288918E-003;-1.932422048412263E-003;
2.414166666666667E+009;1.693217307329178E-001;-5.912513285875320E-002;2.746818121522665E-003;-2.066872082650662E-003;
2.414333333333334E+009;1.697608828544617E-001;-6.033125147223473E-002;2.719430718570948E-003;-2.113142982125282E-003;
2.414500000000000E+009;1.703937798738480E-001;-6.142452731728554E-002;2.602065447717905E-003;-2.260102657601237E-003;
2.414666666666667E+009;1.706535667181015E-001;-6.263273209333420E-002;2.524079289287329E-003;-2.348301699385047E-003;
2.414833333333334E+009;1.711220443248749E-001;-6.372638791799545E-002;2.372646704316139E-003;-2.447975566610694E-003;
2.415000000000000E+009;1.715847700834274E-001;-6.447553634643555E-002;2.234401879832149E-003;-2.510567428544164E-003;
2.415166666666667E+009;1.719187498092651E-001;-6.531217694282532E-002;2.016278915107250E-003;-2.546557923778892E-003;
2.415333333333334E+009;1.722780764102936E-001;-6.616245210170746E-002;1.962274545803666E-003;-2.693011891096830E-003;
2.415500000000000E+009;1.725633889436722E-001;-6.690920144319534E-002;1.758089172653854E-003;-2.701082965359092E-003;
2.415666666666667E+009;1.728949248790741E-001;-6.742121279239655E-002;1.613937783986330E-003;-2.664509229362011E-003;
2.415833333333334E+009;1.730563491582871E-001;-6.810975074768066E-002;1.468544127419591E-003;-2.531629754230380E-003;
2.416000000000000E+009;1.731292009353638E-001;-6.857576966285706E-002;1.342444098554552E-003;-2.685742452740669E-003;
2.416166666666667E+009;1.734695285558701E-001;-6.909199059009552E-002;1.307477476075292E-003;-2.590273274108768E-003;
2.416333333333334E+009;1.733173727989197E-001;-6.941409409046173E-002;1.076771994121373E-003;-2.559965942054987E-003;
2.416500000000000E+009;1.731880456209183E-001;-6.978682428598404E-002;9.704309049993753E-004;-2.448461484164000E-003;
2.416666666666667E+009;1.730598956346512E-001;-7.005777955055237E-002;7.399617461487651E-004;-2.624144311994314E-003;
2.416833333333334E+009;1.729549020528793E-001;-7.034899294376373E-002;7.123423856683075E-004;-2.391002373769879E-003;
2.417000000000000E+009;1.724991798400879E-001;-7.065912336111069E-002;6.389874615706503E-004;-2.400326542556286E-003;
2.417166666666667E+009;1.720959097146988E-001;-7.077635079622269E-002;5.609552608802915E-004;-2.475404180586338E-003;
2.417333333333334E+009;1.716173291206360E-001;-7.091443240642548E-002;6.515799905173481E-004;-2.208620775490999E-003;
2.417500000000000E+009;1.709963232278824E-001;-7.131342589855194E-002;4.500260693021119E-004;-2.273325575515628E-003;
2.417666666666667E+009;1.704832315444946E-001;-7.136846333742142E-002;3.898276481777430E-004;-2.193925902247429E-003;
2.417833333333334E+009;1.696690469980240E-001;-7.157024741172791E-002;3.021260490640998E-004;-1.999278785660863E-003;
2.418000000000000E+009;1.688461005687714E-001;-7.200535386800766E-002;2.343811065657064E-004;-2.162150572985411E-003;
2.418166666666667E+009;1.679480969905853E-001;-7.210279256105423E-002;1.950156438397244E-004;-1.850786036811769E-003;
2.418333333333334E+009;1.673184186220169E-001;-7.248116284608841E-002;3.597161557991058E-004;-1.952756545506418E-003;
2.418500000000000E+009;1.661264151334763E-001;-7.274693250656128E-002;2.391460584476590E-004;-1.737093087285757E-003;
2.418666666666667E+009;1.652215719223023E-001;-7.316704839468002E-002;3.948025405406952E-004;-1.692764577455819E-003;
2.418833333333334E+009;1.638609468936920E-001;-7.372195273637772E-002;2.599892322905362E-004;-1.690808567218483E-003;
2.419000000000000E+009;1.627294868230820E-001;-7.426055520772934E-002;2.244452625745907E-004;-1.724740257486701E-003;
2.419166666666667E+009;1.616607904434204E-001;-7.467889785766602E-002;3.456839185673744E-004;-1.703637186437845E-003;
2.419333333333334E+009;1.603632867336273E-001;-7.517220079898834E-002;2.545256575103849E-004;-1.445635105483234E-003;
2.419500000000000E+009;1.591781824827194E-001;-7.600470632314682E-002;2.114171365974471E-004;-1.506702275946736E-003;
2.419666666666667E+009;1.580364257097244E-001;-7.680755108594894E-002;2.744312514550984E-004;-1.412543817423284E-003;
2.419833333333334E+009;1.566883474588394E-001;-7.764778286218643E-002;2.397898206254467E-004;-1.587904174812138E-003;
2.420000000000000E+009;1.557391136884689E-001;-7.863868027925491E-002;2.628591610118747E-004;-1.412445795722306E-003;
2.420166666666667E+009;1.542701274156570E-001;-7.954483479261398E-002;3.916831628885120E-004;-1.649099285714328E-003;
2.420333333333334E+009;1.532432436943054E-001;-8.067724108695984E-002;1.120892993640155E-004;-1.528699067421258E-003;
2.420500000000000E+009;1.522034704685211E-001;-8.163160085678101E-002;2.468277525622398E-004;-1.493957592174411E-003;
2.420666666666667E+009;1.509262621402741E-001;-8.286631107330322E-002;3.792886855080724E-004;-1.474553486332297E-003;
2.420833333333334E+009;1.499913632869721E-001;-8.434467762708664E-002;2.896811056416482E-004;-1.443467801436782E-003;
2.421000000000000E+009;1.490178406238556E-001;-8.579950779676437E-002;3.986608353443444E-004;-1.517210970632732E-003;
2.421166666666667E+009;1.479174792766571E-001;-8.702924102544785E-002;4.414152354001999E-004;-1.466607674956322E-003;
2.421333333333334E+009;1.473085731267929E-001;-8.862380683422089E-002;4.561364476103336E-004;-1.366243581287563E-003;
2.421500000000000E+009;1.464559435844421E-001;-9.011508524417877E-002;4.353632102720439E-004;-1.402824302203953E-003;
2.421666666666667E+009;1.456169784069061E-001;-9.165365248918533E-002;4.369155212771148E-004;-1.474940101616085E-003;
2.421833333333334E+009;1.451339721679688E-001;-9.330156445503235E-002;3.009692591149360E-004;-1.342253061011434E-003;
2.422000000000000E+009;1.444437354803085E-001;-9.484098851680756E-002;4.136143834330142E-004;-1.586272264830768E-003;
2.422166666666667E+009;1.441090404987335E-001;-9.697621315717697E-002;4.680344718508422E-004;-1.646214048378170E-003;
2.422333333333334E+009;1.436132043600082E-001;-9.831678122282028E-002;4.805497592315078E-004;-1.600052462890744E-003;
2.422500000000000E+009;1.434269845485687E-001;-1.000496149063110E-001;4.001261550001800E-004;-1.617174479179084E-003;
2.422666666666667E+009;1.430599987506867E-001;-1.017438098788261E-001;4.647139285225421E-004;-1.556014525704086E-003;
2.422833333333334E+009;1.430283188819885E-001;-1.035005673766136E-001;3.801549319177866E-004;-1.645074691623449E-003;
2.423000000000000E+009;1.429961919784546E-001;-1.051832512021065E-001;3.240830264985561E-004;-1.667639473453164E-003;
2.423166666666667E+009;1.430315226316452E-001;-1.069294065237045E-001;4.249356570653617E-004;-1.770884962752461E-003;
2.423333333333334E+009;1.431724131107330E-001;-1.084874570369721E-001;1.861541240941733E-004;-1.769870985299349E-003;
2.423500000000000E+009;1.431174278259277E-001;-1.099264249205589E-001;2.752120781224221E-004;-1.933466410264373E-003;
2.423666666666667E+009;1.432856768369675E-001;-1.116712838411331E-001;3.527410735841841E-004;-1.924355863593519E-003;
2.423833333333334E+009;1.436714082956314E-001;-1.131793335080147E-001;2.686994266696274E-004;-1.807783963158727E-003;
2.424000000000000E+009;1.437298804521561E-001;-1.143752932548523E-001;2.600251755211502E-004;-1.820412930101156E-003;
2.424166666666667E+009;1.439993381500244E-001;-1.158339381217957E-001;1.636659872019664E-004;-1.912665902636945E-003;
2.424333333333334E+009;1.444511562585831E-001;-1.171769574284554E-001;1.316089328611270E-004;-2.131964312866330E-003;
2.424500000000000E+009;1.448519378900528E-001;-1.184253394603729E-001;4.110040754312649E-005;-2.122130244970322E-003;
2.424666666666667E+009;1.452934890985489E-001;-1.195110529661179E-001;5.978216722724028E-005;-2.151803346350789E-003;
2.424833333333334E+009;1.454938054084778E-001;-1.206484436988831E-001;-1.039172857417725E-004;-2.083846135064960E-003;
2.425000000000000E+009;1.459494233131409E-001;-1.215967983007431E-001;-5.287108069751412E-005;-2.196079120039940E-003;
2.425166666666667E+009;1.461151540279388E-001;-1.224367693066597E-001;-3.831085050478578E-004;-2.012304496020079E-003;
2.425333333333334E+009;1.465689390897751E-001;-1.232492923736572E-001;-3.114260616712272E-004;-2.242428250610828E-003;
2.425500000000000E+009;1.469114124774933E-001;-1.240557208657265E-001;-3.892613458447158E-004;-2.122185891494155E-003;
2.425666666666667E+009;1.470964550971985E-001;-1.246323287487030E-001;-4.805946664419025E-004;-2.121882513165474E-003;
2.425833333333334E+009;1.474302262067795E-001;-1.251045763492584E-001;-4.795212007593364E-004;-2.028046874329448E-003;
2.426000000000000E+009;1.475766152143478E-001;-1.258472055196762E-001;-5.136627005413175E-004;-1.980108441784978E-003;
2.426166666666667E+009;1.479704380035400E-001;-1.262038648128510E-001;-5.562707665376365E-004;-2.129201311618090E-003;
2.426333333333334E+009;1.477900594472885E-001;-1.263907551765442E-001;-6.442337180487812E-004;-2.129529369994998E-003;
2.426500000000000E+009;1.479787230491638E-001;-1.266876459121704E-001;-7.261944701895118E-004;-2.140656346455216E-003;
2.426666666666667E+009;1.479902416467667E-001;-1.267503947019577E-001;-6.837350665591657E-004;-2.061949810013175E-003;
2.426833333333334E+009;1.477413624525070E-001;-1.270098239183426E-001;-7.063053199090064E-004;-2.067236928269267E-003;
2.427000000000000E+009;1.475158482789993E-001;-1.271799653768539E-001;-8.959416882134974E-004;-2.177797956392169E-003;
2.427166666666667E+009;1.472503840923309E-001;-1.271143555641174E-001;-9.403842850588262E-004;-2.035102806985378E-003;
2.427333333333334E+009;1.467844694852829E-001;-1.271456927061081E-001;-8.018170483410358E-004;-2.100874437019229E-003;
2.427500000000000E+009;1.463767290115356E-001;-1.271476894617081E-001;-1.041391049511731E-003;-2.033634344115853E-003;
2.427666666666667E+009;1.458103358745575E-001;-1.272128224372864E-001;-9.726608404889703E-004;-1.961252419278026E-003;
