# Version 1.00
#
freq[Hz];re:Trc1_S11;im:Trc1_S11;re:Trc2_S21;im:Trc2_S21;
2.400000000000000E+009;1.635975986719132E-001;5.196377262473106E-002;-3.594216192141175E-003;3.850639099255204E-003;
2.400166666666667E+009;1.636830568313599E-001;5.039368569850922E-002;-3.417397849261761E-003;3.849022090435028E-003;
2.400333333333334E+009;1.635022312402725E-001;4.864884167909622E-002;-3.337115515023470E-003;4.184567369520664E-003;
2.400500000000000E+009;1.634707450866699E-001;4.666902497410774E-002;-3.295996459200978E-003;4.440460354089737E-003;
2.400666666666667E+009;1.634296923875809E-001;4.489802196621895E-002;-3.207365749403834E-003;4.417155869305134E-003;
2.400833333333334E+009;1.635639816522598E-001;4.318381473422051E-002;-3.067157696932554E-003;4.623861983418465E-003;
2.401000000000000E+009;1.634892523288727E-001;4.107231274247170E-002;-3.026827005669475E-003;4.916772712022066E-003;
2.401166666666667E+009;1.634647101163864E-001;3.915990144014359E-002;-2.736474853008986E-003;5.000410135835409E-003;
2.401333333333334E+009;1.636145859956741E-001;3.701862692832947E-002;-2.615511417388916E-003;5.206972826272249E-003;
2.401500000000000E+009;1.638007611036301E-001;3.518467023968697E-002;-2.308312105014920E-003;5.352626554667950E-003;
2.401666666666667E+009;1.641496270895004E-001;3.351885452866554E-002;-2.189545426517725E-003;5.474247038364410E-003;
2.401833333333334E+009;1.641835123300552E-001;3.134942799806595E-002;-2.057089237496257E-003;5.675584543496370E-003;
2.402000000000000E+009;1.644323319196701E-001;2.952212281525135E-002;-1.785953878425062E-003;5.832021590322256E-003;
2.402166666666667E+009;1.648188680410385E-001;2.743119001388550E-002;-1.537731150165200E-003;5.830546375364065E-003;
2.402333333333334E+009;1.652971506118774E-001;2.564837411046028E-002;-1.226657186634839E-003;5.935408640652895E-003;
2.402500000000000E+009;1.659547835588455E-001;2.390505373477936E-002;-1.044060336425901E-003;5.943351425230503E-003;
2.402666666666667E+009;1.661760360002518E-001;2.205325476825237E-002;-7.058227784000337E-004;6.044752895832062E-003;
2.402833333333334E+009;1.667464226484299E-001;2.040094695985317E-002;-3.901453746948391E-004;6.139668170362711E-003;
2.403000000000000E+009;1.674180775880814E-001;1.866954565048218E-002;-2.288055693497881E-004;6.124337669461966E-003;
2.403166666666667E+009;1.680468171834946E-001;1.719253137707710E-002;4.371678733150475E-005;6.155676674097776E-003;
2.403333333333334E+009;1.685294657945633E-001;1.561329048126936E-002;3.961702750530094E-004;6.038161460310221E-003;
2.403500000000000E+009;1.692131459712982E-001;1.417638920247555E-002;5.565717583522201E-004;6.160071585327387E-003;
2.403666666666667E+009;1.699310094118118E-001;1.262857764959335E-002;9.366653976030648E-004;5.962724331766367E-003;
2.403833333333334E+009;1.707708239555359E-001;1.122679654508829E-002;1.151591073721647E-003;5.981686525046825E-003;
2.404000000000000E+009;1.715323776006699E-001;1.004322897642851E-002;1.470503979362547E-003;5.858280695974827E-003;
2.404166666666667E+009;1.720997989177704E-001;9.022611193358898E-003;1.783089595846832E-003;5.922222044318914E-003;
2.404333333333334E+009;1.729370355606079E-001;7.990839891135693E-003;1.934187603183091E-003;5.526115652173758E-003;
2.404500000000000E+009;1.735525578260422E-001;6.610360462218523E-003;2.099061384797096E-003;5.468063056468964E-003;
2.404666666666667E+009;1.744458377361298E-001;5.740044172853231E-003;2.423528116196394E-003;5.291601642966270E-003;
2.404833333333334E+009;1.750542968511581E-001;5.025338847190142E-003;2.552101388573647E-003;5.192472599446774E-003;
2.405000000000000E+009;1.757371574640274E-001;4.070892930030823E-003;2.945660846307874E-003;4.939831793308258E-003;
2.405166666666667E+009;1.763137280941010E-001;3.395006991922855E-003;2.803339390084148E-003;4.439287353307009E-003;
2.405333333333334E+009;1.770821213722229E-001;2.711348701268435E-003;3.274465678259730E-003;4.600958898663521E-003;
2.405500000000000E+009;1.776571869850159E-001;2.096411772072315E-003;3.247995395213366E-003;4.387155175209045E-003;
2.405666666666667E+009;1.780731827020645E-001;1.571941771544516E-003;3.338378155604005E-003;4.261188209056854E-003;
2.405833333333334E+009;1.785193234682083E-001;1.096298568882048E-003;3.433796577155590E-003;4.085812717676163E-003;
2.406000000000000E+009;1.790077537298203E-001;4.385967040434480E-004;3.534371266141534E-003;3.599755931645632E-003;
2.406166666666667E+009;1.792187243700028E-001;4.786841745954007E-004;3.396691754460335E-003;3.516457974910736E-003;
2.406333333333334E+009;1.796482354402542E-001;1.542850986879785E-005;3.649836406111717E-003;3.439228748902679E-003;
2.406500000000000E+009;1.798488795757294E-001;-6.263492978177965E-004;3.736468264833093E-003;3.073975211009383E-003;
2.406666666666667E+009;1.799176186323166E-001;-7.536675548180938E-004;3.569254651665688E-003;3.145874943584204E-003;
2.406833333333334E+009;1.802145391702652E-001;-1.334333908744156E-003;3.963002469390631E-003;2.714368281885982E-003;
2.407000000000000E+009;1.802250742912293E-001;-1.445055124349892E-003;3.953340463340282E-003;2.713815541937947E-003;
2.407166666666667E+009;1.803923100233078E-001;-2.016935963183641E-003;4.041068255901337E-003;2.445692196488380E-003;
2.407333333333334E+009;1.801658719778061E-001;-2.391547663137317E-003;3.825876396149397E-003;2.411628141999245E-003;
2.407500000000000E+009;1.799881756305695E-001;-2.784627955406904E-003;4.026581998914480E-003;2.187004545703530E-003;
2.407666666666667E+009;1.797138899564743E-001;-3.198809921741486E-003;4.093041177839041E-003;1.802962273359299E-003;
2.407833333333334E+009;1.794946640729904E-001;-3.791277995333076E-003;4.077980760484934E-003;1.826841384172440E-003;
2.408000000000000E+009;1.790419816970825E-001;-4.228094127029181E-003;4.004003014415503E-003;1.966131385415793E-003;
2.408166666666667E+009;1.784811466932297E-001;-4.756244365125895E-003;3.943012561649084E-003;1.452339580282569E-003;
2.408333333333334E+009;1.781912147998810E-001;-5.425820127129555E-003;4.050406161695719E-003;1.448263530619443E-003;
2.408500000000000E+009;1.776333451271057E-001;-6.204969249665737E-003;4.104305058717728E-003;1.346606062725186E-003;
2.408666666666667E+009;1.770502328872681E-001;-7.018426898866892E-003;3.992528654634953E-003;1.169520313851535E-003;
2.408833333333334E+009;1.763816773891449E-001;-7.856964133679867E-003;3.839767538011074E-003;1.027964288368821E-003;
2.409000000000000E+009;1.757612079381943E-001;-8.787094615399838E-003;3.871087217703462E-003;8.334041922353208E-004;
2.409166666666667E+009;1.749982088804245E-001;-9.772281162440777E-003;3.829109482467175E-003;8.431746391579509E-004;
2.409333333333334E+009;1.745349764823914E-001;-1.101596932858229E-002;3.631074912846088E-003;7.795835845172405E-004;
2.409500000000000E+009;1.736657470464706E-001;-1.225864887237549E-002;3.628648119047284E-003;5.410971352830529E-004;
2.409666666666667E+009;1.728831976652145E-001;-1.338570285588503E-002;3.732248675078154E-003;5.573527887463570E-004;
2.409833333333334E+009;1.721710860729218E-001;-1.460467465221882E-002;3.560947952792049E-003;3.485023044049740E-004;
2.410000000000000E+009;1.716413199901581E-001;-1.594320684671402E-002;3.553549759089947E-003;4.746386839542538E-004;
2.410166666666667E+009;1.708966344594955E-001;-1.741397567093372E-002;3.460342995822430E-003;2.425104321446270E-004;
2.410333333333334E+009;1.701624989509583E-001;-1.895092800259590E-002;3.418223699554801E-003;2.698647440411151E-004;
2.410500000000000E+009;1.696961671113968E-001;-2.051872946321964E-002;3.522302955389023E-003;1.233317743754014E-004;
2.410666666666667E+009;1.690095216035843E-001;-2.243512310087681E-002;3.458942519500852E-003;6.693622708553448E-005;
2.410833333333334E+009;1.683465391397476E-001;-2.395015209913254E-002;3.432489931583405E-003;7.325859041884542E-005;
2.411000000000000E+009;1.680049002170563E-001;-2.567359618842602E-002;3.305773949250579E-003;-6.434133683796972E-005;
2.411166666666667E+009;1.675159335136414E-001;-2.747825533151627E-002;3.385013435035944E-003;-6.654437311226502E-005;
2.411333333333334E+009;1.670884191989899E-001;-2.912617288529873E-002;3.367740660905838E-003;-7.485138485208154E-005;
2.411500000000000E+009;1.667440384626389E-001;-3.128242865204811E-002;3.484740154817700E-003;-2.308697730768472E-005;
2.411666666666667E+009;1.666637212038040E-001;-3.301060572266579E-002;3.380846697837114E-003;-1.168719172710553E-004;
2.411833333333334E+009;1.663650572299957E-001;-3.474035486578941E-002;3.361883573234081E-003;-3.295373171567917E-004;
2.412000000000000E+009;1.663587838411331E-001;-3.691123053431511E-002;3.539438825100660E-003;-4.406846128404141E-004;
2.412166666666667E+009;1.661835014820099E-001;-3.891617059707642E-002;3.420999040827155E-003;-6.706962594762445E-004;
2.412333333333334E+009;1.663086712360382E-001;-4.057641327381134E-002;3.425952978432179E-003;-6.126280059106648E-004;
2.412500000000000E+009;1.662224233150482E-001;-4.235673323273659E-002;3.539939876645804E-003;-8.001761743798852E-004;
2.412666666666667E+009;1.664847731590271E-001;-4.454835131764412E-002;3.440457163378596E-003;-9.828769834712148E-004;
2.412833333333334E+009;1.668459177017212E-001;-4.621783643960953E-002;3.428217954933643E-003;-1.011762069538236E-003;
2.413000000000000E+009;1.668250262737274E-001;-4.786587506532669E-002;3.537834389135242E-003;-1.147610950283706E-003;
2.413166666666667E+009;1.670905053615570E-001;-4.970125108957291E-002;3.394768573343754E-003;-1.337462337687612E-003;
2.413333333333334E+009;1.673097908496857E-001;-5.134767293930054E-002;3.278791438788176E-003;-1.533421920612454E-003;
2.413500000000000E+009;1.677590310573578E-001;-5.316379293799400E-002;3.228741930797696E-003;-1.635619089938700E-003;
2.413666666666667E+009;1.681242883205414E-001;-5.463322997093201E-002;3.218062920495868E-003;-1.714517595246434E-003;
2.413833333333334E+009;1.684568226337433E-001;-5.617339909076691E-002;2.993403235450387E-003;-2.049429342150688E-003;
2.414000000000000E+009;1.688604056835175E-001;-5.754988640546799E-002;3.072172403335571E-003;-2.015493111684918E-003;
2.414166666666667E+009;1.693056821823120E-001;-5.898141115903854E-002;2.885644091293216E-003;-2.150765154510737E-003;
2.414333333333334E+009;1.698794960975647E-001;-6.045237556099892E-002;2.727347658947110E-003;-2.243710216134787E-003;
2.414500000000000E+009;1.703390181064606E-001;-6.144278123974800E-002;2.691476140171289E-003;-2.370178932324052E-003;
2.414666666666667E+009;1.706757396459580E-001;-6.254053115844727E-002;2.433068118989468E-003;-2.369869733229280E-003;
2.414833333333334E+009;1.710723936557770E-001;-6.367892026901245E-002;2.202506409958005E-003;-2.492828294634819E-003;
2.415000000000000E+009;1.715547740459442E-001;-6.449788063764572E-002;2.157194539904594E-003;-2.633811673149467E-003;
2.415166666666667E+009;1.719371527433395E-001;-6.544566154479981E-002;2.098888158798218E-003;-2.517580054700375E-003;
2.415333333333334E+009;1.723408401012421E-001;-6.626764684915543E-002;1.964695518836379E-003;-2.552338875830174E-003;
2.415500000000000E+009;1.726241856813431E-001;-6.676915287971497E-002;1.646648044697940E-003;-2.632722025737166E-003;
2.415666666666667E+009;1.728443056344986E-001;-6.737440824508667E-002;1.711315591819584E-003;-2.702177967876196E-003;
2.415833333333334E+009;1.731131970882416E-001;-6.810162961483002E-002;1.469764625653625E-003;-2.660090569406748E-003;
2.416000000000000E+009;1.730647534132004E-001;-6.851971894502640E-002;1.262897159904242E-003;-2.541411900892854E-003;
2.416166666666667E+009;1.734088510274887E-001;-6.898241490125656E-002;1.300486619584262E-003;-2.624257933348417E-003;
2.416333333333334E+009;1.734040528535843E-001;-6.929180026054382E-002;1.043065916746855E-003;-2.549906959757209E-003;
2.416500000000000E+009;1.732139140367508E-001;-6.977860629558563E-002;1.071838312782347E-003;-2.493165433406830E-003;
2.416666666666667E+009;1.730417013168335E-001;-6.991379708051682E-002;8.935400983318687E-004;-2.645403146743774E-003;
2.416833333333334E+009;1.729471236467362E-001;-7.033453136682510E-002;6.440444849431515E-004;-2.359251724556088E-003;
2.417000000000000E+009;1.725273877382278E-001;-7.060997188091278E-002;7.126993732526898E-004;-2.391183748841286E-003;
2.417166666666667E+009;1.720741540193558E-001;-7.073693722486496E-002;6.394031224772334E-004;-2.480913652107120E-003;
2.417333333333334E+009;1.716917902231216E-001;-7.093306630849838E-002;5.495169316418469E-004;-2.294499892741442E-003;
2.417500000000000E+009;1.711142361164093E-001;-7.131642848253250E-002;3.415831306483597E-004;-2.169051440432668E-003;
2.417666666666667E+009;1.705263704061508E-001;-7.139001786708832E-002;2.837604843080044E-004;-2.200565533712506E-003;
2.417833333333334E+009;1.697978973388672E-001;-7.163934409618378E-002;3.085552016273141E-004;-2.139761112630367E-003;
2.418000000000000E+009;1.688988506793976E-001;-7.193351536989212E-002;2.698436728678644E-004;-1.870407955721021E-003;
2.418166666666667E+009;1.679875403642654E-001;-7.207030802965164E-002;2.580029540695250E-004;-1.907148398458958E-003;
2.418333333333334E+009;1.672489941120148E-001;-7.258603721857071E-002;1.652973733143881E-004;-1.889443024992943E-003;
2.418500000000000E+009;1.661775112152100E-001;-7.281287759542465E-002;2.394080074736849E-004;-1.757392310537398E-003;
2.418666666666667E+009;1.652050763368607E-001;-7.322536408901215E-002;1.791091781342402E-004;-1.814113114960492E-003;
2.418833333333334E+009;1.639122515916824E-001;-7.382313907146454E-002;2.031985350186005E-004;-1.676134066656232E-003;
2.419000000000000E+009;1.627560555934906E-001;-7.416027039289475E-002;1.797192089725286E-004;-1.611421699635685E-003;
2.419166666666667E+009;1.616753935813904E-001;-7.482702285051346E-002;1.838027383200824E-004;-1.663538743741810E-003;
2.419333333333334E+009;1.602585464715958E-001;-7.539753615856171E-002;2.608806244097650E-004;-1.637022360228002E-003;
2.419500000000000E+009;1.591255217790604E-001;-7.618658244609833E-002;1.714656536933035E-004;-1.510777743533254E-003;
2.419666666666667E+009;1.578449606895447E-001;-7.697714120149612E-002;2.335438766749576E-004;-1.594501663930714E-003;
2.419833333333334E+009;1.566048711538315E-001;-7.758911699056625E-002;3.284325066488236E-004;-1.528713852167130E-003;
2.420000000000000E+009;1.554382294416428E-001;-7.872102409601212E-002;2.650361857376993E-004;-1.455588731914759E-003;
2.420166666666667E+009;1.542885601520538E-001;-7.961439341306686E-002;3.045370394829661E-004;-1.625265809707344E-003;
2.420333333333334E+009;1.531539112329483E-001;-8.060692250728607E-002;3.041324380319566E-004;-1.434726873412728E-003;
2.420500000000000E+009;1.519953757524490E-001;-8.182481676340103E-002;3.957596491090953E-004;-1.414556172676384E-003;
2.420666666666667E+009;1.509182155132294E-001;-8.296697586774826E-002;2.550265344325453E-004;-1.452764496207237E-003;
2.420833333333334E+009;1.499945521354675E-001;-8.425714820623398E-002;2.424134872853756E-004;-1.396748819388449E-003;
2.421000000000000E+009;1.489147096872330E-001;-8.553256094455719E-002;3.683208196889609E-004;-1.460835686884821E-003;
2.421166666666667E+009;1.480086892843247E-001;-8.698239177465439E-002;3.645160759333521E-004;-1.422888482920826E-003;
2.421333333333334E+009;1.472482830286026E-001;-8.865542709827423E-002;2.621405001264066E-004;-1.451701158657670E-003;
2.421500000000000E+009;1.463290750980377E-001;-9.002350270748138E-002;3.465029294602573E-004;-1.416035695001483E-003;
2.421666666666667E+009;1.458299160003662E-001;-9.167257696390152E-002;3.914153494406492E-004;-1.445422531105578E-003;
2.421833333333334E+009;1.450552046298981E-001;-9.326674789190292E-002;3.478366124909371E-004;-1.557331648655236E-003;
2.422000000000000E+009;1.445753425359726E-001;-9.496972709894180E-002;4.058846971020103E-004;-1.611028215847910E-003;
2.422166666666667E+009;1.440003663301468E-001;-9.679044783115387E-002;5.744409863837063E-004;-1.672767102718353E-003;
2.422333333333334E+009;1.437777578830719E-001;-9.834896773099899E-002;4.958116333000362E-004;-1.547266496345401E-003;
2.422500000000000E+009;1.434678137302399E-001;-9.999941289424896E-002;4.131377791054547E-004;-1.866308040916920E-003;
2.422666666666667E+009;1.432271003723145E-001;-1.018529683351517E-001;3.860729339066893E-004;-1.701469649560750E-003;
2.422833333333334E+009;1.431295871734619E-001;-1.035227179527283E-001;3.210738068446517E-004;-1.771330717019737E-003;
2.423000000000000E+009;1.428479254245758E-001;-1.051765456795692E-001;4.422294150572270E-004;-1.851693261414766E-003;
2.423166666666667E+009;1.430377066135407E-001;-1.068994104862213E-001;4.079231875948608E-004;-1.737778773531318E-003;
2.423333333333334E+009;1.431607753038406E-001;-1.083416268229485E-001;2.362874947721139E-004;-1.875388668850064E-003;
2.423500000000000E+009;1.431662291288376E-001;-1.100641936063767E-001;2.805662516038865E-004;-2.076629549264908E-003;
2.423666666666667E+009;1.432334482669830E-001;-1.118022724986076E-001;3.432476369198412E-004;-1.848109415732324E-003;
2.423833333333334E+009;1.436839103698731E-001;-1.131617426872253E-001;1.964110269909725E-004;-1.975971041247249E-003;
2.424000000000000E+009;1.438326835632324E-001;-1.145140901207924E-001;1.957523782039061E-004;-2.053494798019528E-003;
2.424166666666667E+009;1.439650952816010E-001;-1.159420385956764E-001;3.997222302132286E-005;-2.096987096592784E-003;
2.424333333333334E+009;1.444675177335739E-001;-1.172352060675621E-001;9.518374281469733E-005;-2.032465534284711E-003;
2.424500000000000E+009;1.447654068470001E-001;-1.185043752193451E-001;-8.044122296269052E-006;-2.205825410783291E-003;
2.424666666666667E+009;1.452933102846146E-001;-1.195265427231789E-001;-1.658968831179664E-004;-2.062224317342043E-003;
2.424833333333334E+009;1.454943567514420E-001;-1.206673383712769E-001;-1.121581444749609E-004;-2.138365292921662E-003;
2.425000000000000E+009;1.460340470075607E-001;-1.216672807931900E-001;-1.261056895600632E-004;-2.054597716778517E-003;
2.425166666666667E+009;1.461450457572937E-001;-1.225346326828003E-001;-3.248293942306191E-004;-2.242207992821932E-003;
2.425333333333334E+009;1.465187072753906E-001;-1.233010068535805E-001;-4.052860604133457E-004;-2.079201629385352E-003;
2.425500000000000E+009;1.469521671533585E-001;-1.241062954068184E-001;-4.714975948445499E-004;-2.218589419499040E-003;
2.425666666666667E+009;1.471546292304993E-001;-1.247298717498779E-001;-4.413424758240581E-004;-2.235231455415487E-003;
2.425833333333334E+009;1.473964601755142E-001;-1.252127140760422E-001;-5.655574495904148E-004;-2.144294790923595E-003;
2.426000000000000E+009;1.475720703601837E-001;-1.257173120975494E-001;-6.144883809611201E-004;-2.060658065602183E-003;
2.426166666666667E+009;1.478850841522217E-001;-1.262816488742828E-001;-6.188722327351570E-004;-2.173955086618662E-003;
2.426333333333334E+009;1.477960050106049E-001;-1.264941841363907E-001;-6.834461237303913E-004;-2.034015022218227E-003;
2.426500000000000E+009;1.479841917753220E-001;-1.267544031143189E-001;-6.811362691223621E-004;-1.978933345526457E-003;
2.426666666666667E+009;1.479007750749588E-001;-1.268093883991242E-001;-8.436437346972525E-004;-2.116038696840406E-003;
2.426833333333334E+009;1.477680504322052E-001;-1.270165592432022E-001;-7.868681568652391E-004;-2.131840214133263E-003;
2.427000000000000E+009;1.475377082824707E-001;-1.272571235895157E-001;-7.878122851252556E-004;-2.020251471549273E-003;
2.427166666666667E+009;1.472764760255814E-001;-1.270881146192551E-001;-7.557866047136486E-004;-1.970411743968725E-003;
2.427333333333334E+009;1.467625051736832E-001;-1.271018385887146E-001;-8.780700736679137E-004;-1.958403037860990E-003;
2.427500000000000E+009;1.464595645666122E-001;-1.272941529750824E-001;-7.973313331604004E-004;-1.934182480908930E-003;
2.427666666666667E+009;1.457845419645309E-001;-1.272861957550049E-001;-8.340716012753546E-004;-2.106255618855357E-003;
