# Version 1.00
#
freq[Hz];re:Trc1_S11;im:Trc1_S11;re:Trc2_S21;im:Trc2_S21;
2.400000000000000E+009;1.572889387607575E-001;6.302225589752197E-002;-4.611585289239883E-003;-1.447340589947999E-003;
2.400166666666667E+009;1.572768986225128E-001;6.135467812418938E-002;-4.524475429207087E-003;-1.346499659121037E-003;
2.400333333333334E+009;1.570046544075012E-001;5.932838097214699E-002;-4.620781634002924E-003;-1.244344282895327E-003;
2.400500000000000E+009;1.571410447359085E-001;5.743261426687241E-002;-4.409277811646462E-003;-1.038140268065035E-003;
2.400666666666667E+009;1.571293622255325E-001;5.541737377643585E-002;-4.487326834350824E-003;-9.107875521294773E-004;
2.400833333333334E+009;1.573026329278946E-001;5.357481166720390E-002;-4.476615227758884E-003;-9.167803218588233E-004;
2.401000000000000E+009;1.574465781450272E-001;5.137607827782631E-002;-4.409866407513619E-003;-7.485462701879442E-004;
2.401166666666667E+009;1.576087623834610E-001;4.930463433265686E-002;-4.345056600868702E-003;-6.090099341236055E-004;
2.401333333333334E+009;1.576677113771439E-001;4.710906371474266E-002;-4.571411292999983E-003;-4.391464754007757E-004;
2.401500000000000E+009;1.580769717693329E-001;4.516180977225304E-002;-4.511922597885132E-003;-3.477839927654713E-004;
2.401666666666667E+009;1.584307849407196E-001;4.335091263055801E-002;-4.446988925337791E-003;-1.792455586837605E-004;
2.401833333333334E+009;1.589925438165665E-001;4.105406627058983E-002;-4.431917332112789E-003;-8.462158439215273E-005;
2.402000000000000E+009;1.593191027641296E-001;3.898335620760918E-002;-4.491354338824749E-003;3.076171560678631E-005;
2.402166666666667E+009;1.598918884992600E-001;3.695303946733475E-002;-4.592503421008587E-003;1.351506216451526E-004;
2.402333333333334E+009;1.605575829744339E-001;3.501017391681671E-002;-4.488626960664988E-003;1.521645754110068E-004;
2.402500000000000E+009;1.613457649946213E-001;3.316055610775948E-002;-4.453752655535936E-003;2.142449520761147E-004;
2.402666666666667E+009;1.620439141988754E-001;3.134621307253838E-002;-4.514385946094990E-003;4.975667106918991E-004;
2.402833333333334E+009;1.626218110322952E-001;2.973455190658569E-002;-4.292592406272888E-003;6.204636883921921E-004;
2.403000000000000E+009;1.635008454322815E-001;2.817021869122982E-002;-4.656765609979630E-003;7.531521259807050E-004;
2.403166666666667E+009;1.644518822431564E-001;2.649801783263683E-002;-4.565721377730370E-003;9.449584758840501E-004;
2.403333333333334E+009;1.654640883207321E-001;2.510980702936649E-002;-4.365678410977125E-003;1.222407910972834E-003;
2.403500000000000E+009;1.663378626108170E-001;2.366619184613228E-002;-4.426689352840185E-003;1.239718403667212E-003;
2.403666666666667E+009;1.673811823129654E-001;2.225966751575470E-002;-4.478982184082270E-003;1.469032024033368E-003;
2.403833333333334E+009;1.683723479509354E-001;2.083428204059601E-002;-4.242701455950737E-003;1.759630627930164E-003;
2.404000000000000E+009;1.694640070199966E-001;1.992039009928703E-002;-4.249342717230320E-003;2.030397532507777E-003;
2.404166666666667E+009;1.703889071941376E-001;1.857376657426357E-002;-4.085496999323368E-003;2.070376649498940E-003;
2.404333333333334E+009;1.713840216398239E-001;1.765331253409386E-002;-4.151277244091034E-003;2.273107180371881E-003;
2.404500000000000E+009;1.722920835018158E-001;1.656319573521614E-002;-3.891664091497660E-003;2.458889037370682E-003;
2.404666666666667E+009;1.732104420661926E-001;1.593838445842266E-002;-3.841544501483440E-003;2.604980021715164E-003;
2.404833333333334E+009;1.742381006479263E-001;1.513778232038021E-002;-3.568588756024838E-003;2.861044369637966E-003;
2.405000000000000E+009;1.752225458621979E-001;1.445491332560778E-002;-3.575392533093691E-003;2.916430355980992E-003;
2.405166666666667E+009;1.760454326868057E-001;1.383193209767342E-002;-3.328457241877914E-003;3.116135252639651E-003;
2.405333333333334E+009;1.769497990608215E-001;1.315808761864901E-002;-3.206828376278281E-003;3.330101724714041E-003;
2.405500000000000E+009;1.776348799467087E-001;1.283563952893019E-002;-2.952771959826350E-003;3.556223819032311E-003;
2.405666666666667E+009;1.782841235399246E-001;1.252878457307816E-002;-2.655139425769448E-003;3.514990210533142E-003;
2.405833333333334E+009;1.786948442459106E-001;1.217617187649012E-002;-2.265551593154669E-003;3.600452328100801E-003;
2.406000000000000E+009;1.795275807380676E-001;1.161718461662531E-002;-2.222565934062004E-003;3.644149517640472E-003;
2.406166666666667E+009;1.797654926776886E-001;1.145533379167318E-002;-1.931973733007908E-003;3.677539061754942E-003;
2.406333333333334E+009;1.803983151912689E-001;1.121951825916767E-002;-1.840570592321456E-003;3.790502436459065E-003;
2.406500000000000E+009;1.805109977722168E-001;1.077685412019491E-002;-1.505509484559298E-003;3.620701143518090E-003;
2.406666666666667E+009;1.804983019828796E-001;1.063593011349440E-002;-1.326317316852510E-003;3.695274237543345E-003;
2.406833333333334E+009;1.808354407548904E-001;1.025242172181606E-002;-1.142667839303613E-003;3.493889467790723E-003;
2.407000000000000E+009;1.809078603982925E-001;9.993710555136204E-003;-9.277251083403826E-004;3.563578240573406E-003;
2.407166666666667E+009;1.808957904577255E-001;9.781996719539166E-003;-8.237336296588182E-004;3.576102899387479E-003;
2.407333333333334E+009;1.807054430246353E-001;9.266099892556667E-003;-6.268013967201114E-004;3.451036987826228E-003;
2.407500000000000E+009;1.805716902017593E-001;8.925911039113998E-003;-5.027671577408910E-004;3.430398646742106E-003;
2.407666666666667E+009;1.802801191806793E-001;8.502676151692867E-003;-3.951965481974185E-004;3.212839132174850E-003;
2.407833333333334E+009;1.797538846731186E-001;7.947197183966637E-003;-1.235590461874381E-004;3.104773117229343E-003;
2.408000000000000E+009;1.795258820056915E-001;7.307841908186674E-003;-1.243137376150116E-004;3.079699585214257E-003;
2.408166666666667E+009;1.790565103292465E-001;6.775077432394028E-003;-8.340813656104729E-005;3.048231126740575E-003;
2.408333333333334E+009;1.785902976989746E-001;6.026952061802149E-003;1.478991180192679E-005;3.010074142366648E-003;
2.408500000000000E+009;1.779776364564896E-001;5.085158627480269E-003;1.680249552009627E-004;2.719936659559608E-003;
2.408666666666667E+009;1.772929877042770E-001;4.293492063879967E-003;2.295919839525595E-004;2.696101088076830E-003;
2.408833333333334E+009;1.766658425331116E-001;3.328850027173758E-003;2.156294503947720E-004;2.531800651922822E-003;
2.409000000000000E+009;1.759039908647537E-001;2.213693922385573E-003;4.008218238595873E-004;2.629625145345926E-003;
2.409166666666667E+009;1.753633320331574E-001;1.029344275593758E-003;4.143492260482162E-004;2.389841480180621E-003;
2.409333333333334E+009;1.746107637882233E-001;-1.168243761640042E-004;3.711081808432937E-004;2.255541970953345E-003;
2.409500000000000E+009;1.739424914121628E-001;-1.619930029846728E-003;3.890116349793971E-004;2.359274076297879E-003;
2.409666666666667E+009;1.730606108903885E-001;-2.988159656524658E-003;3.254019829910249E-004;2.176149515435100E-003;
2.409833333333334E+009;1.723687052726746E-001;-4.280607681721449E-003;3.531925030983985E-004;2.196862595155835E-003;
2.410000000000000E+009;1.717536747455597E-001;-5.835138726979494E-003;2.907745074480772E-004;2.187838777899742E-003;
2.410166666666667E+009;1.712327003479004E-001;-7.455545943230391E-003;3.833686059806496E-004;2.037043450400233E-003;
2.410333333333334E+009;1.705441623926163E-001;-9.031459689140320E-003;3.152638091705740E-004;2.010505879297853E-003;
2.410500000000000E+009;1.699237376451492E-001;-1.093183178454638E-002;3.561623452696949E-004;1.961717847734690E-003;
2.410666666666667E+009;1.694023162126541E-001;-1.276017073541880E-002;3.189370909240097E-004;1.891865045763552E-003;
2.410833333333334E+009;1.690520346164703E-001;-1.455779839307070E-002;3.791572235058993E-004;1.809565699659288E-003;
2.411000000000000E+009;1.686492413282394E-001;-1.642335765063763E-002;3.606956452131271E-004;2.035108860582113E-003;
2.411166666666667E+009;1.681842505931854E-001;-1.846601441502571E-002;3.770710318349302E-004;1.777224126271904E-003;
2.411333333333334E+009;1.679193526506424E-001;-2.037798427045345E-002;3.421203291509301E-004;1.716363825835288E-003;
2.411500000000000E+009;1.676172018051148E-001;-2.229000814259052E-002;3.672815510071814E-004;1.949926838278770E-003;
2.411666666666667E+009;1.677791625261307E-001;-2.426432818174362E-002;3.743270062841475E-004;1.919109025038779E-003;
2.411833333333334E+009;1.676099896430969E-001;-2.625048533082008E-002;4.737108829431236E-004;1.846540719270706E-003;
2.412000000000000E+009;1.678523421287537E-001;-2.822293341159821E-002;4.121788660995662E-004;1.873096334747970E-003;
2.412166666666667E+009;1.679607629776001E-001;-3.024717234075069E-002;4.704060265794396E-004;1.842409255914390E-003;
2.412333333333334E+009;1.683344244956970E-001;-3.204844892024994E-002;4.544733383227140E-004;1.859467243775725E-003;
2.412500000000000E+009;1.682494133710861E-001;-3.398484364151955E-002;5.526270833797753E-004;1.827881555072963E-003;
2.412666666666667E+009;1.687295734882355E-001;-3.597975894808769E-002;6.688839057460427E-004;1.825949409976602E-003;
2.412833333333334E+009;1.692757755517960E-001;-3.799839690327644E-002;6.021977169439197E-004;1.971241319552064E-003;
2.413000000000000E+009;1.693844348192215E-001;-3.950279578566551E-002;6.096538272686303E-004;1.854640780948103E-003;
2.413166666666667E+009;1.698439419269562E-001;-4.125213995575905E-002;6.080175517126918E-004;1.917510642670095E-003;
2.413333333333334E+009;1.703206896781921E-001;-4.307833686470985E-002;8.519751718267798E-004;1.905846176669002E-003;
2.413500000000000E+009;1.709005087614059E-001;-4.460036009550095E-002;8.682103944011033E-004;1.980714267119765E-003;
2.413666666666667E+009;1.715788990259171E-001;-4.626727476716042E-002;8.282979251816869E-004;1.908819423988462E-003;
2.413833333333334E+009;1.720111072063446E-001;-4.769669100642204E-002;1.021558884531260E-003;1.960556488484144E-003;
2.414000000000000E+009;1.724837124347687E-001;-4.908825084567070E-002;1.012618537060916E-003;1.867115264758468E-003;
2.414166666666667E+009;1.732496321201325E-001;-5.033058300614357E-002;1.167764072306454E-003;1.859010779298842E-003;
2.414333333333334E+009;1.739393174648285E-001;-5.161429569125176E-002;1.190031529404223E-003;1.644957810640335E-003;
2.414500000000000E+009;1.746026873588562E-001;-5.260213464498520E-002;1.253662048839033E-003;1.860137912444770E-003;
2.414666666666667E+009;1.751161366701126E-001;-5.371129140257835E-002;1.450662035495043E-003;1.727072172798216E-003;
2.414833333333334E+009;1.755489856004715E-001;-5.462220683693886E-002;1.675369800068438E-003;1.580038224346936E-003;
2.415000000000000E+009;1.760853677988052E-001;-5.546684563159943E-002;1.708670635707676E-003;1.669064280577004E-003;
2.415166666666667E+009;1.764976382255554E-001;-5.624173581600189E-002;1.706816838122904E-003;1.454066601581872E-003;
2.415333333333334E+009;1.769408434629440E-001;-5.699665471911430E-002;1.546798157505691E-003;1.415193430148065E-003;
2.415500000000000E+009;1.773799061775208E-001;-5.762655660510063E-002;1.675409614108503E-003;1.144989859312773E-003;
2.415666666666667E+009;1.776933968067169E-001;-5.804808065295219E-002;1.768389134667814E-003;1.131032477132976E-003;
2.415833333333334E+009;1.778869777917862E-001;-5.854869633913040E-002;1.700262306258082E-003;9.701678063720465E-004;
2.416000000000000E+009;1.778966039419174E-001;-5.897543206810951E-002;1.822794554755092E-003;9.818628896027803E-004;
2.416166666666667E+009;1.781685203313828E-001;-5.932770296931267E-002;1.711693475954235E-003;7.725403993390501E-004;
2.416333333333334E+009;1.780877560377121E-001;-5.957973748445511E-002;1.631788560189307E-003;5.951120983809233E-004;
2.416500000000000E+009;1.781039535999298E-001;-5.996101349592209E-002;1.733592129312456E-003;5.390333244577050E-004;
2.416666666666667E+009;1.778242290019989E-001;-6.012570485472679E-002;1.764405984431505E-003;5.026693688705564E-004;
2.416833333333334E+009;1.775376498699188E-001;-6.039248779416084E-002;1.594452653080225E-003;2.554753154981881E-004;
2.417000000000000E+009;1.770146936178207E-001;-6.060335040092468E-002;1.511588925495744E-003;1.185742876259610E-004;
2.417166666666667E+009;1.766698211431503E-001;-6.072092801332474E-002;1.408107229508460E-003;2.279375621583313E-004;
2.417333333333334E+009;1.761246919631958E-001;-6.086409091949463E-002;1.382643589749932E-003;6.385136657627299E-005;
2.417500000000000E+009;1.753891706466675E-001;-6.131234392523766E-002;1.222111983224750E-003;1.168175876955502E-004;
2.417666666666667E+009;1.748781204223633E-001;-6.120465695858002E-002;1.275328104384244E-003;8.067573617154267E-006;
2.417833333333334E+009;1.739085465669632E-001;-6.149163469672203E-002;1.078247441910207E-003;3.872056549880654E-005;
2.418000000000000E+009;1.730738431215286E-001;-6.197536736726761E-002;1.083752023987472E-003;-4.832724516745657E-005;
2.418166666666667E+009;1.721467226743698E-001;-6.211035698652268E-002;9.384029544889927E-004;-1.157239603344351E-004;
2.418333333333334E+009;1.713277101516724E-001;-6.258250027894974E-002;1.014018664136529E-003;-3.036431189684663E-005;
2.418500000000000E+009;1.700851172208786E-001;-6.302503496408463E-002;8.266311488114297E-004;-9.302045509684831E-005;
2.418666666666667E+009;1.690705418586731E-001;-6.342650204896927E-002;7.973318570293486E-004;-8.685377542860806E-005;
2.418833333333334E+009;1.677794605493546E-001;-6.401567161083221E-002;7.219287799671292E-004;-3.144376023556106E-005;
2.419000000000000E+009;1.665483862161636E-001;-6.456317752599716E-002;5.144654423929751E-004;9.407290053786710E-005;
2.419166666666667E+009;1.653793752193451E-001;-6.524941325187683E-002;5.428756121546030E-004;1.054890017258003E-004;
2.419333333333334E+009;1.640591621398926E-001;-6.590993702411652E-002;5.243897321633995E-004;1.710843935143203E-004;
2.419500000000000E+009;1.630134284496307E-001;-6.672237068414688E-002;4.228064499329776E-004;2.743703371379525E-004;
2.419666666666667E+009;1.618301272392273E-001;-6.768138706684113E-002;4.965831758454442E-004;3.221551014576107E-004;
2.419833333333334E+009;1.604266017675400E-001;-6.845089793205261E-002;3.981508489232510E-004;3.591578279156238E-004;
2.420000000000000E+009;1.595180183649063E-001;-6.965254992246628E-002;4.021088243462145E-004;4.593972989823669E-004;
2.420166666666667E+009;1.583314836025238E-001;-7.068245112895966E-002;4.221438430249691E-004;4.253322840668261E-004;
2.420333333333334E+009;1.572531610727310E-001;-7.208559662103653E-002;4.714358947239816E-004;4.958904464729130E-004;
2.420500000000000E+009;1.562167853116989E-001;-7.311905920505524E-002;4.639863618649542E-004;7.428054814226925E-004;
2.420666666666667E+009;1.551572382450104E-001;-7.446001470088959E-002;4.012142890132964E-004;5.686306976713240E-004;
2.420833333333334E+009;1.542969197034836E-001;-7.597512006759644E-002;4.910404677502811E-004;7.965996046550572E-004;
2.421000000000000E+009;1.533996313810349E-001;-7.743962109088898E-002;5.977855180390179E-004;7.967402925714850E-004;
2.421166666666667E+009;1.525150686502457E-001;-7.896764576435089E-002;6.611959543079138E-004;7.985106785781682E-004;
2.421333333333334E+009;1.519204080104828E-001;-8.051501214504242E-002;6.547443917952478E-004;9.111067047342658E-004;
2.421500000000000E+009;1.512603461742401E-001;-8.206322044134140E-002;6.015499238856137E-004;1.054362626746297E-003;
2.421666666666667E+009;1.507999300956726E-001;-8.382106572389603E-002;7.548888679593802E-004;1.059361151419580E-003;
2.421833333333334E+009;1.504097431898117E-001;-8.540222048759460E-002;7.170200115069747E-004;8.726302185095847E-004;
2.422000000000000E+009;1.499639898538590E-001;-8.716535568237305E-002;8.006530115380883E-004;1.145278452895582E-003;
2.422166666666667E+009;1.496433764696121E-001;-8.902382850646973E-002;9.967236546799541E-004;1.076543005183339E-003;
2.422333333333334E+009;1.495438814163208E-001;-9.061713516712189E-002;1.155352103523910E-003;9.877732954919338E-004;
2.422500000000000E+009;1.494244039058685E-001;-9.237947314977646E-002;1.210511196404696E-003;1.031336258165538E-003;
2.422666666666667E+009;1.495094895362854E-001;-9.401576966047287E-002;1.364290830679238E-003;1.045001670718193E-003;
2.422833333333334E+009;1.494633853435516E-001;-9.589948505163193E-002;1.249264692887664E-003;1.103177201002836E-003;
2.423000000000000E+009;1.495989710092545E-001;-9.755606204271317E-002;1.325556542724371E-003;1.057158457115293E-003;
2.423166666666667E+009;1.499539315700531E-001;-9.916114807128906E-002;1.365389791317284E-003;1.041998504661024E-003;
2.423333333333334E+009;1.501464098691940E-001;-1.005324274301529E-001;1.516278018243611E-003;1.032700878567994E-003;
2.423500000000000E+009;1.504243910312653E-001;-1.022509634494782E-001;1.568047911860049E-003;8.144114399328828E-004;
2.423666666666667E+009;1.506102979183197E-001;-1.039044857025147E-001;1.539522781968117E-003;9.353985660709441E-004;
2.423833333333334E+009;1.512392014265060E-001;-1.052902564406395E-001;1.649906858801842E-003;6.941905594430864E-004;
2.424000000000000E+009;1.517036706209183E-001;-1.065827310085297E-001;1.679507899098098E-003;9.109879611060023E-004;
2.424166666666667E+009;1.520354300737381E-001;-1.079223304986954E-001;1.955335028469563E-003;6.558626773767173E-004;
2.424333333333334E+009;1.526948809623718E-001;-1.090604066848755E-001;1.880950876511633E-003;6.470019579865038E-004;
2.424500000000000E+009;1.531728208065033E-001;-1.102879419922829E-001;2.004513982683420E-003;6.810130435042083E-004;
2.424666666666667E+009;1.537204682826996E-001;-1.112270578742027E-001;1.963030081242323E-003;5.029190797358751E-004;
2.424833333333334E+009;1.540876179933548E-001;-1.121235489845276E-001;1.862002769485116E-003;5.293395370244980E-004;
2.425000000000000E+009;1.546263247728348E-001;-1.132874339818955E-001;1.966944662854075E-003;3.452505916357040E-004;
2.425166666666667E+009;1.548433601856232E-001;-1.139597818255425E-001;1.978737069293857E-003;4.054785531479865E-004;
2.425333333333334E+009;1.554472148418427E-001;-1.147788614034653E-001;2.120994497090578E-003;2.453779452480376E-004;
2.425500000000000E+009;1.558029055595398E-001;-1.154129207134247E-001;2.154144691303372E-003;2.195854758610949E-004;
2.425666666666667E+009;1.559134423732758E-001;-1.160058304667473E-001;2.159552183002234E-003;2.080297708744183E-004;
2.425833333333334E+009;1.562708765268326E-001;-1.166190430521965E-001;2.215168671682477E-003;5.176508693693904E-006;
2.426000000000000E+009;1.563521325588226E-001;-1.169808879494667E-001;2.333830576390028E-003;4.795598579221405E-005;
2.426166666666667E+009;1.568162143230438E-001;-1.175267100334168E-001;2.129590604454279E-003;-1.329161459580064E-004;
2.426333333333334E+009;1.567396074533463E-001;-1.177147328853607E-001;2.248301170766354E-003;-5.178719584364444E-005;
2.426500000000000E+009;1.567598134279251E-001;-1.179688051342964E-001;2.336342120543122E-003;-3.107808297500014E-004;
2.426666666666667E+009;1.567516177892685E-001;-1.179131269454956E-001;2.205967437475920E-003;-2.917710808105767E-004;
2.426833333333334E+009;1.564437299966812E-001;-1.182639002799988E-001;2.356768120080233E-003;-3.307100269012153E-004;
2.427000000000000E+009;1.562278717756271E-001;-1.185393407940865E-001;2.423665719106793E-003;-3.472027310635895E-004;
2.427166666666667E+009;1.558392494916916E-001;-1.184640303254128E-001;2.186679746955633E-003;-5.139294080436230E-004;
2.427333333333334E+009;1.552976965904236E-001;-1.185850203037262E-001;2.355884294956923E-003;-6.843953160569072E-004;
2.427500000000000E+009;1.548641920089722E-001;-1.187084913253784E-001;2.280738670378923E-003;-6.748508312739432E-004;
2.427666666666667E+009;1.540982127189636E-001;-1.188950315117836E-001;2.310070209205151E-003;-6.944236811250448E-004;
2.427833333333334E+009;1.531976312398911E-001;-1.189480572938919E-001;2.250495599582791E-003;-6.637135520577431E-004;
