# Version 1.00
#
freq[Hz];re:Trc1_S11;im:Trc1_S11;re:Trc2_S21;im:Trc2_S21;
2.400000000000000E+009;1.572883874177933E-001;6.294669210910797E-002;-4.550653975456953E-003;-1.848520594649017E-003;
2.400166666666667E+009;1.572224646806717E-001;6.148410588502884E-002;-4.481027834117413E-003;-1.532163005322218E-003;
2.400333333333334E+009;1.571731865406036E-001;5.944554880261421E-002;-4.472727421671152E-003;-1.339881448075175E-003;
2.400500000000000E+009;1.572510600090027E-001;5.737423151731491E-002;-4.593411926180124E-003;-1.222381717525423E-003;
2.400666666666667E+009;1.570823937654495E-001;5.543357878923416E-002;-4.564790055155754E-003;-1.177964615635574E-003;
2.400833333333334E+009;1.573708951473236E-001;5.346155166625977E-002;-4.476600326597691E-003;-1.017173635773361E-003;
2.401000000000000E+009;1.574661880731583E-001;5.130632221698761E-002;-4.474112764000893E-003;-8.636356797069311E-004;
2.401166666666667E+009;1.574886888265610E-001;4.909038543701172E-002;-4.348370246589184E-003;-7.181518012657762E-004;
2.401333333333334E+009;1.577480435371399E-001;4.715668782591820E-002;-4.514773841947317E-003;-6.686954293400049E-004;
2.401500000000000E+009;1.581600308418274E-001;4.490252956748009E-002;-4.428072832524777E-003;-5.147972260601819E-004;
2.401666666666667E+009;1.585303097963333E-001;4.317402467131615E-002;-4.397762939333916E-003;-3.778664977289736E-004;
2.401833333333334E+009;1.588912904262543E-001;4.072080180048943E-002;-4.592420533299446E-003;-3.093935083597899E-004;
2.402000000000000E+009;1.592067480087280E-001;3.907501697540283E-002;-4.442852921783924E-003;-2.408079162705690E-004;
2.402166666666667E+009;1.599378585815430E-001;3.696392849087715E-002;-4.435574635863304E-003;-1.260253629880026E-004;
2.402333333333334E+009;1.604427397251129E-001;3.500102087855339E-002;-4.587488714605570E-003;5.415877240011469E-005;
2.402500000000000E+009;1.613609790802002E-001;3.325392678380013E-002;-4.414124879986048E-003;3.040089795831591E-004;
2.402666666666667E+009;1.620099544525147E-001;3.131885826587677E-002;-4.578954074531794E-003;2.745628298725933E-004;
2.402833333333334E+009;1.625817120075226E-001;2.965014614164829E-002;-4.556579980999231E-003;5.511657800525427E-004;
2.403000000000000E+009;1.634407937526703E-001;2.802278101444244E-002;-4.568920005112886E-003;5.310297710821033E-004;
2.403166666666667E+009;1.644575595855713E-001;2.669757418334484E-002;-4.508546087890863E-003;8.540223352611065E-004;
2.403333333333334E+009;1.654687970876694E-001;2.501485683023930E-002;-4.494557622820139E-003;1.038360642269254E-003;
2.403500000000000E+009;1.662293225526810E-001;2.348606847226620E-002;-4.499887116253376E-003;1.153366174548864E-003;
2.403666666666667E+009;1.672700047492981E-001;2.221399173140526E-002;-4.411217756569386E-003;1.350981765426695E-003;
2.403833333333334E+009;1.684589534997940E-001;2.086101658642292E-002;-4.439307842403650E-003;1.463931635953486E-003;
2.404000000000000E+009;1.694813072681427E-001;1.990386843681335E-002;-4.367810674011707E-003;1.779818790964782E-003;
2.404166666666667E+009;1.705165356397629E-001;1.856439560651779E-002;-4.373616073280573E-003;1.914092572405934E-003;
2.404333333333334E+009;1.713791489601135E-001;1.782621815800667E-002;-4.215179011225700E-003;2.032054355368018E-003;
2.404500000000000E+009;1.721611618995667E-001;1.676438190042973E-002;-3.955332096666098E-003;2.483312971889973E-003;
2.404666666666667E+009;1.734004765748978E-001;1.577252335846424E-002;-3.869204083457589E-003;2.216459717601538E-003;
2.404833333333334E+009;1.741826683282852E-001;1.514850743114948E-002;-3.654685569927096E-003;2.781967865303159E-003;
2.405000000000000E+009;1.751425266265869E-001;1.440505962818861E-002;-3.668862860649824E-003;2.719114767387509E-003;
2.405166666666667E+009;1.759914457798004E-001;1.388243027031422E-002;-3.403401002287865E-003;3.148867981508374E-003;
2.405333333333334E+009;1.769195795059204E-001;1.303124893456698E-002;-3.473940771073103E-003;3.007774939760566E-003;
2.405500000000000E+009;1.775788068771362E-001;1.284617930650711E-002;-2.944806823506951E-003;3.177433740347624E-003;
2.405666666666667E+009;1.782017499208450E-001;1.237703114748001E-002;-2.844625851139426E-003;3.574510570615530E-003;
2.405833333333334E+009;1.787680536508560E-001;1.219851337373257E-002;-2.589560113847256E-003;3.506038105115295E-003;
2.406000000000000E+009;1.792565882205963E-001;1.152770593762398E-002;-2.553544938564301E-003;3.340637311339378E-003;
2.406166666666667E+009;1.797630190849304E-001;1.140832901000977E-002;-2.162439515814185E-003;3.454363206401467E-003;
2.406333333333334E+009;1.802586317062378E-001;1.123502571135759E-002;-1.974608050659299E-003;3.634350374341011E-003;
2.406500000000000E+009;1.804398596286774E-001;1.076239999383688E-002;-1.861565513536334E-003;3.406249219551683E-003;
2.406666666666667E+009;1.805570721626282E-001;1.053685974329710E-002;-1.479266677051783E-003;3.511021146550775E-003;
2.406833333333334E+009;1.809815019369125E-001;1.021622773259878E-002;-1.222592662088573E-003;3.215326229110360E-003;
2.407000000000000E+009;1.808075904846191E-001;9.959838353097439E-003;-1.084043760783970E-003;3.720574313774705E-003;
2.407166666666667E+009;1.810317039489746E-001;9.739814326167107E-003;-9.893496753647924E-004;3.460412612184882E-003;
2.407333333333334E+009;1.807172894477844E-001;9.232771582901478E-003;-6.817714893259108E-004;3.376431297510862E-003;
2.407500000000000E+009;1.804696470499039E-001;8.857972919940949E-003;-4.489180864766240E-004;3.391182515770197E-003;
2.407666666666667E+009;1.802897602319717E-001;8.505276404321194E-003;-4.884573863819242E-004;3.232194110751152E-003;
2.407833333333334E+009;1.799005419015884E-001;7.900486700236797E-003;-3.710872551891953E-004;3.136830171570182E-003;
2.408000000000000E+009;1.794224977493286E-001;7.187010254710913E-003;-3.181147912982851E-004;3.058569272980094E-003;
2.408166666666667E+009;1.790330410003662E-001;6.770221982151270E-003;-1.779193262336776E-004;2.939249621704221E-003;
2.408333333333334E+009;1.788415908813477E-001;5.914857611060143E-003;-6.754050264135003E-005;2.849995391443372E-003;
2.408500000000000E+009;1.779819130897522E-001;5.047352984547615E-003;-3.718278821907006E-005;2.638800535351038E-003;
2.408666666666667E+009;1.773347258567810E-001;4.357841797173023E-003;-8.301096386276186E-005;2.573843114078045E-003;
2.408833333333334E+009;1.767667979001999E-001;3.322368720546365E-003;1.228200271725655E-004;2.472941996529698E-003;
2.409000000000000E+009;1.760140210390091E-001;2.254339866340160E-003;2.107566397171468E-004;2.520913723856211E-003;
2.409166666666667E+009;1.752672940492630E-001;1.119410619139671E-003;3.264250699430704E-005;2.193287014961243E-003;
2.409333333333334E+009;1.747828423976898E-001;-1.349547237623483E-004;1.729934447212145E-004;2.350002061575651E-003;
2.409500000000000E+009;1.738763451576233E-001;-1.603469252586365E-003;8.764176527620293E-006;2.197730820626020E-003;
2.409666666666667E+009;1.732963472604752E-001;-3.059862181544304E-003;1.560027303639799E-004;2.108343644067645E-003;
2.409833333333334E+009;1.724478006362915E-001;-4.477766342461109E-003;3.528359593474306E-005;2.032198710367084E-003;
2.410000000000000E+009;1.717692613601685E-001;-5.955690052360296E-003;2.058796235360205E-004;2.028800081461668E-003;
2.410166666666667E+009;1.710440516471863E-001;-7.377541158348322E-003;4.895975507679395E-006;1.906079589389265E-003;
2.410333333333334E+009;1.704394370317459E-001;-9.404866024851799E-003;3.119657922070473E-004;2.118304139003158E-003;
2.410500000000000E+009;1.699260324239731E-001;-1.103218737989664E-002;2.867889706976712E-004;2.063839696347714E-003;
2.410666666666667E+009;1.692271232604981E-001;-1.286104973405600E-002;8.919389983930159E-006;1.900191535241902E-003;
2.410833333333334E+009;1.687676459550858E-001;-1.449481304734945E-002;1.643298019189388E-004;1.970591023564339E-003;
2.411000000000000E+009;1.686958968639374E-001;-1.644105091691017E-002;1.322207535849884E-004;1.938775065355003E-003;
2.411166666666667E+009;1.681911945343018E-001;-1.842360012233257E-002;2.105577150359750E-004;1.879359362646937E-003;
2.411333333333334E+009;1.678152382373810E-001;-2.041785232722759E-002;1.229341869475320E-004;1.931185717694461E-003;
2.411500000000000E+009;1.676420122385025E-001;-2.241774089634419E-002;2.139330172212794E-004;1.799738500267267E-003;
2.411666666666667E+009;1.676717996597290E-001;-2.425829879939556E-002;6.141654012026265E-005;1.827756175771356E-003;
2.411833333333334E+009;1.676947027444840E-001;-2.620602399110794E-002;2.872031764127314E-004;1.846037223003805E-003;
2.412000000000000E+009;1.677719652652741E-001;-2.834694087505341E-002;2.608918002806604E-004;1.952461199834943E-003;
2.412166666666667E+009;1.676829755306244E-001;-3.018781170248985E-002;3.045208286494017E-004;1.856304472312331E-003;
2.412333333333334E+009;1.681742668151856E-001;-3.201712667942047E-002;3.418624983169138E-004;1.970234792679548E-003;
2.412500000000000E+009;1.683303862810135E-001;-3.403749316930771E-002;4.274144303053618E-004;1.825899467803538E-003;
2.412666666666667E+009;1.688064336776733E-001;-3.594779595732689E-002;4.195698129478842E-004;2.027545589953661E-003;
2.412833333333334E+009;1.690275818109512E-001;-3.785459697246552E-002;5.707450327463448E-004;2.051564864814282E-003;
2.413000000000000E+009;1.694550812244415E-001;-3.961321711540222E-002;5.455016507767141E-004;2.100567333400250E-003;
2.413166666666667E+009;1.700116097927094E-001;-4.120605811476708E-002;6.816729437559843E-004;1.977939158678055E-003;
2.413333333333334E+009;1.703278273344040E-001;-4.314697161316872E-002;8.771165739744902E-004;2.006783382967114E-003;
2.413500000000000E+009;1.709545850753784E-001;-4.477013275027275E-002;7.493114680983126E-004;1.957593718543649E-003;
2.413666666666667E+009;1.715736836194992E-001;-4.615376517176628E-002;8.103686268441379E-004;1.890387618914247E-003;
2.413833333333334E+009;1.722501516342163E-001;-4.757599905133247E-002;8.444151026196778E-004;1.904670032672584E-003;
2.414000000000000E+009;1.725986003875732E-001;-4.914501681923866E-002;1.061049173586071E-003;1.873016706667841E-003;
2.414166666666667E+009;1.733690798282623E-001;-5.046048387885094E-002;1.144391368143261E-003;1.957884058356285E-003;
2.414333333333334E+009;1.738342940807343E-001;-5.158150941133499E-002;1.220838283188641E-003;1.867562648840249E-003;
2.414500000000000E+009;1.747856736183167E-001;-5.269130319356918E-002;1.284003490582109E-003;1.874696463346481E-003;
2.414666666666667E+009;1.751072406768799E-001;-5.363417789340019E-002;1.313523156568408E-003;1.791794435121119E-003;
2.414833333333334E+009;1.755141913890839E-001;-5.465450510382652E-002;1.453060656785965E-003;1.637205947190523E-003;
2.415000000000000E+009;1.760126948356628E-001;-5.561779066920281E-002;1.462191692553461E-003;1.697495928965509E-003;
2.415166666666667E+009;1.765061616897583E-001;-5.634323880076408E-002;1.538251875899732E-003;1.585122430697084E-003;
2.415333333333334E+009;1.771143823862076E-001;-5.710505321621895E-002;1.744384877383709E-003;1.346188015304506E-003;
2.415500000000000E+009;1.773243844509125E-001;-5.751230567693710E-002;1.754191354848445E-003;1.234868890605867E-003;
2.415666666666667E+009;1.775523722171783E-001;-5.809411779046059E-002;1.739400089718401E-003;1.127831288613379E-003;
2.415833333333334E+009;1.778637766838074E-001;-5.868541449308395E-002;1.658751396462321E-003;1.138223102316260E-003;
2.416000000000000E+009;1.778309494256973E-001;-5.905574560165405E-002;1.648470410145819E-003;1.033718814142048E-003;
2.416166666666667E+009;1.780956685543060E-001;-5.927101150155067E-002;1.670604571700096E-003;8.279627072624862E-004;
2.416333333333334E+009;1.781420707702637E-001;-5.970168858766556E-002;1.719339168630540E-003;6.291826139204204E-004;
2.416500000000000E+009;1.779789179563522E-001;-5.992627516388893E-002;1.577183953486383E-003;5.608358187600970E-004;
2.416666666666667E+009;1.777262091636658E-001;-6.009662896394730E-002;1.592154032550752E-003;6.456743576563895E-004;
2.416833333333334E+009;1.776602715253830E-001;-6.038819253444672E-002;1.575760077685118E-003;5.241570761427283E-004;
2.417000000000000E+009;1.770689785480499E-001;-6.080026179552078E-002;1.549779437482357E-003;2.907000307459384E-004;
2.417166666666667E+009;1.766013354063034E-001;-6.076523661613464E-002;1.551215304061770E-003;3.796887176577002E-004;
2.417333333333334E+009;1.761429458856583E-001;-6.088360771536827E-002;1.307744299992919E-003;2.464061544742435E-004;
2.417500000000000E+009;1.753865033388138E-001;-6.128704175353050E-002;1.414700178429484E-003;1.026542740873992E-004;
2.417666666666667E+009;1.747861355543137E-001;-6.138100102543831E-002;1.266933279111981E-003;1.726547779981047E-004;
2.417833333333334E+009;1.739378869533539E-001;-6.163519620895386E-002;1.091797603294253E-003;1.346450790151721E-005;
2.418000000000000E+009;1.730127185583115E-001;-6.198586896061897E-002;9.975075954571366E-004;1.096372070605867E-004;
2.418166666666667E+009;1.719989925622940E-001;-6.215521320700645E-002;9.957472793757916E-004;-4.193950735498220E-005;
2.418333333333334E+009;1.713694185018539E-001;-6.257633119821549E-002;9.717900538817048E-004;-2.269915603392292E-005;
2.418500000000000E+009;1.701243072748184E-001;-6.293337047100067E-002;7.979620713740587E-004;1.074294850695878E-004;
2.418666666666667E+009;1.689624488353729E-001;-6.349245458841324E-002;9.124999050982297E-004;7.862162601668388E-005;
2.418833333333334E+009;1.676798909902573E-001;-6.402147561311722E-002;7.902068900875747E-004;2.071933995466679E-004;
2.419000000000000E+009;1.665854156017304E-001;-6.461113691329956E-002;7.180717075243592E-004;1.595076464582235E-004;
2.419166666666667E+009;1.653902232646942E-001;-6.532756984233856E-002;4.585055576171726E-004;1.847656676545739E-004;
2.419333333333334E+009;1.641050875186920E-001;-6.583660095930100E-002;5.567356711253524E-004;2.838411601260305E-004;
2.419500000000000E+009;1.628594398498535E-001;-6.681552529335022E-002;4.007249081041664E-004;3.310387255623937E-004;
2.419666666666667E+009;1.617153882980347E-001;-6.776044517755508E-002;4.023534420412034E-004;3.822339931502938E-004;
2.419833333333334E+009;1.603488326072693E-001;-6.855727732181549E-002;4.620184772647917E-004;4.662580322474241E-004;
2.420000000000000E+009;1.593955457210541E-001;-6.961379945278168E-002;4.430489498190582E-004;4.925081739202142E-004;
2.420166666666667E+009;1.582325547933579E-001;-7.079456746578217E-002;4.001857596449554E-004;5.383482784964144E-004;
2.420333333333334E+009;1.571010053157806E-001;-7.193922996520996E-002;4.956394550390542E-004;5.237331497482956E-004;
2.420500000000000E+009;1.562755256891251E-001;-7.332617044448853E-002;4.545270639937371E-004;6.901318556629121E-004;
2.420666666666667E+009;1.552633792161942E-001;-7.451484352350235E-002;6.586338276974857E-004;8.524688309989870E-004;
2.420833333333334E+009;1.543320864439011E-001;-7.592073082923889E-002;4.693307855632156E-004;7.833068957552314E-004;
2.421000000000000E+009;1.532867252826691E-001;-7.744098454713821E-002;5.647206562571228E-004;1.006165286526084E-003;
2.421166666666667E+009;1.527350395917893E-001;-7.901239395141602E-002;6.657043704763055E-004;8.347647963091731E-004;
2.421333333333334E+009;1.520011574029923E-001;-8.064614981412888E-002;6.913621909916401E-004;1.170676317997277E-003;
2.421500000000000E+009;1.512855142354965E-001;-8.218067139387131E-002;7.185619324445725E-004;1.014121575281024E-003;
2.421666666666667E+009;1.508791893720627E-001;-8.389318734407425E-002;7.326584309339523E-004;1.012133550830185E-003;
2.421833333333334E+009;1.505559235811234E-001;-8.560293912887573E-002;9.871735237538815E-004;1.164397923275828E-003;
2.422000000000000E+009;1.501115858554840E-001;-8.708306401968002E-002;1.091818092390895E-003;1.169694354757667E-003;
2.422166666666667E+009;1.497129946947098E-001;-8.908606320619583E-002;1.118420390412211E-003;1.088089775294066E-003;
2.422333333333334E+009;1.496118903160095E-001;-9.053394943475723E-002;1.023662625811994E-003;1.292484230361879E-003;
2.422500000000000E+009;1.495057046413422E-001;-9.234676510095596E-002;1.239928533323109E-003;1.173899741843343E-003;
2.422666666666667E+009;1.493941694498062E-001;-9.410160779953003E-002;1.320907729677856E-003;1.142990891821683E-003;
2.422833333333334E+009;1.494375318288803E-001;-9.575125575065613E-002;1.498358324170113E-003;1.122947433032095E-003;
2.423000000000000E+009;1.495378613471985E-001;-9.743937849998474E-002;1.563430065289140E-003;1.029303297400475E-003;
2.423166666666667E+009;1.500106453895569E-001;-9.921682626008987E-002;1.606790930964053E-003;1.075769891031086E-003;
2.423333333333334E+009;1.502709686756134E-001;-1.007531210780144E-001;1.793934963643551E-003;9.359168470837176E-004;
2.423500000000000E+009;1.504016071557999E-001;-1.023412719368935E-001;1.676699845120311E-003;9.630593121983111E-004;
2.423666666666667E+009;1.507091522216797E-001;-1.037785932421684E-001;1.712604193016887E-003;9.565525106154382E-004;
2.423833333333334E+009;1.514692902565002E-001;-1.052741110324860E-001;1.985036768019199E-003;8.995911921374500E-004;
2.424000000000000E+009;1.517541557550430E-001;-1.064853742718697E-001;1.850702683441341E-003;7.654504152014852E-004;
2.424166666666667E+009;1.520957797765732E-001;-1.079942509531975E-001;1.922993338666856E-003;8.574914536438882E-004;
2.424333333333334E+009;1.527082473039627E-001;-1.090591102838516E-001;1.935781794600189E-003;5.034273490309715E-004;
2.424500000000000E+009;1.531874984502792E-001;-1.103617325425148E-001;1.923964358866215E-003;5.714118597097695E-004;
2.424666666666667E+009;1.538847684860230E-001;-1.112894862890244E-001;2.113413065671921E-003;5.608031642623246E-004;
2.424833333333334E+009;1.542234122753143E-001;-1.123737171292305E-001;2.032663673162460E-003;4.143870028201491E-004;
2.425000000000000E+009;1.546886116266251E-001;-1.132464110851288E-001;2.157131209969521E-003;4.682413127738982E-004;
2.425166666666667E+009;1.549412757158279E-001;-1.140799224376679E-001;2.215982880443335E-003;2.300218911841512E-004;
2.425333333333334E+009;1.554182767868042E-001;-1.148602440953255E-001;2.235441235825419E-003;3.931249666493386E-004;
2.425500000000000E+009;1.558583080768585E-001;-1.156521365046501E-001;2.210676902905107E-003;1.808516099117696E-004;
2.425666666666667E+009;1.559303849935532E-001;-1.161971017718315E-001;2.263467991724610E-003;1.576985232532024E-004;
2.425833333333334E+009;1.562340855598450E-001;-1.166766136884689E-001;2.296043094247580E-003;-1.936791340995114E-005;
2.426000000000000E+009;1.565290093421936E-001;-1.170889586210251E-001;2.249611774459481E-003;-1.253242371603847E-004;
2.426166666666667E+009;1.567647606134415E-001;-1.175853013992310E-001;2.262532943859696E-003;-1.179281753138639E-004;
2.426333333333334E+009;1.566574126482010E-001;-1.178016960620880E-001;2.315812744200230E-003;-6.629928520851536E-006;
2.426500000000000E+009;1.566577851772308E-001;-1.179772168397903E-001;2.323480555787683E-003;-9.679073991719633E-005;
2.426666666666667E+009;1.567146778106690E-001;-1.181604042649269E-001;2.414466580376029E-003;-3.125160001218319E-004;
2.426833333333334E+009;1.565687060356140E-001;-1.183063238859177E-001;2.409895649179816E-003;-4.566390998661518E-004;
2.427000000000000E+009;1.560528129339218E-001;-1.184236407279968E-001;2.437338931486011E-003;-4.164939455222338E-004;
2.427166666666667E+009;1.558445245027542E-001;-1.185050606727600E-001;2.404384547844529E-003;-4.900824860669673E-004;
2.427333333333334E+009;1.552332341670990E-001;-1.185921579599381E-001;2.424195874482393E-003;-4.519040230661631E-004;
2.427500000000000E+009;1.548285782337189E-001;-1.187549978494644E-001;2.381928032264113E-003;-6.101403851062059E-004;
2.427666666666667E+009;1.540379524230957E-001;-1.188168898224831E-001;2.552835270762444E-003;-7.016859599389136E-004;
2.427833333333334E+009;1.531378179788590E-001;-1.189234033226967E-001;2.368012210354209E-003;-7.124621770344675E-004;
