# Version 1.00
#
freq[Hz];re:Trc1_S11;im:Trc1_S11;re:Trc2_S21;im:Trc2_S21;
2.400000000000000E+009;1.572115868330002E-001;6.311559677124023E-002;-4.600081592798233E-003;-1.552747678942978E-003;
2.400166666666667E+009;1.571462750434876E-001;6.145885586738586E-002;-4.775204230099917E-003;-1.375048304907978E-003;
2.400333333333334E+009;1.570201218128204E-001;5.959296971559525E-002;-4.535043146461248E-003;-1.269495463930070E-003;
2.400500000000000E+009;1.570722460746765E-001;5.755819007754326E-002;-4.562251735478640E-003;-1.187067362479866E-003;
2.400666666666667E+009;1.569051891565323E-001;5.551563203334808E-002;-4.555411636829376E-003;-1.034756540320814E-003;
2.400833333333334E+009;1.571407318115234E-001;5.353567004203796E-002;-4.626403097063303E-003;-9.152518468908966E-004;
2.401000000000000E+009;1.572651267051697E-001;5.146467685699463E-002;-4.567461553961039E-003;-6.581778870895505E-004;
2.401166666666667E+009;1.575064212083817E-001;4.921804741024971E-002;-4.565906245261431E-003;-5.460222600959241E-004;
2.401333333333334E+009;1.576794385910034E-001;4.709424823522568E-002;-4.504378885030747E-003;-4.933009040541947E-004;
2.401500000000000E+009;1.581489592790604E-001;4.487934708595276E-002;-4.502286668866873E-003;-3.752984339371324E-004;
2.401666666666667E+009;1.585382521152496E-001;4.313980787992477E-002;-4.524872172623873E-003;-4.553461039904505E-004;
2.401833333333334E+009;1.587958186864853E-001;4.100719839334488E-002;-4.471574909985066E-003;-2.484191209077835E-004;
2.402000000000000E+009;1.593267917633057E-001;3.889386355876923E-002;-4.561121575534344E-003;1.309149956796318E-004;
2.402166666666667E+009;1.598553657531738E-001;3.686174377799034E-002;-4.410099238157272E-003;1.081332738976926E-004;
2.402333333333334E+009;1.603475809097290E-001;3.503357619047165E-002;-4.439366050064564E-003;3.434072132222354E-004;
2.402500000000000E+009;1.613080501556397E-001;3.340393304824829E-002;-4.543140530586243E-003;5.090745398774743E-004;
2.402666666666667E+009;1.619340181350708E-001;3.147157654166222E-002;-4.458769224584103E-003;4.122605605516583E-004;
2.402833333333334E+009;1.627746671438217E-001;2.971026673913002E-002;-4.513094667345285E-003;7.096311310306191E-004;
2.403000000000000E+009;1.635419875383377E-001;2.805202454328537E-002;-4.486110527068377E-003;6.408346816897392E-004;
2.403166666666667E+009;1.644016653299332E-001;2.643398381769657E-002;-4.493768326938152E-003;1.023982185870409E-003;
2.403333333333334E+009;1.654538512229919E-001;2.514237165451050E-002;-4.472458735108376E-003;1.329474966041744E-003;
2.403500000000000E+009;1.663462221622467E-001;2.360151521861553E-002;-4.496661014854908E-003;1.563485362567008E-003;
2.403666666666667E+009;1.673022657632828E-001;2.222159691154957E-002;-4.486883990466595E-003;1.612733118236065E-003;
2.403833333333334E+009;1.684724837541580E-001;2.105154842138290E-002;-4.364283755421639E-003;1.743204309605062E-003;
2.404000000000000E+009;1.694075465202332E-001;1.984614133834839E-002;-4.437878262251616E-003;1.882238779217005E-003;
2.404166666666667E+009;1.704519540071487E-001;1.883627660572529E-002;-4.124292638152838E-003;2.142588375136256E-003;
2.404333333333334E+009;1.713874340057373E-001;1.775885932147503E-002;-4.194276407361031E-003;2.379473997280002E-003;
2.404500000000000E+009;1.721834689378738E-001;1.666856929659843E-002;-3.964725416153669E-003;2.480586059391499E-003;
2.404666666666667E+009;1.733259111642838E-001;1.586579903960228E-002;-3.962358459830284E-003;2.711954759433866E-003;
2.404833333333334E+009;1.742502599954605E-001;1.525043230503798E-002;-3.709460608661175E-003;2.876130165532231E-003;
2.405000000000000E+009;1.751797348260880E-001;1.457475032657385E-002;-3.731419565156102E-003;2.916470170021057E-003;
2.405166666666667E+009;1.759760528802872E-001;1.377777010202408E-002;-3.334985813125968E-003;3.229211084544659E-003;
2.405333333333334E+009;1.769172400236130E-001;1.309175975620747E-002;-3.148609306663275E-003;3.377407090738416E-003;
2.405500000000000E+009;1.776239573955536E-001;1.288647949695587E-002;-2.946529537439346E-003;3.552740905433893E-003;
2.405666666666667E+009;1.783047020435333E-001;1.243606396019459E-002;-2.705259481444955E-003;3.471744246780872E-003;
2.405833333333334E+009;1.787406653165817E-001;1.214349362999201E-002;-2.600507345050573E-003;3.617389360442758E-003;
2.406000000000000E+009;1.793402582406998E-001;1.166326832026243E-002;-2.156493486836553E-003;3.756599733605981E-003;
2.406166666666667E+009;1.796416640281677E-001;1.148914173245430E-002;-1.931766513735056E-003;3.801868995651603E-003;
2.406333333333334E+009;1.803067475557327E-001;1.111801620572805E-002;-1.855518436059356E-003;3.709295531734824E-003;
2.406500000000000E+009;1.805079132318497E-001;1.088773645460606E-002;-1.666744821704924E-003;3.751537995412946E-003;
2.406666666666667E+009;1.805831938982010E-001;1.062682271003723E-002;-1.347492681816220E-003;3.707176540046930E-003;
2.406833333333334E+009;1.808430701494217E-001;1.037109829485416E-002;-1.217895420268178E-003;3.754473989829421E-003;
2.407000000000000E+009;1.809836775064468E-001;1.003671344369650E-002;-8.970765629783273E-004;3.729532007128000E-003;
2.407166666666667E+009;1.809135228395462E-001;9.779059328138828E-003;-7.890399429015815E-004;3.590835491195321E-003;
2.407333333333334E+009;1.807277500629425E-001;9.295528754591942E-003;-6.792944623157382E-004;3.494826145470142E-003;
2.407500000000000E+009;1.805538982152939E-001;8.902367204427719E-003;-4.990809829905629E-004;3.510496579110622E-003;
2.407666666666667E+009;1.803356111049652E-001;8.505369536578655E-003;-3.229327267035842E-004;3.313543507829309E-003;
2.407833333333334E+009;1.798618137836456E-001;7.873177528381348E-003;-2.190557570429519E-004;3.277585376054049E-003;
2.408000000000000E+009;1.796285510063171E-001;7.288543973118067E-003;-7.064158126013354E-005;3.230487927794457E-003;
2.408166666666667E+009;1.790225505828857E-001;6.791221443563700E-003;-8.032877667574212E-005;2.969448454678059E-003;
2.408333333333334E+009;1.786895096302033E-001;6.007600575685501E-003;1.601149997441098E-004;3.052366431802511E-003;
2.408500000000000E+009;1.780288964509964E-001;5.106403026729822E-003;2.425437269266695E-004;2.900915220379829E-003;
2.408666666666667E+009;1.774337887763977E-001;4.165548831224442E-003;2.032672055065632E-004;2.717009512707591E-003;
2.408833333333334E+009;1.766998469829559E-001;3.310037311166525E-003;3.262678801547736E-004;2.756829606369138E-003;
2.409000000000000E+009;1.760185509920120E-001;2.213868312537670E-003;3.381717251613736E-004;2.508271252736449E-003;
2.409166666666667E+009;1.753530949354172E-001;1.081611029803753E-003;3.165443486068398E-004;2.529044169932604E-003;
2.409333333333334E+009;1.746206730604172E-001;-2.655491116456688E-004;3.429182688705623E-004;2.342120744287968E-003;
2.409500000000000E+009;1.739065498113632E-001;-1.571707078255713E-003;4.012582649011165E-004;2.321537816897035E-003;
2.409666666666667E+009;1.730405241250992E-001;-2.935205353423953E-003;3.811999631579965E-004;2.262722002342343E-003;
2.409833333333334E+009;1.724136024713516E-001;-4.246679600328207E-003;5.317385075613856E-004;2.155412221327424E-003;
2.410000000000000E+009;1.716707795858383E-001;-5.668056197464466E-003;2.245656214654446E-004;2.220399677753449E-003;
2.410166666666667E+009;1.711487621068955E-001;-7.428216282278299E-003;5.838990327902138E-004;2.065287437289953E-003;
2.410333333333334E+009;1.704679578542709E-001;-9.080595336854458E-003;3.539648023433983E-004;2.056168625131249E-003;
2.410500000000000E+009;1.699196845293045E-001;-1.087232772260904E-002;3.953859559260309E-004;1.897780923172832E-003;
2.410666666666667E+009;1.693215072154999E-001;-1.274179760366678E-002;4.444107762537897E-004;2.080400008708239E-003;
2.410833333333334E+009;1.690643280744553E-001;-1.442450005561113E-002;3.905613266397268E-004;1.951234065927565E-003;
2.411000000000000E+009;1.685860306024551E-001;-1.653704978525639E-002;3.660719085019082E-004;1.981318695470691E-003;
2.411166666666667E+009;1.682392507791519E-001;-1.839384995400906E-002;4.522562958300114E-004;1.991699682548642E-003;
2.411333333333334E+009;1.681152284145355E-001;-2.028847113251686E-002;4.797833098564297E-004;1.758106867782772E-003;
2.411500000000000E+009;1.677096188068390E-001;-2.237948775291443E-002;4.180073738098145E-004;1.881162752397358E-003;
2.411666666666667E+009;1.678280681371689E-001;-2.428583614528179E-002;4.254629893694073E-004;1.948765828274190E-003;
2.411833333333334E+009;1.677419841289520E-001;-2.611142210662365E-002;5.562814767472446E-004;1.737060374580324E-003;
2.412000000000000E+009;1.677425950765610E-001;-2.812040410935879E-002;4.750365624204278E-004;1.843571546487510E-003;
2.412166666666667E+009;1.678386181592941E-001;-3.026217222213745E-002;5.936516681686044E-004;1.832492300309241E-003;
2.412333333333334E+009;1.681820005178452E-001;-3.203804418444634E-002;5.190916126593947E-004;1.841307152062655E-003;
2.412500000000000E+009;1.683080494403839E-001;-3.402919694781303E-002;7.424844661727548E-004;1.910452381707728E-003;
2.412666666666667E+009;1.686574220657349E-001;-3.597076609730721E-002;6.530432729050517E-004;1.990194432437420E-003;
2.412833333333334E+009;1.690801531076431E-001;-3.785924986004829E-002;6.806719466112554E-004;1.923038158565760E-003;
2.413000000000000E+009;1.695603281259537E-001;-3.944585099816322E-002;8.120563579723239E-004;1.846888219006360E-003;
2.413166666666667E+009;1.699601411819458E-001;-4.134207591414452E-002;8.737267344258726E-004;1.997144892811775E-003;
2.413333333333334E+009;1.704150289297104E-001;-4.306121543049812E-002;9.559533791616559E-004;1.928103854879737E-003;
2.413500000000000E+009;1.709772944450378E-001;-4.458869248628616E-002;8.968035690486431E-004;1.789488131180406E-003;
2.413666666666667E+009;1.716190129518509E-001;-4.634345322847366E-002;9.476121631450951E-004;1.939522335305810E-003;
2.413833333333334E+009;1.720236092805862E-001;-4.771563410758972E-002;1.044390373863280E-003;1.725931884720922E-003;
2.414000000000000E+009;1.724497675895691E-001;-4.908494651317596E-002;1.138967694714665E-003;1.845293096266687E-003;
2.414166666666667E+009;1.733623296022415E-001;-5.036846548318863E-002;1.196378725580871E-003;1.918461290188134E-003;
2.414333333333334E+009;1.738069802522659E-001;-5.156799778342247E-002;1.461174106225371E-003;1.821591518819332E-003;
2.414500000000000E+009;1.745199263095856E-001;-5.273115634918213E-002;1.416510553099215E-003;1.779885846190155E-003;
2.414666666666667E+009;1.750192344188690E-001;-5.371429398655891E-002;1.394579769112170E-003;1.685983501374722E-003;
2.414833333333334E+009;1.755840778350830E-001;-5.481602624058723E-002;1.572867273353040E-003;1.629236270673573E-003;
2.415000000000000E+009;1.760199069976807E-001;-5.541269481182098E-002;1.708618714474142E-003;1.462592976167798E-003;
2.415166666666667E+009;1.765303909778595E-001;-5.633728206157684E-002;1.652189064770937E-003;1.358557026833296E-003;
2.415333333333334E+009;1.769958585500717E-001;-5.705928802490234E-002;1.667501172050834E-003;1.438855775631964E-003;
2.415500000000000E+009;1.773105263710022E-001;-5.752722173929215E-002;1.784966210834682E-003;1.364571275189519E-003;
2.415666666666667E+009;1.775159090757370E-001;-5.806059762835503E-002;1.807870110496879E-003;1.223708502948284E-003;
2.415833333333334E+009;1.778026223182678E-001;-5.859230831265450E-002;1.891232561320067E-003;8.605663897469640E-004;
2.416000000000000E+009;1.777929812669754E-001;-5.904626473784447E-002;1.807010499760509E-003;8.770478307269514E-004;
2.416166666666667E+009;1.781530380249023E-001;-5.929351225495338E-002;1.785048516467214E-003;8.137804688885808E-004;
2.416333333333334E+009;1.781366765499115E-001;-5.960671231150627E-002;1.816427335143089E-003;7.318516727536917E-004;
2.416500000000000E+009;1.779275536537170E-001;-5.989373475313187E-002;1.808747183531523E-003;4.255381645634770E-004;
2.416666666666667E+009;1.776331961154938E-001;-6.006303057074547E-002;1.712468336336315E-003;3.509260131977499E-004;
2.416833333333334E+009;1.776180416345596E-001;-6.038516759872437E-002;1.680014654994011E-003;1.426784147042781E-004;
2.417000000000000E+009;1.770454645156860E-001;-6.057963520288467E-002;1.475575845688582E-003;2.427241852274165E-004;
2.417166666666667E+009;1.766465157270432E-001;-6.059867516160011E-002;1.529426430352032E-003;7.653938519069925E-005;
2.417333333333334E+009;1.761653721332550E-001;-6.078728288412094E-002;1.457993523217738E-003;2.029821334872395E-004;
2.417500000000000E+009;1.754952967166901E-001;-6.108121573925018E-002;1.421920489519835E-003;-3.065535202040337E-005;
2.417666666666667E+009;1.746980845928192E-001;-6.124243512749672E-002;1.458974555134773E-003;-9.825933375395834E-005;
2.417833333333334E+009;1.739339083433151E-001;-6.149849668145180E-002;1.168353366665542E-003;-1.295625843340531E-004;
2.418000000000000E+009;1.729892939329147E-001;-6.190699711441994E-002;1.124633010476828E-003;-1.397602463839576E-004;
2.418166666666667E+009;1.720963418483734E-001;-6.193745881319046E-002;1.082578441128135E-003;-7.883126090746373E-005;
2.418333333333334E+009;1.713612079620361E-001;-6.252542883157730E-002;8.385290857404470E-004;-1.474382588639855E-004;
2.418500000000000E+009;1.699595600366592E-001;-6.285293400287628E-002;7.767463685013354E-004;-1.263223966816440E-004;
2.418666666666667E+009;1.690461337566376E-001;-6.340844184160233E-002;7.231153431348503E-004;8.068707757047378E-006;
2.418833333333334E+009;1.677178591489792E-001;-6.396026164293289E-002;6.926792557351291E-004;-1.132596589741297E-004;
2.419000000000000E+009;1.664448678493500E-001;-6.461148709058762E-002;7.406369550153613E-004;-3.792965117099811E-006;
2.419166666666667E+009;1.654979437589645E-001;-6.526238471269608E-002;5.138671258464456E-004;1.542368954687845E-005;
2.419333333333334E+009;1.640482991933823E-001;-6.571430712938309E-002;4.200212715659291E-004;2.349342539673671E-004;
2.419500000000000E+009;1.629350632429123E-001;-6.671569496393204E-002;4.803677438758314E-004;1.463104563299567E-004;
2.419666666666667E+009;1.616283655166626E-001;-6.767269968986511E-002;5.427061696536839E-004;2.530110941734165E-004;
2.419833333333334E+009;1.606610566377640E-001;-6.851083785295487E-002;3.369143523741514E-004;1.761817838996649E-004;
2.420000000000000E+009;1.593220233917236E-001;-6.957647204399109E-002;4.765194898936898E-004;4.340641316957772E-004;
2.420166666666667E+009;1.582749783992767E-001;-7.057199627161026E-002;3.852929803542793E-004;4.941997467540205E-004;
2.420333333333334E+009;1.572869271039963E-001;-7.194890826940537E-002;3.675242478493601E-004;4.466945538297296E-004;
2.420500000000000E+009;1.563050299882889E-001;-7.316238433122635E-002;4.076944314874709E-004;3.879980940837413E-004;
2.420666666666667E+009;1.552737951278687E-001;-7.439424842596054E-002;4.988529253751040E-004;5.444199778139591E-004;
2.420833333333334E+009;1.542455703020096E-001;-7.602901011705399E-002;5.062686395831406E-004;6.607728428207338E-004;
2.421000000000000E+009;1.534398347139359E-001;-7.749523222446442E-002;4.076944605913013E-004;7.178517407737672E-004;
2.421166666666667E+009;1.527823209762573E-001;-7.884179055690765E-002;6.508716614916921E-004;7.625141297467053E-004;
2.421333333333334E+009;1.521605253219605E-001;-8.069960027933121E-002;6.081386236473918E-004;8.274801657535136E-004;
2.421500000000000E+009;1.513350307941437E-001;-8.203383535146713E-002;8.128167828544974E-004;8.731287089176476E-004;
2.421666666666667E+009;1.508744210004807E-001;-8.383662253618240E-002;6.635291501879692E-004;8.550958009436727E-004;
2.421833333333334E+009;1.504789739847183E-001;-8.553852140903473E-002;8.315050508826971E-004;1.023091608658433E-003;
2.422000000000000E+009;1.500963419675827E-001;-8.712437003850937E-002;9.054029942490161E-004;9.585494990460575E-004;
2.422166666666667E+009;1.497738808393478E-001;-8.924070745706558E-002;8.160202414728701E-004;1.070154830813408E-003;
2.422333333333334E+009;1.497812867164612E-001;-9.059171378612518E-002;1.027292571961880E-003;9.227343834936619E-004;
2.422500000000000E+009;1.494155675172806E-001;-9.232840687036514E-002;1.114743179641664E-003;1.108663389459252E-003;
2.422666666666667E+009;1.493672877550125E-001;-9.409451484680176E-002;1.140954322181642E-003;9.726968128234148E-004;
2.422833333333334E+009;1.495209038257599E-001;-9.583486616611481E-002;1.211861614137888E-003;8.656785357743502E-004;
2.423000000000000E+009;1.496001034975052E-001;-9.747353941202164E-002;1.227216096594930E-003;9.260177612304688E-004;
2.423166666666667E+009;1.499817222356796E-001;-9.908147156238556E-002;1.361246919259429E-003;9.002072038128972E-004;
2.423333333333334E+009;1.502485126256943E-001;-1.006375774741173E-001;1.387600088492036E-003;8.772468427196145E-004;
2.423500000000000E+009;1.505667865276337E-001;-1.021703779697418E-001;1.507184817455709E-003;8.084533037617803E-004;
2.423666666666667E+009;1.507568806409836E-001;-1.039623469114304E-001;1.524558989331126E-003;8.675241260789335E-004;
2.423833333333334E+009;1.514055430889130E-001;-1.054277047514916E-001;1.573435147292912E-003;8.600574801675975E-004;
2.424000000000000E+009;1.516430824995041E-001;-1.065419688820839E-001;1.634347834624350E-003;6.678677164018154E-004;
2.424166666666667E+009;1.520438790321350E-001;-1.080085933208466E-001;1.599444774910808E-003;7.593438494950533E-004;
2.424333333333334E+009;1.526383608579636E-001;-1.090705841779709E-001;1.771034090779722E-003;6.055811536498368E-004;
2.424500000000000E+009;1.530855000019074E-001;-1.103193834424019E-001;1.700619002804160E-003;6.367715541273356E-004;
2.424666666666667E+009;1.539381444454193E-001;-1.112485900521278E-001;1.847537816502154E-003;4.553665057756007E-004;
2.424833333333334E+009;1.540307104587555E-001;-1.122027784585953E-001;1.864028978161514E-003;4.602995759341866E-004;
2.425000000000000E+009;1.547011286020279E-001;-1.131806895136833E-001;1.847099396400154E-003;3.353319771122187E-004;
2.425166666666667E+009;1.549745351076126E-001;-1.141011342406273E-001;2.046652836725116E-003;1.762808969942853E-004;
2.425333333333334E+009;1.555199027061462E-001;-1.148219555616379E-001;1.954407664015889E-003;2.993622911162674E-004;
2.425500000000000E+009;1.559213846921921E-001;-1.155055984854698E-001;2.138788579031825E-003;1.786141801858321E-004;
2.425666666666667E+009;1.560124605894089E-001;-1.160927861928940E-001;2.032973337918520E-003;6.550361285917461E-005;
2.425833333333334E+009;1.564621031284332E-001;-1.166079118847847E-001;2.084508771076798E-003;2.064193104160950E-004;
2.426000000000000E+009;1.565066725015640E-001;-1.170821115374565E-001;2.170991385355592E-003;-5.110542770125903E-005;
2.426166666666667E+009;1.568714231252670E-001;-1.174153164029121E-001;2.057319041341543E-003;-1.381760557706002E-005;
2.426333333333334E+009;1.567825675010681E-001;-1.177312731742859E-001;2.057711593806744E-003;-1.053365049301647E-004;
2.426500000000000E+009;1.567751020193100E-001;-1.180241033434868E-001;2.232115250080824E-003;-2.383162645855919E-004;
2.426666666666667E+009;1.568032205104828E-001;-1.180627197027206E-001;2.160757081583142E-003;-2.077759854728356E-004;
2.426833333333334E+009;1.565789282321930E-001;-1.182407662272453E-001;2.084894804283977E-003;-3.188530390616506E-004;
2.427000000000000E+009;1.562002748250961E-001;-1.185381859540939E-001;2.146113896742463E-003;-4.202855925541371E-004;
2.427166666666667E+009;1.558567583560944E-001;-1.185193657875061E-001;2.276872051879764E-003;-3.810195776168257E-004;
2.427333333333334E+009;1.552031338214874E-001;-1.186015382409096E-001;2.339513972401619E-003;-5.920058465562761E-004;
2.427500000000000E+009;1.548745483160019E-001;-1.187139004468918E-001;2.149326261132956E-003;-6.157070747576654E-004;
2.427666666666667E+009;1.541612744331360E-001;-1.188780069351196E-001;2.200443530455232E-003;-6.391071365214884E-004;
2.427833333333334E+009;1.531992256641388E-001;-1.189711987972260E-001;2.343612490221858E-003;-8.328089606948197E-004;
