# Version 1.00
#
freq[Hz];re:Trc1_S11;im:Trc1_S11;re:Trc2_S21;im:Trc2_S21;
2.400000000000000E+009;1.549181491136551E-001;1.063860952854157E-001;2.483724674675614E-004;-1.946132513694465E-003;
2.400166666666667E+009;1.546674221754074E-001;1.041967049241066E-001;3.680047811940312E-004;-2.175676170736551E-003;
2.400333333333334E+009;1.548507213592529E-001;1.018133386969566E-001;1.777881261659786E-004;-2.130207372829318E-003;
2.400500000000000E+009;1.547702699899674E-001;9.923692792654038E-002;2.521926217013970E-005;-2.264500595629215E-003;
2.400666666666667E+009;1.548806130886078E-001;9.670955687761307E-002;-8.450328095932491E-006;-2.208243822678924E-003;
2.400833333333334E+009;1.549224704504013E-001;9.381213039159775E-002;-5.407640855992213E-005;-2.305567497387528E-003;
2.401000000000000E+009;1.552510559558868E-001;9.105900675058365E-002;-2.394893817836419E-004;-2.353665186092258E-003;
2.401166666666667E+009;1.552394032478333E-001;8.812109380960465E-002;-1.950203295564279E-004;-2.476337365806103E-003;
2.401333333333334E+009;1.555788815021515E-001;8.538446575403214E-002;-3.424143651500344E-004;-2.399587305262685E-003;
2.401500000000000E+009;1.560970097780228E-001;8.248920738697052E-002;-3.199724887963384E-004;-2.365936525166035E-003;
2.401666666666667E+009;1.564295589923859E-001;7.980530709028244E-002;-4.417655873112381E-004;-2.382793463766575E-003;
2.401833333333334E+009;1.570618003606796E-001;7.708646357059479E-002;-5.310825072228909E-004;-2.268095267936587E-003;
2.402000000000000E+009;1.580256372690201E-001;7.453355193138123E-002;-7.225880399346352E-004;-2.526068361476064E-003;
2.402166666666667E+009;1.587404459714890E-001;7.190279662609100E-002;-8.347464026883245E-004;-2.445293124765158E-003;
2.402333333333334E+009;1.598566770553589E-001;6.943776458501816E-002;-1.013535656966269E-003;-2.645012224093080E-003;
2.402500000000000E+009;1.609033048152924E-001;6.673958897590637E-002;-9.892992675304413E-004;-2.605407731607556E-003;
2.402666666666667E+009;1.621023714542389E-001;6.445932388305664E-002;-1.122551038861275E-003;-2.571961609646678E-003;
2.402833333333334E+009;1.634968370199204E-001;6.194104626774788E-002;-1.233438961207867E-003;-2.654507989063859E-003;
2.403000000000000E+009;1.649352759122849E-001;5.975803360342979E-002;-1.390072284266353E-003;-2.493067644536495E-003;
2.403166666666667E+009;1.666330993175507E-001;5.771369487047195E-002;-1.604776480235159E-003;-2.432639244943857E-003;
2.403333333333334E+009;1.681930720806122E-001;5.541581660509110E-002;-1.691420096904039E-003;-2.315585268661380E-003;
2.403500000000000E+009;1.698500365018845E-001;5.338978767395020E-002;-1.946158590726554E-003;-2.254239516332746E-003;
2.403666666666667E+009;1.716775745153427E-001;5.160549283027649E-002;-1.980186672881246E-003;-2.096869517117739E-003;
2.403833333333334E+009;1.733219027519226E-001;4.968956112861633E-002;-1.943275565281510E-003;-2.132661640644074E-003;
2.404000000000000E+009;1.747195273637772E-001;4.792949557304382E-002;-2.105363411828876E-003;-2.089325105771422E-003;
2.404166666666667E+009;1.764886826276779E-001;4.643370583653450E-002;-2.141767879948020E-003;-1.600579707883298E-003;
2.404333333333334E+009;1.781653016805649E-001;4.495842382311821E-002;-2.414037473499775E-003;-1.740916864946485E-003;
2.404500000000000E+009;1.797033846378326E-001;4.366134479641914E-002;-2.296216785907745E-003;-1.563730649650097E-003;
2.404666666666667E+009;1.813526302576065E-001;4.241579398512840E-002;-2.490484388545156E-003;-1.544840168207884E-003;
2.404833333333334E+009;1.830228120088577E-001;4.135928303003311E-002;-2.417770214378834E-003;-1.490483642555773E-003;
2.405000000000000E+009;1.843755990266800E-001;4.083567857742310E-002;-2.437039744108915E-003;-1.318784314207733E-003;
2.405166666666667E+009;1.858003437519074E-001;4.004133865237236E-002;-2.609309740364552E-003;-1.219542347826064E-003;
2.405333333333334E+009;1.872760206460953E-001;3.952460736036301E-002;-2.587379887700081E-003;-1.256943447515369E-003;
2.405500000000000E+009;1.885525435209274E-001;3.900355845689774E-002;-2.882122527807951E-003;-1.102914335206151E-003;
2.405666666666667E+009;1.897231191396713E-001;3.875864669680595E-002;-2.885262947529554E-003;-9.702255483716726E-004;
2.405833333333334E+009;1.910265833139420E-001;3.846204653382301E-002;-3.026642603799701E-003;-6.949842791073024E-004;
2.406000000000000E+009;1.919403225183487E-001;3.840996325016022E-002;-2.981450874358416E-003;-5.234281998127699E-004;
2.406166666666667E+009;1.928607076406479E-001;3.811185806989670E-002;-3.041185904294252E-003;-4.064113891217858E-004;
2.406333333333334E+009;1.938869804143906E-001;3.822295367717743E-002;-3.049097722396255E-003;-1.517696655355394E-004;
2.406500000000000E+009;1.944615095853806E-001;3.802135586738586E-002;-3.213139018043876E-003;-5.997303742333315E-005;
2.406666666666667E+009;1.951282173395157E-001;3.819766640663147E-002;-3.027591388672590E-003;3.088278390350752E-005;
2.406833333333334E+009;1.955660730600357E-001;3.817313909530640E-002;-2.985653467476368E-003;4.605379072017968E-004;
2.407000000000000E+009;1.958921998739243E-001;3.831666335463524E-002;-3.031627740710974E-003;6.468821666203439E-004;
2.407166666666667E+009;1.961640566587448E-001;3.812529519200325E-002;-2.769102342426777E-003;6.471230299212039E-004;
2.407333333333334E+009;1.961642354726791E-001;3.823887556791306E-002;-2.876732265576720E-003;9.196213213726878E-004;
2.407500000000000E+009;1.962558329105377E-001;3.822422400116921E-002;-2.810567617416382E-003;9.341544937342405E-004;
2.407666666666667E+009;1.960270106792450E-001;3.811015561223030E-002;-2.668919507414103E-003;1.181581406854093E-003;
2.407833333333334E+009;1.955420225858688E-001;3.796540573239327E-002;-2.568824449554086E-003;1.191655057482421E-003;
2.408000000000000E+009;1.956025511026382E-001;3.769860416650772E-002;-2.402447629719973E-003;1.274453592486680E-003;
2.408166666666667E+009;1.949880123138428E-001;3.744983300566673E-002;-2.271374454721808E-003;1.398273161612451E-003;
2.408333333333334E+009;1.944344192743301E-001;3.675311058759689E-002;-2.231424208730459E-003;1.416109153069556E-003;
2.408500000000000E+009;1.937449425458908E-001;3.639883548021317E-002;-2.044850029051304E-003;1.812810078263283E-003;
2.408666666666667E+009;1.932212412357330E-001;3.582349047064781E-002;-2.024404937401414E-003;1.855640904977918E-003;
2.408833333333334E+009;1.924250274896622E-001;3.512940555810928E-002;-1.860862364992499E-003;1.880214898847044E-003;
2.409000000000000E+009;1.915643364191055E-001;3.405301272869110E-002;-1.615842338651419E-003;1.860236516222358E-003;
2.409166666666667E+009;1.904702931642532E-001;3.312128409743309E-002;-1.500176498666406E-003;2.057651290670037E-003;
2.409333333333334E+009;1.897079944610596E-001;3.193372860550880E-002;-1.352917985059321E-003;2.002783585339785E-003;
2.409500000000000E+009;1.885337829589844E-001;3.064501285552979E-002;-1.181651605293155E-003;1.997165381908417E-003;
2.409666666666667E+009;1.876495033502579E-001;2.918324992060661E-002;-9.682481177151203E-004;2.018251921981573E-003;
2.409833333333334E+009;1.865666061639786E-001;2.780744433403015E-002;-8.611029479652643E-004;1.925412565469742E-003;
2.410000000000000E+009;1.856248080730438E-001;2.599318325519562E-002;-6.812141509726644E-004;1.978969434276223E-003;
2.410166666666667E+009;1.846261471509934E-001;2.414217032492161E-002;-5.123745650053024E-004;1.913558109663427E-003;
2.410333333333334E+009;1.836795508861542E-001;2.242350205779076E-002;-3.227479755878449E-004;2.074916148558259E-003;
2.410500000000000E+009;1.827349811792374E-001;2.053793333470821E-002;-4.242938011884689E-004;1.916865701787174E-003;
2.410666666666667E+009;1.818736046552658E-001;1.807111874222755E-002;-1.708113122731447E-004;1.729381969198585E-003;
2.410833333333334E+009;1.812658607959747E-001;1.602802984416485E-002;4.540187603652157E-007;1.788923982530832E-003;
2.411000000000000E+009;1.806149929761887E-001;1.365677826106548E-002;1.565334096085280E-004;1.698378939181566E-003;
2.411166666666667E+009;1.798638403415680E-001;1.165470108389854E-002;2.552592195570469E-004;1.552084926515818E-003;
2.411333333333334E+009;1.794375330209732E-001;9.001846425235272E-003;3.204116364941001E-004;1.533524948172271E-003;
2.411500000000000E+009;1.789950877428055E-001;6.724022794514895E-003;4.420125333126634E-004;1.452877069823444E-003;
2.411666666666667E+009;1.788308024406433E-001;4.350083880126476E-003;3.900480805896223E-004;1.255841460078955E-003;
2.411833333333334E+009;1.784492880105972E-001;1.926744123920798E-003;4.010431584902108E-004;1.026781741529703E-003;
2.412000000000000E+009;1.786344200372696E-001;-6.180959171615541E-004;7.012930000200868E-004;8.458758238703013E-004;
2.412166666666667E+009;1.788314878940582E-001;-2.867379691451788E-003;7.424710202030838E-004;7.303378661163151E-004;
2.412333333333334E+009;1.789986640214920E-001;-5.355386529117823E-003;6.692867609672248E-004;6.450388464145362E-004;
2.412500000000000E+009;1.794624775648117E-001;-7.933815009891987E-003;6.071940297260881E-004;5.407872376963496E-004;
2.412666666666667E+009;1.799924969673157E-001;-1.014829799532890E-002;6.587933748960495E-004;2.291110722580925E-004;
2.412833333333334E+009;1.806804537773132E-001;-1.256957743316889E-002;5.963303847238421E-004;2.952571085188538E-004;
2.413000000000000E+009;1.812601238489151E-001;-1.488149911165237E-002;4.765392513945699E-004;-3.207404006388970E-006;
2.413166666666667E+009;1.821508258581162E-001;-1.718116179108620E-002;3.535547584760934E-004;3.091810503974557E-005;
2.413333333333334E+009;1.831427812576294E-001;-1.937752589583397E-002;3.300033858977258E-004;-2.824596231221221E-005;
2.413500000000000E+009;1.839713007211685E-001;-2.162188477814198E-002;2.548070042394102E-004;-1.329220394836739E-004;
2.413666666666667E+009;1.851786375045776E-001;-2.378211170434952E-002;1.218844554387033E-004;1.302162563661113E-004;
2.413833333333334E+009;1.862539201974869E-001;-2.561651542782784E-002;3.884490070049651E-005;-2.204086194979027E-004;
2.414000000000000E+009;1.872589737176895E-001;-2.769261226058006E-002;-1.064073076122440E-004;-1.263743615709245E-005;
2.414166666666667E+009;1.885152906179428E-001;-2.947089634835720E-002;-7.084667595336214E-005;-8.726959640625864E-005;
2.414333333333334E+009;1.897248625755310E-001;-3.129997104406357E-002;-1.347864890703932E-004;-2.102002908941358E-004;
2.414500000000000E+009;1.909158527851105E-001;-3.279680013656616E-002;-3.156948150717653E-005;-2.966632200696040E-005;
2.414666666666667E+009;1.920876055955887E-001;-3.426788747310638E-002;-3.357698733452708E-005;-8.201473974622786E-005;
2.414833333333334E+009;1.931002587080002E-001;-3.545165434479713E-002;-1.921021030284464E-004;-1.623965945327655E-004;
2.415000000000000E+009;1.942020952701569E-001;-3.671609610319138E-002;-1.625079312361777E-004;-1.937316847033799E-004;
2.415166666666667E+009;1.952828913927078E-001;-3.773094713687897E-002;-2.681890036910772E-004;-2.601191808935255E-004;
2.415333333333334E+009;1.964961737394333E-001;-3.867599368095398E-002;-3.777792444452643E-004;-3.444882167968899E-004;
2.415500000000000E+009;1.975204646587372E-001;-3.940452262759209E-002;-4.533485043793917E-004;-3.554239810910076E-004;
2.415666666666667E+009;1.986148804426193E-001;-4.023201763629913E-002;-5.051059415563941E-004;-3.748160088434815E-004;
2.415833333333334E+009;1.992885023355484E-001;-4.079770296812058E-002;-7.063252851366997E-004;-2.518270630389452E-004;
2.416000000000000E+009;2.001200467348099E-001;-4.121676087379456E-002;-8.228031219914556E-004;-3.645316464826465E-004;
2.416166666666667E+009;2.007879614830017E-001;-4.191184416413307E-002;-8.742699283175170E-004;-3.132440324407071E-004;
2.416333333333334E+009;2.013098895549774E-001;-4.208836704492569E-002;-9.274977492168546E-004;-1.696543185971677E-004;
2.416500000000000E+009;2.017822265625000E-001;-4.245027899742127E-002;-1.009204075671732E-003;-3.040520277863834E-005;
2.416666666666667E+009;2.019764333963394E-001;-4.269611090421677E-002;-1.255563227459788E-003;1.121313180192374E-004;
2.416833333333334E+009;2.022171616554260E-001;-4.269088059663773E-002;-1.043688622303307E-003;2.540517307352275E-004;
2.417000000000000E+009;2.023321986198425E-001;-4.292455688118935E-002;-1.163209788501263E-003;2.396552299614996E-004;
2.417166666666667E+009;2.019957154989243E-001;-4.279149323701859E-002;-1.191375893540680E-003;2.501901180949062E-004;
2.417333333333334E+009;2.017477452754974E-001;-4.257004335522652E-002;-1.196538330987096E-003;5.063543212600052E-004;
2.417500000000000E+009;2.013563364744186E-001;-4.269507527351379E-002;-1.088539836928248E-003;5.472692428156734E-004;
2.417666666666667E+009;2.008988410234451E-001;-4.245480522513390E-002;-9.790554177016020E-004;7.003766950219870E-004;
2.417833333333334E+009;2.005025595426559E-001;-4.228247702121735E-002;-9.551192051731050E-004;7.867791573517025E-004;
2.418000000000000E+009;1.997697651386261E-001;-4.203334823250771E-002;-9.479442378506064E-004;9.052612585946918E-004;
2.418166666666667E+009;1.988876610994339E-001;-4.209444671869278E-002;-9.132188279181719E-004;1.056483597494662E-003;
2.418333333333334E+009;1.980013698339462E-001;-4.190117120742798E-002;-7.039952906779945E-004;9.954385459423065E-004;
2.418500000000000E+009;1.969365477561951E-001;-4.196620360016823E-002;-7.077654590830207E-004;9.751809993758798E-004;
2.418666666666667E+009;1.960567384958267E-001;-4.191458597779274E-002;-5.748157273046672E-004;1.036364701576531E-003;
2.418833333333334E+009;1.947518587112427E-001;-4.213704541325569E-002;-7.388761150650680E-004;1.084670890122652E-003;
2.419000000000000E+009;1.933895051479340E-001;-4.232574999332428E-002;-5.247321678325534E-004;1.178980572149158E-003;
2.419166666666667E+009;1.922098994255066E-001;-4.274892061948776E-002;-5.194002878852189E-004;1.166078378446400E-003;
2.419333333333334E+009;1.908274143934250E-001;-4.327666014432907E-002;-4.169256426393986E-004;1.176581135950983E-003;
2.419500000000000E+009;1.893837153911591E-001;-4.361472278833389E-002;-3.450969816185534E-004;1.047222758643329E-003;
2.419666666666667E+009;1.877038925886154E-001;-4.428316280245781E-002;-3.140826884191483E-004;1.089028897695243E-003;
2.419833333333334E+009;1.863096058368683E-001;-4.514595121145248E-002;-2.395096962573007E-004;1.024199998937547E-003;
2.420000000000000E+009;1.846391409635544E-001;-4.603600502014160E-002;-1.803895429475233E-004;1.007262850180268E-003;
2.420166666666667E+009;1.830756962299347E-001;-4.701085761189461E-002;-1.238506229128689E-004;1.067059114575386E-003;
2.420333333333334E+009;1.814437806606293E-001;-4.817830398678780E-002;-1.738354621920735E-004;1.112970872782171E-003;
2.420500000000000E+009;1.797023713588715E-001;-4.951960220932961E-002;-1.317024289164692E-004;1.003631274215877E-003;
2.420666666666667E+009;1.781844496726990E-001;-5.062605068087578E-002;-6.827688775956631E-005;1.026860554702580E-003;
2.420833333333334E+009;1.766180843114853E-001;-5.214273557066917E-002;5.200837404117920E-005;9.706762502901256E-004;
2.421000000000000E+009;1.751549392938614E-001;-5.364529788494110E-002;9.912274981616065E-005;9.709551231935620E-004;
2.421166666666667E+009;1.739092320203781E-001;-5.547826364636421E-002;1.369817036902532E-004;8.453798945993185E-004;
2.421333333333334E+009;1.721820384263992E-001;-5.674223229289055E-002;2.515393425710499E-004;9.304290870204568E-004;
2.421500000000000E+009;1.710443198680878E-001;-5.884257331490517E-002;2.972541260533035E-004;7.860484765842557E-004;
2.421666666666667E+009;1.698241233825684E-001;-6.055804714560509E-002;2.564732276368886E-004;6.466610939241946E-004;
2.421833333333334E+009;1.686546355485916E-001;-6.245855614542961E-002;1.759660517564043E-004;7.141989190131426E-004;
2.422000000000000E+009;1.676078289747238E-001;-6.440927088260651E-002;1.735324331093580E-004;6.990598049014807E-004;
2.422166666666667E+009;1.668584495782852E-001;-6.637376546859741E-002;2.946524473372847E-004;6.185771781019867E-004;
2.422333333333334E+009;1.657179296016693E-001;-6.826834380626679E-002;1.185354922199622E-004;4.909270210191608E-004;
2.422500000000000E+009;1.651564538478851E-001;-7.023020833730698E-002;1.345719210803509E-004;5.330563290044665E-004;
2.422666666666667E+009;1.644859015941620E-001;-7.235360145568848E-002;1.793417613953352E-004;4.644517612177879E-004;
2.422833333333334E+009;1.640758961439133E-001;-7.430811971426010E-002;1.947331475093961E-004;3.918538859579712E-004;
2.423000000000000E+009;1.633567959070206E-001;-7.642400264739990E-002;1.009763946058229E-004;2.993946836795658E-004;
2.423166666666667E+009;1.630386561155319E-001;-7.824200391769409E-002;-7.701770300627686E-006;4.127082356717438E-004;
2.423333333333334E+009;1.628672331571579E-001;-8.012089133262634E-002;-1.060989234247245E-004;2.962086291518062E-004;
2.423500000000000E+009;1.629166007041931E-001;-8.200114220380783E-002;-1.842460915213451E-004;3.547274682205170E-004;
2.423666666666667E+009;1.628708988428116E-001;-8.372659236192703E-002;-6.594872684217989E-005;3.702705726027489E-004;
2.423833333333334E+009;1.628646254539490E-001;-8.546399325132370E-002;-1.335562847089022E-004;4.084800893906504E-004;
2.424000000000000E+009;1.629017442464829E-001;-8.733946084976196E-002;-3.411121142562479E-004;3.819985140580684E-004;
2.424166666666667E+009;1.630284786224365E-001;-8.891900628805161E-002;-3.622529766289517E-005;2.836097846738994E-004;
2.424333333333334E+009;1.632389575242996E-001;-9.022422879934311E-002;-1.631453778827563E-004;4.267596814315766E-004;
2.424500000000000E+009;1.636383384466171E-001;-9.200726449489594E-002;-2.060131955659017E-004;4.449751286301762E-004;
2.424666666666667E+009;1.638022959232330E-001;-9.323671460151672E-002;-4.137653741054237E-004;5.457795341499150E-004;
2.424833333333334E+009;1.645575612783432E-001;-9.445212036371231E-002;-2.638311707414687E-004;5.816656048409641E-004;
2.425000000000000E+009;1.647409945726395E-001;-9.574110060930252E-002;-3.023839672096074E-004;6.763838464394212E-004;
2.425166666666667E+009;1.651001125574112E-001;-9.672749787569046E-002;-2.065741573460400E-004;5.622268072329462E-004;
2.425333333333334E+009;1.655561774969101E-001;-9.773791581392288E-002;-2.855098864529282E-004;4.486778925638646E-004;
2.425500000000000E+009;1.658174097537994E-001;-9.857858717441559E-002;-3.134312573820353E-004;6.418282282538712E-004;
2.425666666666667E+009;1.661954373121262E-001;-9.925554692745209E-002;-4.528326971922070E-004;6.899783620610833E-004;
2.425833333333334E+009;1.665475219488144E-001;-1.001304611563683E-001;-2.721943601500243E-004;6.043172325007618E-004;
2.426000000000000E+009;1.670225262641907E-001;-1.004553660750389E-001;-3.939463931601495E-004;5.830514710396528E-004;
2.426166666666667E+009;1.673647761344910E-001;-1.009312719106674E-001;-5.249528330750763E-004;8.455637143924832E-004;
2.426333333333334E+009;1.674120724201202E-001;-1.014686450362206E-001;-4.932158626616001E-004;7.721449364908040E-004;
2.426500000000000E+009;1.677725911140442E-001;-1.016759574413300E-001;-5.509243346750736E-004;8.897453662939370E-004;
2.426666666666667E+009;1.680200845003128E-001;-1.020442619919777E-001;-2.889306051656604E-004;8.718015742488205E-004;
2.426833333333334E+009;1.682254076004028E-001;-1.022927835583687E-001;-5.770242423750460E-004;1.042074873112142E-003;
2.427000000000000E+009;1.682350039482117E-001;-1.026929616928101E-001;-4.464805533643812E-004;1.059949747286737E-003;
2.427166666666667E+009;1.682163327932358E-001;-1.026997640728951E-001;-4.576584324240685E-004;1.206696033477783E-003;
2.427333333333334E+009;1.680887192487717E-001;-1.029306501150131E-001;-4.754988476634026E-004;1.258937991224229E-003;
2.427500000000000E+009;1.678993701934815E-001;-1.032025590538979E-001;-3.137482271995395E-004;1.303488039411604E-003;
2.427666666666667E+009;1.674519777297974E-001;-1.030968427658081E-001;-3.591743297874928E-004;1.323664793744683E-003;
