# Version 1.00
#
freq[Hz];re:Trc1_S11;im:Trc1_S11;re:Trc2_S21;im:Trc2_S21;
2.400000000000000E+009;1.548752039670944E-001;1.068571805953980E-001;2.714712754823268E-004;-2.036655088886619E-003;
2.400166666666667E+009;1.546399742364883E-001;1.043837442994118E-001;6.816109089413658E-005;-2.143030986189842E-003;
2.400333333333334E+009;1.549693793058395E-001;1.020327657461166E-001;1.785781787475571E-004;-2.068238332867622E-003;
2.400500000000000E+009;1.549112498760223E-001;9.934286773204804E-002;-5.707734817406163E-005;-2.291305223479867E-003;
2.400666666666667E+009;1.549638509750366E-001;9.679961204528809E-002;-4.635618461179547E-005;-2.250381512567401E-003;
2.400833333333334E+009;1.550977975130081E-001;9.384471923112869E-002;-1.988902804441750E-004;-2.377821598201990E-003;
2.401000000000000E+009;1.553044468164444E-001;9.107299894094467E-002;-2.089518238790333E-004;-2.409402281045914E-003;
2.401166666666667E+009;1.552673876285553E-001;8.851227909326553E-002;-3.275093040429056E-004;-2.441180171445012E-003;
2.401333333333334E+009;1.557295173406601E-001;8.573295176029205E-002;-3.753462224267423E-004;-2.319809282198548E-003;
2.401500000000000E+009;1.561206579208374E-001;8.277521282434464E-002;-4.411456757225096E-004;-2.489758189767599E-003;
2.401666666666667E+009;1.566091626882553E-001;8.019880950450897E-002;-6.062116008251905E-004;-2.401107223704457E-003;
2.401833333333334E+009;1.571757942438126E-001;7.728728652000427E-002;-7.638001115992665E-004;-2.525037387385964E-003;
2.402000000000000E+009;1.580202132463455E-001;7.450846582651138E-002;-6.739147356711328E-004;-2.501716604456306E-003;
2.402166666666667E+009;1.587174683809280E-001;7.203971594572067E-002;-8.116436656564474E-004;-2.440569689497352E-003;
2.402333333333334E+009;1.598145663738251E-001;6.934616714715958E-002;-8.530045161023736E-004;-2.501563169062138E-003;
2.402500000000000E+009;1.608270257711411E-001;6.689196825027466E-002;-1.050351071171463E-003;-2.510630991309881E-003;
2.402666666666667E+009;1.621326208114624E-001;6.448917835950851E-002;-1.264413353055716E-003;-2.476412802934647E-003;
2.402833333333334E+009;1.634735912084580E-001;6.200708076357842E-002;-1.498389756307006E-003;-2.367885783314705E-003;
2.403000000000000E+009;1.649772077798843E-001;5.990076437592506E-002;-1.458598184399307E-003;-2.434122376143932E-003;
2.403166666666667E+009;1.665832102298737E-001;5.763764679431915E-002;-1.659362344071269E-003;-2.385428175330162E-003;
2.403333333333334E+009;1.680444478988648E-001;5.554860830307007E-002;-1.837912714108825E-003;-2.283752663061023E-003;
2.403500000000000E+009;1.698464304208756E-001;5.352100729942322E-002;-1.890056882984936E-003;-2.324351342394948E-003;
2.403666666666667E+009;1.716200262308121E-001;5.161036923527718E-002;-2.075525932013989E-003;-2.106606960296631E-003;
2.403833333333334E+009;1.732684969902039E-001;4.964189603924751E-002;-2.026492962613702E-003;-2.123675774782896E-003;
2.404000000000000E+009;1.746077239513397E-001;4.802275076508522E-002;-2.193248597905040E-003;-1.964521827176213E-003;
2.404166666666667E+009;1.765774935483933E-001;4.659789800643921E-002;-2.215618267655373E-003;-1.835846342146397E-003;
2.404333333333334E+009;1.780983060598373E-001;4.508351162075996E-002;-2.343726577237248E-003;-1.789715606719255E-003;
2.404500000000000E+009;1.799308508634567E-001;4.361603409051895E-002;-2.281632041558623E-003;-1.572217443026602E-003;
2.404666666666667E+009;1.812850683927536E-001;4.263701662421227E-002;-2.507852856069803E-003;-1.683319685980678E-003;
2.404833333333334E+009;1.829775422811508E-001;4.152263328433037E-002;-2.599694998934865E-003;-1.497973571531475E-003;
2.405000000000000E+009;1.843571662902832E-001;4.088320583105087E-002;-2.586652059108019E-003;-1.370028592646122E-003;
2.405166666666667E+009;1.858078390359879E-001;4.027312248945236E-002;-2.805550815537572E-003;-1.256749033927918E-003;
2.405333333333334E+009;1.872625797986984E-001;3.965752199292183E-002;-2.718451665714383E-003;-1.213785726577044E-003;
2.405500000000000E+009;1.884538084268570E-001;3.923381865024567E-002;-2.847051247954369E-003;-1.002380507998169E-003;
2.405666666666667E+009;1.897432208061218E-001;3.884138166904450E-002;-2.936320146545768E-003;-1.044764183461666E-003;
2.405833333333334E+009;1.911035180091858E-001;3.864353522658348E-002;-2.846198854967952E-003;-7.017793250270188E-004;
2.406000000000000E+009;1.920134723186493E-001;3.845460340380669E-002;-3.079924499616027E-003;-4.062687221448869E-004;
2.406166666666667E+009;1.929887086153030E-001;3.822167590260506E-002;-3.062112024053931E-003;-4.084063693881035E-004;
2.406333333333334E+009;1.938758045434952E-001;3.817722573876381E-002;-3.143617184832692E-003;-1.734295074129477E-004;
2.406500000000000E+009;1.946111023426056E-001;3.815565630793572E-002;-3.004116239026189E-003;3.052362444577739E-005;
2.406666666666667E+009;1.951899081468582E-001;3.833340108394623E-002;-3.183362307026982E-003;1.626015728106722E-004;
2.406833333333334E+009;1.956822723150253E-001;3.832117468118668E-002;-3.150895470753312E-003;3.827871696557850E-004;
2.407000000000000E+009;1.958982646465302E-001;3.841734677553177E-002;-2.922292100265622E-003;4.273046506568790E-004;
2.407166666666667E+009;1.963135451078415E-001;3.813258185982704E-002;-2.934493822976947E-003;7.962632225826383E-004;
2.407333333333334E+009;1.962576955556870E-001;3.822422400116921E-002;-2.842762973159552E-003;7.016445742920041E-004;
2.407500000000000E+009;1.961474269628525E-001;3.836787864565849E-002;-2.794694853946567E-003;1.026295940391719E-003;
2.407666666666667E+009;1.961209774017334E-001;3.815761208534241E-002;-2.664184197783470E-003;1.095002982765436E-003;
2.407833333333334E+009;1.956235915422440E-001;3.804841265082359E-002;-2.437181305140257E-003;1.205799751915038E-003;
2.408000000000000E+009;1.956388652324677E-001;3.768490999937058E-002;-2.383233048021793E-003;1.306637655943632E-003;
2.408166666666667E+009;1.950666755437851E-001;3.740893676877022E-002;-2.293622819706798E-003;1.463483320549130E-003;
2.408333333333334E+009;1.946555823087692E-001;3.682711720466614E-002;-2.262523397803307E-003;1.554581802338362E-003;
2.408500000000000E+009;1.938576400279999E-001;3.636991232633591E-002;-2.036789199337363E-003;1.607595011591911E-003;
2.408666666666667E+009;1.931733340024948E-001;3.577505052089691E-002;-1.881288131698966E-003;1.764027751050890E-003;
2.408833333333334E+009;1.925885677337647E-001;3.515473753213882E-002;-1.835559378378093E-003;1.838444150052965E-003;
2.409000000000000E+009;1.916042566299439E-001;3.398676589131355E-002;-1.574749941937625E-003;1.899695605970919E-003;
2.409166666666667E+009;1.906792074441910E-001;3.309305384755135E-002;-1.486312132328749E-003;1.915479777380824E-003;
2.409333333333334E+009;1.898063123226166E-001;3.195656090974808E-002;-1.396531937643886E-003;2.115060342475772E-003;
2.409500000000000E+009;1.886816024780273E-001;3.066237643361092E-002;-1.102159149013460E-003;2.049904083833098E-003;
2.409666666666667E+009;1.877270638942719E-001;2.928511798381805E-002;-1.018040347844362E-003;2.025814261287451E-003;
2.409833333333334E+009;1.865288317203522E-001;2.776359394192696E-002;-8.810543804429472E-004;1.921642920933664E-003;
2.410000000000000E+009;1.857211142778397E-001;2.594869397580624E-002;-6.731323665007949E-004;1.943096518516541E-003;
2.410166666666667E+009;1.846154779195786E-001;2.403330057859421E-002;-6.210636929608882E-004;1.865408848971129E-003;
2.410333333333334E+009;1.837983280420303E-001;2.236804366111755E-002;-3.349503094796091E-004;1.907530706375837E-003;
2.410500000000000E+009;1.828907281160355E-001;2.050811983644962E-002;-3.181991924066097E-004;1.932442537508905E-003;
2.410666666666667E+009;1.818929612636566E-001;1.819703541696072E-002;-1.068790152203292E-004;1.899385359138250E-003;
2.410833333333334E+009;1.813912838697434E-001;1.596867851912975E-002;-3.893479515681975E-005;1.757661229930818E-003;
2.411000000000000E+009;1.805243045091629E-001;1.395746227353811E-002;1.318199065281078E-004;1.581068732775748E-003;
2.411166666666667E+009;1.800628453493118E-001;1.164280716329813E-002;1.647488534217700E-004;1.575680798850954E-003;
2.411333333333334E+009;1.794474273920059E-001;9.180187247693539E-003;2.157443523174152E-004;1.574592199176550E-003;
2.411500000000000E+009;1.789835095405579E-001;6.673583295196295E-003;5.078064277768135E-004;1.438931445591152E-003;
2.411666666666667E+009;1.789654642343521E-001;4.544635768979788E-003;4.565759736578912E-004;1.271004206500948E-003;
2.411833333333334E+009;1.787069290876389E-001;2.113345311954618E-003;5.874084890820086E-004;1.211509690620005E-003;
2.412000000000000E+009;1.787274181842804E-001;-4.300939035601914E-004;6.973427953198552E-004;1.145067857578397E-003;
2.412166666666667E+009;1.789977401494980E-001;-2.788159297779203E-003;5.117154214531183E-004;7.272568764165044E-004;
2.412333333333334E+009;1.791375279426575E-001;-5.340842995792627E-003;5.645862547680736E-004;6.647505215369165E-004;
2.412500000000000E+009;1.794959455728531E-001;-7.767340168356895E-003;7.039154879748821E-004;6.293337210081518E-004;
2.412666666666667E+009;1.800390481948853E-001;-1.018901355564594E-002;5.398217472247779E-004;4.721078730653971E-004;
2.412833333333334E+009;1.807890832424164E-001;-1.259942445904017E-002;6.540348986163735E-004;3.339787072036415E-004;
2.413000000000000E+009;1.814957857131958E-001;-1.492217555642128E-002;3.817902179434896E-004;2.105729363393039E-004;
2.413166666666667E+009;1.823995411396027E-001;-1.705089770257473E-002;3.022325399797410E-004;7.271899812621996E-005;
2.413333333333334E+009;1.832296401262283E-001;-1.935797743499279E-002;3.713890328072012E-004;1.167234950116836E-004;
2.413500000000000E+009;1.841011494398117E-001;-2.157888747751713E-002;2.012944169109687E-004;-8.768665429670364E-005;
2.413666666666667E+009;1.853765100240707E-001;-2.383551374077797E-002;1.415849837940186E-004;-5.888214946025983E-005;
2.413833333333334E+009;1.865226328372955E-001;-2.580028213560581E-002;8.324559166794643E-005;-1.276562834391370E-004;
2.414000000000000E+009;1.874092817306519E-001;-2.757608518004417E-002;5.269738903734833E-005;-1.672517391853035E-004;
2.414166666666667E+009;1.887727975845337E-001;-2.947109751403332E-002;7.618915697094053E-005;-4.918413469567895E-005;
2.414333333333334E+009;1.897169947624207E-001;-3.122570179402828E-002;6.537836452480406E-005;-2.083188446704298E-004;
2.414500000000000E+009;1.910202354192734E-001;-3.257535025477409E-002;3.819573976215906E-005;-7.773820107104257E-005;
2.414666666666667E+009;1.920760571956635E-001;-3.420002758502960E-002;5.060375406173989E-005;-1.082483722711913E-004;
2.414833333333334E+009;1.931944042444229E-001;-3.561252728104591E-002;-1.873055880423635E-004;-2.344831445952877E-004;
2.415000000000000E+009;1.943338513374329E-001;-3.664691746234894E-002;-2.330935385543853E-004;-1.514838804723695E-004;
2.415166666666667E+009;1.953645795583725E-001;-3.773184120655060E-002;-2.871616452466697E-004;-3.624171949923039E-004;
2.415333333333334E+009;1.966073513031006E-001;-3.864861279726028E-002;-3.551401605363935E-004;-2.769601414911449E-004;
2.415500000000000E+009;1.976162642240524E-001;-3.943053632974625E-002;-4.211011109873653E-004;-3.140711633022875E-004;
2.415666666666667E+009;1.985389888286591E-001;-4.030526429414749E-002;-7.347724749706686E-004;-4.265953903086484E-004;
2.415833333333334E+009;1.994058340787888E-001;-4.076490923762322E-002;-6.909194053150713E-004;-2.456511720083654E-004;
2.416000000000000E+009;2.000674307346344E-001;-4.128331318497658E-002;-8.598425192758441E-004;-2.576000406406820E-004;
2.416166666666667E+009;2.008182704448700E-001;-4.189357534050942E-002;-8.543987642042339E-004;-2.704130893107504E-004;
2.416333333333334E+009;2.014604061841965E-001;-4.207686707377434E-002;-1.065551885403693E-003;-6.808245962020010E-005;
2.416500000000000E+009;2.019445151090622E-001;-4.242458567023277E-002;-9.643670637160540E-004;2.019951352849603E-004;
2.416666666666667E+009;2.021654397249222E-001;-4.281268268823624E-002;-1.121655921451747E-003;2.389562432654202E-004;
2.416833333333334E+009;2.022711783647537E-001;-4.275230690836906E-002;-9.631426655687392E-004;2.781407383736223E-004;
2.417000000000000E+009;2.024013549089432E-001;-4.289919137954712E-002;-1.211914466693997E-003;4.440352495294064E-004;
2.417166666666667E+009;2.021630257368088E-001;-4.284093528985977E-002;-1.127769239246845E-003;4.983692779205740E-004;
2.417333333333334E+009;2.018561214208603E-001;-4.266021400690079E-002;-1.162273576483131E-003;5.922792479395866E-004;
2.417500000000000E+009;2.014396786689758E-001;-4.274484887719154E-002;-1.105412608012557E-003;6.129849352873862E-004;
2.417666666666667E+009;2.009804993867874E-001;-4.251378029584885E-002;-9.937959257513285E-004;6.464158650487661E-004;
2.417833333333334E+009;2.005911171436310E-001;-4.240741953253746E-002;-9.907891508191824E-004;8.728710818104446E-004;
2.418000000000000E+009;1.998778432607651E-001;-4.222548380494118E-002;-9.642599616199732E-004;8.967993780970573E-004;
2.418166666666667E+009;1.990125477313995E-001;-4.209892824292183E-002;-9.278596262447536E-004;8.256793371401727E-004;
2.418333333333334E+009;1.981181800365448E-001;-4.206867888569832E-002;-8.679624879732728E-004;1.021189847961068E-003;
2.418500000000000E+009;1.970145553350449E-001;-4.209704324603081E-002;-7.025193772278726E-004;9.658758062869310E-004;
2.418666666666667E+009;1.961577087640762E-001;-4.209727793931961E-002;-6.361161940731108E-004;1.137614250183106E-003;
2.418833333333334E+009;1.948375999927521E-001;-4.218135401606560E-002;-6.158454925753176E-004;1.074659405276179E-003;
2.419000000000000E+009;1.935649812221527E-001;-4.237330704927445E-002;-5.430166493169963E-004;1.133079873397946E-003;
2.419166666666667E+009;1.923113614320755E-001;-4.280916228890419E-002;-4.565098788589239E-004;1.040182076394558E-003;
2.419333333333334E+009;1.908400505781174E-001;-4.317599162459374E-002;-3.453917452134192E-004;1.114192302338779E-003;
2.419500000000000E+009;1.894561052322388E-001;-4.364310204982758E-002;-3.831651119980961E-004;1.117066713050008E-003;
2.419666666666667E+009;1.879329681396484E-001;-4.458986595273018E-002;-3.373597282916307E-004;1.056027598679066E-003;
2.419833333333334E+009;1.862792968750000E-001;-4.535968229174614E-002;-2.911600749939680E-004;1.067179371602833E-003;
2.420000000000000E+009;1.847550421953201E-001;-4.610871523618698E-002;-6.715286144753918E-005;1.011113519780338E-003;
2.420166666666667E+009;1.831352412700653E-001;-4.710391536355019E-002;-1.237363612744957E-004;1.091910642571747E-003;
2.420333333333334E+009;1.814147531986237E-001;-4.834610596299171E-002;-6.716344796586782E-005;1.047115423716605E-003;
2.420500000000000E+009;1.798331886529923E-001;-4.949150234460831E-002;7.755497790640220E-005;1.101683592423797E-003;
2.420666666666667E+009;1.782708019018173E-001;-5.065563693642616E-002;6.757186201866716E-005;9.320901008322835E-004;
2.420833333333334E+009;1.765257716178894E-001;-5.238630995154381E-002;2.811179729178548E-005;9.736721403896809E-004;
2.421000000000000E+009;1.751351803541184E-001;-5.369834601879120E-002;9.177636820822954E-005;8.425304549746215E-004;
2.421166666666667E+009;1.738377064466476E-001;-5.559063702821732E-002;1.082552043953911E-004;8.499608375132084E-004;
2.421333333333334E+009;1.723761260509491E-001;-5.705673992633820E-002;8.198578143492341E-005;8.917185477912426E-004;
2.421500000000000E+009;1.710575819015503E-001;-5.890732258558273E-002;2.385006227996200E-004;6.920474115759134E-004;
2.421666666666667E+009;1.696877479553223E-001;-6.073942035436630E-002;2.316765749128535E-004;6.652164156548679E-004;
2.421833333333334E+009;1.688760071992874E-001;-6.264778226613998E-002;1.070374928531237E-004;7.796740392223001E-004;
2.422000000000000E+009;1.676498949527741E-001;-6.442397832870483E-002;2.355436154175550E-004;6.830033962614834E-004;
2.422166666666667E+009;1.668542772531509E-001;-6.662954390048981E-002;1.452643773518503E-004;4.218454123474658E-004;
2.422333333333334E+009;1.658686548471451E-001;-6.845053285360336E-002;2.841758541762829E-004;6.253903848119080E-004;
2.422500000000000E+009;1.652286797761917E-001;-7.042010128498077E-002;1.350788370473310E-004;4.274214152246714E-004;
2.422666666666667E+009;1.645009368658066E-001;-7.237976044416428E-002;1.827966771088541E-004;5.228446680121124E-004;
2.422833333333334E+009;1.640446186065674E-001;-7.452594488859177E-002;1.326894853264093E-004;3.118150634691119E-004;
2.423000000000000E+009;1.634102612733841E-001;-7.650482654571533E-002;4.095483745913953E-004;3.631580329965800E-004;
2.423166666666667E+009;1.631284803152084E-001;-7.857087254524231E-002;4.822515620617196E-005;3.402651345822960E-004;
2.423333333333334E+009;1.628926098346710E-001;-8.031585812568665E-002;-4.292618541512638E-005;2.761889190878719E-004;
2.423500000000000E+009;1.627512723207474E-001;-8.208789676427841E-002;1.244842569576576E-004;3.300930839031935E-004;
2.423666666666667E+009;1.629139631986618E-001;-8.390917629003525E-002;-1.595988287590444E-004;4.383044433780015E-004;
2.423833333333334E+009;1.627210527658463E-001;-8.575704693794251E-002;-2.899301180150360E-004;3.487085632514209E-004;
2.424000000000000E+009;1.628741621971130E-001;-8.757019042968750E-002;-2.726178499870002E-004;2.941536367870867E-004;
2.424166666666667E+009;1.630650311708450E-001;-8.890051394701004E-002;-2.097223041346297E-004;4.628727620001882E-004;
2.424333333333334E+009;1.631971746683121E-001;-9.036182612180710E-002;-2.903035492636263E-004;4.826968070119619E-004;
2.424500000000000E+009;1.635342240333557E-001;-9.216663986444473E-002;-2.849692536983639E-004;5.564593593589962E-004;
2.424666666666667E+009;1.638146787881851E-001;-9.350728988647461E-002;-1.075676700565964E-004;5.446319701150060E-004;
2.424833333333334E+009;1.643652468919754E-001;-9.469983726739883E-002;-4.004479851573706E-004;5.460636457428336E-004;
2.425000000000000E+009;1.646030098199844E-001;-9.577559679746628E-002;-3.126773226540536E-004;4.483752127271146E-004;
2.425166666666667E+009;1.651093810796738E-001;-9.686619788408279E-002;-1.992312463698909E-004;4.844540671911091E-004;
2.425333333333334E+009;1.653396487236023E-001;-9.770625084638596E-002;-2.003809786401689E-004;5.714777507819235E-004;
2.425500000000000E+009;1.658170670270920E-001;-9.875141829252243E-002;-4.140559467487037E-004;6.753044435754418E-004;
2.425666666666667E+009;1.662060618400574E-001;-9.946813434362412E-002;-5.154296522960067E-004;5.825491389259696E-004;
2.425833333333334E+009;1.664713472127914E-001;-1.001710891723633E-001;-3.329545725136995E-004;6.460953154601157E-004;
2.426000000000000E+009;1.668529212474823E-001;-1.006371751427651E-001;-4.330891824793071E-004;6.513275438919663E-004;
2.426166666666667E+009;1.672807782888413E-001;-1.011261492967606E-001;-5.129121127538383E-004;5.462525296024978E-004;
2.426333333333334E+009;1.674336940050125E-001;-1.016411706805229E-001;-5.605491460300982E-004;8.951306226663292E-004;
2.426500000000000E+009;1.677029728889465E-001;-1.018618419766426E-001;-5.645869532600045E-004;9.011953952722251E-004;
2.426666666666667E+009;1.679549813270569E-001;-1.021735444664955E-001;-6.398864206857979E-004;8.737418684177101E-004;
2.426833333333334E+009;1.680926978588104E-001;-1.025284156203270E-001;-4.758289724122733E-004;1.019321964122355E-003;
2.427000000000000E+009;1.681073307991028E-001;-1.026595830917358E-001;-4.975430201739073E-004;1.012411084957421E-003;
2.427166666666667E+009;1.680248826742172E-001;-1.028226613998413E-001;-3.847305779345334E-004;1.113824779167771E-003;
2.427333333333334E+009;1.679516583681107E-001;-1.030930578708649E-001;-4.371946270111948E-004;1.216905540786684E-003;
2.427500000000000E+009;1.676967889070511E-001;-1.032680943608284E-001;-4.342054016888142E-004;1.283862977288663E-003;
2.427666666666667E+009;1.674164086580277E-001;-1.032441630959511E-001;-3.611553111113608E-004;1.279342104680836E-003;
