# Version 1.00
#
freq[Hz];re:Trc1_S11;im:Trc1_S11;re:Trc2_S21;im:Trc2_S21;
2.400000000000000E+009;1.549459844827652E-001;1.065351143479347E-001;1.015498419292271E-004;-2.079187659546733E-003;
2.400166666666667E+009;1.547093391418457E-001;1.043314561247826E-001;9.008953929878771E-005;-2.166144317016006E-003;
2.400333333333334E+009;1.548439711332321E-001;1.020446941256523E-001;2.437005605315790E-004;-2.125258790329099E-003;
2.400500000000000E+009;1.547321081161499E-001;9.918885678052902E-002;-5.188024806557223E-005;-2.155032241716981E-003;
2.400666666666667E+009;1.551046371459961E-001;9.668081998825073E-002;-1.069703139364719E-004;-2.235146006569266E-003;
2.400833333333334E+009;1.550003141164780E-001;9.376689791679382E-002;-2.700471668504179E-004;-2.199239330366254E-003;
2.401000000000000E+009;1.552847176790237E-001;9.097306430339813E-002;-2.276764716953039E-004;-2.285221824422479E-003;
2.401166666666667E+009;1.554216742515564E-001;8.828064054250717E-002;-3.513953997753561E-004;-2.412425121292472E-003;
2.401333333333334E+009;1.557182967662811E-001;8.557496219873428E-002;-4.200854164082557E-004;-2.258548978716135E-003;
2.401500000000000E+009;1.562816798686981E-001;8.245739340782166E-002;-5.842679529450834E-004;-2.185337245464325E-003;
2.401666666666667E+009;1.565388590097427E-001;7.984893769025803E-002;-4.254074883647263E-004;-2.379547106102109E-003;
2.401833333333334E+009;1.571556031703949E-001;7.708130031824112E-002;-7.074644090607762E-004;-2.533369464799762E-003;
2.402000000000000E+009;1.581033170223236E-001;7.426012307405472E-002;-5.120312562212348E-004;-2.432943787425757E-003;
2.402166666666667E+009;1.587950587272644E-001;7.193493098020554E-002;-8.359153871424496E-004;-2.563236746937037E-003;
2.402333333333334E+009;1.598612070083618E-001;6.919451057910919E-002;-9.700618102215231E-004;-2.452354179695249E-003;
2.402500000000000E+009;1.610223650932312E-001;6.675390899181366E-002;-1.016227877698839E-003;-2.574828453361988E-003;
2.402666666666667E+009;1.620922833681107E-001;6.449189782142639E-002;-1.148188370279968E-003;-2.405651146546006E-003;
2.402833333333334E+009;1.634017527103424E-001;6.211167946457863E-002;-1.424822723492980E-003;-2.418831456452608E-003;
2.403000000000000E+009;1.650145798921585E-001;5.970741435885429E-002;-1.334992703050375E-003;-2.469706814736128E-003;
2.403166666666667E+009;1.667565852403641E-001;5.749620497226715E-002;-1.489801332354546E-003;-2.363977255299687E-003;
2.403333333333334E+009;1.681271046400070E-001;5.557761341333389E-002;-1.731255557388067E-003;-2.321459818631411E-003;
2.403500000000000E+009;1.699167937040329E-001;5.330202355980873E-002;-1.763920765370131E-003;-2.263319445773959E-003;
2.403666666666667E+009;1.716170012950897E-001;5.162849277257919E-002;-2.051307819783688E-003;-2.200979972258210E-003;
2.403833333333334E+009;1.732705235481262E-001;4.952148348093033E-002;-1.958650769665837E-003;-2.011283999308944E-003;
2.404000000000000E+009;1.748080253601074E-001;4.790544137358666E-002;-2.055206801742315E-003;-1.939648645929992E-003;
2.404166666666667E+009;1.766356080770493E-001;4.646462574601173E-002;-2.320607658475637E-003;-1.739830244332552E-003;
2.404333333333334E+009;1.782164424657822E-001;4.514709115028381E-002;-2.141311066225171E-003;-1.605064957402647E-003;
2.404500000000000E+009;1.795967817306519E-001;4.359961301088333E-002;-2.479841932654381E-003;-1.612512278370559E-003;
2.404666666666667E+009;1.814016103744507E-001;4.261372983455658E-002;-2.391091780737042E-003;-1.665709773078561E-003;
2.404833333333334E+009;1.830661743879318E-001;4.140936210751534E-002;-2.551560057327151E-003;-1.438773819245398E-003;
2.405000000000000E+009;1.843225359916687E-001;4.078439995646477E-002;-2.483764430508018E-003;-1.460294704884291E-003;
2.405166666666667E+009;1.857559829950333E-001;4.006166383624077E-002;-2.604337641969323E-003;-1.288613188080490E-003;
2.405333333333334E+009;1.872737258672714E-001;3.967205062508583E-002;-2.771565690636635E-003;-1.261297264136374E-003;
2.405500000000000E+009;1.885284930467606E-001;3.915733471512795E-002;-2.913197502493858E-003;-1.350423088297248E-003;
2.405666666666667E+009;1.897240430116653E-001;3.877017647027969E-002;-3.091845428571105E-003;-7.557425415143371E-004;
2.405833333333334E+009;1.909734755754471E-001;3.852925077080727E-002;-3.006240818649530E-003;-8.549790945835412E-004;
2.406000000000000E+009;1.919015198945999E-001;3.830172494053841E-002;-3.161544445902109E-003;-5.047769518569112E-004;
2.406166666666667E+009;1.929089426994324E-001;3.811272606253624E-002;-3.156989347189665E-003;-4.421004268806428E-004;
2.406333333333334E+009;1.939166486263275E-001;3.814070671796799E-002;-3.282363526523113E-003;-2.335052267881110E-004;
2.406500000000000E+009;1.944850981235504E-001;3.812234848737717E-002;-3.049769205972552E-003;9.503743967798073E-006;
2.406666666666667E+009;1.950422972440720E-001;3.815605118870735E-002;-3.043643198907375E-003;1.537506905151531E-004;
2.406833333333334E+009;1.955620348453522E-001;3.810464963316917E-002;-3.032378386706114E-003;4.703189188148826E-004;
2.407000000000000E+009;1.960067003965378E-001;3.828083351254463E-002;-3.060225863009691E-003;4.137651703786105E-004;
2.407166666666667E+009;1.962625831365585E-001;3.806804493069649E-002;-2.862924477085471E-003;5.739805055782199E-004;
2.407333333333334E+009;1.962297707796097E-001;3.813434764742851E-002;-2.823145594447851E-003;6.994808209128678E-004;
2.407500000000000E+009;1.962282955646515E-001;3.818054124712944E-002;-2.692550420761108E-003;9.363512508571148E-004;
2.407666666666667E+009;1.961992233991623E-001;3.807169198989868E-002;-2.642847131937742E-003;1.069546211510897E-003;
2.407833333333334E+009;1.956242471933365E-001;3.795386850833893E-002;-2.569943666458130E-003;1.254754955880344E-003;
2.408000000000000E+009;1.954712718725205E-001;3.763253614306450E-002;-2.469838131219149E-003;1.394834602251649E-003;
2.408166666666667E+009;1.948647946119309E-001;3.725753724575043E-002;-2.272382844239473E-003;1.291043125092983E-003;
2.408333333333334E+009;1.945259720087051E-001;3.678223118185997E-002;-2.286217175424099E-003;1.417686115019023E-003;
2.408500000000000E+009;1.939080953598023E-001;3.639213740825653E-002;-2.041491912677884E-003;1.696072053164244E-003;
2.408666666666667E+009;1.930917650461197E-001;3.578365594148636E-002;-1.846141414716840E-003;1.669744960963726E-003;
2.408833333333334E+009;1.924877464771271E-001;3.490950167179108E-002;-1.848993124440312E-003;1.711708959192038E-003;
2.409000000000000E+009;1.914087384939194E-001;3.398280590772629E-002;-1.472039963118732E-003;1.808301778510213E-003;
2.409166666666667E+009;1.906592994928360E-001;3.299595415592194E-002;-1.445973291993141E-003;1.897530397400260E-003;
2.409333333333334E+009;1.898013949394226E-001;3.193373978137970E-002;-1.321198767982423E-003;2.003382192924619E-003;
2.409500000000000E+009;1.886394768953323E-001;3.063245303928852E-002;-1.076855463907123E-003;2.037582453340292E-003;
2.409666666666667E+009;1.875739544630051E-001;2.918135747313500E-002;-9.299097582697868E-004;2.020702930167317E-003;
2.409833333333334E+009;1.865462362766266E-001;2.758571505546570E-002;-8.247321820817888E-004;1.987681025639176E-003;
2.410000000000000E+009;1.856825351715088E-001;2.592447213828564E-002;-6.588702090084553E-004;2.032117918133736E-003;
2.410166666666667E+009;1.845227479934692E-001;2.417716942727566E-002;-5.014214548282325E-004;1.910530962049961E-003;
2.410333333333334E+009;1.836938261985779E-001;2.214655466377735E-002;-3.845093597192317E-004;2.005022019147873E-003;
2.410500000000000E+009;1.827296465635300E-001;2.037047594785690E-002;-2.066774468403310E-004;1.868443796411157E-003;
2.410666666666667E+009;1.819279640913010E-001;1.804897375404835E-002;-5.383689131122083E-005;1.901332288980484E-003;
2.410833333333334E+009;1.812682598829269E-001;1.595385000109673E-002;4.988795990357176E-005;1.655722269788384E-003;
2.411000000000000E+009;1.804333031177521E-001;1.361899357289076E-002;-6.781821866752580E-005;1.671070349402726E-003;
2.411166666666667E+009;1.798315793275833E-001;1.156900264322758E-002;2.621435560286045E-004;1.525472267530859E-003;
2.411333333333334E+009;1.794451326131821E-001;8.877948857843876E-003;3.735043574124575E-004;1.469906070269644E-003;
2.411500000000000E+009;1.788937747478485E-001;6.684048566967249E-003;4.732062807306647E-004;1.481184968724847E-003;
2.411666666666667E+009;1.788018643856049E-001;4.222540184855461E-003;4.585171991493553E-004;1.200890634208918E-003;
2.411833333333334E+009;1.786045730113983E-001;2.046825829893351E-003;5.893647321499884E-004;1.043314929120243E-003;
2.412000000000000E+009;1.786807924509049E-001;-5.495491786859930E-004;6.264852709136903E-004;8.762539364397526E-004;
2.412166666666667E+009;1.788113564252853E-001;-2.913976088166237E-003;7.060874486342073E-004;9.900537552312017E-004;
2.412333333333334E+009;1.791168600320816E-001;-5.488649941980839E-003;6.390982889570296E-004;6.611340795643628E-004;
2.412500000000000E+009;1.793992668390274E-001;-7.769933901727200E-003;7.571528549306095E-004;6.338572129607201E-004;
2.412666666666667E+009;1.800117939710617E-001;-1.017084158957005E-002;7.050971616990864E-004;3.950708196498454E-004;
2.412833333333334E+009;1.806156039237976E-001;-1.261473260819912E-002;5.636975984089077E-004;4.064943932462484E-004;
2.413000000000000E+009;1.813701540231705E-001;-1.494491938501597E-002;6.211994332261384E-004;8.869083831086755E-005;
2.413166666666667E+009;1.822105944156647E-001;-1.717689074575901E-002;3.462253080215305E-004;2.834720544342417E-005;
2.413333333333334E+009;1.830462366342545E-001;-1.935789175331593E-002;2.691083936952055E-004;-9.911399683915079E-005;
2.413500000000000E+009;1.838709264993668E-001;-2.163198590278626E-002;2.660093596205115E-004;-8.269797399407253E-005;
2.413666666666667E+009;1.852197051048279E-001;-2.374290116131306E-002;2.416441275272518E-004;-2.871922151825856E-005;
2.413833333333334E+009;1.862827390432358E-001;-2.576447091996670E-002;1.593014894751832E-005;-1.645211450522766E-004;
2.414000000000000E+009;1.873388141393662E-001;-2.757465094327927E-002;9.726774442242459E-005;-1.863222278188914E-004;
2.414166666666667E+009;1.885444521903992E-001;-2.938307449221611E-002;5.641295501845889E-005;-6.593927537323907E-005;
2.414333333333334E+009;1.896428167819977E-001;-3.129795193672180E-002;3.641153307398781E-005;-1.433485449524596E-004;
2.414500000000000E+009;1.907979995012283E-001;-3.269533067941666E-002;5.716413943446241E-005;-3.046729034394957E-005;
2.414666666666667E+009;1.918920129537582E-001;-3.419524803757668E-002;-8.804479875834659E-005;-2.641429309733212E-004;
2.414833333333334E+009;1.930435001850128E-001;-3.545364364981651E-002;-1.054983513313346E-004;-1.927427365444601E-004;
2.415000000000000E+009;1.940273493528366E-001;-3.674770519137383E-002;-3.401210415177047E-004;-1.435014855815098E-004;
2.415166666666667E+009;1.952896416187286E-001;-3.792694211006165E-002;-1.504765969002619E-004;-4.337636928539723E-004;
2.415333333333334E+009;1.963533312082291E-001;-3.870034590363503E-002;-4.249463090673089E-004;-3.911177045665681E-004;
2.415500000000000E+009;1.975108534097672E-001;-3.926394134759903E-002;-5.506636807695031E-004;-5.841797683387995E-004;
2.415666666666667E+009;1.985620260238648E-001;-4.013563320040703E-002;-6.545656360685825E-004;-4.663068102672696E-004;
2.415833333333334E+009;1.993600428104401E-001;-4.078089073300362E-002;-6.870276993140578E-004;-3.149806580040604E-004;
2.416000000000000E+009;1.999437808990479E-001;-4.132593423128128E-002;-8.417397621087730E-004;-1.913822925416753E-004;
2.416166666666667E+009;2.006113082170487E-001;-4.188928008079529E-002;-8.916932274587452E-004;-1.557476789457724E-004;
2.416333333333334E+009;2.013628333806992E-001;-4.211328923702240E-002;-1.088268822059035E-003;-1.023352670017630E-004;
2.416500000000000E+009;2.017600238323212E-001;-4.235789924860001E-002;-1.155004138126969E-003;5.081494236947037E-005;
2.416666666666667E+009;2.021000981330872E-001;-4.279006272554398E-002;-1.164520625025034E-003;3.139407781418413E-004;
2.416833333333334E+009;2.021636664867401E-001;-4.269017651677132E-002;-1.226063468493521E-003;2.289975527673960E-004;
2.417000000000000E+009;2.022521495819092E-001;-4.283522441983223E-002;-1.144306268543005E-003;2.846465795300901E-004;
2.417166666666667E+009;2.020018696784973E-001;-4.271971434354782E-002;-1.122781424783170E-003;4.155721107963473E-004;
2.417333333333334E+009;2.016753405332565E-001;-4.257942736148834E-002;-1.141123124398291E-003;5.602126475423574E-004;
2.417500000000000E+009;2.015020251274109E-001;-4.258180409669876E-002;-1.223163097165525E-003;6.922143511474133E-004;
2.417666666666667E+009;2.009299397468567E-001;-4.242668300867081E-002;-9.948705555871129E-004;7.297947886399925E-004;
2.417833333333334E+009;2.002565860748291E-001;-4.230153933167458E-002;-9.105526260100305E-004;7.548209978267551E-004;
2.418000000000000E+009;1.997397541999817E-001;-4.212006181478500E-002;-1.042122370563448E-003;8.809392456896603E-004;
2.418166666666667E+009;1.988720744848251E-001;-4.206485673785210E-002;-8.831371669657528E-004;9.093214757740498E-004;
2.418333333333334E+009;1.980253458023071E-001;-4.191420599818230E-002;-9.692174498923123E-004;9.587157983332872E-004;
2.418500000000000E+009;1.969584673643112E-001;-4.197971895337105E-002;-7.283522281795740E-004;9.388548205606639E-004;
2.418666666666667E+009;1.960666030645371E-001;-4.188150167465210E-002;-7.136879721656442E-004;1.118019106797874E-003;
2.418833333333334E+009;1.948222517967224E-001;-4.202254861593247E-002;-5.063615972176194E-004;1.129284733906388E-003;
2.419000000000000E+009;1.934650838375092E-001;-4.223316907882690E-002;-6.255813059397042E-004;1.179986400529742E-003;
2.419166666666667E+009;1.921576559543610E-001;-4.272300750017166E-002;-4.517585621215403E-004;1.068858429789543E-003;
2.419333333333334E+009;1.908598244190216E-001;-4.314046353101730E-002;-4.202400450594723E-004;1.120861852541566E-003;
2.419500000000000E+009;1.893099099397659E-001;-4.367097467184067E-002;-2.793351013679057E-004;1.024096389301121E-003;
2.419666666666667E+009;1.878011524677277E-001;-4.442198574542999E-002;-2.062582061626017E-004;1.121051609516144E-003;
2.419833333333334E+009;1.861561685800552E-001;-4.513636603951454E-002;-2.543106384109706E-004;1.092895632609725E-003;
2.420000000000000E+009;1.846488565206528E-001;-4.606001079082489E-002;-1.628946483833715E-004;1.093333819881082E-003;
2.420166666666667E+009;1.830608099699020E-001;-4.699500277638435E-002;-2.092302893288434E-004;1.115019898861647E-003;
2.420333333333334E+009;1.813745200634003E-001;-4.824014753103256E-002;3.358899630256929E-005;9.929743828251958E-004;
2.420500000000000E+009;1.798444837331772E-001;-4.946373403072357E-002;5.861669342266396E-005;1.048342324793339E-003;
2.420666666666667E+009;1.782360970973969E-001;-5.055676773190498E-002;1.163053821073845E-004;1.119919004850090E-003;
2.420833333333334E+009;1.766211688518524E-001;-5.206526443362236E-002;-2.719756594160572E-005;9.978793095797300E-004;
2.421000000000000E+009;1.752218455076218E-001;-5.353324487805367E-002;1.179229439003393E-004;1.031345571391285E-003;
2.421166666666667E+009;1.737465262413025E-001;-5.537795275449753E-002;1.222026330651715E-004;8.601775043644011E-004;
2.421333333333334E+009;1.722921878099442E-001;-5.667484924197197E-002;1.341642055194825E-004;7.553513278253377E-004;
2.421500000000000E+009;1.708648651838303E-001;-5.884859710931778E-002;2.077767421724275E-004;7.725493633188307E-004;
2.421666666666667E+009;1.697260737419128E-001;-6.053484231233597E-002;3.104486386291683E-004;7.290719659067690E-004;
2.421833333333334E+009;1.686965823173523E-001;-6.240848451852799E-002;2.004584530368447E-004;7.094228640198708E-004;
2.422000000000000E+009;1.675888001918793E-001;-6.430023908615112E-002;2.665391075424850E-004;6.829170743003488E-004;
2.422166666666667E+009;1.667942851781845E-001;-6.652121245861054E-002;2.101281279465184E-004;5.800073849968612E-004;
2.422333333333334E+009;1.656882166862488E-001;-6.840826570987701E-002;1.532270689494908E-004;5.651388200931251E-004;
2.422500000000000E+009;1.651936322450638E-001;-7.036802172660828E-002;2.696108131203800E-004;5.625368212349713E-004;
2.422666666666667E+009;1.644173413515091E-001;-7.228889316320419E-002;1.011852436931804E-004;4.684899759013206E-004;
2.422833333333334E+009;1.639644354581833E-001;-7.441167533397675E-002;1.672704529482871E-004;4.212094354443252E-004;
2.423000000000000E+009;1.635582298040390E-001;-7.645671814680100E-002;1.816119583963882E-005;2.729257394094020E-004;
2.423166666666667E+009;1.632772386074066E-001;-7.825482636690140E-002;-3.083653427893296E-005;4.812722036149353E-004;
2.423333333333334E+009;1.629591584205627E-001;-8.012700825929642E-002;-1.010272753774189E-004;3.355520020704716E-004;
2.423500000000000E+009;1.628773212432861E-001;-8.199875056743622E-002;-1.329765218542889E-004;4.102440434508026E-004;
2.423666666666667E+009;1.628912091255188E-001;-8.385685086250305E-002;-1.683334412518889E-004;2.727773389779031E-004;
2.423833333333334E+009;1.627438217401505E-001;-8.560964465141296E-002;-2.288643008796498E-004;4.236790409777314E-004;
2.424000000000000E+009;1.628829836845398E-001;-8.735599368810654E-002;-2.609887160360813E-004;4.017544561065733E-004;
2.424166666666667E+009;1.630856841802597E-001;-8.877088129520416E-002;-3.035085683222860E-004;4.836763546336442E-004;
2.424333333333334E+009;1.632808893918991E-001;-9.036153554916382E-002;-1.262324076378718E-004;3.766359586734325E-004;
2.424500000000000E+009;1.636772155761719E-001;-9.202197939157486E-002;-2.267196396132931E-004;4.459766496438533E-004;
2.424666666666667E+009;1.638980954885483E-001;-9.325810521841049E-002;-3.100030880887061E-004;5.981899448670447E-004;
2.424833333333334E+009;1.644937694072723E-001;-9.451372921466827E-002;-1.597596856299788E-004;5.358714261092246E-004;
2.425000000000000E+009;1.648184955120087E-001;-9.567256271839142E-002;-2.854694903362542E-004;6.062925094738603E-004;
2.425166666666667E+009;1.650886684656143E-001;-9.677202254533768E-002;-3.833947121165693E-004;4.910495481453836E-004;
2.425333333333334E+009;1.653566211462021E-001;-9.772527217864990E-002;-3.622000804170966E-004;6.634542951360345E-004;
2.425500000000000E+009;1.658699214458466E-001;-9.865577518939972E-002;-3.655990003608167E-004;6.559240282513201E-004;
2.425666666666667E+009;1.662544459104538E-001;-9.928077459335327E-002;-3.234186442568898E-004;5.716884043067694E-004;
2.425833333333334E+009;1.665920466184616E-001;-1.000936627388001E-001;-3.909821389243007E-004;5.811943556182087E-004;
2.426000000000000E+009;1.669532209634781E-001;-1.005067303776741E-001;-4.762580792885274E-004;7.319162832573056E-004;
2.426166666666667E+009;1.673939228057861E-001;-1.010241284966469E-001;-5.768442642875016E-004;7.678526453673840E-004;
2.426333333333334E+009;1.674622297286987E-001;-1.014882326126099E-001;-3.715211641974747E-004;9.273813921026886E-004;
2.426500000000000E+009;1.677921265363693E-001;-1.018136665225029E-001;-4.022703215014190E-004;9.400281123816967E-004;
2.426666666666667E+009;1.680522561073303E-001;-1.020100489258766E-001;-4.088452260475606E-004;9.270438458770514E-004;
2.426833333333334E+009;1.681758016347885E-001;-1.023822426795960E-001;-4.548076540231705E-004;9.667785489000380E-004;
2.427000000000000E+009;1.681989878416061E-001;-1.025854349136353E-001;-5.142696900293231E-004;1.201167819090188E-003;
2.427166666666667E+009;1.681912839412689E-001;-1.025959700345993E-001;-5.207333015277982E-004;1.210944610647857E-003;
2.427333333333334E+009;1.680642217397690E-001;-1.029312089085579E-001;-3.692052268888801E-004;1.347652170807123E-003;
2.427500000000000E+009;1.678185760974884E-001;-1.031796634197235E-001;-4.353094263933599E-004;1.296164700761437E-003;
2.427666666666667E+009;1.674313247203827E-001;-1.032442599534988E-001;-1.957339700311422E-004;1.386495423503220E-003;
