# Version 1.00
#
freq[Hz];re:Trc1_S11;im:Trc1_S11;re:Trc2_S21;im:Trc2_S21;
2.400000000000000E+009;1.574020832777023E-001;6.259994208812714E-002;-2.526401542127132E-003;-4.348859365563840E-004;
2.400166666666667E+009;1.572394371032715E-001;6.116169691085815E-002;-2.559045795351267E-003;-3.479324805084616E-004;
2.400333333333334E+009;1.572252660989761E-001;5.906946212053299E-002;-2.548246877267957E-003;-3.721099637914449E-004;
2.400500000000000E+009;1.572263985872269E-001;5.717336386442184E-002;-2.457457594573498E-003;-3.679596120491624E-004;
2.400666666666667E+009;1.571435034275055E-001;5.519321188330650E-002;-2.550246426835656E-003;-3.655427717603743E-004;
2.400833333333334E+009;1.572670489549637E-001;5.329156666994095E-002;-2.356688492000103E-003;-1.834779395721853E-004;
2.401000000000000E+009;1.572726666927338E-001;5.129555240273476E-002;-2.471710089594126E-003;-2.080392296193168E-004;
2.401166666666667E+009;1.575936973094940E-001;4.912903159856796E-002;-2.391414949670434E-003;-1.030068597174250E-004;
2.401333333333334E+009;1.574578881263733E-001;4.704719781875610E-002;-2.286617876961827E-003;-5.639399023493752E-005;
2.401500000000000E+009;1.580021530389786E-001;4.495469480752945E-002;-2.387556945905089E-003;7.371904939645901E-005;
2.401666666666667E+009;1.583391278982163E-001;4.319468513131142E-002;-2.395779127255082E-003;4.297482519177720E-005;
2.401833333333334E+009;1.586443334817886E-001;4.104612395167351E-002;-2.344556618481875E-003;8.980879647424445E-005;
2.402000000000000E+009;1.590913981199265E-001;3.897552937269211E-002;-2.424261532723904E-003;1.162995249615051E-004;
2.402166666666667E+009;1.597224324941635E-001;3.687329962849617E-002;-2.453577239066362E-003;2.600199368316680E-004;
2.402333333333334E+009;1.600893437862396E-001;3.507872298359871E-002;-2.337327226996422E-003;2.178855211241171E-004;
2.402500000000000E+009;1.610268950462341E-001;3.336932510137558E-002;-2.276922343298793E-003;1.844955550041050E-004;
2.402666666666667E+009;1.617000102996826E-001;3.145644441246986E-002;-2.399058314040303E-003;1.774005068000406E-004;
2.402833333333334E+009;1.626173555850983E-001;2.988722175359726E-002;-2.477946225553751E-003;3.856852708850056E-004;
2.403000000000000E+009;1.634201854467392E-001;2.840463072061539E-002;-2.503294963389635E-003;3.802716091740876E-004;
2.403166666666667E+009;1.643575578927994E-001;2.664891630411148E-002;-2.539205132052302E-003;3.936987777706236E-004;
2.403333333333334E+009;1.653287261724472E-001;2.515146695077419E-002;-2.526329131796956E-003;5.271698464639485E-004;
2.403500000000000E+009;1.662331074476242E-001;2.394057437777519E-002;-2.641845261678100E-003;5.471852491609752E-004;
2.403666666666667E+009;1.671585291624069E-001;2.233804203569889E-002;-2.463541692122817E-003;7.655014633201063E-004;
2.403833333333334E+009;1.683125346899033E-001;2.114163339138031E-002;-2.674314193427563E-003;8.378117927350104E-004;
2.404000000000000E+009;1.692551970481873E-001;2.007082849740982E-002;-2.544672926887870E-003;9.491688106209040E-004;
2.404166666666667E+009;1.702244430780411E-001;1.895199716091156E-002;-2.522571943700314E-003;1.073463121429086E-003;
2.404333333333334E+009;1.711504310369492E-001;1.796862855553627E-002;-2.639340003952384E-003;1.087463926523924E-003;
2.404500000000000E+009;1.722035855054855E-001;1.694598607718945E-002;-2.504376694560051E-003;1.269011059775949E-003;
2.404666666666667E+009;1.732923239469528E-001;1.617498137056828E-002;-2.459115348756313E-003;1.590702100656927E-003;
2.404833333333334E+009;1.740521192550659E-001;1.541953999549151E-002;-2.496066503226757E-003;1.518522854894400E-003;
2.405000000000000E+009;1.749024093151093E-001;1.478949096053839E-002;-2.501208335161209E-003;1.778816804289818E-003;
2.405166666666667E+009;1.758845448493958E-001;1.411048043519259E-002;-2.207059413194656E-003;1.868683844804764E-003;
2.405333333333334E+009;1.768534183502197E-001;1.341032236814499E-002;-2.208144403994083E-003;2.041019964963198E-003;
2.405500000000000E+009;1.775412410497665E-001;1.309385430067778E-002;-2.217585453763604E-003;2.215155167505145E-003;
2.405666666666667E+009;1.782787293195725E-001;1.263417117297649E-002;-1.828482956625521E-003;2.334779128432274E-003;
2.405833333333334E+009;1.787417382001877E-001;1.226984523236752E-002;-2.005212940275669E-003;2.363466424867511E-003;
2.406000000000000E+009;1.793292909860611E-001;1.186835207045078E-002;-1.895061810500920E-003;2.479532500728965E-003;
2.406166666666667E+009;1.796747297048569E-001;1.169785484671593E-002;-1.729325391352177E-003;2.638826379552484E-003;
2.406333333333334E+009;1.802883595228195E-001;1.133357826620340E-002;-1.440641703084111E-003;2.715371316298842E-003;
2.406500000000000E+009;1.804514527320862E-001;1.091009564697743E-002;-1.477607060223818E-003;2.882204484194517E-003;
2.406666666666667E+009;1.805634945631027E-001;1.084941998124123E-002;-1.188396592624486E-003;2.891174284741283E-003;
2.406833333333334E+009;1.807982176542282E-001;1.037583407014608E-002;-1.164495712146163E-003;3.016136353835464E-003;
2.407000000000000E+009;1.808850318193436E-001;1.010865252465010E-002;-9.977217996492982E-004;3.064529038965702E-003;
2.407166666666667E+009;1.809742748737335E-001;9.793626144528389E-003;-7.511212024837732E-004;2.983334241434932E-003;
2.407333333333334E+009;1.807068884372711E-001;9.353892877697945E-003;-5.424391129054129E-004;3.132333513349295E-003;
2.407500000000000E+009;1.805158704519272E-001;8.982391096651554E-003;-3.417005937080830E-004;3.036211943253875E-003;
2.407666666666667E+009;1.803000122308731E-001;8.584076538681984E-003;-2.105319290421903E-004;3.111109836027026E-003;
2.407833333333334E+009;1.798253804445267E-001;7.772331126034260E-003;-1.380188332404941E-004;3.101760754361749E-003;
2.408000000000000E+009;1.795517802238464E-001;7.366472855210304E-003;1.803672203095630E-004;2.928065368905664E-003;
2.408166666666667E+009;1.789654791355133E-001;6.899801548570395E-003;2.074283984256908E-004;2.989038825035095E-003;
2.408333333333334E+009;1.787590533494949E-001;6.036160979419947E-003;3.974502906203270E-004;2.955513773486018E-003;
2.408500000000000E+009;1.780873984098434E-001;5.169583950191736E-003;7.983231334947050E-004;2.813995350152254E-003;
2.408666666666667E+009;1.773845404386520E-001;4.269837401807308E-003;5.089594633318484E-004;2.729186788201332E-003;
2.408833333333334E+009;1.768210232257843E-001;3.277539508417249E-003;7.553062750957906E-004;2.536565531045198E-003;
2.409000000000000E+009;1.761423200368881E-001;2.350468421354890E-003;7.907573599368334E-004;2.532401122152805E-003;
2.409166666666667E+009;1.754331588745117E-001;1.164766261354089E-003;9.830929338932037E-004;2.576858503744006E-003;
2.409333333333334E+009;1.747969985008240E-001;-1.456846075598151E-004;1.087627606466413E-003;2.408710075542331E-003;
2.409500000000000E+009;1.739985644817352E-001;-1.491347793489695E-003;1.094682840630412E-003;2.183965872973204E-003;
2.409666666666667E+009;1.732034534215927E-001;-2.895882120355964E-003;1.370836514979601E-003;1.990039600059390E-003;
2.409833333333334E+009;1.724805533885956E-001;-4.295670427381992E-003;1.194885582663119E-003;1.983650261536241E-003;
2.410000000000000E+009;1.719917058944702E-001;-5.833043716847897E-003;1.282850746065378E-003;1.880678697489202E-003;
2.410166666666667E+009;1.711895167827606E-001;-7.408625911921263E-003;1.393700484186411E-003;1.788627472706139E-003;
2.410333333333334E+009;1.705908179283142E-001;-9.040752425789833E-003;1.644998672418296E-003;1.531101414002478E-003;
2.410500000000000E+009;1.701101511716843E-001;-1.080845016986132E-002;1.583016710355878E-003;1.527445274405181E-003;
2.410666666666667E+009;1.696809530258179E-001;-1.275678351521492E-002;1.464059227146208E-003;1.467766938731074E-003;
2.410833333333334E+009;1.692247390747070E-001;-1.443816069513559E-002;1.525400672107935E-003;1.348745310679078E-003;
2.411000000000000E+009;1.687308996915817E-001;-1.612297631800175E-002;1.665821415372193E-003;1.288485247641802E-003;
2.411166666666667E+009;1.683868914842606E-001;-1.814999431371689E-002;1.574658323079348E-003;1.079927664250135E-003;
2.411333333333334E+009;1.681321710348129E-001;-2.023922838270664E-002;1.447018468752503E-003;1.085632946342230E-003;
2.411500000000000E+009;1.679989397525787E-001;-2.234974130988121E-002;1.591771608218551E-003;9.831682546064258E-004;
2.411666666666667E+009;1.678837090730667E-001;-2.417870052158833E-002;1.400891109369695E-003;8.751592249609530E-004;
2.411833333333334E+009;1.679205596446991E-001;-2.602452598512173E-002;1.509898225776851E-003;7.394808344542980E-004;
2.412000000000000E+009;1.680183708667755E-001;-2.809228375554085E-002;1.489054062403739E-003;6.661943043582141E-004;
2.412166666666667E+009;1.680648624897003E-001;-3.021453507244587E-002;1.432116841897368E-003;6.565523799508810E-004;
2.412333333333334E+009;1.685103923082352E-001;-3.198868408799171E-002;1.423060777597129E-003;4.204910364933312E-004;
2.412500000000000E+009;1.686226725578308E-001;-3.381738066673279E-002;1.337873633019626E-003;3.836935793515295E-004;
2.412666666666667E+009;1.688714474439621E-001;-3.586286306381226E-002;1.374427229166031E-003;9.307059372076765E-005;
2.412833333333334E+009;1.692893058061600E-001;-3.763943165540695E-002;1.401848159730434E-003;1.809708046494052E-004;
2.413000000000000E+009;1.695973575115204E-001;-3.940133005380631E-002;1.343547250144184E-003;1.616399240447208E-004;
2.413166666666667E+009;1.701918095350266E-001;-4.119246453046799E-002;1.279082498513162E-003;1.743603061186150E-004;
2.413333333333334E+009;1.705053895711899E-001;-4.283652827143669E-002;1.215902389958501E-003;3.721233588294126E-005;
2.413500000000000E+009;1.711615175008774E-001;-4.460537433624268E-002;1.185507280752063E-003;-1.024443699861877E-004;
2.413666666666667E+009;1.717199981212616E-001;-4.619292169809341E-002;8.650886011309922E-004;-1.170682735391893E-004;
2.413833333333334E+009;1.722297668457031E-001;-4.758172482252121E-002;9.609876433387399E-004;-1.329879596596584E-004;
2.414000000000000E+009;1.728186309337616E-001;-4.892678186297417E-002;9.327222360298038E-004;-1.761498278938234E-004;
2.414166666666667E+009;1.733828783035278E-001;-5.019553750753403E-002;8.999754209071398E-004;-1.359536254312843E-004;
2.414333333333334E+009;1.739536821842194E-001;-5.147152394056320E-002;8.448599837720394E-004;-2.027182054007426E-004;
2.414500000000000E+009;1.746461689472199E-001;-5.266737192869186E-002;6.675980985164642E-004;-2.519025292713195E-004;
2.414666666666667E+009;1.750566959381104E-001;-5.354006588459015E-002;6.331506883725524E-004;-1.298534480156377E-004;
2.414833333333334E+009;1.756365746259689E-001;-5.468941479921341E-002;5.947495228610933E-004;-2.100123674608767E-004;
2.415000000000000E+009;1.760413050651550E-001;-5.545762553811073E-002;4.707289917860180E-004;-4.125760824535973E-005;
2.415166666666667E+009;1.763444244861603E-001;-5.631352216005325E-002;4.489852290134877E-004;-1.693239028099924E-004;
2.415333333333334E+009;1.769477427005768E-001;-5.697946995496750E-002;5.031934706494212E-004;-1.573998888488859E-004;
2.415500000000000E+009;1.772615462541580E-001;-5.751068890094757E-002;3.867576597258449E-004;-3.370040212757886E-005;
2.415666666666667E+009;1.774523705244064E-001;-5.805137753486633E-002;4.024362715426832E-004;-6.900851440150291E-005;
2.415833333333334E+009;1.778230816125870E-001;-5.851035937666893E-002;3.801480343099684E-004;-1.220755511894822E-004;
2.416000000000000E+009;1.777983456850052E-001;-5.899733304977417E-002;3.189559211023152E-004;6.905115878907964E-005;
2.416166666666667E+009;1.781096458435059E-001;-5.924938991665840E-002;3.784038417506963E-004;1.767861613188870E-005;
2.416333333333334E+009;1.781125217676163E-001;-5.962449312210083E-002;2.841055102180690E-004;9.893553396977950E-006;
2.416500000000000E+009;1.779138743877411E-001;-5.988655611872673E-002;2.257276355521753E-004;1.804252387955785E-004;
2.416666666666667E+009;1.776493340730667E-001;-5.999758094549179E-002;2.160556759918109E-004;3.930278762709349E-005;
2.416833333333334E+009;1.776051670312882E-001;-6.040470674633980E-002;2.271780831506476E-004;4.739352880278602E-005;
2.417000000000000E+009;1.769373118877411E-001;-6.060380488634110E-002;1.176714213215746E-004;1.530213339719921E-004;
2.417166666666667E+009;1.765509396791458E-001;-6.063526868820190E-002;1.625945733394474E-004;2.003663685172796E-004;
2.417333333333334E+009;1.760790050029755E-001;-6.094806268811226E-002;3.040634910576046E-004;1.376766158500686E-004;
2.417500000000000E+009;1.754189729690552E-001;-6.124230846762657E-002;1.963672693818808E-004;2.271012199344114E-004;
2.417666666666667E+009;1.747661530971527E-001;-6.136974692344666E-002;4.185008001513779E-004;2.280797489220277E-004;
2.417833333333334E+009;1.737276017665863E-001;-6.166848912835121E-002;2.382645761827007E-004;3.286503779236227E-004;
2.418000000000000E+009;1.729928702116013E-001;-6.204773113131523E-002;2.304940280737355E-004;3.129079414065927E-004;
2.418166666666667E+009;1.719365119934082E-001;-6.210333481431007E-002;2.335785975446925E-004;1.926587574416772E-004;
2.418333333333334E+009;1.712776273488998E-001;-6.267140060663223E-002;2.656092983670533E-004;1.633935025893152E-004;
2.418500000000000E+009;1.701190322637558E-001;-6.296008825302124E-002;2.085974556393921E-004;2.573572564870119E-004;
2.418666666666667E+009;1.690080463886261E-001;-6.353041529655457E-002;2.689984394237399E-004;2.480420225765556E-004;
2.418833333333334E+009;1.677311509847641E-001;-6.408305466175079E-002;1.535142509965226E-004;2.574151731096208E-004;
2.419000000000000E+009;1.664880216121674E-001;-6.474441289901733E-002;2.871865872293711E-004;4.728263593278825E-004;
2.419166666666667E+009;1.653081178665161E-001;-6.523089110851288E-002;3.319819807074964E-004;3.778708924073726E-004;
2.419333333333334E+009;1.641572862863541E-001;-6.581843644380570E-002;2.990794018842280E-004;4.980998346582055E-004;
2.419500000000000E+009;1.630030274391174E-001;-6.681652367115021E-002;3.037444257643074E-004;5.149973439984024E-004;
2.419666666666667E+009;1.617634296417236E-001;-6.786832213401794E-002;3.773761272896081E-004;4.645028675440699E-004;
2.419833333333334E+009;1.604976058006287E-001;-6.846606731414795E-002;2.518154215067625E-004;5.436993087641895E-004;
2.420000000000000E+009;1.594705283641815E-001;-6.970424950122833E-002;2.834335027728230E-004;5.055199726484716E-004;
2.420166666666667E+009;1.582823246717453E-001;-7.079418003559113E-002;2.815711195580661E-004;6.147940293885768E-004;
2.420333333333334E+009;1.573015600442886E-001;-7.200796157121658E-002;4.003595095127821E-004;7.001924677751958E-004;
2.420500000000000E+009;1.563263386487961E-001;-7.319575548171997E-002;2.673429844435304E-004;6.556679145433009E-004;
2.420666666666667E+009;1.552881449460983E-001;-7.444670051336289E-002;3.692261816468090E-004;6.941475439816713E-004;
2.420833333333334E+009;1.543919593095779E-001;-7.584042102098465E-002;4.248075420036912E-004;6.113357958383858E-004;
2.421000000000000E+009;1.533705741167069E-001;-7.754874229431152E-002;3.820481069851667E-004;6.607109680771828E-004;
2.421166666666667E+009;1.528395712375641E-001;-7.895755022764206E-002;3.764682041946799E-004;6.498493603430688E-004;
2.421333333333334E+009;1.520957052707672E-001;-8.062438666820526E-002;3.855013055726886E-004;7.945969118736684E-004;
2.421500000000000E+009;1.513992398977280E-001;-8.203580230474472E-002;3.738832019735128E-004;6.593705038540065E-004;
2.421666666666667E+009;1.510068029165268E-001;-8.364613354206085E-002;5.317062023095787E-004;6.993940332904458E-004;
2.421833333333334E+009;1.505971699953079E-001;-8.547199517488480E-002;5.183220491744578E-004;6.314355996437371E-004;
2.422000000000000E+009;1.500822007656097E-001;-8.724786341190338E-002;5.332079599611461E-004;7.210070034489036E-004;
2.422166666666667E+009;1.498190909624100E-001;-8.903513848781586E-002;5.542942672036588E-004;7.682354771532118E-004;
2.422333333333334E+009;1.497561633586884E-001;-9.058349579572678E-002;5.290313274599612E-004;8.313700673170388E-004;
2.422500000000000E+009;1.495670378208160E-001;-9.226011484861374E-002;6.553790881298482E-004;7.885859231464565E-004;
2.422666666666667E+009;1.495700031518936E-001;-9.391997009515762E-002;7.097768830135465E-004;7.466908427886665E-004;
2.422833333333334E+009;1.495418101549149E-001;-9.570565074682236E-002;7.519864011555910E-004;8.044887217693031E-004;
2.423000000000000E+009;1.497416198253632E-001;-9.737182408571243E-002;7.554709445685148E-004;7.307564956136048E-004;
2.423166666666667E+009;1.501185894012451E-001;-9.894950687885284E-002;8.598876302130520E-004;7.339673466049135E-004;
2.423333333333334E+009;1.503689140081406E-001;-1.003771200776100E-001;7.555086049251258E-004;7.229069597087801E-004;
2.423500000000000E+009;1.506010740995407E-001;-1.020255833864212E-001;8.893499616533518E-004;8.803523960523307E-004;
2.423666666666667E+009;1.508755236864090E-001;-1.037001535296440E-001;9.617655887268484E-004;8.341557695530355E-004;
2.423833333333334E+009;1.513086706399918E-001;-1.051385402679443E-001;1.019780756905675E-003;9.370959014631808E-004;
2.424000000000000E+009;1.518103629350662E-001;-1.062497571110725E-001;1.186446286737919E-003;8.444787235930562E-004;
2.424166666666667E+009;1.522028297185898E-001;-1.076952219009399E-001;1.264919294044375E-003;8.261306211352348E-004;
2.424333333333334E+009;1.527735888957977E-001;-1.088641509413719E-001;1.245974563062191E-003;8.281444315798581E-004;
2.424500000000000E+009;1.531928330659866E-001;-1.102051809430122E-001;1.266144798137248E-003;8.543016738258302E-004;
2.424666666666667E+009;1.538504362106323E-001;-1.110106185078621E-001;1.386493793688715E-003;7.460713386535645E-004;
2.424833333333334E+009;1.542044728994370E-001;-1.120980232954025E-001;1.362501294352114E-003;8.317368919961155E-004;
2.425000000000000E+009;1.548762172460556E-001;-1.128973290324211E-001;1.575892791152000E-003;7.423445349559188E-004;
2.425166666666667E+009;1.550987660884857E-001;-1.137529015541077E-001;1.641550450585783E-003;7.245826418511570E-004;
2.425333333333334E+009;1.555038094520569E-001;-1.144967600703239E-001;1.606256584636867E-003;6.197969196364284E-004;
2.425500000000000E+009;1.559201031923294E-001;-1.152550429105759E-001;1.802476122975349E-003;5.577600095421076E-004;
2.425666666666667E+009;1.561806648969650E-001;-1.159047260880470E-001;1.750033465214074E-003;5.420616944320500E-004;
2.425833333333334E+009;1.564571410417557E-001;-1.164425835013390E-001;1.966870389878750E-003;4.694384988397360E-004;
2.426000000000000E+009;1.565704792737961E-001;-1.169085428118706E-001;1.856495742686093E-003;3.655484470073134E-004;
2.426166666666667E+009;1.568821817636490E-001;-1.173038110136986E-001;2.080748789012432E-003;3.346952726133168E-004;
2.426333333333334E+009;1.568103879690170E-001;-1.175346747040749E-001;2.052635187283158E-003;6.943330663489178E-005;
2.426500000000000E+009;1.568115353584290E-001;-1.177533045411110E-001;2.057963749393821E-003;6.991326517891139E-005;
2.426666666666667E+009;1.568035781383514E-001;-1.179741099476814E-001;2.269512508064508E-003;-1.319386938121170E-004;
2.426833333333334E+009;1.565717309713364E-001;-1.181197464466095E-001;2.373799681663513E-003;-1.554436894366518E-004;
2.427000000000000E+009;1.563325375318527E-001;-1.184179633855820E-001;2.141800010576844E-003;-3.756512305699289E-004;
2.427166666666667E+009;1.558749526739121E-001;-1.184273511171341E-001;2.260100329294801E-003;-3.965571522712708E-004;
2.427333333333334E+009;1.553678810596466E-001;-1.186040416359901E-001;2.241742098703980E-003;-4.880882916040719E-004;
2.427500000000000E+009;1.549355834722519E-001;-1.186328157782555E-001;2.338836435228586E-003;-7.465589442290366E-004;
2.427666666666667E+009;1.541432589292526E-001;-1.187918037176132E-001;2.263226080685854E-003;-8.043004781939089E-004;
2.427833333333334E+009;1.533366888761520E-001;-1.188777685165405E-001;2.330977236852050E-003;-8.114839438349009E-004;
