# Version 1.00
#
freq[Hz];re:Trc1_S11;im:Trc1_S11;re:Trc2_S21;im:Trc2_S21;
2.400000000000000E+009;1.574811935424805E-001;6.270980089902878E-002;-2.426062943413854E-003;-5.897675873711705E-004;
2.400166666666667E+009;1.574041843414307E-001;6.114498525857925E-002;-2.662041224539280E-003;-2.485213626641780E-004;
2.400333333333334E+009;1.570226699113846E-001;5.918390303850174E-002;-2.346377121284604E-003;-4.208733153063804E-004;
2.400500000000000E+009;1.572183668613434E-001;5.716380476951599E-002;-2.447343431413174E-003;-2.637639991007745E-004;
2.400666666666667E+009;1.573266685009003E-001;5.526448786258698E-002;-2.384056337177753E-003;-2.139532734872773E-004;
2.400833333333334E+009;1.572729945182800E-001;5.331634730100632E-002;-2.416512928903103E-003;-1.386637013638392E-004;
2.401000000000000E+009;1.573127806186676E-001;5.131034553050995E-002;-2.439378062263131E-003;-2.400200719421264E-005;
2.401166666666667E+009;1.574528664350510E-001;4.914668202400208E-002;-2.454403322190046E-003;-1.793032424757257E-004;
2.401333333333334E+009;1.575252711772919E-001;4.705401882529259E-002;-2.304501133039594E-003;-5.843499093316495E-005;
2.401500000000000E+009;1.580524742603302E-001;4.489038884639740E-002;-2.337733516469598E-003;2.968285116367042E-005;
2.401666666666667E+009;1.582703888416290E-001;4.321394860744476E-002;-2.469724975526333E-003;9.594055882189423E-005;
2.401833333333334E+009;1.586714386940002E-001;4.094489663839340E-002;-2.287619048729539E-003;1.824891805881634E-004;
2.402000000000000E+009;1.590697914361954E-001;3.897617012262344E-002;-2.242974238470197E-003;8.816151967039332E-005;
2.402166666666667E+009;1.595952510833740E-001;3.693999350070953E-002;-2.239325316622853E-003;-4.107216591364704E-005;
2.402333333333334E+009;1.602110862731934E-001;3.511086478829384E-002;-2.302043605595827E-003;2.025152643909678E-004;
2.402500000000000E+009;1.610439121723175E-001;3.337183594703674E-002;-2.298936014994979E-003;1.346162316622213E-004;
2.402666666666667E+009;1.617562919855118E-001;3.170504793524742E-002;-2.461438765749335E-003;3.023052413482219E-004;
2.402833333333334E+009;1.626262962818146E-001;3.000291250646114E-002;-2.439776901155710E-003;4.058259946759790E-004;
2.403000000000000E+009;1.634015738964081E-001;2.816517651081085E-002;-2.391801681369543E-003;5.634552217088640E-004;
2.403166666666667E+009;1.644316315650940E-001;2.663859538733959E-002;-2.486915560439229E-003;4.210512852296233E-004;
2.403333333333334E+009;1.652331799268723E-001;2.524838596582413E-002;-2.330183284357190E-003;5.268593668006361E-004;
2.403500000000000E+009;1.661075800657272E-001;2.376729063689709E-002;-2.551208483055234E-003;6.928710499778390E-004;
2.403666666666667E+009;1.672538071870804E-001;2.242597192525864E-002;-2.382216975092888E-003;7.586179417558014E-004;
2.403833333333334E+009;1.682645380496979E-001;2.114653959870338E-002;-2.598682651296258E-003;8.704122737981379E-004;
2.404000000000000E+009;1.693444997072220E-001;2.012396790087223E-002;-2.619078848510981E-003;9.443240705877543E-004;
2.404166666666667E+009;1.702101230621338E-001;1.884878985583782E-002;-2.508173696696758E-003;1.021564472466707E-003;
2.404333333333334E+009;1.712628453969955E-001;1.787481829524040E-002;-2.468797611072660E-003;1.170859090052545E-003;
2.404500000000000E+009;1.721457093954086E-001;1.706313155591488E-002;-2.478568581864238E-003;1.109562464989722E-003;
2.404666666666667E+009;1.731507778167725E-001;1.614360511302948E-002;-2.503800438717008E-003;1.383502036333084E-003;
2.404833333333334E+009;1.741571128368378E-001;1.532190106809139E-002;-2.548397285863757E-003;1.451233634725213E-003;
2.405000000000000E+009;1.750329732894898E-001;1.468189805746079E-002;-2.530354075133801E-003;1.629198668524623E-003;
2.405166666666667E+009;1.758627444505692E-001;1.410699915140867E-002;-2.492988249287009E-003;1.830062828958035E-003;
2.405333333333334E+009;1.767239719629288E-001;1.339082699269056E-002;-2.418205607682467E-003;1.845938852056861E-003;
2.405500000000000E+009;1.774754077196121E-001;1.306281518191099E-002;-2.389731584116817E-003;1.994666410610080E-003;
2.405666666666667E+009;1.781747937202454E-001;1.272563543170691E-002;-2.201941562816501E-003;2.494508167728782E-003;
2.405833333333334E+009;1.787270158529282E-001;1.223635394126177E-002;-2.082142513245344E-003;2.430443884804845E-003;
2.406000000000000E+009;1.792158186435700E-001;1.188561972230673E-002;-2.081622602418065E-003;2.540842629969120E-003;
2.406166666666667E+009;1.797927618026733E-001;1.169739942997694E-002;-1.723821391351521E-003;2.639754675328732E-003;
2.406333333333334E+009;1.802522242069244E-001;1.122607756406069E-002;-1.547684543766081E-003;2.811721991747618E-003;
2.406500000000000E+009;1.804616600275040E-001;1.096587069332600E-002;-1.549497013911605E-003;2.797341672703624E-003;
2.406666666666667E+009;1.804939508438110E-001;1.063707564026117E-002;-1.204619300551713E-003;2.781117102131248E-003;
2.406833333333334E+009;1.808289587497711E-001;1.035074144601822E-002;-1.093270722776651E-003;2.932108007371426E-003;
2.407000000000000E+009;1.809416413307190E-001;9.959207847714424E-003;-9.081860771402717E-004;2.976971445605159E-003;
2.407166666666667E+009;1.809600442647934E-001;9.745981544256210E-003;-7.648481405340135E-004;3.036426613107324E-003;
2.407333333333334E+009;1.807491630315781E-001;9.289022535085678E-003;-5.112595972605050E-004;3.023301949724555E-003;
2.407500000000000E+009;1.806598901748657E-001;8.948616683483124E-003;-3.188552509527654E-004;3.067105310037732E-003;
2.407666666666667E+009;1.804259270429611E-001;8.498203009366989E-003;-1.926984550664201E-004;3.058115718886256E-003;
2.407833333333334E+009;1.799414753913879E-001;7.928152568638325E-003;-8.007523138076067E-005;3.058646805584431E-003;
2.408000000000000E+009;1.796086281538010E-001;7.230332121253014E-003;2.681782643776387E-004;2.795723499730229E-003;
2.408166666666667E+009;1.791527122259140E-001;6.802900694310665E-003;4.416655574459583E-004;2.938643097877502E-003;
2.408333333333334E+009;1.787137389183044E-001;6.018136162310839E-003;5.289384862408042E-004;2.887612674385309E-003;
2.408500000000000E+009;1.781964749097824E-001;5.133130121976137E-003;6.392682553268969E-004;2.726090606302023E-003;
2.408666666666667E+009;1.775469928979874E-001;4.111285787075758E-003;8.278946625068784E-004;2.638605423271656E-003;
2.408833333333334E+009;1.767764538526535E-001;3.370807506144047E-003;9.855846874415875E-004;2.538110828027129E-003;
2.409000000000000E+009;1.761535257101059E-001;2.274468075484037E-003;1.061869435943663E-003;2.564101479947567E-003;
2.409166666666667E+009;1.754757612943649E-001;1.268290681764484E-003;1.134494435973465E-003;2.494920045137405E-003;
2.409333333333334E+009;1.748247891664505E-001;-1.771860115695745E-004;1.094835228286684E-003;2.338747028261423E-003;
2.409500000000000E+009;1.740360707044601E-001;-1.494118594564498E-003;1.394737861119211E-003;2.271814737468958E-003;
2.409666666666667E+009;1.732070893049240E-001;-2.714294474571943E-003;1.198003650642932E-003;2.038426697254181E-003;
2.409833333333334E+009;1.726182550191879E-001;-4.268765915185213E-003;1.288094790652394E-003;1.940935384482145E-003;
2.410000000000000E+009;1.720075607299805E-001;-5.942024290561676E-003;1.471654628403485E-003;1.887963386252523E-003;
2.410166666666667E+009;1.713323295116425E-001;-7.442165631800890E-003;1.492207404226065E-003;1.708824420347810E-003;
2.410333333333334E+009;1.707045882940292E-001;-9.122673422098160E-003;1.445905305445194E-003;1.750019611790776E-003;
2.410500000000000E+009;1.703528314828873E-001;-1.071441639214754E-002;1.552683184854686E-003;1.468187663704157E-003;
2.410666666666667E+009;1.696075946092606E-001;-1.276423409581184E-002;1.599414390511811E-003;1.442482578568161E-003;
2.410833333333334E+009;1.693335771560669E-001;-1.450217515230179E-002;1.673121587373316E-003;1.384313916787505E-003;
2.411000000000000E+009;1.687953919172287E-001;-1.641195267438889E-002;1.666121999733150E-003;1.111306250095367E-003;
2.411166666666667E+009;1.684771627187729E-001;-1.834637299180031E-002;1.737782615236938E-003;1.183300395496190E-003;
2.411333333333334E+009;1.683080643415451E-001;-2.002074383199215E-002;1.545779407024384E-003;1.152683747932315E-003;
2.411500000000000E+009;1.679928600788117E-001;-2.214874699711800E-002;1.388016273267567E-003;8.677740697748959E-004;
2.411666666666667E+009;1.681301593780518E-001;-2.413594350218773E-002;1.576462411321700E-003;8.443721453659236E-004;
2.411833333333334E+009;1.679232269525528E-001;-2.596830949187279E-002;1.662507536821067E-003;6.559288012795150E-004;
2.412000000000000E+009;1.678822934627533E-001;-2.825436182320118E-002;1.449609291739762E-003;5.503694410435855E-004;
2.412166666666667E+009;1.680155247449875E-001;-3.021822869777679E-002;1.496622338891029E-003;7.195870857685804E-004;
2.412333333333334E+009;1.683422923088074E-001;-3.206884115934372E-002;1.503137173131108E-003;4.954994656145573E-004;
2.412500000000000E+009;1.684755235910416E-001;-3.389785811305046E-002;1.429272466339171E-003;2.152421220671386E-004;
2.412666666666667E+009;1.688944250345230E-001;-3.605248034000397E-002;1.357251894660294E-003;4.308939096517861E-004;
2.412833333333334E+009;1.692938655614853E-001;-3.764646872878075E-002;1.445031492039561E-003;8.356347825611010E-005;
2.413000000000000E+009;1.695888489484787E-001;-3.941246494650841E-002;1.344662858173251E-003;3.037446585949510E-004;
2.413166666666667E+009;1.700141280889511E-001;-4.122300446033478E-002;1.223548548296094E-003;-7.475385064026341E-005;
2.413333333333334E+009;1.705896556377411E-001;-4.296092316508293E-002;1.165317255072296E-003;-7.913682202342898E-005;
2.413500000000000E+009;1.709986478090286E-001;-4.459855705499649E-002;1.248833490535617E-003;-8.136931683111470E-006;
2.413666666666667E+009;1.718266159296036E-001;-4.621864855289459E-002;9.846750181168318E-004;-6.243419193197042E-005;
2.413833333333334E+009;1.722279489040375E-001;-4.766340553760529E-002;1.069213147275150E-003;-7.908332918304950E-005;
2.414000000000000E+009;1.725932210683823E-001;-4.909950867295265E-002;1.012093154713512E-003;-3.186745743732899E-004;
2.414166666666667E+009;1.735303103923798E-001;-5.032929033041000E-002;9.128033998422325E-004;-8.988448826130480E-005;
2.414333333333334E+009;1.739477217197418E-001;-5.157264322042465E-002;7.315183756873012E-004;-2.175773261114955E-004;
2.414500000000000E+009;1.746329516172409E-001;-5.273931100964546E-002;5.737436586059630E-004;-2.515684755053371E-004;
2.414666666666667E+009;1.751552820205689E-001;-5.363169312477112E-002;3.967224329244345E-004;-1.271356304641813E-004;
2.414833333333334E+009;1.755234003067017E-001;-5.455251410603523E-002;6.679807556793094E-004;-2.624689368531108E-004;
2.415000000000000E+009;1.760364919900894E-001;-5.543448030948639E-002;4.865652008447796E-004;-1.692587393335998E-004;
2.415166666666667E+009;1.765069216489792E-001;-5.619361624121666E-002;5.358323687687516E-004;-5.527201210497879E-005;
2.415333333333334E+009;1.769013851881027E-001;-5.691336095333099E-002;5.473358323797584E-004;-9.492300887359306E-005;
2.415500000000000E+009;1.772912889719009E-001;-5.763912573456764E-002;3.212274459656328E-004;-2.601755841169506E-004;
2.415666666666667E+009;1.775522381067276E-001;-5.793954059481621E-002;3.008835192304105E-004;-1.276990078622475E-004;
2.415833333333334E+009;1.778586953878403E-001;-5.855171382427216E-002;3.904968034476042E-004;-1.917827758006752E-004;
2.416000000000000E+009;1.779667139053345E-001;-5.898668989539146E-002;3.034218098036945E-004;-1.337255089310929E-004;
2.416166666666667E+009;1.780790239572525E-001;-5.934116244316101E-002;3.790544287767261E-004;-5.314171357895248E-005;
2.416333333333334E+009;1.780320256948471E-001;-5.961811542510986E-002;2.557262778282166E-004;4.857141539105214E-005;
2.416500000000000E+009;1.779036670923233E-001;-5.988496169447899E-002;2.732918947003782E-004;9.115660941461101E-005;
2.416666666666667E+009;1.776835769414902E-001;-6.010249629616737E-002;2.718667383305728E-004;1.285962644033134E-004;
2.416833333333334E+009;1.775200963020325E-001;-6.054929643869400E-002;3.034691326320171E-004;-1.723756395222154E-005;
2.417000000000000E+009;1.770322620868683E-001;-6.068868190050125E-002;3.588047402445227E-004;8.088492904789746E-005;
2.417166666666667E+009;1.765704900026321E-001;-6.071444600820541E-002;2.218032022938132E-004;1.233436923939735E-004;
2.417333333333334E+009;1.760373562574387E-001;-6.095628812909126E-002;2.413065085420385E-004;7.247223402373493E-005;
2.417500000000000E+009;1.754141002893448E-001;-6.129662692546845E-002;2.981938887387514E-004;6.591583951376379E-005;
2.417666666666667E+009;1.747384220361710E-001;-6.140265986323357E-002;1.965627307072282E-004;3.180789644829929E-004;
2.417833333333334E+009;1.738810390233994E-001;-6.162571161985397E-002;1.303879398619756E-004;2.183935721404851E-004;
2.418000000000000E+009;1.730403006076813E-001;-6.217811256647110E-002;1.766316854627803E-004;3.077835135627538E-004;
2.418166666666667E+009;1.720443516969681E-001;-6.228490173816681E-002;2.566083567216992E-004;2.665850915946066E-004;
2.418333333333334E+009;1.712953746318817E-001;-6.267258524894714E-002;3.854061651509255E-004;3.019030264113098E-004;
2.418500000000000E+009;1.700601875782013E-001;-6.297816336154938E-002;3.412478254176676E-004;2.289409167133272E-004;
2.418666666666667E+009;1.690502464771271E-001;-6.357844173908234E-002;2.749586419668049E-004;3.572769055608660E-004;
2.418833333333334E+009;1.678250730037689E-001;-6.413293629884720E-002;2.901104744523764E-004;2.578518178779632E-004;
2.419000000000000E+009;1.664612442255020E-001;-6.457041949033737E-002;1.918994676088914E-004;3.790019254665822E-004;
2.419166666666667E+009;1.653541028499603E-001;-6.537137925624847E-002;3.522971528582275E-004;3.611818829085678E-004;
2.419333333333334E+009;1.641062647104263E-001;-6.588680297136307E-002;2.345475659240037E-004;3.538301971275359E-004;
2.419500000000000E+009;1.629268676042557E-001;-6.692321598529816E-002;2.242086629848927E-004;3.488012589514256E-004;
2.419666666666667E+009;1.617717146873474E-001;-6.788454949855804E-002;1.790377136785537E-004;4.812085244338960E-004;
2.419833333333334E+009;1.604685932397842E-001;-6.863866746425629E-002;2.196886489400640E-004;3.686137206386775E-004;
2.420000000000000E+009;1.593655794858933E-001;-6.969089806079865E-002;3.162742068525404E-004;4.960760707035661E-004;
2.420166666666667E+009;1.583429127931595E-001;-7.081400603055954E-002;2.140600554412231E-004;4.012164718005806E-004;
2.420333333333334E+009;1.571782082319260E-001;-7.215144485235214E-002;3.156722232233733E-004;5.138940177857876E-004;
2.420500000000000E+009;1.561705023050308E-001;-7.310934364795685E-002;3.276686766184866E-004;4.913804004900158E-004;
2.420666666666667E+009;1.551948487758637E-001;-7.449968159198761E-002;3.708329459186643E-004;4.375326388981193E-004;
2.420833333333334E+009;1.543688327074051E-001;-7.586552947759628E-002;3.078553418163210E-004;5.444472772069275E-004;
2.421000000000000E+009;1.533666402101517E-001;-7.741382718086243E-002;3.064922930207104E-004;4.628259921446443E-004;
2.421166666666667E+009;1.527152806520462E-001;-7.885256409645081E-002;3.481320454739034E-004;6.456217961385846E-004;
2.421333333333334E+009;1.521275043487549E-001;-8.053345978260040E-002;4.174791683908552E-004;6.859109853394330E-004;
2.421500000000000E+009;1.513954997062683E-001;-8.202220499515533E-002;3.399653942324221E-004;6.057443679310381E-004;
2.421666666666667E+009;1.508888304233551E-001;-8.377595245838165E-002;4.611721087712795E-004;7.591327885165811E-004;
2.421833333333334E+009;1.505126506090164E-001;-8.547089993953705E-002;4.261911672074348E-004;6.545627256855369E-004;
2.422000000000000E+009;1.500742435455322E-001;-8.705467730760574E-002;5.470960750244558E-004;7.830988033674657E-004;
2.422166666666667E+009;1.498325616121292E-001;-8.901774883270264E-002;5.973891238681972E-004;7.721149013377726E-004;
2.422333333333334E+009;1.497688293457031E-001;-9.051946550607681E-002;6.589583936147392E-004;8.134930976666510E-004;
2.422500000000000E+009;1.496650129556656E-001;-9.225273132324219E-002;7.383974734693766E-004;9.202581131830812E-004;
2.422666666666667E+009;1.493465304374695E-001;-9.405181556940079E-002;7.898823241703212E-004;8.089909097179771E-004;
2.422833333333334E+009;1.496316939592362E-001;-9.576630592346191E-002;6.761875119991601E-004;8.366037509404123E-004;
2.423000000000000E+009;1.497441679239273E-001;-9.746910631656647E-002;7.991121965460479E-004;7.786165806464851E-004;
2.423166666666667E+009;1.499905288219452E-001;-9.906213730573654E-002;7.850425317883492E-004;9.627444669604302E-004;
2.423333333333334E+009;1.503887027502060E-001;-1.005831658840179E-001;1.037588925100863E-003;8.842150564305484E-004;
2.423500000000000E+009;1.506580710411072E-001;-1.022198125720024E-001;9.620345081202686E-004;9.230550494976342E-004;
2.423666666666667E+009;1.507482975721359E-001;-1.037623435258865E-001;1.108237775042653E-003;9.256320772692561E-004;
2.423833333333334E+009;1.514948606491089E-001;-1.052111610770226E-001;1.059043803252280E-003;8.402427774854004E-004;
2.424000000000000E+009;1.517455726861954E-001;-1.063502207398415E-001;1.097095198929310E-003;9.854381205514073E-004;
2.424166666666667E+009;1.521355956792831E-001;-1.076861247420311E-001;1.233168295584619E-003;8.825905970297754E-004;
2.424333333333334E+009;1.528677940368652E-001;-1.089746728539467E-001;1.280615222640336E-003;8.860713569447398E-004;
2.424500000000000E+009;1.532053947448731E-001;-1.100717633962631E-001;1.296614645980299E-003;8.635840495117009E-004;
2.424666666666667E+009;1.539023965597153E-001;-1.110992804169655E-001;1.397487591020763E-003;8.260266622528434E-004;
2.424833333333334E+009;1.541825681924820E-001;-1.120213568210602E-001;1.477566780522466E-003;8.359139901585877E-004;
2.425000000000000E+009;1.546974033117294E-001;-1.130619198083878E-001;1.504888059571385E-003;7.367776124738157E-004;
2.425166666666667E+009;1.551387459039688E-001;-1.138304024934769E-001;1.713582663796842E-003;7.485126843675971E-004;
2.425333333333334E+009;1.555864214897156E-001;-1.145016103982925E-001;1.683731912635267E-003;6.472237291745842E-004;
2.425500000000000E+009;1.559928059577942E-001;-1.154078096151352E-001;1.834774855524302E-003;5.932565545663238E-004;
2.425666666666667E+009;1.560578644275665E-001;-1.159170344471932E-001;1.824404229409993E-003;4.774379485752434E-004;
2.425833333333334E+009;1.564509719610214E-001;-1.164946332573891E-001;1.929093152284622E-003;3.126731025986373E-004;
2.426000000000000E+009;1.566040217876434E-001;-1.170378550887108E-001;1.975289080291987E-003;2.712231944315136E-004;
2.426166666666667E+009;1.568607240915299E-001;-1.173558831214905E-001;2.198151312768459E-003;2.135116519639269E-004;
2.426333333333334E+009;1.568367928266525E-001;-1.176315024495125E-001;2.136967144906521E-003;3.226310946047306E-004;
2.426500000000000E+009;1.568675041198731E-001;-1.178875043988228E-001;2.273705089464784E-003;1.223699837282766E-005;
2.426666666666667E+009;1.569526642560959E-001;-1.179037690162659E-001;2.287572948262096E-003;-9.236457844963297E-005;
2.426833333333334E+009;1.566246598958969E-001;-1.181845068931580E-001;2.161692362278700E-003;-2.691911868168972E-005;
2.427000000000000E+009;1.562496870756149E-001;-1.183765754103661E-001;2.256698207929730E-003;-2.762879594229162E-004;
2.427166666666667E+009;1.559411585330963E-001;-1.184392273426056E-001;2.159368945285678E-003;-3.587838145904243E-004;
2.427333333333334E+009;1.553358435630798E-001;-1.185506433248520E-001;2.340573584660888E-003;-4.727228952106088E-004;
2.427500000000000E+009;1.549138724803925E-001;-1.186748445034027E-001;2.212927676737309E-003;-5.901590920984745E-004;
2.427666666666667E+009;1.541942656040192E-001;-1.187923252582550E-001;2.282735891640186E-003;-6.397826946340501E-004;
2.427833333333334E+009;1.532851010560989E-001;-1.189295724034309E-001;2.351829782128334E-003;-7.995227351784706E-004;
