# Version 1.00
#
freq[Hz];re:Trc1_S11;im:Trc1_S11;re:Trc2_S21;im:Trc2_S21;
2.400000000000000E+009;1.553341001272202E-001;1.115171164274216E-001;-1.032982720062137E-003;3.857558127492666E-003;
2.400166666666667E+009;1.546761989593506E-001;1.090370118618012E-001;-9.614629088900983E-004;3.994673956185579E-003;
2.400333333333334E+009;1.545517146587372E-001;1.071621924638748E-001;-7.647277088835836E-004;3.981877584010363E-003;
2.400500000000000E+009;1.542262136936188E-001;1.042180657386780E-001;-6.319216336123645E-004;4.154310561716557E-003;
2.400666666666667E+009;1.540839225053787E-001;1.017702743411064E-001;-4.963577375747263E-004;4.257874563336372E-003;
2.400833333333334E+009;1.539733111858368E-001;9.895978868007660E-002;-2.636032877489924E-004;4.237098153680563E-003;
2.401000000000000E+009;1.538021564483643E-001;9.602072834968567E-002;-3.357165260240436E-004;4.213194828480482E-003;
2.401166666666667E+009;1.535835862159729E-001;9.320016950368881E-002;1.842183410190046E-004;4.274149890989065E-003;
2.401333333333334E+009;1.537877619266510E-001;9.030307084321976E-002;6.640999345108867E-005;4.253168124705553E-003;
2.401500000000000E+009;1.538881510496140E-001;8.736877143383026E-002;3.157067985739559E-004;4.227926023304462E-003;
2.401666666666667E+009;1.540883630514145E-001;8.422037959098816E-002;3.388027835171670E-004;3.931697458028793E-003;
2.401833333333334E+009;1.545008569955826E-001;8.132449537515640E-002;3.742873377632350E-004;3.992836456745863E-003;
2.402000000000000E+009;1.550418436527252E-001;7.819046080112457E-002;5.744434311054647E-004;4.218718968331814E-003;
2.402166666666667E+009;1.558019369840622E-001;7.558996230363846E-002;5.191561649553478E-004;4.227363970130682E-003;
2.402333333333334E+009;1.563261300325394E-001;7.266090810298920E-002;7.482534856535494E-004;4.185812547802925E-003;
2.402500000000000E+009;1.574826836585999E-001;6.980640441179276E-002;6.830563652329147E-004;4.176538903266192E-003;
2.402666666666667E+009;1.585611104965210E-001;6.742551922798157E-002;8.345055975951254E-004;4.346894100308418E-003;
2.402833333333334E+009;1.597938239574432E-001;6.472624093294144E-002;1.003327080979943E-003;4.283034708350897E-003;
2.403000000000000E+009;1.613329052925110E-001;6.190868094563484E-002;1.112810685299337E-003;4.425523336976767E-003;
2.403166666666667E+009;1.628382354974747E-001;5.962604656815529E-002;1.443976652808487E-003;4.523310344666243E-003;
2.403333333333334E+009;1.645004600286484E-001;5.703218281269074E-002;1.612220890820026E-003;4.570588469505310E-003;
2.403500000000000E+009;1.661936789751053E-001;5.469717457890511E-002;1.740816282108426E-003;4.467005375772715E-003;
2.403666666666667E+009;1.679998636245728E-001;5.263258889317513E-002;1.922532450407744E-003;4.441134631633759E-003;
2.403833333333334E+009;1.697227507829666E-001;5.062475055456162E-002;2.031976822763681E-003;4.452186170965433E-003;
2.404000000000000E+009;1.714261025190353E-001;4.864983633160591E-002;2.296340186148882E-003;4.406270571053028E-003;
2.404166666666667E+009;1.734701097011566E-001;4.687654972076416E-002;2.667374443262816E-003;4.405001178383827E-003;
2.404333333333334E+009;1.751776784658432E-001;4.510477185249329E-002;2.863389905542135E-003;4.459635820239782E-003;
2.404500000000000E+009;1.770085990428925E-001;4.336753860116005E-002;3.282379824668169E-003;4.279219079762697E-003;
2.404666666666667E+009;1.788828372955322E-001;4.228468239307404E-002;3.450004151090980E-003;4.186143632978201E-003;
2.404833333333334E+009;1.807585060596466E-001;4.081234335899353E-002;3.628070931881666E-003;3.855501767247915E-003;
2.405000000000000E+009;1.821612864732742E-001;4.005815461277962E-002;3.891176776960492E-003;3.834222443401814E-003;
2.405166666666667E+009;1.841103136539459E-001;3.935008123517036E-002;4.080430604517460E-003;3.609736915677786E-003;
2.405333333333334E+009;1.856708079576492E-001;3.882305324077606E-002;4.337050020694733E-003;3.378227818757296E-003;
2.405500000000000E+009;1.875187456607819E-001;3.817598894238472E-002;4.306735005229712E-003;3.155678510665894E-003;
2.405666666666667E+009;1.889097541570664E-001;3.791102021932602E-002;4.759179893881083E-003;2.896672813221812E-003;
2.405833333333334E+009;1.905335038900375E-001;3.750899806618691E-002;4.616763442754746E-003;2.809097757562995E-003;
2.406000000000000E+009;1.917539983987808E-001;3.732598572969437E-002;4.911825526505709E-003;2.504285657778382E-003;
2.406166666666667E+009;1.931228190660477E-001;3.722570464015007E-002;5.026277154684067E-003;2.278615487739444E-003;
2.406333333333334E+009;1.942455321550369E-001;3.736403957009316E-002;5.100834649056196E-003;2.051743213087320E-003;
2.406500000000000E+009;1.952641755342484E-001;3.740557283163071E-002;5.075127352029085E-003;1.788221183232963E-003;
2.406666666666667E+009;1.960234194993973E-001;3.767319023609161E-002;4.899892490357161E-003;1.412860117852688E-003;
2.406833333333334E+009;1.968325078487396E-001;3.779612854123116E-002;5.050125531852245E-003;1.332480809651315E-003;
2.407000000000000E+009;1.973320394754410E-001;3.830303251743317E-002;5.089565645903349E-003;9.799883700907230E-004;
2.407166666666667E+009;1.980121582746506E-001;3.827342391014099E-002;4.839112050831318E-003;9.245108813047409E-004;
2.407333333333334E+009;1.980710774660111E-001;3.877569362521172E-002;5.029411520808935E-003;6.177845643833280E-004;
2.407500000000000E+009;1.982085555791855E-001;3.909648582339287E-002;5.039260257035494E-003;4.321800370234996E-004;
2.407666666666667E+009;1.983720958232880E-001;3.939465060830116E-002;4.929592832922936E-003;2.115400711772963E-004;
2.407833333333334E+009;1.981462836265564E-001;3.950126096606255E-002;4.671303555369377E-003;1.545174018247053E-004;
2.408000000000000E+009;1.980410367250443E-001;3.975581005215645E-002;4.840344190597534E-003;-3.284348713350482E-005;
2.408166666666667E+009;1.976387649774551E-001;3.970673680305481E-002;4.795836750417948E-003;-3.041977470275015E-004;
2.408333333333334E+009;1.971663981676102E-001;3.954581916332245E-002;4.633903503417969E-003;-5.143041489645839E-004;
2.408500000000000E+009;1.965213418006897E-001;3.954277932643890E-002;4.769499879330397E-003;-5.806752596981823E-004;
2.408666666666667E+009;1.957458406686783E-001;3.937978670001030E-002;4.431071691215038E-003;-8.718928438611329E-004;
2.408833333333334E+009;1.952142864465714E-001;3.886866569519043E-002;4.411953967064619E-003;-9.730290039442480E-004;
2.409000000000000E+009;1.941136121749878E-001;3.844814375042915E-002;4.387241322547197E-003;-1.089206314645708E-003;
2.409166666666667E+009;1.931225955486298E-001;3.773264214396477E-002;4.273902159184218E-003;-1.265752944163978E-003;
2.409333333333334E+009;1.921433210372925E-001;3.714092075824738E-002;4.046273417770863E-003;-1.426629954949021E-003;
2.409500000000000E+009;1.908755302429199E-001;3.609430417418480E-002;3.887112019583583E-003;-1.366834156215191E-003;
2.409666666666667E+009;1.898261904716492E-001;3.509427234530449E-002;3.808582434430718E-003;-1.442163134925067E-003;
2.409833333333334E+009;1.884555518627167E-001;3.367717936635017E-002;3.564795479178429E-003;-1.566161983646452E-003;
2.410000000000000E+009;1.872675418853760E-001;3.231441974639893E-002;3.538480028510094E-003;-1.533832866698504E-003;
2.410166666666667E+009;1.859819889068604E-001;3.074315749108791E-002;3.378518624231219E-003;-1.382206100970507E-003;
2.410333333333334E+009;1.848368793725967E-001;2.903026528656483E-002;3.350246697664261E-003;-1.577880233526230E-003;
2.410500000000000E+009;1.836697012186050E-001;2.726997993886471E-002;3.358295653015375E-003;-1.785744912922382E-003;
2.410666666666667E+009;1.825971454381943E-001;2.518823742866516E-002;3.172257449477911E-003;-1.697545987553895E-003;
2.410833333333334E+009;1.816211789846420E-001;2.320624701678753E-002;3.191285068169236E-003;-1.774673117324710E-003;
2.411000000000000E+009;1.807431578636169E-001;2.102012559771538E-002;3.279367927461863E-003;-1.754594501107931E-003;
2.411166666666667E+009;1.798273324966431E-001;1.887447573244572E-002;3.022179473191500E-003;-1.711381482891738E-003;
2.411333333333334E+009;1.790794581174851E-001;1.634961180388928E-002;3.030103398486972E-003;-1.855120761319995E-003;
2.411500000000000E+009;1.782869547605515E-001;1.370597817003727E-002;2.924714004620910E-003;-1.970007317140698E-003;
2.411666666666667E+009;1.779399067163467E-001;1.133510284125805E-002;2.764509059488773E-003;-1.770507195033133E-003;
2.411833333333334E+009;1.774761974811554E-001;9.038922376930714E-003;2.744984580203891E-003;-1.781489700078964E-003;
2.412000000000000E+009;1.773105859756470E-001;6.275414023548365E-003;2.655321266502142E-003;-1.758984988555312E-003;
2.412166666666667E+009;1.773771345615387E-001;3.822815138846636E-003;2.718891017138958E-003;-1.771702780388296E-003;
2.412333333333334E+009;1.773139387369156E-001;1.092978985980153E-003;2.759646624326706E-003;-1.951895770616829E-003;
2.412500000000000E+009;1.776934415102005E-001;-1.426706672646105E-003;2.625522203743458E-003;-1.877077855169773E-003;
2.412666666666667E+009;1.779831349849701E-001;-4.308610223233700E-003;2.658247714862227E-003;-1.900934730656445E-003;
2.412833333333334E+009;1.787872910499573E-001;-6.782344542443752E-003;2.562159439548850E-003;-1.872738590463996E-003;
2.413000000000000E+009;1.795179247856140E-001;-9.392146952450275E-003;2.576234517619014E-003;-1.902118790894747E-003;
2.413166666666667E+009;1.800719052553177E-001;-1.167103089392185E-002;2.783807925879955E-003;-1.922919065691531E-003;
2.413333333333334E+009;1.811715066432953E-001;-1.444765180349350E-002;2.762410556897521E-003;-2.020396059378982E-003;
2.413500000000000E+009;1.821457296609879E-001;-1.683973520994186E-002;2.659092657268047E-003;-2.069335663691163E-003;
2.413666666666667E+009;1.832292973995209E-001;-1.945610344409943E-002;2.783803967759013E-003;-2.071954542770982E-003;
2.413833333333334E+009;1.845879852771759E-001;-2.175123430788517E-002;2.876713871955872E-003;-2.139234449714422E-003;
2.414000000000000E+009;1.856931596994400E-001;-2.388305403292179E-002;2.792747924104333E-003;-2.250949619337916E-003;
2.414166666666667E+009;1.870585978031158E-001;-2.595805004239082E-002;2.841290784999728E-003;-2.446143422275782E-003;
2.414333333333334E+009;1.882878839969635E-001;-2.817630395293236E-002;2.765974961221218E-003;-2.407969208434224E-003;
2.414500000000000E+009;1.897507905960083E-001;-2.979149296879768E-002;2.704953076317906E-003;-2.720019780099392E-003;
2.414666666666667E+009;1.910510957241058E-001;-3.165210783481598E-002;2.926586894318461E-003;-2.833938924595714E-003;
2.414833333333334E+009;1.924388706684113E-001;-3.323958814144135E-002;2.845214912667871E-003;-2.931935712695122E-003;
2.415000000000000E+009;1.937970966100693E-001;-3.473666310310364E-002;2.667815424501896E-003;-3.143186680972576E-003;
2.415166666666667E+009;1.952236890792847E-001;-3.602816164493561E-002;2.643241547048092E-003;-3.223074600100517E-003;
2.415333333333334E+009;1.965407133102417E-001;-3.718112781643868E-002;2.456995891407132E-003;-3.359867725521326E-003;
2.415500000000000E+009;1.980775147676468E-001;-3.810882195830345E-002;2.480954863131046E-003;-3.628068836405873E-003;
2.415666666666667E+009;1.994703710079193E-001;-3.908775746822357E-002;2.509394660592079E-003;-3.472518175840378E-003;
2.415833333333334E+009;2.005750536918640E-001;-3.968161717057228E-002;2.217052737250924E-003;-3.747629700228572E-003;
2.416000000000000E+009;2.015641331672669E-001;-4.053192585706711E-002;2.127069514244795E-003;-3.901760559529066E-003;
2.416166666666667E+009;2.025697827339172E-001;-4.103965312242508E-002;2.169942948967218E-003;-4.001896828413010E-003;
2.416333333333334E+009;2.036537230014801E-001;-4.159895330667496E-002;1.783546409569681E-003;-4.059098660945892E-003;
2.416500000000000E+009;2.043537944555283E-001;-4.174894094467163E-002;1.796498661860824E-003;-4.263572860509157E-003;
2.416666666666667E+009;2.049612402915955E-001;-4.213655367493630E-002;1.655466621741653E-003;-4.250300116837025E-003;
2.416833333333334E+009;2.053824961185455E-001;-4.212079942226410E-002;1.586370752193034E-003;-4.430041182786226E-003;
2.417000000000000E+009;2.058569788932800E-001;-4.224530234932900E-002;1.203992636874318E-003;-4.436589311808348E-003;
2.417166666666667E+009;2.057828605175018E-001;-4.216168448328972E-002;9.887666674330831E-004;-4.572292789816856E-003;
2.417333333333334E+009;2.058447748422623E-001;-4.189879447221756E-002;9.575246949680150E-004;-4.538251087069511E-003;
2.417500000000000E+009;2.057794630527496E-001;-4.186885803937912E-002;7.900761556811631E-004;-4.608763381838799E-003;
2.417666666666667E+009;2.054550796747208E-001;-4.145267978310585E-002;6.390456692315638E-004;-4.617841448634863E-003;
2.417833333333334E+009;2.052104175090790E-001;-4.117082059383392E-002;4.347126814536750E-004;-4.646782297641039E-003;
2.418000000000000E+009;2.047424912452698E-001;-4.069241881370544E-002;3.380057460162789E-004;-4.751875996589661E-003;
2.418166666666667E+009;2.040220201015472E-001;-4.053860157728195E-002;1.922013470903039E-004;-4.612111020833254E-003;
2.418333333333334E+009;2.032460421323776E-001;-4.017614945769310E-002;1.617203815840185E-004;-4.723874386399984E-003;
2.418500000000000E+009;2.022994905710220E-001;-3.999720141291618E-002;9.801350825000554E-005;-4.794727545231581E-003;
2.418666666666667E+009;2.015513926744461E-001;-3.972646221518517E-002;-4.055445606354624E-005;-4.845689050853252E-003;
2.418833333333334E+009;2.002642303705216E-001;-3.960110619664192E-002;-2.219562884420157E-004;-4.716098774224520E-003;
2.419000000000000E+009;1.989737302064896E-001;-3.961959108710289E-002;-3.739561361726373E-004;-4.866657778620720E-003;
2.419166666666667E+009;1.977417171001434E-001;-3.974429890513420E-002;-5.545155727304518E-004;-4.900915082544088E-003;
2.419333333333334E+009;1.964382380247116E-001;-4.002663865685463E-002;-7.379625458270311E-004;-5.032103043049574E-003;
2.419500000000000E+009;1.948003619909287E-001;-4.007300734519959E-002;-8.613135432824493E-004;-5.046426318585873E-003;
2.419666666666667E+009;1.931135952472687E-001;-4.088331013917923E-002;-1.108840806409717E-003;-5.052907858043909E-003;
2.419833333333334E+009;1.914999634027481E-001;-4.131535813212395E-002;-1.266012201085687E-003;-5.068674683570862E-003;
2.420000000000000E+009;1.896493285894394E-001;-4.196090251207352E-002;-1.558164367452264E-003;-5.110913421958685E-003;
2.420166666666667E+009;1.879941374063492E-001;-4.285334423184395E-002;-1.641974551603198E-003;-5.035098642110825E-003;
2.420333333333334E+009;1.862030029296875E-001;-4.380026459693909E-002;-1.987317577004433E-003;-5.051438231021166E-003;
2.420500000000000E+009;1.842321306467056E-001;-4.501179978251457E-002;-2.272070152685046E-003;-4.860566463321447E-003;
2.420666666666667E+009;1.823863089084625E-001;-4.599510133266449E-002;-2.551417564973235E-003;-4.751359578222036E-003;
2.420833333333334E+009;1.807372719049454E-001;-4.748789966106415E-002;-2.731365617364645E-003;-4.580439534038305E-003;
2.421000000000000E+009;1.788747459650040E-001;-4.915414750576019E-002;-2.939754165709019E-003;-4.514297004789114E-003;
2.421166666666667E+009;1.772255152463913E-001;-5.069378018379211E-002;-3.125616582110524E-003;-4.398643039166927E-003;
2.421333333333334E+009;1.753434836864471E-001;-5.225281789898872E-002;-3.282798454165459E-003;-4.304982721805573E-003;
2.421500000000000E+009;1.737790852785111E-001;-5.410426482558250E-002;-3.501835279166699E-003;-4.079875536262989E-003;
2.421666666666667E+009;1.724672615528107E-001;-5.614596605300903E-002;-3.550083143636584E-003;-3.884368808940053E-003;
2.421833333333334E+009;1.709564626216888E-001;-5.806917697191238E-002;-3.582566045224667E-003;-3.648537443950772E-003;
2.422000000000000E+009;1.696603596210480E-001;-5.997739359736443E-002;-3.694921266287565E-003;-3.576216520741582E-003;
2.422166666666667E+009;1.685665249824524E-001;-6.210102885961533E-002;-3.744173096492887E-003;-3.461894346401095E-003;
2.422333333333334E+009;1.673653721809387E-001;-6.449857354164124E-002;-3.931514918804169E-003;-3.183952998369932E-003;
2.422500000000000E+009;1.662787050008774E-001;-6.655093282461166E-002;-4.058532416820526E-003;-3.024620003998280E-003;
2.422666666666667E+009;1.654715090990067E-001;-6.869492679834366E-002;-4.045665264129639E-003;-2.884821267798543E-003;
2.422833333333334E+009;1.647408157587051E-001;-7.089024037122726E-002;-3.871024819090962E-003;-2.766354940831661E-003;
2.423000000000000E+009;1.641219258308411E-001;-7.316629588603973E-002;-4.146995488554239E-003;-2.827779855579138E-003;
2.423166666666667E+009;1.636207848787308E-001;-7.544745504856110E-002;-4.074860364198685E-003;-2.569547388702631E-003;
2.423333333333334E+009;1.634256243705750E-001;-7.778613269329071E-002;-4.238560795783997E-003;-2.403489314019680E-003;
2.423500000000000E+009;1.630099415779114E-001;-7.969186455011368E-002;-4.426917526870966E-003;-2.374856499955058E-003;
2.423666666666667E+009;1.631694138050079E-001;-8.196006715297699E-002;-4.385675769299269E-003;-2.087253844365478E-003;
2.423833333333334E+009;1.629500091075897E-001;-8.388456702232361E-002;-4.569231532514095E-003;-2.073177369311452E-003;
2.424000000000000E+009;1.631716191768646E-001;-8.604843914508820E-002;-4.508509300649166E-003;-1.921974704600871E-003;
2.424166666666667E+009;1.631071269512177E-001;-8.792071789503098E-002;-4.795600194483995E-003;-1.771506504155695E-003;
2.424333333333334E+009;1.634286344051361E-001;-8.961010724306107E-002;-4.820839501917362E-003;-1.598654547706246E-003;
2.424500000000000E+009;1.639021039009094E-001;-9.166145324707031E-002;-4.923904780298472E-003;-1.414616825059056E-003;
2.424666666666667E+009;1.640907078981400E-001;-9.310016036033630E-002;-4.912148229777813E-003;-1.255304203368723E-003;
2.424833333333334E+009;1.647887676954269E-001;-9.472272545099258E-002;-4.928939044475555E-003;-1.064385520294309E-003;
2.425000000000000E+009;1.652003079652786E-001;-9.614971280097961E-002;-4.905750043690205E-003;-6.835731328465045E-004;
2.425166666666667E+009;1.656313836574554E-001;-9.744881838560104E-002;-5.120787303894758E-003;-6.953421398065984E-004;
2.425333333333334E+009;1.662183552980423E-001;-9.858568012714386E-002;-4.963401705026627E-003;-4.066483525093645E-004;
2.425500000000000E+009;1.668236106634140E-001;-9.959688782691956E-002;-4.855521488934755E-003;-2.561523288022727E-004;
2.425666666666667E+009;1.674795448780060E-001;-1.004771664738655E-001;-4.843254573643208E-003;-2.244909264845774E-004;
2.425833333333334E+009;1.678816676139832E-001;-1.014281287789345E-001;-4.947331734001637E-003;2.060424449155107E-004;
2.426000000000000E+009;1.685226112604141E-001;-1.020099148154259E-001;-4.829462617635727E-003;2.566805342212319E-004;
2.426166666666667E+009;1.690843254327774E-001;-1.026537343859673E-001;-4.910541232675314E-003;4.392202536109835E-004;
2.426333333333334E+009;1.694671213626862E-001;-1.031727194786072E-001;-4.780515097081661E-003;5.141324945725501E-004;
2.426500000000000E+009;1.701404452323914E-001;-1.034084483981133E-001;-4.645245615392923E-003;8.878833032213152E-004;
2.426666666666667E+009;1.705597192049027E-001;-1.037192270159721E-001;-4.614964593201876E-003;9.063697070814669E-004;
2.426833333333334E+009;1.710354238748550E-001;-1.040309816598892E-001;-4.510054364800453E-003;9.497806313447654E-004;
2.427000000000000E+009;1.713090091943741E-001;-1.041642054915428E-001;-4.539944231510162E-003;1.149896299466491E-003;
2.427166666666667E+009;1.715645194053650E-001;-1.042352989315987E-001;-4.523548763245344E-003;1.340333372354507E-003;
2.427333333333334E+009;1.717292517423630E-001;-1.043993532657623E-001;-4.476584494113922E-003;1.523169572465122E-003;
2.427500000000000E+009;1.717547178268433E-001;-1.044942662119865E-001;-4.269552882760763E-003;1.580005045980215E-003;
2.427666666666667E+009;1.715995222330093E-001;-1.043690070509911E-001;-4.231053870171309E-003;1.705848262645304E-003;
2.427833333333334E+009;1.714852750301361E-001;-1.043817847967148E-001;-4.072196781635284E-003;1.834685914218426E-003;
