# Version 1.00
#
freq[Hz];re:Trc1_S11;im:Trc1_S11;re:Trc2_S21;im:Trc2_S21;
2.400000000000000E+009;1.554300934076309E-001;1.116314455866814E-001;-1.053483108989894E-003;3.810053924098611E-003;
2.400166666666667E+009;1.548749953508377E-001;1.094238832592964E-001;-1.008994411677122E-003;3.790201619267464E-003;
2.400333333333334E+009;1.546919196844101E-001;1.071564033627510E-001;-9.026764309965074E-004;4.005883820354939E-003;
2.400500000000000E+009;1.544972062110901E-001;1.045502647757530E-001;-6.358027458190918E-004;4.197848495095968E-003;
2.400666666666667E+009;1.542375385761261E-001;1.020783707499504E-001;-4.438817559275776E-004;4.117579665035009E-003;
2.400833333333334E+009;1.540112942457199E-001;9.914035350084305E-002;-3.806714375969023E-004;4.294686950743198E-003;
2.401000000000000E+009;1.539517343044281E-001;9.627006202936173E-002;-1.306424383074045E-004;4.272187128663063E-003;
2.401166666666667E+009;1.538527756929398E-001;9.333753585815430E-002;-2.103524275298696E-005;4.213921260088682E-003;
2.401333333333334E+009;1.539216190576553E-001;9.062916040420532E-002;2.366244152653962E-004;4.245795775204897E-003;
2.401500000000000E+009;1.541744172573090E-001;8.745329082012177E-002;3.117056330665946E-004;4.079079255461693E-003;
2.401666666666667E+009;1.541632264852524E-001;8.448023349046707E-002;3.431291261222214E-004;4.215219989418984E-003;
2.401833333333334E+009;1.546093970537186E-001;8.169421553611755E-002;4.384239146020263E-004;4.217884037643671E-003;
2.402000000000000E+009;1.551972776651382E-001;7.867191731929779E-002;5.645693745464087E-004;4.131217487156391E-003;
2.402166666666667E+009;1.559922397136688E-001;7.576137036085129E-002;5.464658024720848E-004;4.300865810364485E-003;
2.402333333333334E+009;1.568932831287384E-001;7.281521707773209E-002;7.719347486272454E-004;4.275796934962273E-003;
2.402500000000000E+009;1.579530537128449E-001;7.020453363656998E-002;7.362762116827071E-004;4.362247884273529E-003;
2.402666666666667E+009;1.588101387023926E-001;6.750547140836716E-002;8.762472425587475E-004;4.156333394348621E-003;
2.402833333333334E+009;1.600711047649384E-001;6.466666609048843E-002;1.054221880622208E-003;4.417930729687214E-003;
2.403000000000000E+009;1.617406904697418E-001;6.205413118004799E-002;1.244298880919814E-003;4.576654639095068E-003;
2.403166666666667E+009;1.634338051080704E-001;5.976743251085281E-002;1.595317851752043E-003;4.468405619263649E-003;
2.403333333333334E+009;1.647598147392273E-001;5.734817683696747E-002;1.639340538531542E-003;4.575804341584444E-003;
2.403500000000000E+009;1.665036976337433E-001;5.495714023709297E-002;1.697329920716584E-003;4.656906705349684E-003;
2.403666666666667E+009;1.684188693761826E-001;5.254162847995758E-002;1.814189250580967E-003;4.587937146425247E-003;
2.403833333333334E+009;1.702238470315933E-001;5.053786188364029E-002;2.333619166165590E-003;4.530509933829308E-003;
2.404000000000000E+009;1.718319654464722E-001;4.835817217826843E-002;2.570373704656959E-003;4.418271128088236E-003;
2.404166666666667E+009;1.737568229436874E-001;4.682676866650581E-002;2.535511739552021E-003;4.446318838745356E-003;
2.404333333333334E+009;1.758281588554382E-001;4.510007798671722E-002;3.161417320370674E-003;4.424800630658865E-003;
2.404500000000000E+009;1.775064021348953E-001;4.334187507629395E-002;3.231285139918327E-003;4.275511950254440E-003;
2.404666666666667E+009;1.792260706424713E-001;4.203115031123161E-002;3.573093330487609E-003;4.036606289446354E-003;
2.404833333333334E+009;1.811028420925140E-001;4.080595821142197E-002;3.590199630707502E-003;3.979351837188005E-003;
2.405000000000000E+009;1.827947497367859E-001;4.015487059950829E-002;3.886757651343942E-003;3.744446439668536E-003;
2.405166666666667E+009;1.844667494297028E-001;3.911904990673065E-002;4.065326415002346E-003;3.570415778085589E-003;
2.405333333333334E+009;1.861194372177124E-001;3.859504312276840E-002;4.238985013216734E-003;3.488739253953099E-003;
2.405500000000000E+009;1.878554075956345E-001;3.798127174377441E-002;4.329441580921412E-003;3.191458759829402E-003;
2.405666666666667E+009;1.892426908016205E-001;3.772575780749321E-002;4.517345223575831E-003;2.950884867459536E-003;
2.405833333333334E+009;1.907797753810883E-001;3.743486851453781E-002;4.710645414888859E-003;2.728211693465710E-003;
2.406000000000000E+009;1.920199990272522E-001;3.718634322285652E-002;4.872810561209917E-003;2.573449630290270E-003;
2.406166666666667E+009;1.933561563491821E-001;3.713332116603851E-002;4.983495920896530E-003;2.305075060576201E-003;
2.406333333333334E+009;1.945799589157105E-001;3.722789138555527E-002;5.027067381888628E-003;1.995077356696129E-003;
2.406500000000000E+009;1.955733597278595E-001;3.741127997636795E-002;5.034340079873800E-003;1.746505731716752E-003;
2.406666666666667E+009;1.964279711246491E-001;3.761606290936470E-002;5.151499994099140E-003;1.567639294080436E-003;
2.406833333333334E+009;1.971868723630905E-001;3.771466761827469E-002;5.128862801939249E-003;1.267527928575873E-003;
2.407000000000000E+009;1.975832730531693E-001;3.816304355859757E-002;4.988127853721380E-003;1.144401147030294E-003;
2.407166666666667E+009;1.982637792825699E-001;3.821904212236404E-002;4.995031747967005E-003;9.214612073265016E-004;
2.407333333333334E+009;1.983666121959686E-001;3.876517713069916E-002;5.053820554167032E-003;8.220018935389817E-004;
2.407500000000000E+009;1.984835267066956E-001;3.896955400705338E-002;5.008388776332140E-003;4.049000854138285E-004;
2.407666666666667E+009;1.985872983932495E-001;3.916742652654648E-002;4.924381617456675E-003;3.600858035497367E-004;
2.407833333333334E+009;1.983356475830078E-001;3.942886739969254E-002;4.961580038070679E-003;2.702171041164547E-004;
2.408000000000000E+009;1.984435915946960E-001;3.961319848895073E-002;4.798541311174631E-003;3.459483559709042E-005;
2.408166666666667E+009;1.978046596050263E-001;3.962547704577446E-002;4.768228158354759E-003;-1.361673057544977E-004;
2.408333333333334E+009;1.974570006132126E-001;3.938067704439163E-002;4.632270429283381E-003;-4.345730121713132E-004;
2.408500000000000E+009;1.967650651931763E-001;3.937357664108276E-002;4.554562736302614E-003;-6.543928175233305E-004;
2.408666666666667E+009;1.960747539997101E-001;3.921147063374519E-002;4.537599626928568E-003;-6.922620232217014E-004;
2.408833333333334E+009;1.953404247760773E-001;3.874503076076508E-002;4.552328493446112E-003;-9.179025073535740E-004;
2.409000000000000E+009;1.943687200546265E-001;3.822085261344910E-002;4.426459781825542E-003;-1.008433871902525E-003;
2.409166666666667E+009;1.933455765247345E-001;3.748157247900963E-002;4.189250990748406E-003;-1.326750265434384E-003;
2.409333333333334E+009;1.922660320997238E-001;3.691333904862404E-002;4.030182491987944E-003;-1.332624698989093E-003;
2.409500000000000E+009;1.909803748130798E-001;3.580738604068756E-002;3.941507078707218E-003;-1.430055708624423E-003;
2.409666666666667E+009;1.897737979888916E-001;3.454212099313736E-002;3.778000827878714E-003;-1.470619696192443E-003;
2.409833333333334E+009;1.885906010866165E-001;3.348412737250328E-002;3.599595278501511E-003;-1.446968992240727E-003;
2.410000000000000E+009;1.874240487813950E-001;3.214845433831215E-002;3.663455136120319E-003;-1.594598870724440E-003;
2.410166666666667E+009;1.862490773200989E-001;3.050864674150944E-002;3.445416456088424E-003;-1.519181416369975E-003;
2.410333333333334E+009;1.850081086158752E-001;2.883244492113590E-002;3.386615542694926E-003;-1.562471035867930E-003;
2.410500000000000E+009;1.839127242565155E-001;2.696786448359489E-002;3.264765487983823E-003;-1.682644593529403E-003;
2.410666666666667E+009;1.826489716768265E-001;2.485025860369206E-002;3.130004741251469E-003;-1.499771373346448E-003;
2.410833333333334E+009;1.818026453256607E-001;2.271313965320587E-002;3.193720942363143E-003;-1.550017041154206E-003;
2.411000000000000E+009;1.806430965662003E-001;2.077469229698181E-002;3.239263314753771E-003;-1.717068487778306E-003;
2.411166666666667E+009;1.799724102020264E-001;1.857723668217659E-002;3.044851124286652E-003;-1.823547296226025E-003;
2.411333333333334E+009;1.791220456361771E-001;1.615353859961033E-002;3.067744197323918E-003;-1.818215940147638E-003;
2.411500000000000E+009;1.784584075212479E-001;1.362936478108168E-002;2.897153608500958E-003;-1.723304158076644E-003;
2.411666666666667E+009;1.780728399753571E-001;1.124286465346813E-002;2.955650677904487E-003;-1.691639656201005E-003;
2.411833333333334E+009;1.773647516965866E-001;8.685112930834293E-003;2.829744014889002E-003;-1.883821678347886E-003;
2.412000000000000E+009;1.773593276739121E-001;5.911213345825672E-003;2.862831111997366E-003;-1.837716088630259E-003;
2.412166666666667E+009;1.773016452789307E-001;3.522502491250634E-003;2.754681045189500E-003;-1.811162219382823E-003;
2.412333333333334E+009;1.773585081100464E-001;9.786783484742045E-004;2.705543069168925E-003;-1.831642584875226E-003;
2.412500000000000E+009;1.776031851768494E-001;-1.701300148852170E-003;2.708996878936887E-003;-1.784462714567781E-003;
2.412666666666667E+009;1.779090464115143E-001;-4.449990577995777E-003;2.681255573406816E-003;-1.825398881919682E-003;
2.412833333333334E+009;1.786324530839920E-001;-7.136643864214420E-003;2.663079416379333E-003;-1.826365478336811E-003;
2.413000000000000E+009;1.793909966945648E-001;-9.521981701254845E-003;2.695605624467135E-003;-1.986979972571135E-003;
2.413166666666667E+009;1.800303459167481E-001;-1.204909477382898E-002;2.691445872187614E-003;-1.957405591383576E-003;
2.413333333333334E+009;1.810593158006668E-001;-1.458148099482060E-002;2.667180960997939E-003;-1.852282905019820E-003;
2.413500000000000E+009;1.819133311510086E-001;-1.718568615615368E-002;2.834918210282922E-003;-2.082801656797528E-003;
2.413666666666667E+009;1.831842362880707E-001;-1.959477923810482E-002;2.740779891610146E-003;-2.109006978571415E-003;
2.413833333333334E+009;1.845260858535767E-001;-2.189014479517937E-002;2.818840788677335E-003;-2.199660986661911E-003;
2.414000000000000E+009;1.855430155992508E-001;-2.406688593327999E-002;2.867238130420446E-003;-2.070442074909806E-003;
2.414166666666667E+009;1.869754642248154E-001;-2.616365253925324E-002;2.853000070899725E-003;-2.354685915634036E-003;
2.414333333333334E+009;1.882604211568832E-001;-2.827081643044949E-002;2.907071495428681E-003;-2.478960203006864E-003;
2.414500000000000E+009;1.896878629922867E-001;-2.996566705405712E-002;2.881079446524382E-003;-2.566072158515453E-003;
2.414666666666667E+009;1.909550577402115E-001;-3.180140256881714E-002;2.923558698967099E-003;-2.832144964486361E-003;
2.414833333333334E+009;1.922952681779862E-001;-3.336399048566818E-002;2.705732127651572E-003;-2.830852288752794E-003;
2.415000000000000E+009;1.936078369617462E-001;-3.496672585606575E-002;2.684399252757430E-003;-3.152699908241630E-003;
2.415166666666667E+009;1.951745450496674E-001;-3.619163110852242E-002;2.659183228388429E-003;-3.091150894761086E-003;
2.415333333333334E+009;1.966012120246887E-001;-3.731378540396690E-002;2.505159936845303E-003;-3.298018593341112E-003;
2.415500000000000E+009;1.980071663856506E-001;-3.822363168001175E-002;2.486779121682048E-003;-3.542410442605615E-003;
2.415666666666667E+009;1.992986649274826E-001;-3.917026147246361E-002;2.460133749991655E-003;-3.645141376182437E-003;
2.415833333333334E+009;2.004510909318924E-001;-3.992354497313500E-002;2.415943890810013E-003;-3.760763676837087E-003;
2.416000000000000E+009;2.014940977096558E-001;-4.071166366338730E-002;2.081444021314383E-003;-3.921729046851397E-003;
2.416166666666667E+009;2.025616019964218E-001;-4.119151830673218E-002;2.158632269129157E-003;-4.119487479329109E-003;
2.416333333333334E+009;2.035916894674301E-001;-4.156705737113953E-002;1.857412396930158E-003;-4.144550766795874E-003;
2.416500000000000E+009;2.042997777462006E-001;-4.190788790583611E-002;1.775915967300534E-003;-4.184301011264324E-003;
2.416666666666667E+009;2.050124853849411E-001;-4.228733852505684E-002;1.702637644484639E-003;-4.429207183420658E-003;
2.416833333333334E+009;2.054034024477005E-001;-4.229639470577240E-002;1.463880646042526E-003;-4.299753811210394E-003;
2.417000000000000E+009;2.057846188545227E-001;-4.245458915829659E-002;1.218928373418748E-003;-4.462214652448893E-003;
2.417166666666667E+009;2.056410461664200E-001;-4.225892573595047E-002;1.234194263815880E-003;-4.447122104465962E-003;
2.417333333333334E+009;2.058141231536865E-001;-4.199829325079918E-002;9.730128804221749E-004;-4.564800299704075E-003;
2.417500000000000E+009;2.057099193334580E-001;-4.184368625283241E-002;8.486511651426554E-004;-4.531182814389467E-003;
2.417666666666667E+009;2.054190039634705E-001;-4.157907888293266E-002;6.263420800678432E-004;-4.500425420701504E-003;
2.417833333333334E+009;2.051297873258591E-001;-4.124176129698753E-002;5.487465532496572E-004;-4.571761004626751E-003;
2.418000000000000E+009;2.045914977788925E-001;-4.085008800029755E-002;4.711371148005128E-004;-4.537263419479132E-003;
2.418166666666667E+009;2.039779275655747E-001;-4.074136912822723E-002;2.929068868979812E-004;-4.675512202084065E-003;
2.418333333333334E+009;2.031363993883133E-001;-4.020835086703301E-002;1.992066972889006E-004;-4.622440319508314E-003;
2.418500000000000E+009;2.022961974143982E-001;-4.010156169533730E-002;5.342201802704949E-006;-4.627280402928591E-003;
2.418666666666667E+009;2.014920413494110E-001;-3.974624350667000E-002;-6.256825145101175E-005;-4.611129406839609E-003;
2.418833333333334E+009;2.001859843730927E-001;-3.975275903940201E-002;-2.920501865446568E-004;-4.843409173190594E-003;
2.419000000000000E+009;1.989939808845520E-001;-3.976363688707352E-002;-3.350839542690665E-004;-4.896290600299835E-003;
2.419166666666667E+009;1.976779401302338E-001;-3.987774252891541E-002;-5.466199363581836E-004;-4.822022281587124E-003;
2.419333333333334E+009;1.962142735719681E-001;-4.001620411872864E-002;-8.197116549126804E-004;-5.117661319673061E-003;
2.419500000000000E+009;1.946552693843842E-001;-4.037779197096825E-002;-7.633900386281312E-004;-5.151147488504648E-003;
2.419666666666667E+009;1.931656301021576E-001;-4.090354591608048E-002;-1.121274777688086E-003;-5.054650828242302E-003;
2.419833333333334E+009;1.912717521190643E-001;-4.139099642634392E-002;-1.170362811535597E-003;-5.036356858909130E-003;
2.420000000000000E+009;1.898576915264130E-001;-4.204179719090462E-002;-1.619610120542347E-003;-5.049557890743017E-003;
2.420166666666667E+009;1.879051178693771E-001;-4.288830980658531E-002;-1.777404570020735E-003;-5.109034478664398E-003;
2.420333333333334E+009;1.860580146312714E-001;-4.397979006171227E-002;-2.127728192135692E-003;-4.966321866959333E-003;
2.420500000000000E+009;1.842263340950012E-001;-4.528025165200234E-002;-2.372073940932751E-003;-4.865037743002176E-003;
2.420666666666667E+009;1.824210286140442E-001;-4.623560607433319E-002;-2.665650798007846E-003;-4.781584721058607E-003;
2.420833333333334E+009;1.806437224149704E-001;-4.769324138760567E-002;-2.795444568619132E-003;-4.669765941798687E-003;
2.421000000000000E+009;1.788410991430283E-001;-4.912998527288437E-002;-2.879633335396648E-003;-4.452664405107498E-003;
2.421166666666667E+009;1.771991848945618E-001;-5.082756280899048E-002;-2.979174721986055E-003;-4.345950204879046E-003;
2.421333333333334E+009;1.752713173627853E-001;-5.249640718102455E-002;-3.195927711203694E-003;-4.088912624865770E-003;
2.421500000000000E+009;1.736686080694199E-001;-5.426766350865364E-002;-3.370403544977307E-003;-4.049613140523434E-003;
2.421666666666667E+009;1.723683327436447E-001;-5.622448399662972E-002;-3.366129007190466E-003;-3.925523255020380E-003;
2.421833333333334E+009;1.707916110754013E-001;-5.812142416834831E-002;-3.638886380940676E-003;-3.748964052647352E-003;
2.422000000000000E+009;1.694641262292862E-001;-6.029893457889557E-002;-3.734612604603171E-003;-3.603815799579024E-003;
2.422166666666667E+009;1.684115082025528E-001;-6.243992596864700E-002;-3.711441298946738E-003;-3.461767220869660E-003;
2.422333333333334E+009;1.672324687242508E-001;-6.448147445917130E-002;-3.889385145157576E-003;-3.436505328863859E-003;
2.422500000000000E+009;1.661740094423294E-001;-6.651767343282700E-002;-3.919248469173908E-003;-3.133276943117380E-003;
2.422666666666667E+009;1.653042435646057E-001;-6.895519793033600E-002;-4.048274829983711E-003;-2.874163212254643E-003;
2.422833333333334E+009;1.647070050239563E-001;-7.101975381374359E-002;-4.052323754876852E-003;-2.908129943534732E-003;
2.423000000000000E+009;1.639574468135834E-001;-7.341487705707550E-002;-4.025698639452457E-003;-2.835196908563376E-003;
2.423166666666667E+009;1.636144965887070E-001;-7.552014291286469E-002;-4.077428020536900E-003;-2.686886349692941E-003;
2.423333333333334E+009;1.633312851190567E-001;-7.771320641040802E-002;-4.103329498320818E-003;-2.560588764026761E-003;
2.423500000000000E+009;1.629538834095001E-001;-7.976192235946655E-002;-4.301485605537891E-003;-2.510097576305270E-003;
2.423666666666667E+009;1.630072593688965E-001;-8.189664036035538E-002;-4.339965526014566E-003;-2.384759485721588E-003;
2.423833333333334E+009;1.628432422876358E-001;-8.390497416257858E-002;-4.454211331903935E-003;-2.201274270191789E-003;
2.424000000000000E+009;1.629540473222733E-001;-8.604272454977036E-002;-4.625161178410053E-003;-1.887795515358448E-003;
2.424166666666667E+009;1.630776822566986E-001;-8.791158348321915E-002;-4.674560390412808E-003;-1.957419095560908E-003;
2.424333333333334E+009;1.633711755275726E-001;-8.962862938642502E-002;-4.752654116600752E-003;-1.693848520517349E-003;
2.424500000000000E+009;1.636876463890076E-001;-9.180294722318649E-002;-4.799373447895050E-003;-1.542304176837206E-003;
2.424666666666667E+009;1.640869379043579E-001;-9.316214174032211E-002;-4.753999412059784E-003;-1.246648258529604E-003;
2.424833333333334E+009;1.646415591239929E-001;-9.469380974769592E-002;-4.750448744744062E-003;-1.081257825717330E-003;
2.425000000000000E+009;1.650927066802979E-001;-9.611152112483978E-002;-5.067263729870319E-003;-1.031250809319317E-003;
2.425166666666667E+009;1.656009405851364E-001;-9.743241965770721E-002;-4.976934287697077E-003;-7.881379569880664E-004;
2.425333333333334E+009;1.660760939121246E-001;-9.862492978572846E-002;-5.063206888735294E-003;-4.378821176942438E-004;
2.425500000000000E+009;1.668268144130707E-001;-9.975439310073853E-002;-4.891437944024801E-003;-4.540710651781410E-004;
2.425666666666667E+009;1.672083586454392E-001;-1.005981341004372E-001;-4.929190501570702E-003;-1.658257970120758E-004;
2.425833333333334E+009;1.677734255790710E-001;-1.015710532665253E-001;-4.907042719423771E-003;-1.226453459821641E-004;
2.426000000000000E+009;1.683751791715622E-001;-1.020253822207451E-001;-4.842926748096943E-003;2.875666541513056E-004;
2.426166666666667E+009;1.690304130315781E-001;-1.026895493268967E-001;-4.935516510158777E-003;4.317699931561947E-004;
2.426333333333334E+009;1.694562733173370E-001;-1.032170131802559E-001;-4.810159094631672E-003;4.261307185515761E-004;
2.426500000000000E+009;1.699849665164948E-001;-1.034168526530266E-001;-4.687456879764795E-003;7.492679869756103E-004;
2.426666666666667E+009;1.704125404357910E-001;-1.039331629872322E-001;-4.757544957101345E-003;7.108676363714039E-004;
2.426833333333334E+009;1.710054129362106E-001;-1.040741503238678E-001;-4.602541681379080E-003;9.761181427165866E-004;
2.427000000000000E+009;1.712600290775299E-001;-1.042902991175652E-001;-4.610534291714430E-003;1.113657257519662E-003;
2.427166666666667E+009;1.714402884244919E-001;-1.042776405811310E-001;-4.479756578803062E-003;1.230790512636304E-003;
2.427333333333334E+009;1.715984344482422E-001;-1.044877618551254E-001;-4.453914240002632E-003;1.314206747338176E-003;
2.427500000000000E+009;1.715788692235947E-001;-1.044374108314514E-001;-4.304532427340746E-003;1.551984576508403E-003;
2.427666666666667E+009;1.714874655008316E-001;-1.044285371899605E-001;-4.088268149644136E-003;1.750930212438107E-003;
2.427833333333334E+009;1.713528782129288E-001;-1.043509095907211E-001;-4.069491755217314E-003;1.823695027269423E-003;
