# Version 1.00
#
freq[Hz];re:Trc1_S11;im:Trc1_S11;re:Trc2_S21;im:Trc2_S21;
2.400000000000000E+009;1.555936485528946E-001;1.116934418678284E-001;-1.030521700158715E-003;3.822855185717344E-003;
2.400166666666667E+009;1.551425606012344E-001;1.093611717224121E-001;-9.811642812564969E-004;3.919313661754131E-003;
2.400333333333334E+009;1.549166440963745E-001;1.071753948926926E-001;-9.064615587703884E-004;4.118466284126043E-003;
2.400500000000000E+009;1.546127349138260E-001;1.044692248106003E-001;-6.003988091833890E-004;4.254077095538378E-003;
2.400666666666667E+009;1.544368863105774E-001;1.020892783999443E-001;-5.314377485774458E-004;4.094537347555161E-003;
2.400833333333334E+009;1.541410535573959E-001;9.909218549728394E-002;-1.740949664963409E-004;4.319437313824892E-003;
2.401000000000000E+009;1.539868414402008E-001;9.622897952795029E-002;-7.965437362145167E-006;4.303953610360622E-003;
2.401166666666667E+009;1.538582295179367E-001;9.352164715528488E-002;7.736789120826870E-005;4.288733471184969E-003;
2.401333333333334E+009;1.540100276470184E-001;9.049062430858612E-002;2.345544489799067E-004;4.370882175862789E-003;
2.401500000000000E+009;1.542855501174927E-001;8.741720020771027E-002;3.661927476059645E-004;4.183878190815449E-003;
2.401666666666667E+009;1.543031483888626E-001;8.427815139293671E-002;4.247109463904053E-004;4.222834017127752E-003;
2.401833333333334E+009;1.547855436801910E-001;8.138366043567658E-002;5.620379815809429E-004;4.125647246837616E-003;
2.402000000000000E+009;1.552878320217133E-001;7.849420607089996E-002;6.232626619748771E-004;4.256642889231443E-003;
2.402166666666667E+009;1.561376601457596E-001;7.562146335840225E-002;5.956362001597881E-004;4.291141871362925E-003;
2.402333333333334E+009;1.568745374679565E-001;7.276032865047455E-002;8.501837146468461E-004;4.238287452608347E-003;
2.402500000000000E+009;1.579602211713791E-001;6.984800845384598E-002;9.680496877990663E-004;4.249588120728731E-003;
2.402666666666667E+009;1.590586453676224E-001;6.731706112623215E-002;1.038327114656568E-003;4.295182880014181E-003;
2.402833333333334E+009;1.602029353380203E-001;6.457380205392838E-002;1.199606689624488E-003;4.413073416799307E-003;
2.403000000000000E+009;1.617029160261154E-001;6.199480965733528E-002;1.321146497502923E-003;4.365507513284683E-003;
2.403166666666667E+009;1.633672416210175E-001;5.952209606766701E-002;1.484979758970439E-003;4.335674922913313E-003;
2.403333333333334E+009;1.647446155548096E-001;5.725810304284096E-002;1.699121203273535E-003;4.416954237967730E-003;
2.403500000000000E+009;1.665419489145279E-001;5.478515103459358E-002;1.803628751076758E-003;4.385192878544331E-003;
2.403666666666667E+009;1.683529615402222E-001;5.251412838697434E-002;1.959528075531125E-003;4.440146032720804E-003;
2.403833333333334E+009;1.700704544782639E-001;5.041580274701119E-002;2.369999419897795E-003;4.462620243430138E-003;
2.404000000000000E+009;1.718155145645142E-001;4.849965497851372E-002;2.560974564403296E-003;4.411112051457167E-003;
2.404166666666667E+009;1.737805902957916E-001;4.672298207879067E-002;2.670653397217393E-003;4.286842886358500E-003;
2.404333333333334E+009;1.756783276796341E-001;4.493010789155960E-002;3.136070910841227E-003;4.402416292577982E-003;
2.404500000000000E+009;1.774101704359055E-001;4.340893775224686E-002;3.165216650813818E-003;4.198457580059767E-003;
2.404666666666667E+009;1.791832894086838E-001;4.211108759045601E-002;3.508893307298422E-003;4.031688440591097E-003;
2.404833333333334E+009;1.810667961835861E-001;4.079169034957886E-002;3.656474640592933E-003;3.828721120953560E-003;
2.405000000000000E+009;1.828046888113022E-001;3.987007215619087E-002;3.847595769912005E-003;3.821444930508733E-003;
2.405166666666667E+009;1.843203604221344E-001;3.910482302308083E-002;4.110684152692556E-003;3.520098980516195E-003;
2.405333333333334E+009;1.861444413661957E-001;3.859492018818855E-002;4.230234771966934E-003;3.292291890829802E-003;
2.405500000000000E+009;1.877593100070953E-001;3.804564103484154E-002;4.455652553588152E-003;3.117680316790938E-003;
2.405666666666667E+009;1.893719285726547E-001;3.760786354541779E-002;4.401305224746466E-003;2.950999187305570E-003;
2.405833333333334E+009;1.907897889614105E-001;3.735781088471413E-002;4.589369986206293E-003;2.667584922164679E-003;
2.406000000000000E+009;1.921115666627884E-001;3.727310523390770E-002;4.820288624614477E-003;2.588163828477264E-003;
2.406166666666667E+009;1.933780759572983E-001;3.716704249382019E-002;4.814424552023411E-003;2.310086740180850E-003;
2.406333333333334E+009;1.945495158433914E-001;3.719076141715050E-002;4.843334667384625E-003;1.956676365807653E-003;
2.406500000000000E+009;1.954359561204910E-001;3.725770488381386E-002;4.901209380477667E-003;1.762100728228688E-003;
2.406666666666667E+009;1.965288370847702E-001;3.745136037468910E-002;4.986746236681938E-003;1.429992495104671E-003;
2.406833333333334E+009;1.970498710870743E-001;3.761671110987663E-002;5.115604028105736E-003;1.365081057883799E-003;
2.407000000000000E+009;1.975582540035248E-001;3.803779557347298E-002;5.007003434002399E-003;1.126031507737935E-003;
2.407166666666667E+009;1.983723491430283E-001;3.805233538150787E-002;5.010582972317934E-003;7.467045215889812E-004;
2.407333333333334E+009;1.984168440103531E-001;3.854221850633621E-002;4.960276652127504E-003;6.938815349712968E-004;
2.407500000000000E+009;1.985234022140503E-001;3.891473636031151E-002;4.875102546066046E-003;5.619095172733069E-004;
2.407666666666667E+009;1.987270712852478E-001;3.922554478049278E-002;4.804754164069891E-003;1.680129353189841E-004;
2.407833333333334E+009;1.983613669872284E-001;3.928631171584129E-002;4.740849602967501E-003;1.914398162625730E-004;
2.408000000000000E+009;1.982790827751160E-001;3.942865133285523E-002;4.748188890516758E-003;-1.845631195465103E-004;
2.408166666666667E+009;1.978595703840256E-001;3.936276957392693E-002;4.639210645109415E-003;-2.677088486962020E-004;
2.408333333333334E+009;1.975896805524826E-001;3.921908140182495E-002;4.740009084343910E-003;-5.375444306991994E-004;
2.408500000000000E+009;1.969467103481293E-001;3.926443308591843E-002;4.533522762358189E-003;-6.806150195188820E-004;
2.408666666666667E+009;1.961589157581329E-001;3.909073397517204E-002;4.520241636782885E-003;-8.278370369225740E-004;
2.408833333333334E+009;1.954632401466370E-001;3.878169134259224E-002;4.415905103087425E-003;-9.435482206754386E-004;
2.409000000000000E+009;1.944484561681747E-001;3.799321874976158E-002;4.353495314717293E-003;-1.100767287425697E-003;
2.409166666666667E+009;1.933462321758270E-001;3.752746060490608E-002;4.074599128216505E-003;-1.158283208496869E-003;
2.409333333333334E+009;1.923005431890488E-001;3.687832504510880E-002;4.080553539097309E-003;-1.392549835145474E-003;
2.409500000000000E+009;1.911263018846512E-001;3.581607341766357E-002;3.847922198474407E-003;-1.407479285262525E-003;
2.409666666666667E+009;1.898860931396484E-001;3.455334901809692E-002;3.661717288196087E-003;-1.412534038536251E-003;
2.409833333333334E+009;1.886839568614960E-001;3.347074612975121E-002;3.663141513243318E-003;-1.521079102531076E-003;
2.410000000000000E+009;1.874359548091888E-001;3.192224353551865E-002;3.546060295775533E-003;-1.491843140684068E-003;
2.410166666666667E+009;1.861955076456070E-001;3.036321327090263E-002;3.351940307766199E-003;-1.575787784531713E-003;
2.410333333333334E+009;1.851878613233566E-001;2.863012999296188E-002;3.329387400299311E-003;-1.626312150619924E-003;
2.410500000000000E+009;1.838588267564774E-001;2.700256556272507E-002;3.215873613953590E-003;-1.506851403973997E-003;
2.410666666666667E+009;1.826923936605454E-001;2.482099831104279E-002;3.366696182638407E-003;-1.706885406747460E-003;
2.410833333333334E+009;1.817822754383087E-001;2.269154042005539E-002;3.243355080485344E-003;-1.689422293566167E-003;
2.411000000000000E+009;1.808253526687622E-001;2.062394097447395E-002;3.030744614079595E-003;-1.787452958524227E-003;
2.411166666666667E+009;1.799341589212418E-001;1.850420422852039E-002;3.085597651079297E-003;-1.638375106267631E-003;
2.411333333333334E+009;1.791017204523087E-001;1.584435626864433E-002;2.917934907600284E-003;-1.800792524591088E-003;
2.411500000000000E+009;1.783229857683182E-001;1.356368977576494E-002;2.887963782995939E-003;-1.727888360619545E-003;
2.411666666666667E+009;1.781696528196335E-001;1.098149921745062E-002;2.796387067064643E-003;-1.854414585977793E-003;
2.411833333333334E+009;1.775698661804199E-001;8.595348335802555E-003;2.863409696146846E-003;-1.982813235372305E-003;
2.412000000000000E+009;1.773326247930527E-001;5.934920161962509E-003;2.675762632861733E-003;-1.967889955267310E-003;
2.412166666666667E+009;1.773076653480530E-001;3.576426999643445E-003;2.688496839255095E-003;-1.677055959589779E-003;
2.412333333333334E+009;1.774662435054779E-001;7.650233455933631E-004;2.512880600988865E-003;-1.792709226720035E-003;
2.412500000000000E+009;1.777486503124237E-001;-1.884617493487895E-003;2.742512384429574E-003;-1.926987781189382E-003;
2.412666666666667E+009;1.781680434942246E-001;-4.599148873239756E-003;2.654344309121370E-003;-1.813390757888556E-003;
2.412833333333334E+009;1.787047386169434E-001;-7.089507300406694E-003;2.589229494333267E-003;-1.925653894431889E-003;
2.413000000000000E+009;1.793538033962250E-001;-9.696463122963905E-003;2.632291754707694E-003;-1.822486286982894E-003;
2.413166666666667E+009;1.801994144916534E-001;-1.209457404911518E-002;2.648389665409923E-003;-1.749732648022473E-003;
2.413333333333334E+009;1.810404807329178E-001;-1.481157727539539E-002;2.727550221607089E-003;-2.022990956902504E-003;
2.413500000000000E+009;1.820103526115418E-001;-1.740027219057083E-002;2.744285622611642E-003;-2.041325205937028E-003;
2.413666666666667E+009;1.832329481840134E-001;-1.977734640240669E-002;2.675901865586639E-003;-2.042143605649471E-003;
2.413833333333334E+009;1.845198273658752E-001;-2.195179834961891E-002;2.834554295986891E-003;-2.267875475808978E-003;
2.414000000000000E+009;1.854673326015472E-001;-2.411945722997189E-002;2.870077267289162E-003;-2.303793793544173E-003;
2.414166666666667E+009;1.870498806238174E-001;-2.616283856332302E-002;2.731065265834332E-003;-2.456058515235782E-003;
2.414333333333334E+009;1.880893856287003E-001;-2.847505919635296E-002;2.838950604200363E-003;-2.605465240776539E-003;
2.414500000000000E+009;1.896764636039734E-001;-3.007061593234539E-002;2.738992450758815E-003;-2.609035465866327E-003;
2.414666666666667E+009;1.909738183021545E-001;-3.188921511173248E-002;2.714619273319840E-003;-2.751141088083386E-003;
2.414833333333334E+009;1.924354583024979E-001;-3.343031927943230E-002;2.654561307281256E-003;-2.852465026080608E-003;
2.415000000000000E+009;1.936246603727341E-001;-3.494837507605553E-002;2.637671772390604E-003;-3.055981127545238E-003;
2.415166666666667E+009;1.951868236064911E-001;-3.622261807322502E-002;2.569014905020595E-003;-3.248600056394935E-003;
2.415333333333334E+009;1.965585201978684E-001;-3.738122060894966E-002;2.477322937920690E-003;-3.389004152268171E-003;
2.415500000000000E+009;1.979075521230698E-001;-3.835156932473183E-002;2.432423876598477E-003;-3.510178299620748E-003;
2.415666666666667E+009;1.992864012718201E-001;-3.933714702725411E-002;2.481467556208372E-003;-3.542056074365974E-003;
2.415833333333334E+009;2.003605812788010E-001;-4.003185778856278E-002;2.278036437928677E-003;-3.761073574423790E-003;
2.416000000000000E+009;2.015219479799271E-001;-4.068755730986595E-002;2.008293289691210E-003;-3.836505347862840E-003;
2.416166666666667E+009;2.024357020854950E-001;-4.146647453308106E-002;2.029630588367581E-003;-4.010845441371203E-003;
2.416333333333334E+009;2.034772187471390E-001;-4.170635715126991E-002;2.097454154863954E-003;-4.159484524279833E-003;
2.416500000000000E+009;2.042180895805359E-001;-4.205258190631867E-002;1.794341602362692E-003;-4.308146424591541E-003;
2.416666666666667E+009;2.047530114650726E-001;-4.241527244448662E-002;1.493014744482935E-003;-4.350136034190655E-003;
2.416833333333334E+009;2.053144574165344E-001;-4.239548370242119E-002;1.528534805402160E-003;-4.428822547197342E-003;
2.417000000000000E+009;2.056912183761597E-001;-4.248746484518051E-002;1.117841806262732E-003;-4.579354077577591E-003;
2.417166666666667E+009;2.055872231721878E-001;-4.236050322651863E-002;9.467652416788042E-004;-4.434546921402216E-003;
2.417333333333334E+009;2.057083994150162E-001;-4.212938994169235E-002;8.861752576194704E-004;-4.623686429113150E-003;
2.417500000000000E+009;2.056300342082977E-001;-4.202799126505852E-002;6.409427733160555E-004;-4.720144439488649E-003;
2.417666666666667E+009;2.053501754999161E-001;-4.165976122021675E-002;7.038828334771097E-004;-4.695668350905180E-003;
2.417833333333334E+009;2.050356268882752E-001;-4.141232743859291E-002;3.490043163765222E-004;-4.650549497455359E-003;
2.418000000000000E+009;2.045672535896301E-001;-4.085722938179970E-002;3.458424471318722E-004;-4.539358895272017E-003;
2.418166666666667E+009;2.038159370422363E-001;-4.076374322175980E-002;9.007795597426593E-005;-4.662482067942619E-003;
2.418333333333334E+009;2.031780034303665E-001;-4.040015488862991E-002;1.082899907487445E-004;-4.798830486834049E-003;
2.418500000000000E+009;2.021362930536270E-001;-4.018178954720497E-002;-2.491421764716506E-005;-4.632526077330113E-003;
2.418666666666667E+009;2.013816088438034E-001;-3.988588973879814E-002;7.265633030328900E-006;-4.752858541905880E-003;
2.418833333333334E+009;2.000664919614792E-001;-3.985775262117386E-002;-2.660320315044373E-004;-4.802017938345671E-003;
2.419000000000000E+009;1.987658888101578E-001;-3.980056196451187E-002;-3.259812365286052E-004;-4.918050486594439E-003;
2.419166666666667E+009;1.975026577711105E-001;-3.990139439702034E-002;-5.380017100833356E-004;-4.951619077473879E-003;
2.419333333333334E+009;1.961932182312012E-001;-4.016483575105667E-002;-6.435993709601462E-004;-4.979630466550589E-003;
2.419500000000000E+009;1.946321725845337E-001;-4.051821678876877E-002;-8.852108148857951E-004;-5.077637266367674E-003;
2.419666666666667E+009;1.929737776517868E-001;-4.096988588571549E-002;-1.031167572364211E-003;-5.030004773288965E-003;
2.419833333333334E+009;1.911009401082993E-001;-4.146757349371910E-002;-1.309026847593486E-003;-5.148119293153286E-003;
2.420000000000000E+009;1.896285116672516E-001;-4.207024350762367E-002;-1.597595051862299E-003;-5.000165663659573E-003;
2.420166666666667E+009;1.876977384090424E-001;-4.304838553071022E-002;-1.793931121937931E-003;-5.082204937934876E-003;
2.420333333333334E+009;1.858532726764679E-001;-4.388427734375000E-002;-1.989033073186874E-003;-4.983529448509216E-003;
2.420500000000000E+009;1.840090602636337E-001;-4.519221186637878E-002;-2.270213095471263E-003;-4.854689352214336E-003;
2.420666666666667E+009;1.821636259555817E-001;-4.630323871970177E-002;-2.413396490737796E-003;-4.746559076011181E-003;
2.420833333333334E+009;1.803479045629501E-001;-4.774748161435127E-002;-2.662765793502331E-003;-4.697917029261589E-003;
2.421000000000000E+009;1.787720471620560E-001;-4.909745231270790E-002;-2.906112698838115E-003;-4.559578374028206E-003;
2.421166666666667E+009;1.771193742752075E-001;-5.092703551054001E-002;-3.026230726391077E-003;-4.401589743793011E-003;
2.421333333333334E+009;1.751094758510590E-001;-5.231660604476929E-002;-3.217779565602541E-003;-4.132357891649008E-003;
2.421500000000000E+009;1.735906898975372E-001;-5.430455505847931E-002;-3.294218797236681E-003;-3.966484218835831E-003;
2.421666666666667E+009;1.721463501453400E-001;-5.622454732656479E-002;-3.492414485663176E-003;-3.833222668617964E-003;
2.421833333333334E+009;1.706290841102600E-001;-5.808821320533752E-002;-3.533145179972053E-003;-3.944700118154287E-003;
2.422000000000000E+009;1.694028228521347E-001;-6.025058403611183E-002;-3.741655964404345E-003;-3.587048500776291E-003;
2.422166666666667E+009;1.683238297700882E-001;-6.235892325639725E-002;-3.820670535787940E-003;-3.473467193543911E-003;
2.422333333333334E+009;1.670126169919968E-001;-6.457670032978058E-002;-3.840371035039425E-003;-3.379866946488619E-003;
2.422500000000000E+009;1.661215871572495E-001;-6.660573929548264E-002;-3.990732133388519E-003;-3.093773033469915E-003;
2.422666666666667E+009;1.651915162801743E-001;-6.873583048582077E-002;-4.098411649465561E-003;-2.914015669375658E-003;
2.422833333333334E+009;1.645185053348541E-001;-7.102275639772415E-002;-4.183048848062754E-003;-2.753684064373374E-003;
2.423000000000000E+009;1.638833880424500E-001;-7.329582422971726E-002;-4.079675767570734E-003;-2.569845644757152E-003;
2.423166666666667E+009;1.633621901273727E-001;-7.549395412206650E-002;-4.165843129158020E-003;-2.499921713024378E-003;
2.423333333333334E+009;1.631926447153091E-001;-7.781469821929932E-002;-4.238689318299294E-003;-2.523298608139157E-003;
2.423500000000000E+009;1.629677712917328E-001;-7.974778860807419E-002;-4.330179188400507E-003;-2.327796537429094E-003;
2.423666666666667E+009;1.629489511251450E-001;-8.185271918773651E-002;-4.312894307076931E-003;-2.266110619530082E-003;
2.423833333333334E+009;1.628644466400147E-001;-8.393996953964233E-002;-4.580110777169466E-003;-2.080584876239300E-003;
2.424000000000000E+009;1.629588007926941E-001;-8.605190366506577E-002;-4.514788277447224E-003;-1.939488924108446E-003;
2.424166666666667E+009;1.629882603883743E-001;-8.784233778715134E-002;-4.638961981981993E-003;-1.819028286263347E-003;
2.424333333333334E+009;1.633402109146118E-001;-8.966775983572006E-002;-4.796241875737906E-003;-1.560441800393164E-003;
2.424500000000000E+009;1.636206358671188E-001;-9.154319018125534E-002;-4.776019137352705E-003;-1.613749773241580E-003;
2.424666666666667E+009;1.639751493930817E-001;-9.320944547653198E-002;-4.877919331192970E-003;-1.234018709510565E-003;
2.424833333333334E+009;1.646816432476044E-001;-9.474421292543411E-002;-4.876359365880489E-003;-1.154699362814426E-003;
2.425000000000000E+009;1.650430858135223E-001;-9.609738737344742E-002;-4.906783346086741E-003;-8.989878697320819E-004;
2.425166666666667E+009;1.655367016792297E-001;-9.736549854278565E-002;-4.981141537427902E-003;-5.648532533086836E-004;
2.425333333333334E+009;1.659646630287170E-001;-9.854661673307419E-002;-4.987464286386967E-003;-4.614169301930815E-004;
2.425500000000000E+009;1.665682345628738E-001;-9.964675456285477E-002;-4.829042591154575E-003;-3.362885327078402E-004;
2.425666666666667E+009;1.673024445772171E-001;-1.003855392336845E-001;-4.940834827721119E-003;-1.985970448004082E-004;
2.425833333333334E+009;1.676445007324219E-001;-1.014421507716179E-001;-4.805663600564003E-003;1.038785194396041E-004;
2.426000000000000E+009;1.684357523918152E-001;-1.019824519753456E-001;-4.773701541125774E-003;1.414182042935863E-004;
2.426166666666667E+009;1.687970757484436E-001;-1.024924963712692E-001;-4.698453936725855E-003;3.343988501001149E-004;
2.426333333333334E+009;1.693081557750702E-001;-1.031566783785820E-001;-4.807496443390846E-003;5.656267167069018E-004;
2.426500000000000E+009;1.699721217155457E-001;-1.035666987299919E-001;-4.740760196000338E-003;7.435326697304845E-004;
2.426666666666667E+009;1.704192757606506E-001;-1.037943288683891E-001;-4.685690626502037E-003;8.627361967228353E-004;
2.426833333333334E+009;1.708491146564484E-001;-1.040534302592278E-001;-4.596374463289976E-003;1.002018456347287E-003;
2.427000000000000E+009;1.711559295654297E-001;-1.042399406433106E-001;-4.530792590230703E-003;1.085631898604333E-003;
2.427166666666667E+009;1.713404804468155E-001;-1.042359918355942E-001;-4.337472375482321E-003;1.234282506629825E-003;
2.427333333333334E+009;1.715613156557083E-001;-1.043485701084137E-001;-4.356595687568188E-003;1.565237529575825E-003;
2.427500000000000E+009;1.713951528072357E-001;-1.044958233833313E-001;-4.408461507409811E-003;1.530650653876364E-003;
2.427666666666667E+009;1.714431792497635E-001;-1.043139249086380E-001;-4.413781687617302E-003;1.598746050149202E-003;
2.427833333333334E+009;1.712760031223297E-001;-1.043335869908333E-001;-4.040416795760393E-003;1.766768516972661E-003;
