# Version 1.00
#
freq[Hz];re:Trc1_S11;im:Trc1_S11;re:Trc2_S21;im:Trc2_S21;
2.400000000000000E+009;1.556556820869446E-001;1.052598208189011E-001;4.274903796613216E-003;5.674540065228939E-003;
2.400166666666667E+009;1.556534171104431E-001;1.029799580574036E-001;4.618837032467127E-003;5.288862157613039E-003;
2.400333333333334E+009;1.560507863759995E-001;1.006760746240616E-001;4.922196269035339E-003;4.881140310317278E-003;
2.400500000000000E+009;1.560685038566589E-001;9.824898093938828E-002;5.280843470245600E-003;4.456365481019020E-003;
2.400666666666667E+009;1.563650220632553E-001;9.614180773496628E-002;5.012718029320240E-003;4.156600683927536E-003;
2.400833333333334E+009;1.566102355718613E-001;9.340688586235046E-002;5.419485270977020E-003;3.747564740478993E-003;
2.401000000000000E+009;1.571880280971527E-001;9.067477285861969E-002;5.368395708501339E-003;3.280818462371826E-003;
2.401166666666667E+009;1.573126167058945E-001;8.844798803329468E-002;5.288044922053814E-003;2.982018282637000E-003;
2.401333333333334E+009;1.577641665935516E-001;8.575939387083054E-002;5.258883815258741E-003;2.667334629222751E-003;
2.401500000000000E+009;1.583356857299805E-001;8.291313052177429E-002;5.180853884667158E-003;2.427391940727830E-003;
2.401666666666667E+009;1.588566452264786E-001;8.045240491628647E-002;5.015738308429718E-003;2.061014529317617E-003;
2.401833333333334E+009;1.595232784748077E-001;7.796988636255264E-002;4.873061086982489E-003;1.856187591329217E-003;
2.402000000000000E+009;1.603262871503830E-001;7.545297592878342E-002;4.679854493588209E-003;1.571601256728172E-003;
2.402166666666667E+009;1.611924320459366E-001;7.305447757244110E-002;4.567187279462814E-003;1.599434413947165E-003;
2.402333333333334E+009;1.620186269283295E-001;7.062515616416931E-002;4.420722369104624E-003;1.431747921742499E-003;
2.402500000000000E+009;1.632007062435150E-001;6.831099838018417E-002;4.340279381722212E-003;1.340979710221291E-003;
2.402666666666667E+009;1.640695929527283E-001;6.618191301822662E-002;4.250057507306337E-003;1.324215671047568E-003;
2.402833333333334E+009;1.653714329004288E-001;6.411654502153397E-002;4.171616863459349E-003;1.232327893376350E-003;
2.403000000000000E+009;1.665850132703781E-001;6.182302907109261E-002;4.029275383800268E-003;1.050288439728320E-003;
2.403166666666667E+009;1.681564450263977E-001;5.994709953665733E-002;4.038739483803511E-003;1.051508006639779E-003;
2.403333333333334E+009;1.693076789379120E-001;5.789285153150559E-002;4.088881891220808E-003;9.461511508561671E-004;
2.403500000000000E+009;1.709772944450378E-001;5.556604266166687E-002;4.105800297111273E-003;9.444078896194696E-004;
2.403666666666667E+009;1.724878400564194E-001;5.411674454808235E-002;4.194200038909912E-003;8.541870047338307E-004;
2.403833333333334E+009;1.738011538982391E-001;5.232791975140572E-002;4.247616045176983E-003;6.526681245304644E-004;
2.404000000000000E+009;1.751929968595505E-001;5.071447044610977E-002;4.235646221786737E-003;6.040926673449576E-004;
2.404166666666667E+009;1.768007129430771E-001;4.932982102036476E-002;4.024301655590534E-003;5.393006140366197E-004;
2.404333333333334E+009;1.781348139047623E-001;4.770530387759209E-002;4.150311928242445E-003;3.619498165789992E-004;
2.404500000000000E+009;1.794614493846893E-001;4.634963348507881E-002;4.084239713847637E-003;2.948955807369202E-004;
2.404666666666667E+009;1.809803545475006E-001;4.525619372725487E-002;4.257605876773596E-003;1.943497190950438E-004;
2.404833333333334E+009;1.823839843273163E-001;4.429923370480537E-002;4.037303850054741E-003;-1.460723524360219E-005;
2.405000000000000E+009;1.834709495306015E-001;4.356995224952698E-002;4.118836950510740E-003;-6.036872218828648E-005;
2.405166666666667E+009;1.845594495534897E-001;4.281863197684288E-002;3.880756441503763E-003;3.647894845926203E-005;
2.405333333333334E+009;1.859537065029144E-001;4.218873754143715E-002;3.722760127857328E-003;-2.506426535546780E-004;
2.405500000000000E+009;1.872441768646240E-001;4.168304800987244E-002;3.666511503979564E-003;-1.714668469503522E-004;
2.405666666666667E+009;1.880990117788315E-001;4.122053459286690E-002;3.611078718677163E-003;-2.880433748941869E-004;
2.405833333333334E+009;1.891124695539475E-001;4.092948138713837E-002;3.706326708197594E-003;-3.833977971225977E-004;
2.406000000000000E+009;1.899702996015549E-001;4.053491726517677E-002;3.727485192939639E-003;-2.549708879087120E-004;
2.406166666666667E+009;1.908166259527206E-001;4.018500447273254E-002;3.592261578887701E-003;-3.218283527530730E-004;
2.406333333333334E+009;1.916963160037994E-001;3.999935090541840E-002;3.513935953378677E-003;-3.487140929792076E-004;
2.406500000000000E+009;1.923809945583344E-001;3.991376608610153E-002;3.430977463722229E-003;-3.250200534239411E-004;
2.406666666666667E+009;1.927926987409592E-001;3.966883197426796E-002;3.544719424098730E-003;-4.181028052698821E-004;
2.406833333333334E+009;1.931825280189514E-001;3.954747691750526E-002;3.400721121579409E-003;-4.017947067040950E-004;
2.407000000000000E+009;1.935437768697739E-001;3.960976004600525E-002;3.381204791367054E-003;-3.796983510255814E-004;
2.407166666666667E+009;1.938964128494263E-001;3.916327282786369E-002;3.596931463107467E-003;-2.865592250600457E-004;
2.407333333333334E+009;1.937905699014664E-001;3.919040784239769E-002;3.451644210144877E-003;-2.579902065917850E-004;
2.407500000000000E+009;1.938737779855728E-001;3.913658112287521E-002;3.553590271621943E-003;-4.337439895607531E-004;
2.407666666666667E+009;1.938948035240173E-001;3.873942419886589E-002;3.614360233768821E-003;-4.052898730151355E-004;
2.407833333333334E+009;1.935358941555023E-001;3.838487342000008E-002;3.793288953602314E-003;-3.302322875242680E-004;
2.408000000000000E+009;1.935360580682755E-001;3.810403496026993E-002;3.774116514250636E-003;-3.850482753477991E-004;
2.408166666666667E+009;1.930688619613648E-001;3.764468058943749E-002;3.774398239329457E-003;-3.803699219133705E-004;
2.408333333333334E+009;1.928121149539948E-001;3.702830895781517E-002;3.778543788939714E-003;-3.478526195976883E-004;
2.408500000000000E+009;1.921973079442978E-001;3.646302223205566E-002;4.044045694172382E-003;-3.858184209093452E-004;
2.408666666666667E+009;1.917670965194702E-001;3.587437421083450E-002;4.164183977991343E-003;-5.340447532944381E-004;
2.408833333333334E+009;1.912600994110107E-001;3.502704948186874E-002;4.301771521568298E-003;-6.981608457863331E-004;
2.409000000000000E+009;1.903712302446365E-001;3.370169922709465E-002;4.536759108304977E-003;-8.993493393063545E-004;
2.409166666666667E+009;1.898409575223923E-001;3.309684991836548E-002;4.463403485715389E-003;-7.431232370436192E-004;
2.409333333333334E+009;1.889446377754211E-001;3.185714781284332E-002;4.689677618443966E-003;-1.123824855312705E-003;
2.409500000000000E+009;1.882905364036560E-001;3.076233528554440E-002;4.682935774326325E-003;-1.077931607142091E-003;
2.409666666666667E+009;1.874197423458099E-001;2.926937118172646E-002;4.811823368072510E-003;-1.183946267701685E-003;
2.409833333333334E+009;1.868032068014145E-001;2.797186002135277E-002;4.924630746245384E-003;-1.672946149483323E-003;
2.410000000000000E+009;1.859232187271118E-001;2.629165910184383E-002;5.085322074592114E-003;-1.964300870895386E-003;
2.410166666666667E+009;1.851310133934021E-001;2.431841380894184E-002;5.159949418157339E-003;-2.141352510079742E-003;
2.410333333333334E+009;1.844647973775864E-001;2.292996458709240E-002;5.068784113973379E-003;-2.381548518314958E-003;
2.410500000000000E+009;1.837322264909744E-001;2.114659734070301E-002;5.109625402837992E-003;-2.544944873079658E-003;
2.410666666666667E+009;1.831177473068237E-001;1.889859884977341E-002;4.831369034945965E-003;-2.827574731782079E-003;
2.410833333333334E+009;1.826521903276444E-001;1.709019020199776E-002;4.934597760438919E-003;-3.223499748855829E-003;
2.411000000000000E+009;1.821251958608627E-001;1.506842859089375E-002;4.710202105343342E-003;-3.502325853332877E-003;
2.411166666666667E+009;1.817771047353745E-001;1.297241728752852E-002;4.578935913741589E-003;-3.636477515101433E-003;
2.411333333333334E+009;1.814472079277039E-001;1.053113583475351E-002;4.426071885973215E-003;-3.981312271207571E-003;
2.411500000000000E+009;1.811421066522598E-001;8.537547662854195E-003;4.294507205486298E-003;-4.190486390143633E-003;
2.411666666666667E+009;1.810594052076340E-001;6.345405708998442E-003;4.043051972985268E-003;-4.390617366880179E-003;
2.411833333333334E+009;1.808686107397080E-001;4.328827373683453E-003;3.908425103873015E-003;-4.607324954122305E-003;
2.412000000000000E+009;1.811093240976334E-001;1.956925960257649E-003;3.760262392461300E-003;-4.471941851079464E-003;
2.412166666666667E+009;1.812780350446701E-001;-3.027924103662372E-004;3.595539601519704E-003;-4.670870024710894E-003;
2.412333333333334E+009;1.814254671335220E-001;-2.423634985461831E-003;3.361368319019675E-003;-4.751848988234997E-003;
2.412500000000000E+009;1.819186359643936E-001;-4.729056730866432E-003;3.225857624784112E-003;-4.998353309929371E-003;
2.412666666666667E+009;1.824497282505035E-001;-6.856864318251610E-003;3.015169175341725E-003;-5.085539072751999E-003;
2.412833333333334E+009;1.830075681209564E-001;-9.091074578464031E-003;2.799997804686427E-003;-5.189128685742617E-003;
2.413000000000000E+009;1.837624758481979E-001;-1.132814679294825E-002;2.724907593801618E-003;-5.207608453929424E-003;
2.413166666666667E+009;1.845967620611191E-001;-1.305598020553589E-002;2.428509527817369E-003;-5.354650784283876E-003;
2.413333333333334E+009;1.856087595224381E-001;-1.538117881864309E-002;2.465318189933896E-003;-5.422439891844988E-003;
2.413500000000000E+009;1.861959099769592E-001;-1.744541153311729E-002;2.307756803929806E-003;-5.428264383226633E-003;
2.413666666666667E+009;1.874076426029205E-001;-1.926945522427559E-002;2.145650098100305E-003;-5.636482033878565E-003;
2.413833333333334E+009;1.884140372276306E-001;-2.124666236341000E-002;1.880057272501290E-003;-5.802789703011513E-003;
2.414000000000000E+009;1.892277449369431E-001;-2.312788739800453E-002;1.691714511252940E-003;-6.057455670088530E-003;
2.414166666666667E+009;1.903361827135086E-001;-2.477748878300190E-002;1.455946592614055E-003;-6.180034019052982E-003;
2.414333333333334E+009;1.912737339735031E-001;-2.675036154687405E-002;1.295204623602331E-003;-6.319548469036818E-003;
2.414500000000000E+009;1.923329979181290E-001;-2.805272862315178E-002;9.619286865927279E-004;-6.436976138502359E-003;
2.414666666666667E+009;1.934068202972412E-001;-2.963663078844547E-002;7.926251855678856E-004;-6.593563593924046E-003;
2.414833333333334E+009;1.944206506013870E-001;-3.100178763270378E-002;5.553612136282027E-004;-6.636766251176596E-003;
2.415000000000000E+009;1.953189969062805E-001;-3.220814466476440E-002;-5.294648872222751E-005;-6.824999582022429E-003;
2.415166666666667E+009;1.963539570569992E-001;-3.322618827223778E-002;-3.016065165866166E-004;-6.971500348299742E-003;
2.415333333333334E+009;1.973528563976288E-001;-3.420116007328033E-002;-5.502124549821019E-004;-6.741405930370092E-003;
2.415500000000000E+009;1.981484740972519E-001;-3.501806780695915E-002;-1.038381247781217E-003;-6.730737630277872E-003;
2.415666666666667E+009;1.991437524557114E-001;-3.580193221569061E-002;-1.417210325598717E-003;-6.776882335543633E-003;
2.415833333333334E+009;1.996998190879822E-001;-3.669406473636627E-002;-1.852371147833765E-003;-6.629785057157278E-003;
2.416000000000000E+009;2.002932429313660E-001;-3.742650151252747E-002;-2.160927746444941E-003;-6.419798824936152E-003;
2.416166666666667E+009;2.009000480175018E-001;-3.801139444112778E-002;-2.475028857588768E-003;-6.307696923613548E-003;
2.416333333333334E+009;2.013243138790131E-001;-3.838378936052322E-002;-2.716553164646030E-003;-5.960283335298300E-003;
2.416500000000000E+009;2.016584873199463E-001;-3.888401761651039E-002;-2.989179687574506E-003;-5.729696247726679E-003;
2.416666666666667E+009;2.018853724002838E-001;-3.937904909253120E-002;-3.318237606436014E-003;-5.383780691772699E-003;
2.416833333333334E+009;2.019284963607788E-001;-3.952174261212349E-002;-3.372726496309042E-003;-5.366457626223564E-003;
2.417000000000000E+009;2.019377201795578E-001;-3.980460017919540E-002;-3.534588962793350E-003;-4.902842454612255E-003;
2.417166666666667E+009;2.017039209604263E-001;-3.997083753347397E-002;-3.627040889114142E-003;-4.726242739707232E-003;
2.417333333333334E+009;2.013262510299683E-001;-4.009607806801796E-002;-3.767356975004077E-003;-4.425117745995522E-003;
2.417500000000000E+009;2.011677026748657E-001;-4.027658328413963E-002;-3.743472974747419E-003;-4.268051590770483E-003;
2.417666666666667E+009;2.005891203880310E-001;-4.027324542403221E-002;-3.772910218685865E-003;-4.227553494274616E-003;
2.417833333333334E+009;2.001252621412277E-001;-4.029201716184616E-002;-3.762618871405721E-003;-3.870512824505568E-003;
2.418000000000000E+009;1.996685862541199E-001;-4.032717272639275E-002;-3.979002591222525E-003;-3.740031272172928E-003;
2.418166666666667E+009;1.988359689712524E-001;-4.037377610802651E-002;-4.000766668468714E-003;-3.609411418437958E-003;
2.418333333333334E+009;1.980293691158295E-001;-4.054824635386467E-002;-4.057349171489477E-003;-3.518293146044016E-003;
2.418500000000000E+009;1.970705538988113E-001;-4.080485925078392E-002;-4.151612054556608E-003;-3.394149243831635E-003;
2.418666666666667E+009;1.963079422712326E-001;-4.086130112409592E-002;-4.051574040204287E-003;-3.319101408123970E-003;
2.418833333333334E+009;1.951531618833542E-001;-4.118793830275536E-002;-4.101650323718786E-003;-3.090370446443558E-003;
2.419000000000000E+009;1.940033435821533E-001;-4.172911867499352E-002;-4.287187941372395E-003;-2.784166019409895E-003;
2.419166666666667E+009;1.930103600025177E-001;-4.206632450222969E-002;-4.156296607106924E-003;-2.713061170652509E-003;
2.419333333333334E+009;1.917849779129028E-001;-4.272688552737236E-002;-4.239637404680252E-003;-2.521417569369078E-003;
2.419500000000000E+009;1.904833167791367E-001;-4.327715188264847E-002;-4.215152468532324E-003;-2.373951952904463E-003;
2.419666666666667E+009;1.891919076442719E-001;-4.417235776782036E-002;-4.372620489448309E-003;-2.181492280215025E-003;
2.419833333333334E+009;1.877566874027252E-001;-4.497069492936134E-002;-4.380709957331419E-003;-1.974290935322642E-003;
2.420000000000000E+009;1.863523572683334E-001;-4.585035517811775E-002;-4.354217089712620E-003;-1.765814842656255E-003;
2.420166666666667E+009;1.850997805595398E-001;-4.681828618049622E-002;-4.277527797967196E-003;-1.681076944805682E-003;
2.420333333333334E+009;1.836619377136231E-001;-4.815931245684624E-002;-4.331347066909075E-003;-1.447887276299298E-003;
2.420500000000000E+009;1.820727586746216E-001;-4.937847331166267E-002;-4.377148114144802E-003;-1.245955470949411E-003;
2.420666666666667E+009;1.808215826749802E-001;-5.042180791497231E-002;-4.062633030116558E-003;-1.204723375849426E-003;
2.420833333333334E+009;1.794652342796326E-001;-5.199025571346283E-002;-4.154388327151537E-003;-9.811260970309377E-004;
2.421000000000000E+009;1.781683266162872E-001;-5.350821092724800E-002;-3.874803660437465E-003;-7.942655938677490E-004;
2.421166666666667E+009;1.768820434808731E-001;-5.516177788376808E-002;-3.792375558987260E-003;-7.597626536153257E-004;
2.421333333333334E+009;1.752794384956360E-001;-5.662597715854645E-002;-3.603616263717413E-003;-6.954319542273879E-004;
2.421500000000000E+009;1.743461936712265E-001;-5.830846726894379E-002;-3.485777880996466E-003;-7.628767052665353E-004;
2.421666666666667E+009;1.731463521718979E-001;-5.999033898115158E-002;-3.278340678662062E-003;-7.781632011756301E-004;
2.421833333333334E+009;1.722102165222168E-001;-6.178757548332214E-002;-3.210064955055714E-003;-7.522765663452447E-004;
2.422000000000000E+009;1.710893511772156E-001;-6.362363696098328E-002;-3.282511141151190E-003;-7.567001157440245E-004;
2.422166666666667E+009;1.702732294797897E-001;-6.543681770563126E-002;-3.148710355162621E-003;-9.331692126579583E-004;
2.422333333333334E+009;1.693981736898422E-001;-6.737012416124344E-002;-3.116424195468426E-003;-8.917045779526234E-004;
2.422500000000000E+009;1.686048507690430E-001;-6.906582415103912E-002;-3.091138321906328E-003;-9.335646755062044E-004;
2.422666666666667E+009;1.679567992687225E-001;-7.093180716037750E-002;-3.069793572649360E-003;-1.144899055361748E-003;
2.422833333333334E+009;1.676366031169891E-001;-7.272160798311234E-002;-3.132320707663894E-003;-1.268591382540762E-003;
2.423000000000000E+009;1.669192612171173E-001;-7.456842809915543E-002;-3.251493908464909E-003;-1.347006065770984E-003;
2.423166666666667E+009;1.665798574686050E-001;-7.623319327831268E-002;-3.242838196456432E-003;-1.493256189860404E-003;
2.423333333333334E+009;1.663779318332672E-001;-7.828207314014435E-002;-3.774281358346343E-003;-1.436699181795120E-003;
2.423500000000000E+009;1.662275344133377E-001;-7.960728555917740E-002;-3.699227934703231E-003;-1.423044246621430E-003;
2.423666666666667E+009;1.662962883710861E-001;-8.157075196504593E-002;-3.759380197152495E-003;-1.401853864081204E-003;
2.423833333333334E+009;1.659727543592453E-001;-8.318074047565460E-002;-3.909224178642035E-003;-1.450348645448685E-003;
2.424000000000000E+009;1.661808043718338E-001;-8.493284136056900E-002;-4.177275579422712E-003;-1.309143612161279E-003;
2.424166666666667E+009;1.659821867942810E-001;-8.639578521251679E-002;-4.266224801540375E-003;-1.275746501050890E-003;
2.424333333333334E+009;1.661063581705093E-001;-8.770361542701721E-002;-4.594346042722464E-003;-1.193872885778546E-003;
2.424500000000000E+009;1.663997024297714E-001;-8.941718190908432E-002;-4.717388655990362E-003;-1.034480170346797E-003;
2.424666666666667E+009;1.666012555360794E-001;-9.073504060506821E-002;-4.625410307198763E-003;-8.800571667961776E-004;
2.424833333333334E+009;1.670097410678864E-001;-9.198436141014099E-002;-4.878780804574490E-003;-7.689074263907969E-004;
2.425000000000000E+009;1.671521067619324E-001;-9.314903616905212E-002;-5.037394352257252E-003;-7.915657479315996E-004;
2.425166666666667E+009;1.673582792282105E-001;-9.395891427993774E-002;-5.474455654621124E-003;-3.557797463145107E-004;
2.425333333333334E+009;1.675689220428467E-001;-9.513466805219650E-002;-5.514985881745815E-003;-3.407278563827276E-004;
2.425500000000000E+009;1.678536534309387E-001;-9.613862633705139E-002;-5.613681394606829E-003;-6.876753468532115E-005;
2.425666666666667E+009;1.681673228740692E-001;-9.694381058216095E-002;-5.693752784281969E-003;1.926374825416133E-004;
2.425833333333334E+009;1.683485209941864E-001;-9.781115502119064E-002;-5.783421453088522E-003;5.710212863050401E-004;
2.426000000000000E+009;1.684359312057495E-001;-9.839513897895813E-002;-5.934803746640682E-003;8.210701635107398E-004;
2.426166666666667E+009;1.688746511936188E-001;-9.899562597274780E-002;-5.985431373119354E-003;9.712805622257292E-004;
2.426333333333334E+009;1.689137816429138E-001;-9.962879866361618E-002;-5.955420900136232E-003;1.289858017116785E-003;
2.426500000000000E+009;1.691544502973557E-001;-1.000409573316574E-001;-6.073649041354656E-003;1.608388847671449E-003;
2.426666666666667E+009;1.692190170288086E-001;-1.005641743540764E-001;-5.811571143567562E-003;1.926592784002423E-003;
2.426833333333334E+009;1.694745421409607E-001;-1.009095087647438E-001;-5.845910403877497E-003;2.173083368688822E-003;
2.427000000000000E+009;1.693390756845474E-001;-1.013778448104858E-001;-5.878703668713570E-003;2.404136583209038E-003;
2.427166666666667E+009;1.693887412548065E-001;-1.016237363219261E-001;-5.716405343264341E-003;2.720514778047800E-003;
2.427333333333334E+009;1.692477017641068E-001;-1.021596789360046E-001;-5.503910128027201E-003;3.093936946243048E-003;
2.427500000000000E+009;1.689102649688721E-001;-1.024350598454475E-001;-5.523547064512968E-003;3.171086311340332E-003;
2.427666666666667E+009;1.686682105064392E-001;-1.027854606509209E-001;-5.422686692327261E-003;3.449429059401155E-003;
