# Version 1.00
#
freq[Hz];re:Trc1_S11;im:Trc1_S11;re:Trc2_S21;im:Trc2_S21;
2.400000000000000E+009;1.564697623252869E-001;1.053766235709190E-001;4.406342282891274E-003;5.514788907021284E-003;
2.400166666666667E+009;1.565492302179337E-001;1.031568646430969E-001;4.657702986150980E-003;5.338856484740973E-003;
2.400333333333334E+009;1.568689793348312E-001;1.009874120354652E-001;4.970302339643240E-003;4.883670713752508E-003;
2.400500000000000E+009;1.569321602582932E-001;9.847889095544815E-002;5.074911750853062E-003;4.354896023869515E-003;
2.400666666666667E+009;1.572875976562500E-001;9.614874422550201E-002;5.323238205164671E-003;4.079700447618961E-003;
2.400833333333334E+009;1.572320908308029E-001;9.363810718059540E-002;5.300269462168217E-003;3.688051132485271E-003;
2.401000000000000E+009;1.577399522066116E-001;9.089951217174530E-002;5.229782313108444E-003;3.316023619845510E-003;
2.401166666666667E+009;1.581104844808579E-001;8.847952634096146E-002;5.131145473569632E-003;2.872663550078869E-003;
2.401333333333334E+009;1.584266871213913E-001;8.573340624570847E-002;5.223764572292566E-003;2.510800492018461E-003;
2.401500000000000E+009;1.589723378419876E-001;8.304028958082199E-002;5.111686885356903E-003;2.339402679353952E-003;
2.401666666666667E+009;1.593161225318909E-001;8.048801124095917E-002;4.927986301481724E-003;1.922230119816959E-003;
2.401833333333334E+009;1.599947512149811E-001;7.817888259887695E-002;4.933814052492380E-003;1.756110927090049E-003;
2.402000000000000E+009;1.610542982816696E-001;7.542447000741959E-002;4.752432927489281E-003;1.747425179928541E-003;
2.402166666666667E+009;1.617233902215958E-001;7.314526289701462E-002;4.544042516499758E-003;1.586905913427472E-003;
2.402333333333334E+009;1.627864092588425E-001;7.056793570518494E-002;4.370070993900299E-003;1.306386082433164E-003;
2.402500000000000E+009;1.638768166303635E-001;6.829487532377243E-002;4.318639636039734E-003;1.349837752059102E-003;
2.402666666666667E+009;1.648741960525513E-001;6.592032313346863E-002;4.345042631030083E-003;1.209658221341670E-003;
2.402833333333334E+009;1.660291254520416E-001;6.379227340221405E-002;4.147221799939871E-003;1.122432993724942E-003;
2.403000000000000E+009;1.673318594694138E-001;6.169969215989113E-002;4.071047063916922E-003;9.808547329157591E-004;
2.403166666666667E+009;1.689716875553131E-001;5.961629003286362E-002;4.058007616549730E-003;1.073775463737547E-003;
2.403333333333334E+009;1.701974570751190E-001;5.751863867044449E-002;4.175204783678055E-003;1.092947786673904E-003;
2.403500000000000E+009;1.715935170650482E-001;5.566722899675369E-002;3.940127789974213E-003;1.057887449860573E-003;
2.403666666666667E+009;1.731480211019516E-001;5.399201437830925E-002;4.013337194919586E-003;7.419217727147043E-004;
2.403833333333334E+009;1.746374070644379E-001;5.216039717197418E-002;4.079568665474653E-003;7.117185159586370E-004;
2.404000000000000E+009;1.759309172630310E-001;5.044360086321831E-002;3.911258652806282E-003;6.864292081445456E-004;
2.404166666666667E+009;1.774495691061020E-001;4.900569096207619E-002;4.016113467514515E-003;5.765230744145811E-004;
2.404333333333334E+009;1.789585351943970E-001;4.749272763729096E-002;4.031697288155556E-003;4.884421941824257E-004;
2.404500000000000E+009;1.802646070718765E-001;4.612585529685020E-002;3.926374483853579E-003;3.243597166147083E-004;
2.404666666666667E+009;1.816920191049576E-001;4.504864290356636E-002;4.056350793689489E-003;3.104511124547571E-004;
2.404833333333334E+009;1.830344796180725E-001;4.399785399436951E-002;3.946857992559671E-003;1.770761446096003E-004;
2.405000000000000E+009;1.841975003480911E-001;4.323203861713409E-002;3.830235451459885E-003;9.241644147550687E-005;
2.405166666666667E+009;1.852930486202240E-001;4.239752516150475E-002;3.788432339206338E-003;1.395209983456880E-005;
2.405333333333334E+009;1.865990310907364E-001;4.182071983814240E-002;3.856849158182740E-003;-1.826856459956616E-004;
2.405500000000000E+009;1.876755952835083E-001;4.126640036702156E-002;3.728630486875773E-003;-1.595334470039234E-004;
2.405666666666667E+009;1.888042539358139E-001;4.069734364748001E-002;3.661243012174964E-003;-2.342787229281385E-005;
2.405833333333334E+009;1.898757517337799E-001;4.017334803938866E-002;3.537410637363792E-003;-2.874795754905790E-004;
2.406000000000000E+009;1.906929016113281E-001;3.976025804877281E-002;3.422171575948596E-003;-2.747477847151458E-004;
2.406166666666667E+009;1.915744245052338E-001;3.966319561004639E-002;3.445191774517298E-003;-4.184729768894613E-004;
2.406333333333334E+009;1.922821104526520E-001;3.947565332055092E-002;3.404368879273534E-003;-1.960734662134200E-004;
2.406500000000000E+009;1.928188651800156E-001;3.922335803508759E-002;3.274657996371388E-003;-2.448114391881973E-004;
2.406666666666667E+009;1.933639496564865E-001;3.901726007461548E-002;3.367313183844090E-003;-3.949472738895565E-004;
2.406833333333334E+009;1.938412785530090E-001;3.893526270985603E-002;3.326429985463619E-003;-3.256285272073001E-004;
2.407000000000000E+009;1.940768659114838E-001;3.888778761029244E-002;3.429766278713942E-003;-2.931255148723722E-004;
2.407166666666667E+009;1.943513602018356E-001;3.848610445857048E-002;3.314661094918847E-003;-2.585795009508729E-004;
2.407333333333334E+009;1.943489909172058E-001;3.832274675369263E-002;3.395913634449244E-003;-3.061609750147909E-004;
2.407500000000000E+009;1.942600607872009E-001;3.826241940259934E-002;3.396629355847836E-003;-1.505038817413151E-004;
2.407666666666667E+009;1.943623572587967E-001;3.799305111169815E-002;3.524620551615953E-003;-2.283557696500793E-004;
2.407833333333334E+009;1.938842982053757E-001;3.770389035344124E-002;3.649093909189105E-003;-3.194440214429051E-004;
2.408000000000000E+009;1.938268393278122E-001;3.734324127435684E-002;3.712046658620238E-003;-2.951216592919081E-004;
2.408166666666667E+009;1.933617591857910E-001;3.682852908968926E-002;3.912473097443581E-003;-2.147025370504707E-004;
2.408333333333334E+009;1.930931210517883E-001;3.616092354059219E-002;3.847931511700153E-003;-2.459694806020707E-004;
2.408500000000000E+009;1.925491690635681E-001;3.570676222443581E-002;3.863260848447681E-003;-4.512892628554255E-004;
2.408666666666667E+009;1.920876502990723E-001;3.493271768093109E-002;3.996180836111307E-003;-5.267973174341023E-004;
2.408833333333334E+009;1.913935095071793E-001;3.436508774757385E-002;4.233393818140030E-003;-5.129731143824756E-004;
2.409000000000000E+009;1.908096969127655E-001;3.321951255202293E-002;4.318252671509981E-003;-4.397502925712615E-004;
2.409166666666667E+009;1.900496035814285E-001;3.216426819562912E-002;4.350651521235704E-003;-5.954034277237952E-004;
2.409333333333334E+009;1.893915832042694E-001;3.119773603975773E-002;4.519852809607983E-003;-9.685110417194665E-004;
2.409500000000000E+009;1.883579343557358E-001;2.993708848953247E-002;4.684919025748968E-003;-1.116155413910747E-003;
2.409666666666667E+009;1.876568645238876E-001;2.840268984436989E-002;4.846929106861353E-003;-1.231976668350399E-003;
2.409833333333334E+009;1.868097037076950E-001;2.704151347279549E-002;5.001012701541185E-003;-1.553036505356431E-003;
2.410000000000000E+009;1.860926896333695E-001;2.550577186048031E-002;5.007646512240171E-003;-1.759182894602418E-003;
2.410166666666667E+009;1.852992326021195E-001;2.374641969799995E-002;4.922506399452686E-003;-2.086480613797903E-003;
2.410333333333334E+009;1.845594346523285E-001;2.214093133807182E-002;5.007818806916475E-003;-2.226868644356728E-003;
2.410500000000000E+009;1.838977038860321E-001;2.031648904085159E-002;4.976213444024324E-003;-2.571561839431524E-003;
2.410666666666667E+009;1.830863803625107E-001;1.815041527152062E-002;5.025250371545553E-003;-2.875302918255329E-003;
2.410833333333334E+009;1.826761066913605E-001;1.608331874012947E-002;4.787771031260490E-003;-3.058802802115679E-003;
2.411000000000000E+009;1.822517514228821E-001;1.410427968949080E-002;4.737755283713341E-003;-3.365818643942475E-003;
2.411166666666667E+009;1.815152317285538E-001;1.218748372048140E-002;4.648219794034958E-003;-3.683333052322269E-003;
2.411333333333334E+009;1.813232153654099E-001;9.974365122616291E-003;4.538915585726500E-003;-3.940253518521786E-003;
2.411500000000000E+009;1.810873746871948E-001;7.865133695304394E-003;4.311251454055309E-003;-4.008614923804998E-003;
2.411666666666667E+009;1.809933781623840E-001;5.664134398102760E-003;4.162771627306938E-003;-4.125047940760851E-003;
2.411833333333334E+009;1.806716769933701E-001;3.416541265323758E-003;3.931628540158272E-003;-4.376096650958061E-003;
2.412000000000000E+009;1.809499263763428E-001;9.800350526347756E-004;3.843379672616720E-003;-4.469255451112986E-003;
2.412166666666667E+009;1.809756606817246E-001;-8.854137267917395E-004;3.559971461072564E-003;-4.529063124209642E-003;
2.412333333333334E+009;1.813876479864121E-001;-3.141560358926654E-003;3.534617600962520E-003;-4.733889829367399E-003;
2.412500000000000E+009;1.815529018640518E-001;-5.408831872045994E-003;3.160160267725587E-003;-4.939854145050049E-003;
2.412666666666667E+009;1.822358667850494E-001;-7.623110897839069E-003;3.056287998333573E-003;-4.965831525623798E-003;
2.412833333333334E+009;1.827519387006760E-001;-9.852629154920578E-003;3.062411677092314E-003;-5.063242278993130E-003;
2.413000000000000E+009;1.834728866815567E-001;-1.170446630567312E-002;2.794314175844193E-003;-5.054771434515715E-003;
2.413166666666667E+009;1.842552572488785E-001;-1.378082484006882E-002;2.657441888004541E-003;-5.400694906711578E-003;
2.413333333333334E+009;1.852443218231201E-001;-1.592802442610264E-002;2.543590497225523E-003;-5.350365769118071E-003;
2.413500000000000E+009;1.858701556921005E-001;-1.800121366977692E-002;2.320434199646115E-003;-5.578940268605948E-003;
2.413666666666667E+009;1.868741810321808E-001;-2.001033723354340E-002;2.200016751885414E-003;-5.703133530914784E-003;
2.413833333333334E+009;1.879667192697525E-001;-2.181191369891167E-002;2.013033023104072E-003;-5.964016541838646E-003;
2.414000000000000E+009;1.888351440429688E-001;-2.348475344479084E-002;1.832015695981681E-003;-5.818783771246672E-003;
2.414166666666667E+009;1.899093389511108E-001;-2.521413005888462E-002;1.529674394987524E-003;-6.032735574990511E-003;
2.414333333333334E+009;1.907672882080078E-001;-2.718052454292774E-002;1.253579393960536E-003;-6.370768882334232E-003;
2.414500000000000E+009;1.918902248144150E-001;-2.855166047811508E-002;1.066308817826212E-003;-6.289271637797356E-003;
2.414666666666667E+009;1.930156499147415E-001;-2.990673854947090E-002;7.550987647846341E-004;-6.526353303343058E-003;
2.414833333333334E+009;1.938502043485642E-001;-3.138369321823120E-002;4.813900741282851E-004;-6.693044677376747E-003;
2.415000000000000E+009;1.948850452899933E-001;-3.260755911469460E-002;-6.901063443365274E-006;-6.835679057985544E-003;
2.415166666666667E+009;1.958891749382019E-001;-3.369172662496567E-002;-1.607508020242676E-004;-6.771683692932129E-003;
2.415333333333334E+009;1.968470215797424E-001;-3.456448018550873E-002;-5.966643220745027E-004;-6.807435303926468E-003;
2.415500000000000E+009;1.978331953287125E-001;-3.540476784110069E-002;-1.058524241670966E-003;-6.795099005103111E-003;
2.415666666666667E+009;1.985427737236023E-001;-3.635209053754807E-002;-1.477664452977479E-003;-6.758928298950195E-003;
2.415833333333334E+009;1.993279755115509E-001;-3.696228936314583E-002;-1.718913903459907E-003;-6.495136301964521E-003;
2.416000000000000E+009;1.998631060123444E-001;-3.777067735791206E-002;-2.310383832082152E-003;-6.528884638100863E-003;
2.416166666666667E+009;2.003507316112518E-001;-3.829362988471985E-002;-2.366827800869942E-003;-6.216686218976975E-003;
2.416333333333334E+009;2.008820176124573E-001;-3.883858397603035E-002;-2.784584648907185E-003;-6.086729932576418E-003;
2.416500000000000E+009;2.011489719152451E-001;-3.917418047785759E-002;-2.897029276937246E-003;-5.804162006825209E-003;
2.416666666666667E+009;2.014539986848831E-001;-3.966177254915237E-002;-3.221200313419104E-003;-5.446257069706917E-003;
2.416833333333334E+009;2.014548480510712E-001;-3.981109336018562E-002;-3.348812228068709E-003;-5.263649392873049E-003;
2.417000000000000E+009;2.014305740594864E-001;-4.017448797821999E-002;-3.595136338844895E-003;-4.961821250617504E-003;
2.417166666666667E+009;2.011011689901352E-001;-4.024591669440270E-002;-3.496517892926931E-003;-4.672117531299591E-003;
2.417333333333334E+009;2.008851617574692E-001;-4.031938686966896E-002;-3.625909332185984E-003;-4.565658979117870E-003;
2.417500000000000E+009;2.006625086069107E-001;-4.048142209649086E-002;-3.676444990560412E-003;-4.241533111780882E-003;
2.417666666666667E+009;2.000842988491058E-001;-4.052891582250595E-002;-3.737176069989801E-003;-4.243599716573954E-003;
2.417833333333334E+009;1.996991634368897E-001;-4.051270335912705E-002;-3.770694602280855E-003;-3.982128575444222E-003;
2.418000000000000E+009;1.990182250738144E-001;-4.057971388101578E-002;-3.653072519227862E-003;-3.864756319671869E-003;
2.418166666666667E+009;1.983953118324280E-001;-4.065713658928871E-002;-3.810206195339561E-003;-3.755183424800634E-003;
2.418333333333334E+009;1.975123435258865E-001;-4.072339832782745E-002;-3.950228914618492E-003;-3.454433055594564E-003;
2.418500000000000E+009;1.965570151805878E-001;-4.092023894190788E-002;-4.092050250619650E-003;-3.417160594835877E-003;
2.418666666666667E+009;1.959123611450195E-001;-4.091419279575348E-002;-4.068438429385424E-003;-3.234767122194171E-003;
2.418833333333334E+009;1.946482360363007E-001;-4.141070693731308E-002;-4.134272225201130E-003;-2.904413733631373E-003;
2.419000000000000E+009;1.936245858669281E-001;-4.170256108045578E-002;-4.118393175303936E-003;-2.928205532953143E-003;
2.419166666666667E+009;1.924739629030228E-001;-4.218497872352600E-002;-4.172685556113720E-003;-2.737797331064940E-003;
2.419333333333334E+009;1.912996768951416E-001;-4.278039559721947E-002;-4.320244304835796E-003;-2.623275155201554E-003;
2.419500000000000E+009;1.900360733270645E-001;-4.345751181244850E-002;-4.173405468463898E-003;-2.521085785701871E-003;
2.419666666666667E+009;1.885468065738678E-001;-4.419805109500885E-002;-4.295215476304293E-003;-2.333062235265970E-003;
2.419833333333334E+009;1.873270571231842E-001;-4.499435052275658E-002;-4.369060043245554E-003;-2.155238762497902E-003;
2.420000000000000E+009;1.859662681818008E-001;-4.589622467756271E-002;-4.347182344645262E-003;-1.899324241094291E-003;
2.420166666666667E+009;1.845917105674744E-001;-4.690320044755936E-002;-4.346162546426058E-003;-1.626024255529046E-003;
2.420333333333334E+009;1.831595003604889E-001;-4.810978099703789E-002;-4.173929803073406E-003;-1.508473069407046E-003;
2.420500000000000E+009;1.818812042474747E-001;-4.948378726840019E-002;-4.103341139853001E-003;-1.363489544019103E-003;
2.420666666666667E+009;1.804385036230087E-001;-5.045339465141296E-002;-4.085780121386051E-003;-1.055691274814308E-003;
2.420833333333334E+009;1.789801269769669E-001;-5.202500894665718E-002;-3.992855548858643E-003;-1.018593553453684E-003;
2.421000000000000E+009;1.777800172567368E-001;-5.351819843053818E-002;-3.996824845671654E-003;-9.408753830939531E-004;
2.421166666666667E+009;1.765816956758499E-001;-5.517980828881264E-002;-3.746191272512078E-003;-8.053418714553118E-004;
2.421333333333334E+009;1.749859303236008E-001;-5.656276270747185E-002;-3.680188907310367E-003;-7.694749510847032E-004;
2.421500000000000E+009;1.737187057733536E-001;-5.843288823962212E-002;-3.389328718185425E-003;-7.822370971553028E-004;
2.421666666666667E+009;1.726901084184647E-001;-6.007466092705727E-002;-3.267754800617695E-003;-6.962856859900057E-004;
2.421833333333334E+009;1.718432307243347E-001;-6.191141903400421E-002;-3.253325819969177E-003;-8.087503956630826E-004;
2.422000000000000E+009;1.707129180431366E-001;-6.346908211708069E-002;-3.053486812859774E-003;-9.105027420446277E-004;
2.422166666666667E+009;1.699381768703461E-001;-6.541895121335983E-002;-3.052244894206524E-003;-8.530595223419368E-004;
2.422333333333334E+009;1.688708961009979E-001;-6.715761870145798E-002;-3.104100003838539E-003;-1.095166779123247E-003;
2.422500000000000E+009;1.682072281837463E-001;-6.905307620763779E-002;-3.082214621827006E-003;-1.145268441177905E-003;
2.422666666666667E+009;1.676678508520126E-001;-7.092280685901642E-002;-3.003848716616631E-003;-1.191675895825028E-003;
2.422833333333334E+009;1.670070886611939E-001;-7.279023528099060E-002;-3.108570119366050E-003;-1.388424891047180E-003;
2.423000000000000E+009;1.664841771125794E-001;-7.453041523694992E-002;-3.158995881676674E-003;-1.441061613149941E-003;
2.423166666666667E+009;1.661662757396698E-001;-7.637118548154831E-002;-3.438784042373300E-003;-1.492940122261643E-003;
2.423333333333334E+009;1.659126132726669E-001;-7.804783433675766E-002;-3.530527930706739E-003;-1.519014243967831E-003;
2.423500000000000E+009;1.656329631805420E-001;-7.976306974887848E-002;-3.650760510936379E-003;-1.563048805110157E-003;
2.423666666666667E+009;1.657372713088989E-001;-8.160829544067383E-002;-3.797396318987012E-003;-1.555280177854002E-003;
2.423833333333334E+009;1.656293869018555E-001;-8.317690342664719E-002;-4.089845810085535E-003;-1.382143003866077E-003;
2.424000000000000E+009;1.655551493167877E-001;-8.476622402667999E-002;-4.119988065212965E-003;-1.413925900124013E-003;
2.424166666666667E+009;1.656432300806046E-001;-8.624041080474854E-002;-4.226800985634327E-003;-1.329518039710820E-003;
2.424333333333334E+009;1.657358258962631E-001;-8.778578042984009E-002;-4.259808454662561E-003;-1.274532405659556E-003;
2.424500000000000E+009;1.660202443599701E-001;-8.927880227565765E-002;-4.638217855244875E-003;-1.212608069181442E-003;
2.424666666666667E+009;1.660284101963043E-001;-9.068152308464050E-002;-4.827077966183424E-003;-9.529989329166710E-004;
2.424833333333334E+009;1.665101498365402E-001;-9.176389127969742E-002;-4.923293367028236E-003;-9.135917644016445E-004;
2.425000000000000E+009;1.666708886623383E-001;-9.306248277425766E-002;-5.139719694852829E-003;-8.132811053656042E-004;
2.425166666666667E+009;1.669171303510666E-001;-9.410370886325836E-002;-5.539218429476023E-003;-6.621445645578206E-004;
2.425333333333334E+009;1.670624315738678E-001;-9.501656889915466E-002;-5.509400740265846E-003;-3.383707953616977E-004;
2.425500000000000E+009;1.674012243747711E-001;-9.601340442895889E-002;-5.606386344879866E-003;-2.964879968203604E-004;
2.425666666666667E+009;1.677255928516388E-001;-9.681043028831482E-002;-5.798731464892626E-003;-1.428981022399967E-006;
2.425833333333334E+009;1.678365767002106E-001;-9.762986004352570E-002;-5.818175617605448E-003;3.507085493765771E-004;
2.426000000000000E+009;1.681689023971558E-001;-9.812755137681961E-002;-6.022970192134380E-003;6.532875122502446E-004;
2.426166666666667E+009;1.683935374021530E-001;-9.872286021709442E-002;-6.054216064512730E-003;9.679398499429226E-004;
2.426333333333334E+009;1.685338020324707E-001;-9.945407509803772E-002;-6.089898757636547E-003;1.334778731688857E-003;
2.426500000000000E+009;1.687829941511154E-001;-9.980858862400055E-002;-6.128218956291676E-003;1.518505625426769E-003;
2.426666666666667E+009;1.688498109579086E-001;-1.002883240580559E-001;-5.990356206893921E-003;1.749699702486396E-003;
2.426833333333334E+009;1.690395027399063E-001;-1.006603464484215E-001;-5.976225715130568E-003;2.131659770384431E-003;
2.427000000000000E+009;1.688674539327622E-001;-1.011423766613007E-001;-6.052788812667131E-003;2.359647070989013E-003;
2.427166666666667E+009;1.689991205930710E-001;-1.013066992163658E-001;-5.891498643904924E-003;2.688170643523336E-003;
2.427333333333334E+009;1.688715070486069E-001;-1.018598750233650E-001;-5.806054919958115E-003;2.994143404066563E-003;
2.427500000000000E+009;1.686217039823532E-001;-1.021611765027046E-001;-5.719133652746677E-003;3.032840788364410E-003;
2.427666666666667E+009;1.683446019887924E-001;-1.023976653814316E-001;-5.542069207876921E-003;3.500785212963820E-003;
