# Version 1.00
#
freq[Hz];re:Trc1_S11;im:Trc1_S11;re:Trc2_S21;im:Trc2_S21;
2.400000000000000E+009;1.561056673526764E-001;1.054293364286423E-001;4.397428128868341E-003;5.698335822671652E-003;
2.400166666666667E+009;1.560748070478439E-001;1.031444892287254E-001;4.612686112523079E-003;5.453546065837145E-003;
2.400333333333334E+009;1.563922464847565E-001;1.010642647743225E-001;4.921501036733389E-003;5.235571879893541E-003;
2.400500000000000E+009;1.565812528133392E-001;9.859182685613632E-002;4.960785154253244E-003;4.593715071678162E-003;
2.400666666666667E+009;1.568413972854614E-001;9.622822701931000E-002;5.348398350179195E-003;4.285444039851427E-003;
2.400833333333334E+009;1.570624262094498E-001;9.363983571529388E-002;5.357202142477036E-003;3.891936037689447E-003;
2.401000000000000E+009;1.575038135051727E-001;9.098602086305618E-002;5.396724678575993E-003;3.594471840187907E-003;
2.401166666666667E+009;1.577346622943878E-001;8.848848193883896E-002;5.415292922407389E-003;3.226418746635318E-003;
2.401333333333334E+009;1.582570821046829E-001;8.609984815120697E-002;5.314938258379698E-003;2.873111283406615E-003;
2.401500000000000E+009;1.589428335428238E-001;8.323401957750320E-002;5.248377565294504E-003;2.592283999547362E-003;
2.401666666666667E+009;1.592771112918854E-001;8.071711659431458E-002;5.019053816795349E-003;2.281439257785678E-003;
2.401833333333334E+009;1.597625464200974E-001;7.815156877040863E-002;4.871518816798925E-003;2.022786531597376E-003;
2.402000000000000E+009;1.606841981410980E-001;7.556778937578201E-002;4.773083608597517E-003;1.811742549762130E-003;
2.402166666666667E+009;1.614197194576263E-001;7.318059355020523E-002;4.571845289319754E-003;1.750682364217937E-003;
2.402333333333334E+009;1.623651981353760E-001;7.077667117118835E-002;4.450869746506214E-003;1.647480065003038E-003;
2.402500000000000E+009;1.637181788682938E-001;6.845041364431381E-002;4.393905401229858E-003;1.427404815331101E-003;
2.402666666666667E+009;1.646466404199600E-001;6.625156849622726E-002;4.326592665165663E-003;1.398753724060953E-003;
2.402833333333334E+009;1.657623201608658E-001;6.386958807706833E-002;4.131699912250042E-003;1.380946836434305E-003;
2.403000000000000E+009;1.670544892549515E-001;6.179111078381538E-002;4.365025553852320E-003;1.312684617005289E-003;
2.403166666666667E+009;1.686222255229950E-001;5.991719663143158E-002;4.339685197919607E-003;1.216180738992989E-003;
2.403333333333334E+009;1.697351783514023E-001;5.780099332332611E-002;4.301128443330526E-003;1.161106047220528E-003;
2.403500000000000E+009;1.714669913053513E-001;5.588973313570023E-002;4.052770789712668E-003;1.193067640997469E-003;
2.403666666666667E+009;1.728657186031342E-001;5.396186932921410E-002;4.269961733371019E-003;1.000927411951125E-003;
2.403833333333334E+009;1.743757575750351E-001;5.243306234478951E-002;4.357741214334965E-003;8.350344141945243E-004;
2.404000000000000E+009;1.755918860435486E-001;5.051292479038239E-002;4.217144101858139E-003;7.313887472264469E-004;
2.404166666666667E+009;1.772041171789169E-001;4.925465583801270E-002;4.239375237375498E-003;7.885571685619652E-004;
2.404333333333334E+009;1.785434335470200E-001;4.777277261018753E-002;4.205317236483097E-003;5.967806209810078E-004;
2.404500000000000E+009;1.800461113452911E-001;4.653175920248032E-002;4.208609927445650E-003;4.804899217560887E-004;
2.404666666666667E+009;1.814185976982117E-001;4.526098445057869E-002;4.194062203168869E-003;4.884056397713721E-004;
2.404833333333334E+009;1.827227175235748E-001;4.426213353872299E-002;4.163667559623718E-003;2.874819037970156E-004;
2.405000000000000E+009;1.839373856782913E-001;4.342385381460190E-002;4.213462118059397E-003;7.461216591764242E-005;
2.405166666666667E+009;1.851600259542465E-001;4.280166700482369E-002;4.041326697915793E-003;1.006735110422596E-004;
2.405333333333334E+009;1.863879561424255E-001;4.203849285840988E-002;3.922875039279461E-003;3.551420013536699E-005;
2.405500000000000E+009;1.874693185091019E-001;4.146978631615639E-002;3.894465044140816E-003;-8.975680248113349E-005;
2.405666666666667E+009;1.886261850595474E-001;4.108831286430359E-002;3.924325574189425E-003;-2.156811679014936E-004;
2.405833333333334E+009;1.896320432424545E-001;4.074009135365486E-002;3.781389910727739E-003;-2.248938835691661E-004;
2.406000000000000E+009;1.904620826244354E-001;4.036981612443924E-002;3.833371214568615E-003;-1.158934610430151E-004;
2.406166666666667E+009;1.913040578365326E-001;4.004295915365219E-002;3.626082558184862E-003;-3.466696362011135E-004;
2.406333333333334E+009;1.921566277742386E-001;3.991042450070381E-002;3.765076166018844E-003;-4.062152293045074E-004;
2.406500000000000E+009;1.927346736192703E-001;3.971067443490028E-002;3.672897815704346E-003;-2.974028757307679E-004;
2.406666666666667E+009;1.933138966560364E-001;3.949716687202454E-002;3.615420544520021E-003;-2.994162496179342E-004;
2.406833333333334E+009;1.936514079570770E-001;3.928628563880920E-002;3.675264306366444E-003;-3.978292807005346E-004;
2.407000000000000E+009;1.939597725868225E-001;3.939624875783920E-002;3.508974565193057E-003;-4.886303213424981E-004;
2.407166666666667E+009;1.943504959344864E-001;3.892221301794052E-002;3.712868317961693E-003;-2.519291010685265E-004;
2.407333333333334E+009;1.942403614521027E-001;3.884238004684448E-002;3.666496369987726E-003;-2.542501315474510E-004;
2.407500000000000E+009;1.942816823720932E-001;3.873583301901817E-002;3.777854144573212E-003;-3.533239068929106E-004;
2.407666666666667E+009;1.943302452564240E-001;3.849562257528305E-002;3.807294880971313E-003;-2.343049563933164E-004;
2.407833333333334E+009;1.938828527927399E-001;3.809907659888268E-002;3.813031828030944E-003;-4.181607218924910E-004;
2.408000000000000E+009;1.940630674362183E-001;3.769872337579727E-002;3.957036416977644E-003;-4.000295302830637E-004;
2.408166666666667E+009;1.934669762849808E-001;3.735097497701645E-002;4.013176541775465E-003;-3.882232704199851E-004;
2.408333333333334E+009;1.932083666324616E-001;3.651985898613930E-002;4.128191620111466E-003;-5.011411849409342E-004;
2.408500000000000E+009;1.926126629114151E-001;3.607212007045746E-002;4.001137800514698E-003;-4.956369521096349E-004;
2.408666666666667E+009;1.921553015708923E-001;3.555477038025856E-002;4.501206334680319E-003;-6.307174917310476E-004;
2.408833333333334E+009;1.914713382720947E-001;3.449349477887154E-002;4.557411186397076E-003;-5.765150999650359E-004;
2.409000000000000E+009;1.908236891031265E-001;3.347859904170036E-002;4.427014384418726E-003;-7.126610144041479E-004;
2.409166666666667E+009;1.902282685041428E-001;3.279528021812439E-002;4.679750185459852E-003;-1.143482280895114E-003;
2.409333333333334E+009;1.895028948783875E-001;3.158181160688400E-002;4.900089465081692E-003;-1.075264881365001E-003;
2.409500000000000E+009;1.885765343904495E-001;3.031777590513229E-002;4.978799261152744E-003;-1.488712267018855E-003;
2.409666666666667E+009;1.878998577594757E-001;2.883449941873550E-002;5.066604819148779E-003;-1.584122655913234E-003;
2.409833333333334E+009;1.870260238647461E-001;2.741692773997784E-002;5.150012671947479E-003;-1.752449781633914E-003;
2.410000000000000E+009;1.862287223339081E-001;2.583466470241547E-002;5.271095316857100E-003;-2.176506677642465E-003;
2.410166666666667E+009;1.854327172040939E-001;2.399270236492157E-002;5.172111559659243E-003;-2.273193327710033E-003;
2.410333333333334E+009;1.848327219486237E-001;2.236854098737240E-002;5.232285708189011E-003;-2.473744796589017E-003;
2.410500000000000E+009;1.841167509555817E-001;2.055620960891247E-002;5.129736382514238E-003;-2.901777159422636E-003;
2.410666666666667E+009;1.833770722150803E-001;1.845457963645458E-002;5.145088303834200E-003;-3.243523882701993E-003;
2.410833333333334E+009;1.829407513141632E-001;1.644917577505112E-002;4.898566287010908E-003;-3.358465619385243E-003;
2.411000000000000E+009;1.824079155921936E-001;1.443371828645468E-002;4.785052500665188E-003;-3.702463349327445E-003;
2.411166666666667E+009;1.819696277379990E-001;1.242549810558558E-002;4.577691201120615E-003;-3.966465126723051E-003;
2.411333333333334E+009;1.817353963851929E-001;1.015580911189318E-002;4.545264411717653E-003;-3.995597828179598E-003;
2.411500000000000E+009;1.813180446624756E-001;7.966375909745693E-003;4.402983468025923E-003;-4.169920459389687E-003;
2.411666666666667E+009;1.811996847391129E-001;5.863890051841736E-003;4.160067997872829E-003;-4.638087470084429E-003;
2.411833333333334E+009;1.808939725160599E-001;3.678627312183380E-003;4.144797567278147E-003;-4.812585655599833E-003;
2.412000000000000E+009;1.813615411520004E-001;1.165152643807232E-003;3.722974797710776E-003;-4.770674277096987E-003;
2.412166666666667E+009;1.812904328107834E-001;-6.803885917179287E-004;3.621826646849513E-003;-5.049784667789936E-003;
2.412333333333334E+009;1.816322356462479E-001;-3.145486582070589E-003;3.486745525151491E-003;-4.914322402328253E-003;
2.412500000000000E+009;1.819283962249756E-001;-5.141207482665777E-003;3.234003670513630E-003;-5.109619349241257E-003;
2.412666666666667E+009;1.823733299970627E-001;-7.465365808457136E-003;2.938324119895697E-003;-5.202955100685358E-003;
2.412833333333334E+009;1.832754760980606E-001;-9.765602648258209E-003;2.840602304786444E-003;-5.320935510098934E-003;
2.413000000000000E+009;1.838599890470505E-001;-1.172942854464054E-002;2.746503567323089E-003;-5.552418064326048E-003;
2.413166666666667E+009;1.844423562288284E-001;-1.369181275367737E-002;2.543558599427342E-003;-5.623595789074898E-003;
2.413333333333334E+009;1.855118274688721E-001;-1.586303114891052E-002;2.411893103271723E-003;-5.622886586934328E-003;
2.413500000000000E+009;1.860831975936890E-001;-1.803216524422169E-002;2.217503963038325E-003;-5.865036975592375E-003;
2.413666666666667E+009;1.872875690460205E-001;-1.993941329419613E-002;2.159039024263620E-003;-6.058072671294212E-003;
2.413833333333334E+009;1.881587207317352E-001;-2.194755524396896E-002;1.790453912690282E-003;-6.105814129114151E-003;
2.414000000000000E+009;1.890242546796799E-001;-2.355829067528248E-002;1.672481652349234E-003;-6.095810793340206E-003;
2.414166666666667E+009;1.902929991483688E-001;-2.540479227900505E-002;1.437139697372913E-003;-6.348520983010531E-003;
2.414333333333334E+009;1.912334859371185E-001;-2.718527987599373E-002;1.221430138684809E-003;-6.466813851147890E-003;
2.414500000000000E+009;1.921291947364807E-001;-2.857526950538158E-002;9.207088151015341E-004;-6.456541828811169E-003;
2.414666666666667E+009;1.932684779167175E-001;-3.014331124722958E-002;6.678867503069341E-004;-6.707487627863884E-003;
2.414833333333334E+009;1.940375119447708E-001;-3.142877295613289E-002;3.772523778025061E-004;-6.816050037741661E-003;
2.415000000000000E+009;1.950847059488297E-001;-3.270990401506424E-002;-1.711094228085131E-005;-6.806992460042238E-003;
2.415166666666667E+009;1.961095184087753E-001;-3.383808210492134E-002;-3.465068293735385E-004;-6.914713419973850E-003;
2.415333333333334E+009;1.969309449195862E-001;-3.469059243798256E-002;-7.229346665553749E-004;-6.913489196449518E-003;
2.415500000000000E+009;1.979507058858872E-001;-3.547200188040733E-002;-1.098443521186709E-003;-6.779433693736792E-003;
2.415666666666667E+009;1.987409293651581E-001;-3.645060583949089E-002;-1.322938245721161E-003;-6.891753524541855E-003;
2.415833333333334E+009;1.993975043296814E-001;-3.717641904950142E-002;-2.025049412623048E-003;-6.539803929626942E-003;
2.416000000000000E+009;2.000605165958405E-001;-3.782032430171967E-002;-2.322038402780891E-003;-6.533028092235327E-003;
2.416166666666667E+009;2.005881965160370E-001;-3.844007849693298E-002;-2.531697507947683E-003;-6.301095243543387E-003;
2.416333333333334E+009;2.011083811521530E-001;-3.883063420653343E-002;-2.815384650602937E-003;-6.059873383492231E-003;
2.416500000000000E+009;2.013391256332398E-001;-3.926640003919601E-002;-3.187231253832579E-003;-5.771986208856106E-003;
2.416666666666667E+009;2.015805095434189E-001;-3.986546397209168E-002;-3.522848477587104E-003;-5.657376255840063E-003;
2.416833333333334E+009;2.015833854675293E-001;-3.994838893413544E-002;-3.616354428231716E-003;-5.254785064607859E-003;
2.417000000000000E+009;2.015769928693771E-001;-4.039889946579933E-002;-3.537122625857592E-003;-5.047496408224106E-003;
2.417166666666667E+009;2.011999934911728E-001;-4.057440906763077E-002;-3.834281582385302E-003;-4.788443446159363E-003;
2.417333333333334E+009;2.009644657373428E-001;-4.056749120354652E-002;-3.893150249496102E-003;-4.542726557701826E-003;
2.417500000000000E+009;2.006964385509491E-001;-4.069337621331215E-002;-3.890971653163433E-003;-4.285278264433146E-003;
2.417666666666667E+009;2.001549899578095E-001;-4.072108119726181E-002;-3.872278612107039E-003;-4.225838463753462E-003;
2.417833333333334E+009;1.997471898794174E-001;-4.067607969045639E-002;-3.930697217583656E-003;-3.921256400644779E-003;
2.418000000000000E+009;1.991252750158310E-001;-4.071110859513283E-002;-4.030401818454266E-003;-3.887717146426439E-003;
2.418166666666667E+009;1.985247880220413E-001;-4.084039479494095E-002;-4.048346541821957E-003;-3.807616187259555E-003;
2.418333333333334E+009;1.976911425590515E-001;-4.091408848762512E-002;-4.066851921379566E-003;-3.570659086108208E-003;
2.418500000000000E+009;1.966083645820618E-001;-4.115617647767067E-002;-4.255763720721006E-003;-3.226079512387514E-003;
2.418666666666667E+009;1.958161592483521E-001;-4.126065596938133E-002;-4.319610539823771E-003;-3.276612376794219E-003;
2.418833333333334E+009;1.947010010480881E-001;-4.160164669156075E-002;-4.374915268272162E-003;-2.932348288595676E-003;
2.419000000000000E+009;1.935324072837830E-001;-4.184399545192719E-002;-4.292641300708056E-003;-2.839284716174007E-003;
2.419166666666667E+009;1.925044357776642E-001;-4.245571792125702E-002;-4.438605159521103E-003;-2.659618621692061E-003;
2.419333333333334E+009;1.911887675523758E-001;-4.303224012255669E-002;-4.376083146780729E-003;-2.588913543149829E-003;
2.419500000000000E+009;1.899941563606262E-001;-4.355338215827942E-002;-4.495829343795776E-003;-2.326106885448098E-003;
2.419666666666667E+009;1.885295361280441E-001;-4.445476457476616E-002;-4.313481971621513E-003;-2.097452990710735E-003;
2.419833333333334E+009;1.870554536581039E-001;-4.510821029543877E-002;-4.504441283643246E-003;-1.969512086361647E-003;
2.420000000000000E+009;1.859048604965210E-001;-4.598249122500420E-002;-4.512480460107327E-003;-1.900560688227415E-003;
2.420166666666667E+009;1.845170110464096E-001;-4.704706370830536E-002;-4.448789171874523E-003;-1.670718775130808E-003;
2.420333333333334E+009;1.830139905214310E-001;-4.813841357827187E-002;-4.436183720827103E-003;-1.334737986326218E-003;
2.420500000000000E+009;1.817280799150467E-001;-4.938340187072754E-002;-4.330606665462256E-003;-1.422004192136228E-003;
2.420666666666667E+009;1.802497357130051E-001;-5.056608468294144E-002;-4.195580724626780E-003;-1.101468456909061E-003;
2.420833333333334E+009;1.788633912801743E-001;-5.202498286962509E-002;-4.074012394994497E-003;-1.069395220838487E-003;
2.421000000000000E+009;1.775891333818436E-001;-5.354434251785278E-002;-4.009986761957407E-003;-6.804162403568626E-004;
2.421166666666667E+009;1.764498502016068E-001;-5.518919602036476E-002;-3.977209795266390E-003;-7.060998468659818E-004;
2.421333333333334E+009;1.748664528131485E-001;-5.654652789235115E-002;-3.753259778022766E-003;-6.010337965562940E-004;
2.421500000000000E+009;1.738453805446625E-001;-5.843199789524078E-002;-3.526849206537008E-003;-5.950103513896465E-004;
2.421666666666667E+009;1.725538969039917E-001;-5.993751063942909E-002;-3.445634152740240E-003;-6.097350269556046E-004;
2.421833333333334E+009;1.715700477361679E-001;-6.182488426566124E-002;-3.289291169494391E-003;-6.381355924531817E-004;
2.422000000000000E+009;1.705549806356430E-001;-6.341984122991562E-002;-3.263210644945502E-003;-8.305805968120694E-004;
2.422166666666667E+009;1.698077619075775E-001;-6.543481349945068E-002;-3.116238629445434E-003;-8.728414541110396E-004;
2.422333333333334E+009;1.687825322151184E-001;-6.717620044946671E-002;-3.053184365853667E-003;-8.021832327358425E-004;
2.422500000000000E+009;1.680886149406433E-001;-6.889048963785172E-002;-3.135738428682089E-003;-9.861146099865437E-004;
2.422666666666667E+009;1.673912405967712E-001;-7.067442685365677E-002;-3.241946687921882E-003;-1.198390848003328E-003;
2.422833333333334E+009;1.670587509870529E-001;-7.259605824947357E-002;-3.268094500526786E-003;-1.148674753494561E-003;
2.423000000000000E+009;1.665233224630356E-001;-7.454370707273483E-002;-3.592119319364429E-003;-1.297783688642085E-003;
2.423166666666667E+009;1.662264466285706E-001;-7.633922994136810E-002;-3.532308386638761E-003;-1.245541381649673E-003;
2.423333333333334E+009;1.661413758993149E-001;-7.810673862695694E-002;-3.527457593008876E-003;-1.274012727662921E-003;
2.423500000000000E+009;1.657112836837769E-001;-7.963312417268753E-002;-3.742675529792905E-003;-1.370861893519759E-003;
2.423666666666667E+009;1.657474935054779E-001;-8.134005218744278E-002;-3.886921331286430E-003;-1.334421802312136E-003;
2.423833333333334E+009;1.655650734901428E-001;-8.307853341102600E-002;-4.013247787952423E-003;-1.313438289798796E-003;
2.424000000000000E+009;1.657311171293259E-001;-8.466846495866776E-002;-4.230223596096039E-003;-1.123261754401028E-003;
2.424166666666667E+009;1.656188666820526E-001;-8.613750338554382E-002;-4.330910276621580E-003;-1.235395902767777E-003;
2.424333333333334E+009;1.658728718757629E-001;-8.756421506404877E-002;-4.501934163272381E-003;-1.005086465738714E-003;
2.424500000000000E+009;1.659801155328751E-001;-8.921682089567184E-002;-4.674570634961128E-003;-9.654290042817593E-004;
2.424666666666667E+009;1.661327928304672E-001;-9.045990556478500E-002;-4.767488222569227E-003;-9.042380843311548E-004;
2.424833333333334E+009;1.664930582046509E-001;-9.178097546100617E-002;-4.974821116775274E-003;-8.582092705182731E-004;
2.425000000000000E+009;1.666086167097092E-001;-9.285594522953033E-002;-5.196374375373125E-003;-5.281132180243731E-004;
2.425166666666667E+009;1.670390814542770E-001;-9.400414675474167E-002;-5.430245306342840E-003;-3.460341540630907E-004;
2.425333333333334E+009;1.671131253242493E-001;-9.505239129066467E-002;-5.423712544143200E-003;-1.970040757441893E-004;
2.425500000000000E+009;1.674480289220810E-001;-9.603344649076462E-002;-5.583656486123800E-003;9.039296855917200E-005;
2.425666666666667E+009;1.677363961935043E-001;-9.672070294618607E-002;-5.716366227716208E-003;2.811023441608995E-004;
2.425833333333334E+009;1.678598970174789E-001;-9.763238579034805E-002;-5.922120064496994E-003;4.104169784113765E-004;
2.426000000000000E+009;1.682679951190949E-001;-9.824357181787491E-002;-5.891019478440285E-003;9.318845695815980E-004;
2.426166666666667E+009;1.684996932744980E-001;-9.881605952978134E-002;-6.019771099090576E-003;1.151972799561918E-003;
2.426333333333334E+009;1.684665381908417E-001;-9.940647333860397E-002;-5.891308188438416E-003;1.413513789884746E-003;
2.426500000000000E+009;1.688463240861893E-001;-9.985928982496262E-002;-6.052120123058558E-003;1.806784654036164E-003;
2.426666666666667E+009;1.689192801713944E-001;-1.003015711903572E-001;-5.895121954381466E-003;1.946680247783661E-003;
2.426833333333334E+009;1.691593527793884E-001;-1.007695645093918E-001;-5.956474225968123E-003;2.225163159891963E-003;
2.427000000000000E+009;1.690232306718826E-001;-1.011339798569679E-001;-5.878827068954706E-003;2.562583424150944E-003;
2.427166666666667E+009;1.690735071897507E-001;-1.014495193958283E-001;-5.571119021624327E-003;2.810279838740826E-003;
2.427333333333334E+009;1.689306050539017E-001;-1.019052118062973E-001;-5.578394513577223E-003;3.204620676115155E-003;
2.427500000000000E+009;1.686067730188370E-001;-1.022626683115959E-001;-5.455267149955034E-003;3.308572340756655E-003;
2.427666666666667E+009;1.684365570545197E-001;-1.024346277117729E-001;-5.199191160500050E-003;3.488251706585288E-003;
