# Version 1.00
#
freq[Hz];re:Trc1_S11;im:Trc1_S11;re:Trc2_S21;im:Trc2_S21;
2.400000000000000E+009;1.552820354700089E-001;1.071853339672089E-001;2.054873155429959E-003;7.893469301052392E-004;
2.400166666666667E+009;1.551711708307266E-001;1.046011894941330E-001;2.038270467892289E-003;7.921078358776867E-004;
2.400333333333334E+009;1.551431119441986E-001;1.024396419525147E-001;2.079466124996543E-003;9.854184463620186E-004;
2.400500000000000E+009;1.549407243728638E-001;9.946187585592270E-002;2.259761095046997E-003;1.098200329579413E-003;
2.400666666666667E+009;1.553027778863907E-001;9.680619090795517E-002;2.141389995813370E-003;1.173038035631180E-003;
2.400833333333334E+009;1.553066670894623E-001;9.405148774385452E-002;2.293285680934787E-003;1.154010649770498E-003;
2.401000000000000E+009;1.554681062698364E-001;9.121777862310410E-002;2.272573299705982E-003;1.258794334717095E-003;
2.401166666666667E+009;1.556334495544434E-001;8.842135220766068E-002;2.629625145345926E-003;1.328259706497192E-003;
2.401333333333334E+009;1.559069305658341E-001;8.571957796812058E-002;2.613405464217067E-003;1.252423040568829E-003;
2.401500000000000E+009;1.563760191202164E-001;8.275469392538071E-002;2.581322565674782E-003;1.234281109645963E-003;
2.401666666666667E+009;1.566948890686035E-001;8.008771389722824E-002;2.776947570964694E-003;1.328081358224154E-003;
2.401833333333334E+009;1.572372317314148E-001;7.732279598712921E-002;2.903908956795931E-003;1.311328727751970E-003;
2.402000000000000E+009;1.582068949937820E-001;7.455851137638092E-002;3.034778172150254E-003;1.160936662927270E-003;
2.402166666666667E+009;1.588196456432343E-001;7.194066792726517E-002;3.132561687380076E-003;9.793904609978199E-004;
2.402333333333334E+009;1.600456833839417E-001;6.925147026777268E-002;3.284817794337869E-003;9.043207392096520E-004;
2.402500000000000E+009;1.610546112060547E-001;6.667105853557587E-002;3.338441951200366E-003;8.646293426863849E-004;
2.402666666666667E+009;1.623115241527557E-001;6.422612071037293E-002;3.261771053075790E-003;6.164455553516746E-004;
2.402833333333334E+009;1.635550260543823E-001;6.177893653512001E-002;3.334827488288283E-003;7.445001392625272E-004;
2.403000000000000E+009;1.651216298341751E-001;5.952370166778565E-002;3.499995218589902E-003;3.564775979612023E-004;
2.403166666666667E+009;1.668200492858887E-001;5.738555639982224E-002;3.434644546359778E-003;3.920582821592689E-004;
2.403333333333334E+009;1.681472808122635E-001;5.508811771869659E-002;3.323828568682075E-003;4.542983369901776E-004;
2.403500000000000E+009;1.702142357826233E-001;5.335602164268494E-002;3.929739352315664E-003;3.102790506090969E-004;
2.403666666666667E+009;1.719782203435898E-001;5.093056336045265E-002;3.271308494731784E-003;6.024098547641188E-005;
2.403833333333334E+009;1.733521819114685E-001;4.891219735145569E-002;2.886547707021236E-003;2.118844859069213E-004;
2.404000000000000E+009;1.755567342042923E-001;4.732573032379150E-002;3.454509191215038E-003;-5.647915531881154E-004;
2.404166666666667E+009;1.766127645969391E-001;4.646528512239456E-002;3.628883277997375E-003;7.038027397356927E-004;
2.404333333333334E+009;1.782939285039902E-001;4.466773942112923E-002;3.815688891336322E-003;4.155044443905354E-004;
2.404500000000000E+009;1.799815744161606E-001;4.299468919634819E-002;3.985083661973476E-003;1.753892283886671E-004;
2.404666666666667E+009;1.815712451934815E-001;4.201678186655045E-002;3.845771541818976E-003;1.776230965333525E-005;
2.404833333333334E+009;1.831697076559067E-001;4.083658009767532E-002;4.005627706646919E-003;-3.150702832499519E-005;
2.405000000000000E+009;1.844849586486816E-001;4.031990095973015E-002;4.132484085857868E-003;-1.398612948833033E-004;
2.405166666666667E+009;1.852784305810928E-001;3.890655189752579E-002;3.272040048614144E-003;-3.150660777464509E-004;
2.405333333333334E+009;1.876350045204163E-001;3.886529430747032E-002;4.342479631304741E-003;-8.469222229905427E-004;
2.405500000000000E+009;1.886982321739197E-001;3.839743882417679E-002;4.383606836199760E-003;-8.623127359896898E-004;
2.405666666666667E+009;1.899812519550324E-001;3.803842887282372E-002;4.386721644550562E-003;-1.082597533240914E-003;
2.405833333333334E+009;1.911551654338837E-001;3.784493356943131E-002;4.379837773740292E-003;-1.175657962448895E-003;
2.406000000000000E+009;1.919414401054382E-001;3.768096864223480E-002;4.402097314596176E-003;-1.494879834353924E-003;
2.406166666666667E+009;1.929330825805664E-001;3.749049454927445E-002;4.152099601924419E-003;-1.595896086655557E-003;
2.406333333333334E+009;1.939340382814407E-001;3.747032210230827E-002;4.211076535284519E-003;-1.844654558226466E-003;
2.406500000000000E+009;1.947132945060730E-001;3.756364434957504E-002;4.294296260923147E-003;-2.063082531094551E-003;
2.406666666666667E+009;1.953391432762146E-001;3.748926520347595E-002;4.177002701908350E-003;-2.112238202244043E-003;
2.406833333333334E+009;1.958237737417221E-001;3.762285411357880E-002;4.164689220488071E-003;-2.298354869708419E-003;
2.407000000000000E+009;1.961065381765366E-001;3.779911622405052E-002;4.051234107464552E-003;-2.412504749372602E-003;
2.407166666666667E+009;1.964454203844070E-001;3.753117471933365E-002;4.030107520520687E-003;-2.535103820264339E-003;
2.407333333333334E+009;1.963436156511307E-001;3.771640732884407E-002;4.099679179489613E-003;-2.574618207290769E-003;
2.407500000000000E+009;1.962340325117111E-001;3.779899701476097E-002;4.134909249842167E-003;-2.830097917467356E-003;
2.407666666666667E+009;1.962558180093765E-001;3.765680640935898E-002;4.260499496012926E-003;-2.869754331186414E-003;
2.407833333333334E+009;1.958452463150024E-001;3.766288235783577E-002;3.974361810833216E-003;-3.216788405552506E-003;
2.408000000000000E+009;1.957126259803772E-001;3.739031404256821E-002;3.889822168275714E-003;-3.436394734308124E-003;
2.408166666666667E+009;1.949578523635864E-001;3.708308562636375E-002;3.861109726130962E-003;-3.657972207292914E-003;
2.408333333333334E+009;1.946125477552414E-001;3.650736436247826E-002;3.894979367032647E-003;-3.700094996020198E-003;
2.408500000000000E+009;1.939028352499008E-001;3.622192889451981E-002;3.789181821048260E-003;-4.056013189256191E-003;
2.408666666666667E+009;1.932452768087387E-001;3.572941571474075E-002;3.574645845219493E-003;-4.379205405712128E-003;
2.408833333333334E+009;1.924180388450623E-001;3.477261960506439E-002;3.325940575450659E-003;-4.503918811678886E-003;
2.409000000000000E+009;1.916581392288208E-001;3.406452015042305E-002;3.194065066054463E-003;-4.871010780334473E-003;
2.409166666666667E+009;1.906417459249497E-001;3.306122496724129E-002;3.006793325766921E-003;-4.995113704353571E-003;
2.409333333333334E+009;1.896150857210159E-001;3.189813718199730E-002;2.696373267099261E-003;-5.088351201266050E-003;
2.409500000000000E+009;1.885797232389450E-001;3.069308586418629E-002;2.292459597811103E-003;-5.377901718020439E-003;
2.409666666666667E+009;1.876102983951569E-001;2.931812033057213E-002;2.075403230264783E-003;-5.326364189386368E-003;
2.409833333333334E+009;1.864808052778244E-001;2.763269469141960E-002;2.027777722105384E-003;-5.474132485687733E-003;
2.410000000000000E+009;1.855301856994629E-001;2.616580203175545E-002;1.796998782083392E-003;-5.544347688555718E-003;
2.410166666666667E+009;1.845089644193649E-001;2.433590777218342E-002;1.396180829033256E-003;-5.687703378498554E-003;
2.410333333333334E+009;1.835035830736160E-001;2.257432416081429E-002;1.060497364960611E-003;-5.550120957195759E-003;
2.410500000000000E+009;1.825937032699585E-001;2.042190544307232E-002;7.822224870324135E-004;-5.769051611423492E-003;
2.410666666666667E+009;1.815593093633652E-001;1.831742562353611E-002;7.059109630063176E-004;-5.683952011168003E-003;
2.410833333333334E+009;1.809522956609726E-001;1.618017628788948E-002;3.918342117685825E-004;-5.531425587832928E-003;
2.411000000000000E+009;1.801616698503494E-001;1.408908143639565E-002;2.421207900624722E-004;-5.547466222196817E-003;
2.411166666666667E+009;1.796771883964539E-001;1.183217763900757E-002;-1.899541530292481E-004;-5.611155182123184E-003;
2.411333333333334E+009;1.791845858097076E-001;9.333887137472630E-003;-1.054075837600976E-004;-5.570964887738228E-003;
2.411500000000000E+009;1.788206547498703E-001;6.946432869881392E-003;-4.442155186552554E-004;-5.356510635465384E-003;
2.411666666666667E+009;1.784682571887970E-001;4.482763819396496E-003;-5.516182864084840E-004;-5.558680277317762E-003;
2.411833333333334E+009;1.782177537679672E-001;2.100763143971562E-003;-7.347033824771643E-004;-5.383939947932959E-003;
2.412000000000000E+009;1.782640218734741E-001;-5.062453565187752E-004;-9.828309994190931E-004;-5.604926496744156E-003;
2.412166666666667E+009;1.785041391849518E-001;-2.661012345924974E-003;-1.242607366293669E-003;-5.297044292092323E-003;
2.412333333333334E+009;1.785062402486801E-001;-5.200334824621677E-003;-1.465610694140196E-003;-5.457821302115917E-003;
2.412500000000000E+009;1.790397763252258E-001;-7.670791354030371E-003;-1.693245721980929E-003;-5.328762810677290E-003;
2.412666666666667E+009;1.796703189611435E-001;-1.023640390485525E-002;-2.062391256913543E-003;-5.244918633252382E-003;
2.412833333333334E+009;1.802314817905426E-001;-1.259762980043888E-002;-2.257722197100520E-003;-5.195847712457180E-003;
2.413000000000000E+009;1.808684170246124E-001;-1.490853540599346E-002;-2.679383149370551E-003;-5.084672942757607E-003;
2.413166666666667E+009;1.817716509103775E-001;-1.716128177940846E-002;-2.807795768603683E-003;-4.829877987504005E-003;
2.413333333333334E+009;1.827442049980164E-001;-1.924501918256283E-002;-3.219851525500417E-003;-4.701208788901568E-003;
2.413500000000000E+009;1.836650222539902E-001;-2.162408269941807E-002;-3.389957826584578E-003;-4.451605957001448E-003;
2.413666666666667E+009;1.847023516893387E-001;-2.372479066252708E-002;-3.585569793358445E-003;-4.067997913807631E-003;
2.413833333333334E+009;1.857968121767044E-001;-2.575819753110409E-002;-3.851439571008086E-003;-3.657578490674496E-003;
2.414000000000000E+009;1.868571341037750E-001;-2.767206355929375E-002;-3.957678563892841E-003;-3.587560029700398E-003;
2.414166666666667E+009;1.881174892187119E-001;-2.920947410166264E-002;-4.036252386868000E-003;-3.156762802973390E-003;
2.414333333333334E+009;1.892452389001846E-001;-3.117930702865124E-002;-3.993965685367584E-003;-2.716744784265757E-003;
2.414500000000000E+009;1.905124932527542E-001;-3.263594955205917E-002;-4.115367773920298E-003;-2.373468363657594E-003;
2.414666666666667E+009;1.914847046136856E-001;-3.417880833148956E-002;-4.061131738126278E-003;-2.119661774486303E-003;
2.414833333333334E+009;1.928083151578903E-001;-3.547475486993790E-002;-3.974239807575941E-003;-1.958151580765843E-003;
2.415000000000000E+009;1.940114200115204E-001;-3.666317835450172E-002;-3.806814318522811E-003;-1.536054536700249E-003;
2.415166666666667E+009;1.951507031917572E-001;-3.780001029372215E-002;-3.704294329509139E-003;-1.398832304403186E-003;
2.415333333333334E+009;1.962804198265076E-001;-3.860452398657799E-002;-3.630360122770071E-003;-1.071382197551429E-003;
2.415500000000000E+009;1.974786520004273E-001;-3.941882774233818E-002;-3.471670439466834E-003;-9.598872275091708E-004;
2.415666666666667E+009;1.985554844141007E-001;-4.017202556133270E-002;-3.323457669466734E-003;-8.499659015797079E-004;
2.415833333333334E+009;1.992210894823074E-001;-4.087219759821892E-002;-3.178455866873264E-003;-7.458888576366007E-004;
2.416000000000000E+009;1.999534666538239E-001;-4.126817360520363E-002;-3.091279882937670E-003;-6.639477796852589E-004;
2.416166666666667E+009;2.007956951856613E-001;-4.188173636794090E-002;-2.912809606641531E-003;-4.487865662667900E-004;
2.416333333333334E+009;2.014635950326920E-001;-4.209277406334877E-002;-2.867891220375896E-003;-3.489999508019537E-004;
2.416500000000000E+009;2.019200623035431E-001;-4.229613021016121E-002;-2.553596161305904E-003;-3.463052853476256E-004;
2.416666666666667E+009;2.020073980093002E-001;-4.275336116552353E-002;-2.464748686179519E-003;-2.489725011400878E-004;
2.416833333333334E+009;2.022348046302795E-001;-4.270390421152115E-002;-2.053560689091682E-003;-1.954441540874541E-004;
2.417000000000000E+009;2.024492025375366E-001;-4.278969764709473E-002;-1.945042400620878E-003;-2.422822581138462E-004;
2.417166666666667E+009;2.021877020597458E-001;-4.274756833910942E-002;-1.956860302016139E-003;-1.497112825745717E-004;
2.417333333333334E+009;2.018831968307495E-001;-4.255483672022820E-002;-1.714617596007884E-003;-2.333105367142707E-004;
2.417500000000000E+009;2.016788423061371E-001;-4.251550883054733E-002;-1.752584823407233E-003;-3.795885713770986E-004;
2.417666666666667E+009;2.011818736791611E-001;-4.232352599501610E-002;-1.580145326443017E-003;-5.353069864213467E-004;
2.417833333333334E+009;2.006247937679291E-001;-4.215222224593163E-002;-1.473877229727805E-003;-7.454555598087609E-004;
2.418000000000000E+009;1.999581009149551E-001;-4.184728115797043E-002;-1.380537636578083E-003;-7.022027275525034E-004;
2.418166666666667E+009;1.991958469152451E-001;-4.197521135210991E-002;-1.441929372958839E-003;-9.508337243460119E-004;
2.418333333333334E+009;1.982707679271698E-001;-4.166730120778084E-002;-1.361346454359591E-003;-1.037747017107904E-003;
2.418500000000000E+009;1.972740888595581E-001;-4.182240739464760E-002;-1.371509279124439E-003;-1.252771122381091E-003;
2.418666666666667E+009;1.964883506298065E-001;-4.163029789924622E-002;-1.302874414250255E-003;-1.212020986713469E-003;
2.418833333333334E+009;1.950491666793823E-001;-4.176705330610275E-002;-1.270026783458889E-003;-1.469887793064117E-003;
2.419000000000000E+009;1.937067955732346E-001;-4.208119586110115E-002;-1.461753854528070E-003;-1.553456182591617E-003;
2.419166666666667E+009;1.925572752952576E-001;-4.243444651365280E-002;-1.577097107656300E-003;-1.788314781151712E-003;
2.419333333333334E+009;1.910838037729263E-001;-4.290980473160744E-002;-1.568365958519280E-003;-1.858285861089826E-003;
2.419500000000000E+009;1.896595954895020E-001;-4.341276362538338E-002;-1.709364587441087E-003;-2.072170376777649E-003;
2.419666666666667E+009;1.880607753992081E-001;-4.422701895236969E-002;-1.814576215110719E-003;-1.993607264012098E-003;
2.419833333333334E+009;1.865826845169067E-001;-4.498598724603653E-002;-2.009685151278973E-003;-2.177668036893010E-003;
2.420000000000000E+009;1.849938929080963E-001;-4.574593529105187E-002;-2.180386101827025E-003;-2.334686461836100E-003;
2.420166666666667E+009;1.833982765674591E-001;-4.685476049780846E-002;-2.267298288643360E-003;-2.152767265215516E-003;
2.420333333333334E+009;1.817462444305420E-001;-4.800663515925407E-002;-2.447085455060005E-003;-2.345578512176871E-003;
2.420500000000000E+009;1.799522042274475E-001;-4.935122281312943E-002;-2.721053780987859E-003;-2.451245440170169E-003;
2.420666666666667E+009;1.785220205783844E-001;-5.031073093414307E-002;-3.052869113162160E-003;-2.346522640436888E-003;
2.420833333333334E+009;1.768759489059448E-001;-5.200148373842239E-002;-3.251302056014538E-003;-2.314755460247397E-003;
2.421000000000000E+009;1.754787117242813E-001;-5.362825468182564E-002;-3.489753464236856E-003;-2.306718612089753E-003;
2.421166666666667E+009;1.739103943109512E-001;-5.525001510977745E-002;-3.723373170942068E-003;-2.246062038466334E-003;
2.421333333333334E+009;1.724602878093720E-001;-5.686410143971443E-002;-4.192210733890533E-003;-2.030736068263650E-003;
2.421500000000000E+009;1.711144149303436E-001;-5.873836204409599E-002;-4.262695554643869E-003;-1.955601619556546E-003;
2.421666666666667E+009;1.698147654533386E-001;-6.047650054097176E-002;-4.411983303725720E-003;-1.773582189343870E-003;
2.421833333333334E+009;1.687953174114227E-001;-6.237657740712166E-002;-4.488889127969742E-003;-1.680889981798828E-003;
2.422000000000000E+009;1.676047891378403E-001;-6.428679078817368E-002;-4.794408567249775E-003;-1.417224993929267E-003;
2.422166666666667E+009;1.667228192090988E-001;-6.638616323471069E-002;-4.956085700541735E-003;-1.241611898876727E-003;
2.422333333333334E+009;1.657228618860245E-001;-6.848155707120895E-002;-4.961484577506781E-003;-1.005672151222825E-003;
2.422500000000000E+009;1.651320606470108E-001;-7.042907923460007E-002;-5.209614057093859E-003;-8.610805380158126E-004;
2.422666666666667E+009;1.644182801246643E-001;-7.254365086555481E-002;-5.301130004227161E-003;-4.929657443426549E-004;
2.422833333333334E+009;1.639696359634399E-001;-7.460486888885498E-002;-5.325419362634420E-003;-1.850221597123891E-004;
2.423000000000000E+009;1.633518934249878E-001;-7.651156187057495E-002;-5.532905459403992E-003;-7.759686559438705E-005;
2.423166666666667E+009;1.630115658044815E-001;-7.853806018829346E-002;-5.680364556610584E-003;2.261954650748521E-004;
2.423333333333334E+009;1.627626270055771E-001;-8.035027980804443E-002;-5.565369967371225E-003;4.894901649095118E-004;
2.423500000000000E+009;1.626536697149277E-001;-8.224606513977051E-002;-5.634877830743790E-003;5.756503087468445E-004;
2.423666666666667E+009;1.626726835966110E-001;-8.407498896121979E-002;-5.843053571879864E-003;9.125064825639129E-004;
2.423833333333334E+009;1.625870168209076E-001;-8.576235920190811E-002;-5.792197771370411E-003;1.237052842043340E-003;
2.424000000000000E+009;1.627183556556702E-001;-8.748844265937805E-002;-5.803173873573542E-003;1.482114195823669E-003;
2.424166666666667E+009;1.626770496368408E-001;-8.906516432762146E-002;-5.896384362131357E-003;1.889781793579459E-003;
2.424333333333334E+009;1.630520075559616E-001;-9.067741036415100E-002;-5.861362908035517E-003;2.300783526152372E-003;
2.424500000000000E+009;1.634272634983063E-001;-9.225749969482422E-002;-5.819185636937618E-003;2.616926562041044E-003;
2.424666666666667E+009;1.636573970317841E-001;-9.363024681806564E-002;-5.575302522629499E-003;2.964402781799436E-003;
2.424833333333334E+009;1.640935689210892E-001;-9.496990591287613E-002;-5.394014995545149E-003;3.345952369272709E-003;
2.425000000000000E+009;1.645392030477524E-001;-9.600780159235001E-002;-5.301040131598711E-003;3.629032522439957E-003;
2.425166666666667E+009;1.648842096328735E-001;-9.703429788351059E-002;-5.059865768998861E-003;4.043945111334324E-003;
2.425333333333334E+009;1.653166860342026E-001;-9.808897972106934E-002;-4.803534597158432E-003;4.391529597342014E-003;
2.425500000000000E+009;1.657582819461823E-001;-9.900527447462082E-002;-4.295319318771362E-003;4.455138929188252E-003;
2.425666666666667E+009;1.661189198493958E-001;-9.960522502660751E-002;-4.168702755123377E-003;4.868869204074144E-003;
2.425833333333334E+009;1.664134562015533E-001;-1.003831699490547E-001;-3.773793810978532E-003;4.910360090434551E-003;
2.426000000000000E+009;1.669516712427139E-001;-1.009030118584633E-001;-3.390173660591245E-003;5.066773854196072E-003;
2.426166666666667E+009;1.672636866569519E-001;-1.014061421155930E-001;-3.191539784893394E-003;4.955869168043137E-003;
2.426333333333334E+009;1.672769337892532E-001;-1.017512008547783E-001;-2.900840714573860E-003;5.246166139841080E-003;
2.426500000000000E+009;1.678328514099121E-001;-1.020232364535332E-001;-2.490620827302337E-003;5.207652691751719E-003;
2.426666666666667E+009;1.680322438478470E-001;-1.023029014468193E-001;-2.484130207449198E-003;5.181934218853712E-003;
2.426833333333334E+009;1.681545674800873E-001;-1.026520133018494E-001;-2.026241971179843E-003;5.227678921073675E-003;
2.427000000000000E+009;1.681919097900391E-001;-1.029801890254021E-001;-1.866911887191236E-003;5.230105016380549E-003;
2.427166666666667E+009;1.682067811489105E-001;-1.030028760433197E-001;-1.606123754754663E-003;5.150703247636557E-003;
2.427333333333334E+009;1.681199073791504E-001;-1.031740084290505E-001;-1.348623889498413E-003;5.164358764886856E-003;
2.427500000000000E+009;1.678629517555237E-001;-1.034002378582954E-001;-1.169393886812031E-003;5.136945750564337E-003;
2.427666666666667E+009;1.675889492034912E-001;-1.033614501357079E-001;-1.008551800623536E-003;5.209482274949551E-003;
