# Version 1.00
#
freq[Hz];re:Trc1_S11;im:Trc1_S11;re:Trc2_S21;im:Trc2_S21;
2.400000000000000E+009;1.551699042320252E-001;1.065821498632431E-001;2.035781973972917E-003;9.017982520163059E-004;
2.400166666666667E+009;1.549911051988602E-001;1.041045635938644E-001;2.006636932492256E-003;9.561353363096714E-004;
2.400333333333334E+009;1.550489515066147E-001;1.015979200601578E-001;2.089093904942274E-003;1.032721716910601E-003;
2.400500000000000E+009;1.549133807420731E-001;9.888945519924164E-002;2.067347289994359E-003;1.253506867215037E-003;
2.400666666666667E+009;1.550423353910446E-001;9.654013067483902E-002;2.046074252575636E-003;1.283277408219874E-003;
2.400833333333334E+009;1.550325453281403E-001;9.358438849449158E-002;2.298069652169943E-003;1.412140787579119E-003;
2.401000000000000E+009;1.552447974681854E-001;9.074644744396210E-002;2.354769269004464E-003;1.357622910290957E-003;
2.401166666666667E+009;1.553412973880768E-001;8.808175474405289E-002;2.429588930681348E-003;1.396159408614039E-003;
2.401333333333334E+009;1.558046340942383E-001;8.523948490619659E-002;2.560196444392204E-003;1.493802526965737E-003;
2.401500000000000E+009;1.563087105751038E-001;8.234033733606339E-002;2.673006616532803E-003;1.608027494512498E-003;
2.401666666666667E+009;1.564736962318420E-001;7.964520156383514E-002;2.831377089023590E-003;1.355100539512932E-003;
2.401833333333334E+009;1.571931093931198E-001;7.685862481594086E-002;2.979583106935024E-003;1.352087710984051E-003;
2.402000000000000E+009;1.579940170049667E-001;7.399304211139679E-002;2.996255178004503E-003;1.204882399179041E-003;
2.402166666666667E+009;1.589297950267792E-001;7.144378870725632E-002;3.090339247137308E-003;1.260426826775074E-003;
2.402333333333334E+009;1.597709655761719E-001;6.881336122751236E-002;3.092542057856917E-003;1.101130270399153E-003;
2.402500000000000E+009;1.610093712806702E-001;6.627546995878220E-002;3.287934232503176E-003;9.692925959825516E-004;
2.402666666666667E+009;1.621882021427155E-001;6.393022090196610E-002;3.435466671362519E-003;9.133101557381451E-004;
2.402833333333334E+009;1.635101288557053E-001;6.140024214982987E-002;3.283726051449776E-003;5.966553580947220E-004;
2.403000000000000E+009;1.647775322198868E-001;5.900761112570763E-002;3.328190417960286E-003;5.774351302534342E-004;
2.403166666666667E+009;1.666859537363052E-001;5.699070915579796E-002;3.511117072775960E-003;3.991605772171170E-004;
2.403333333333334E+009;1.679500788450241E-001;5.487493425607681E-002;3.362734569236636E-003;5.269783432595432E-004;
2.403500000000000E+009;1.698796600103378E-001;5.273150652647018E-002;3.290442749857903E-003;3.793854557443410E-004;
2.403666666666667E+009;1.714730560779572E-001;5.081245675683022E-002;3.450201824307442E-003;2.460133691783994E-004;
2.403833333333334E+009;1.731176376342773E-001;4.887642338871956E-002;3.492290852591395E-003;3.499474842101336E-004;
2.404000000000000E+009;1.745502054691315E-001;4.724691808223724E-002;3.554524388164282E-003;4.058763151988387E-004;
2.404166666666667E+009;1.763575971126556E-001;4.567123949527741E-002;3.564770333468914E-003;3.154086007270962E-004;
2.404333333333334E+009;1.780282706022263E-001;4.404869675636292E-002;3.614393295720220E-003;1.996820355998352E-004;
2.404500000000000E+009;1.796552389860153E-001;4.286810755729675E-002;3.850307781249285E-003;2.896771766245365E-004;
2.404666666666667E+009;1.811154782772064E-001;4.163911566138268E-002;3.950720652937889E-003;3.570075205061585E-005;
2.404833333333334E+009;1.828278303146362E-001;4.056366905570030E-002;4.138269927352667E-003;1.722270462778397E-005;
2.405000000000000E+009;1.841790825128555E-001;4.002942144870758E-002;4.244807176291943E-003;-1.628463214728981E-004;
2.405166666666667E+009;1.855585575103760E-001;3.932366147637367E-002;4.383990541100502E-003;-4.262908187229186E-004;
2.405333333333334E+009;1.868567913770676E-001;3.880471736192703E-002;4.384922794997692E-003;-6.309210439212620E-004;
2.405500000000000E+009;1.884648650884628E-001;3.837984427809715E-002;4.600961692631245E-003;-1.016240334138274E-003;
2.405666666666667E+009;1.894930452108383E-001;3.802279755473137E-002;4.514104221016169E-003;-1.072235987521708E-003;
2.405833333333334E+009;1.907504945993424E-001;3.770036995410919E-002;4.470007028430700E-003;-1.197478151880205E-003;
2.406000000000000E+009;1.917619854211807E-001;3.752567991614342E-002;4.470948129892349E-003;-1.381046371534467E-003;
2.406166666666667E+009;1.926236897706986E-001;3.746490553021431E-002;4.289249889552593E-003;-1.629860373213887E-003;
2.406333333333334E+009;1.935660392045975E-001;3.748157247900963E-002;4.541985224932432E-003;-1.836271840147674E-003;
2.406500000000000E+009;1.942257881164551E-001;3.754713386297226E-002;4.367948509752750E-003;-1.992911333218217E-003;
2.406666666666667E+009;1.948947608470917E-001;3.742654621601105E-002;4.217165987938643E-003;-2.041991567239165E-003;
2.406833333333334E+009;1.954181194305420E-001;3.756060451269150E-002;4.168522544205189E-003;-2.306811744347215E-003;
2.407000000000000E+009;1.956121027469635E-001;3.773742541670799E-002;4.104708787053824E-003;-2.260190667584539E-003;
2.407166666666667E+009;1.960451602935791E-001;3.751977905631065E-002;4.041741136461496E-003;-2.659667748957872E-003;
2.407333333333334E+009;1.959436833858490E-001;3.785842657089233E-002;4.007562529295683E-003;-2.769718412309885E-003;
2.407500000000000E+009;1.958839148283005E-001;3.793351724743843E-002;4.046111367642880E-003;-2.909113885834813E-003;
2.407666666666667E+009;1.959009319543839E-001;3.783890232443810E-002;4.070938564836979E-003;-3.025717567652464E-003;
2.407833333333334E+009;1.953695118427277E-001;3.759066760540009E-002;3.956959582865238E-003;-3.183423308655620E-003;
2.408000000000000E+009;1.952791959047318E-001;3.760265558958054E-002;4.044941160827875E-003;-3.420783439651132E-003;
2.408166666666667E+009;1.946085393428803E-001;3.718989714980125E-002;4.027483984827995E-003;-3.644505515694618E-003;
2.408333333333334E+009;1.942732632160187E-001;3.665883094072342E-002;3.726884024217725E-003;-3.807811066508293E-003;
2.408500000000000E+009;1.935307532548904E-001;3.627840057015419E-002;3.646346507593989E-003;-4.187546670436859E-003;
2.408666666666667E+009;1.929071992635727E-001;3.580155223608017E-002;3.588896244764328E-003;-4.358821082860231E-003;
2.408833333333334E+009;1.921040862798691E-001;3.500974550843239E-002;3.401394700631499E-003;-4.519635811448097E-003;
2.409000000000000E+009;1.911754459142685E-001;3.411654382944107E-002;3.259047400206327E-003;-4.709020722657442E-003;
2.409166666666667E+009;1.903178095817566E-001;3.318259492516518E-002;3.067439887672663E-003;-5.013127811253071E-003;
2.409333333333334E+009;1.892649233341217E-001;3.210236877202988E-002;2.693091519176960E-003;-5.193711724132299E-003;
2.409500000000000E+009;1.881398558616638E-001;3.076622262597084E-002;2.464384771883488E-003;-5.409740377217531E-003;
2.409666666666667E+009;1.871973723173142E-001;2.935166656970978E-002;2.281807363033295E-003;-5.544955376535654E-003;
2.409833333333334E+009;1.861493587493897E-001;2.772206440567970E-002;1.959195127710700E-003;-5.537872202694416E-003;
2.410000000000000E+009;1.851369142532349E-001;2.642645128071308E-002;1.741349580697715E-003;-5.626645870506764E-003;
2.410166666666667E+009;1.842199862003326E-001;2.448315918445587E-002;1.381531357765198E-003;-5.557443946599960E-003;
2.410333333333334E+009;1.831673085689545E-001;2.271695062518120E-002;1.038640970364213E-003;-5.662672687321901E-003;
2.410500000000000E+009;1.820888966321945E-001;2.080938220024109E-002;9.214222664013505E-004;-5.647694226354361E-003;
2.410666666666667E+009;1.813618391752243E-001;1.840254478156567E-002;7.506910478696227E-004;-5.667359102517366E-003;
2.410833333333334E+009;1.808018833398819E-001;1.650766842067242E-002;6.265509291552007E-004;-5.604639649391174E-003;
2.411000000000000E+009;1.799869090318680E-001;1.412110775709152E-002;3.363674040883780E-004;-5.685268435627222E-003;
2.411166666666667E+009;1.794469803571701E-001;1.210715156048536E-002;-5.664467971655540E-005;-5.643701180815697E-003;
2.411333333333334E+009;1.789256930351257E-001;9.489765390753746E-003;-2.198601287091151E-004;-5.642670206725597E-003;
2.411500000000000E+009;1.784405708312988E-001;7.087826728820801E-003;-3.504523483570665E-004;-5.461731459945440E-003;
2.411666666666667E+009;1.781920194625855E-001;4.824643023312092E-003;-4.691218200605363E-004;-5.611830390989780E-003;
2.411833333333334E+009;1.780015826225281E-001;2.397485077381134E-003;-7.220492698252201E-004;-5.563181824982166E-003;
2.412000000000000E+009;1.781367361545563E-001;-1.621045958017930E-004;-1.005616621114314E-003;-5.525330547243357E-003;
2.412166666666667E+009;1.782453954219818E-001;-2.467687008902431E-003;-1.210787799209356E-003;-5.365683231502771E-003;
2.412333333333334E+009;1.785061210393906E-001;-4.957026802003384E-003;-1.391163910739124E-003;-5.382762290537357E-003;
2.412500000000000E+009;1.787506639957428E-001;-7.353325840085745E-003;-1.688094227574766E-003;-5.368637852370739E-003;
2.412666666666667E+009;1.794428676366806E-001;-9.925722144544125E-003;-2.014433732256293E-003;-5.293499212712050E-003;
2.412833333333334E+009;1.799402385950089E-001;-1.215591747313738E-002;-2.248862758278847E-003;-5.274995230138302E-003;
2.413000000000000E+009;1.808948218822479E-001;-1.452975533902645E-002;-2.560133812949061E-003;-5.204146727919579E-003;
2.413166666666667E+009;1.815541684627533E-001;-1.672338880598545E-002;-2.947834087535739E-003;-4.767566919326782E-003;
2.413333333333334E+009;1.825739145278931E-001;-1.904967799782753E-002;-3.107055323198438E-003;-4.737466108053923E-003;
2.413500000000000E+009;1.834831535816193E-001;-2.129308320581913E-002;-3.389227902516723E-003;-4.355294164270163E-003;
2.413666666666667E+009;1.845724433660507E-001;-2.335622347891331E-002;-3.682375652715564E-003;-4.023943562060595E-003;
2.413833333333334E+009;1.857289373874664E-001;-2.546263113617897E-002;-3.744975663721561E-003;-3.950141835957766E-003;
2.414000000000000E+009;1.867911666631699E-001;-2.721010148525238E-002;-3.979986999183893E-003;-3.608137834817171E-003;
2.414166666666667E+009;1.880485117435455E-001;-2.902811020612717E-002;-3.931498620659113E-003;-3.247375600039959E-003;
2.414333333333334E+009;1.889869123697281E-001;-3.103744611144066E-002;-4.109757952392101E-003;-2.797949593514204E-003;
2.414500000000000E+009;1.904025375843048E-001;-3.231740370392799E-002;-4.078953526914120E-003;-2.463418757542968E-003;
2.414666666666667E+009;1.914884448051453E-001;-3.379767388105393E-002;-3.954810556024313E-003;-2.185319550335407E-003;
2.414833333333334E+009;1.927044540643692E-001;-3.509924188256264E-002;-3.935801796615124E-003;-1.900415169075131E-003;
2.415000000000000E+009;1.938086599111557E-001;-3.646610677242279E-002;-3.980773966759443E-003;-1.671981648541987E-003;
2.415166666666667E+009;1.952342242002487E-001;-3.749940544366837E-002;-3.772719297558069E-003;-1.471758121624589E-003;
2.415333333333334E+009;1.961933821439743E-001;-3.834091499447823E-002;-3.532599657773972E-003;-1.362156355753541E-003;
2.415500000000000E+009;1.974132359027863E-001;-3.900117799639702E-002;-3.314652247354388E-003;-1.096384017728269E-003;
2.415666666666667E+009;1.984219402074814E-001;-3.989868983626366E-002;-3.254541894420981E-003;-1.042952178977430E-003;
2.415833333333334E+009;1.991310715675354E-001;-4.040040448307991E-002;-3.059118054807186E-003;-6.941466708667576E-004;
2.416000000000000E+009;2.000077813863754E-001;-4.101206734776497E-002;-3.100209636613727E-003;-7.461303030140698E-004;
2.416166666666667E+009;2.007318288087845E-001;-4.156879708170891E-002;-2.949078334495425E-003;-6.444270838983357E-004;
2.416333333333334E+009;2.013404816389084E-001;-4.170980677008629E-002;-2.740647643804550E-003;-5.810111179016531E-004;
2.416500000000000E+009;2.019266337156296E-001;-4.205201938748360E-002;-2.519516274333000E-003;-3.821896098088473E-004;
2.416666666666667E+009;2.021458148956299E-001;-4.232952371239662E-002;-2.308027585968375E-003;-2.726048405747861E-004;
2.416833333333334E+009;2.023479938507080E-001;-4.229582101106644E-002;-2.237592823803425E-003;-4.487783589866012E-004;
2.417000000000000E+009;2.024904489517212E-001;-4.246856644749641E-002;-2.149821026250720E-003;-3.476439451333135E-004;
2.417166666666667E+009;2.022454738616943E-001;-4.229056462645531E-002;-1.822122023440898E-003;-3.727705916389823E-004;
2.417333333333334E+009;2.020039856433868E-001;-4.213467612862587E-002;-1.906027900986373E-003;-4.585623391903937E-004;
2.417500000000000E+009;2.016419172286987E-001;-4.217246174812317E-002;-1.717032166197896E-003;-4.784985794685781E-004;
2.417666666666667E+009;2.011490762233734E-001;-4.198798164725304E-002;-1.485152519308031E-003;-7.297550910152495E-004;
2.417833333333334E+009;2.008138746023178E-001;-4.181019589304924E-002;-1.487403060309589E-003;-6.824862211942673E-004;
2.418000000000000E+009;2.000957131385803E-001;-4.153807088732719E-002;-1.315802801400423E-003;-9.193341829814017E-004;
2.418166666666667E+009;1.991985291242600E-001;-4.138663038611412E-002;-1.343833515420556E-003;-1.009324449114502E-003;
2.418333333333334E+009;1.984075307846069E-001;-4.129349812865257E-002;-1.291955704800785E-003;-1.079964917153120E-003;
2.418500000000000E+009;1.974472254514694E-001;-4.135829955339432E-002;-1.339413225650787E-003;-1.212677219882608E-003;
2.418666666666667E+009;1.965679526329041E-001;-4.122639819979668E-002;-1.401703455485404E-003;-1.328495680354536E-003;
2.418833333333334E+009;1.952487826347351E-001;-4.148710146546364E-002;-1.396901207044721E-003;-1.474565826356411E-003;
2.419000000000000E+009;1.939435005187988E-001;-4.166881740093231E-002;-1.477050129324198E-003;-1.623567542992532E-003;
2.419166666666667E+009;1.926990449428558E-001;-4.210202395915985E-002;-1.463782158680260E-003;-1.857495517469943E-003;
2.419333333333334E+009;1.913714557886124E-001;-4.263821989297867E-002;-1.592899323441088E-003;-1.953768078237772E-003;
2.419500000000000E+009;1.899016946554184E-001;-4.307893291115761E-002;-1.699416316114366E-003;-2.184857847169042E-003;
2.419666666666667E+009;1.882696002721787E-001;-4.386950656771660E-002;-1.987631199881434E-003;-2.172507811337709E-003;
2.419833333333334E+009;1.867241561412811E-001;-4.466392472386360E-002;-2.032940508797765E-003;-2.269607502967119E-003;
2.420000000000000E+009;1.852859705686569E-001;-4.553707689046860E-002;-2.167653292417526E-003;-2.390053588896990E-003;
2.420166666666667E+009;1.835958957672119E-001;-4.628903418779373E-002;-2.553553786128759E-003;-2.454476663842797E-003;
2.420333333333334E+009;1.818640530109406E-001;-4.761855304241180E-002;-2.729620318859816E-003;-2.323706401512027E-003;
2.420500000000000E+009;1.804709583520889E-001;-4.905985295772553E-002;-2.972370944917202E-003;-2.520197536796331E-003;
2.420666666666667E+009;1.787945181131363E-001;-5.003727972507477E-002;-2.908798167482019E-003;-2.405642066150904E-003;
2.420833333333334E+009;1.771039515733719E-001;-5.159689486026764E-002;-3.270175075158477E-003;-2.433593850582838E-003;
2.421000000000000E+009;1.756689846515656E-001;-5.328549444675446E-002;-3.445948241278529E-003;-2.373669762164354E-003;
2.421166666666667E+009;1.743332147598267E-001;-5.501725524663925E-002;-3.811382222920656E-003;-2.327593974769115E-003;
2.421333333333334E+009;1.726583689451218E-001;-5.654127895832062E-002;-4.060981795191765E-003;-2.280681626871228E-003;
2.421500000000000E+009;1.714806407690048E-001;-5.840408429503441E-002;-4.353062249720097E-003;-2.005118411034346E-003;
2.421666666666667E+009;1.701460033655167E-001;-6.038327515125275E-002;-4.425690509378910E-003;-1.834656461142004E-003;
2.421833333333334E+009;1.690647304058075E-001;-6.227397173643112E-002;-4.755613394081593E-003;-1.662095077335835E-003;
2.422000000000000E+009;1.678356975317001E-001;-6.427141278982163E-002;-4.896337166428566E-003;-1.492481445893645E-003;
2.422166666666667E+009;1.672078967094421E-001;-6.627330929040909E-002;-5.055795423686504E-003;-1.315030618570745E-003;
2.422333333333334E+009;1.661276817321777E-001;-6.835785508155823E-002;-5.346843972802162E-003;-1.183771993964911E-003;
2.422500000000000E+009;1.652848124504089E-001;-7.025686651468277E-002;-5.341217853128910E-003;-9.664454846642911E-004;
2.422666666666667E+009;1.648694872856140E-001;-7.229345291852951E-002;-5.491788499057293E-003;-5.781219224445522E-004;
2.422833333333334E+009;1.641884595155716E-001;-7.436139881610870E-002;-5.563315004110336E-003;-3.818775294348598E-004;
2.423000000000000E+009;1.637008935213089E-001;-7.636178284883499E-002;-5.735318176448345E-003;-1.186248482554220E-004;
2.423166666666667E+009;1.634367257356644E-001;-7.831181585788727E-002;-5.677420180290937E-003;-1.100866138585843E-004;
2.423333333333334E+009;1.632566303014755E-001;-8.024731278419495E-002;-5.715601146221161E-003;4.738689458463341E-004;
2.423500000000000E+009;1.631161272525787E-001;-8.214856684207916E-002;-5.925787147134543E-003;5.891216569580138E-004;
2.423666666666667E+009;1.630671918392181E-001;-8.412384241819382E-002;-5.838429555296898E-003;9.032791713252664E-004;
2.423833333333334E+009;1.629254072904587E-001;-8.578025549650192E-002;-5.869639106094837E-003;1.297160401009023E-003;
2.424000000000000E+009;1.631194949150085E-001;-8.749096840620041E-002;-5.821827799081802E-003;1.625444507226348E-003;
2.424166666666667E+009;1.631993204355240E-001;-8.913601934909821E-002;-6.037535611540079E-003;1.794396201148629E-003;
2.424333333333334E+009;1.633835136890411E-001;-9.056984633207321E-002;-6.037105806171894E-003;2.206005156040192E-003;
2.424500000000000E+009;1.637365221977234E-001;-9.231569617986679E-002;-5.896257236599922E-003;2.690225141122937E-003;
2.424666666666667E+009;1.639431864023209E-001;-9.366606175899506E-002;-5.720750428736210E-003;3.056541318073869E-003;
2.424833333333334E+009;1.647323071956635E-001;-9.495835751295090E-002;-5.576188676059246E-003;3.404407761991024E-003;
2.425000000000000E+009;1.648826003074646E-001;-9.600867331027985E-002;-5.260222125798464E-003;3.811632515862584E-003;
2.425166666666667E+009;1.651342660188675E-001;-9.719443321228027E-002;-5.155603867024183E-003;4.166803788393736E-003;
2.425333333333334E+009;1.655775457620621E-001;-9.807588905096054E-002;-4.834211431443691E-003;4.345553927123547E-003;
2.425500000000000E+009;1.659780293703079E-001;-9.903199970722199E-002;-4.744762554764748E-003;4.572547040879726E-003;
2.425666666666667E+009;1.663577705621719E-001;-9.966859966516495E-002;-4.308452364057303E-003;4.782317206263542E-003;
2.425833333333334E+009;1.667064279317856E-001;-1.004593521356583E-001;-4.043773282319307E-003;4.886046983301640E-003;
2.426000000000000E+009;1.671131700277329E-001;-1.009376794099808E-001;-3.539338009431958E-003;5.002189893275499E-003;
2.426166666666667E+009;1.674998849630356E-001;-1.014105752110481E-001;-3.420194378122687E-003;5.200937390327454E-003;
2.426333333333334E+009;1.675818860530853E-001;-1.019283905625343E-001;-2.957500284537673E-003;5.306304432451725E-003;
2.426500000000000E+009;1.678396165370941E-001;-1.021922603249550E-001;-2.711409470066428E-003;5.262227263301611E-003;
2.426666666666667E+009;1.681706160306931E-001;-1.025432348251343E-001;-2.357643563300371E-003;5.377037916332483E-003;
2.426833333333334E+009;1.684171706438065E-001;-1.027624309062958E-001;-2.168787876144052E-003;5.299043375998735E-003;
2.427000000000000E+009;1.683919280767441E-001;-1.028879806399345E-001;-1.930264872498810E-003;5.274368915706873E-003;
2.427166666666667E+009;1.684396713972092E-001;-1.030605509877205E-001;-1.836589421145618E-003;5.311069544404745E-003;
2.427333333333334E+009;1.682824790477753E-001;-1.033402159810066E-001;-1.530016656033695E-003;5.305943544954062E-003;
2.427500000000000E+009;1.679484844207764E-001;-1.035262122750282E-001;-1.255833078175783E-003;5.142672918736935E-003;
2.427666666666667E+009;1.676451563835144E-001;-1.033612266182900E-001;-1.103171147406101E-003;5.381697323173285E-003;
