# Version 1.00
#
freq[Hz];re:Trc1_S11;im:Trc1_S11;re:Trc2_S21;im:Trc2_S21;
2.400000000000000E+009;1.553992182016373E-001;1.069227978587151E-001;-5.038811941631138E-004;5.139187444001436E-003;
2.400166666666667E+009;1.551391631364822E-001;1.044925972819328E-001;-5.290981498546898E-004;4.886327777057886E-003;
2.400333333333334E+009;1.551515907049179E-001;1.020789593458176E-001;-4.675355157814920E-004;4.842096008360386E-003;
2.400500000000000E+009;1.551296561956406E-001;9.945398569107056E-002;-3.395818057470024E-004;4.899247549474239E-003;
2.400666666666667E+009;1.550955325365067E-001;9.694053232669830E-002;-3.105213982053101E-004;4.967658780515194E-003;
2.400833333333334E+009;1.550992131233215E-001;9.390617907047272E-002;-2.198967995354906E-004;4.982362966984510E-003;
2.401000000000000E+009;1.552364975214005E-001;9.102244675159454E-002;-2.020138927036896E-004;4.961052443832159E-003;
2.401166666666667E+009;1.554060578346252E-001;8.829187601804733E-002;7.079649367369711E-005;4.940613638609648E-003;
2.401333333333334E+009;1.556149721145630E-001;8.538773655891419E-002;2.006537106353790E-004;5.097817629575729E-003;
2.401500000000000E+009;1.560280472040176E-001;8.243355154991150E-002;4.014216829091311E-004;5.085053388029337E-003;
2.401666666666667E+009;1.562276929616928E-001;7.973442226648331E-002;4.416091833263636E-004;5.160688422620297E-003;
2.401833333333334E+009;1.569126248359680E-001;7.680919021368027E-002;7.180416141636670E-004;5.138962529599667E-003;
2.402000000000000E+009;1.578170657157898E-001;7.415281236171722E-002;8.142944425344467E-004;5.161143373697996E-003;
2.402166666666667E+009;1.583474129438400E-001;7.149673998355866E-002;1.033858279697597E-003;5.081387236714363E-003;
2.402333333333334E+009;1.592301577329636E-001;6.887166202068329E-002;1.292027533054352E-003;5.125829484313726E-003;
2.402500000000000E+009;1.604000777006149E-001;6.624766439199448E-002;1.511204522103071E-003;4.931561648845673E-003;
2.402666666666667E+009;1.614799201488495E-001;6.407249718904495E-002;1.507892739027739E-003;4.859317094087601E-003;
2.402833333333334E+009;1.628437787294388E-001;6.162176281213760E-002;1.908950973302126E-003;4.701075609773397E-003;
2.403000000000000E+009;1.642584055662155E-001;5.922124907374382E-002;1.881964853964746E-003;4.620621912181377E-003;
2.403166666666667E+009;1.658748984336853E-001;5.711746588349342E-002;1.911807921715081E-003;4.461840260773897E-003;
2.403333333333334E+009;1.674320548772812E-001;5.487758293747902E-002;2.089773071929812E-003;4.317387472838163E-003;
2.403500000000000E+009;1.692087948322296E-001;5.271911993622780E-002;2.094984753057361E-003;4.154233727604151E-003;
2.403666666666667E+009;1.707980632781982E-001;5.075599625706673E-002;2.335814759135246E-003;4.201825242489576E-003;
2.403833333333334E+009;1.724116206169128E-001;4.906906560063362E-002;2.318126847967506E-003;3.977591637521982E-003;
2.404000000000000E+009;1.740864068269730E-001;4.724000394344330E-002;2.388038439676166E-003;3.904764307662845E-003;
2.404166666666667E+009;1.759241223335266E-001;4.582083970308304E-002;2.458315808326006E-003;3.862305544316769E-003;
2.404333333333334E+009;1.774349063634872E-001;4.440530762076378E-002;2.491384046152234E-003;3.712011035531759E-003;
2.404500000000000E+009;1.789343655109406E-001;4.292563349008560E-002;2.591646742075682E-003;3.567902138456702E-003;
2.404666666666667E+009;1.809752583503723E-001;4.190140590071678E-002;2.607179107144475E-003;3.627842757850885E-003;
2.404833333333334E+009;1.824650168418884E-001;4.067912697792053E-002;2.729218685999513E-003;3.564286511391401E-003;
2.405000000000000E+009;1.838537752628326E-001;4.012452811002731E-002;2.819721354171634E-003;3.462238004431129E-003;
2.405166666666667E+009;1.854187548160553E-001;3.936827927827835E-002;2.912369556725025E-003;3.440856700763106E-003;
2.405333333333334E+009;1.868808567523956E-001;3.889699652791023E-002;2.974818926304579E-003;3.158083884045482E-003;
2.405500000000000E+009;1.882806420326233E-001;3.850125521421433E-002;3.128193551674485E-003;3.183551831170917E-003;
2.405666666666667E+009;1.896581798791885E-001;3.798699751496315E-002;3.119203029200435E-003;3.086746670305729E-003;
2.405833333333334E+009;1.908534467220306E-001;3.784127905964851E-002;3.193039912730455E-003;2.915206365287304E-003;
2.406000000000000E+009;1.918043792247772E-001;3.767960518598557E-002;3.283851547166705E-003;2.763279015198350E-003;
2.406166666666667E+009;1.928005218505859E-001;3.749641403555870E-002;3.373499261215329E-003;2.679810160771012E-003;
2.406333333333334E+009;1.938007771968842E-001;3.749093413352966E-002;3.263514488935471E-003;2.610699972137809E-003;
2.406500000000000E+009;1.944973319768906E-001;3.752353414893150E-002;3.404402872547507E-003;2.482625190168619E-003;
2.406666666666667E+009;1.951562166213989E-001;3.761617839336395E-002;3.300740616396070E-003;2.383509650826454E-003;
2.406833333333334E+009;1.958056986331940E-001;3.777873888611794E-002;3.412027610465884E-003;2.398672513663769E-003;
2.407000000000000E+009;1.960895210504532E-001;3.804589435458183E-002;3.363521071150899E-003;2.161825774237514E-003;
2.407166666666667E+009;1.965449154376984E-001;3.774490579962730E-002;3.579724347218871E-003;2.164984820410609E-003;
2.407333333333334E+009;1.963845640420914E-001;3.800994530320168E-002;3.378007560968399E-003;2.044678665697575E-003;
2.407500000000000E+009;1.964871585369110E-001;3.815378993749619E-002;3.514014650136232E-003;1.924813608638942E-003;
2.407666666666667E+009;1.963663548231125E-001;3.801861777901650E-002;3.519366728141904E-003;1.918021822348237E-003;
2.407833333333334E+009;1.960593611001968E-001;3.784577548503876E-002;3.553284564986825E-003;1.773295458406210E-003;
2.408000000000000E+009;1.959291845560074E-001;3.784268721938133E-002;3.517621895298362E-003;1.795856980606914E-003;
2.408166666666667E+009;1.952464282512665E-001;3.750319778919220E-002;3.491006325930357E-003;1.840733108110726E-003;
2.408333333333334E+009;1.947844177484512E-001;3.709600865840912E-002;3.559036413207650E-003;1.591487089172006E-003;
2.408500000000000E+009;1.941735148429871E-001;3.663310408592224E-002;3.576495451852679E-003;1.538288430310786E-003;
2.408666666666667E+009;1.935357302427292E-001;3.629319742321968E-002;3.441162873059511E-003;1.688140211626887E-003;
2.408833333333334E+009;1.928603947162628E-001;3.542679175734520E-002;3.522840328514576E-003;1.289486186578870E-003;
2.409000000000000E+009;1.921310275793076E-001;3.458423539996147E-002;3.571774810552597E-003;1.313085900619626E-003;
2.409166666666667E+009;1.910548061132431E-001;3.345284983515739E-002;3.567459760233760E-003;1.334153814241290E-003;
2.409333333333334E+009;1.901506632566452E-001;3.253195434808731E-002;3.457567887380719E-003;1.182908774353564E-003;
2.409500000000000E+009;1.888972520828247E-001;3.122211806476116E-002;3.538110991939902E-003;1.065801247023046E-003;
2.409666666666667E+009;1.880159229040146E-001;2.992181479930878E-002;3.630968043580651E-003;1.046994584612548E-003;
2.409833333333334E+009;1.869633942842484E-001;2.839097008109093E-002;3.347456920892000E-003;1.126115443184972E-003;
2.410000000000000E+009;1.861245632171631E-001;2.678274177014828E-002;3.445605980232358E-003;1.191594987176359E-003;
2.410166666666667E+009;1.849923729896545E-001;2.480191737413406E-002;3.415070008486509E-003;1.123239635489881E-003;
2.410333333333334E+009;1.839993596076965E-001;2.301336824893951E-002;3.421251894906163E-003;1.084069954231381E-003;
2.410500000000000E+009;1.829656362533569E-001;2.103202044963837E-002;3.313976107165217E-003;9.982079500332475E-004;
2.410666666666667E+009;1.821187436580658E-001;1.873923093080521E-002;3.394318278878927E-003;1.104536699131131E-003;
2.410833333333334E+009;1.814832389354706E-001;1.656479947268963E-002;3.486033994704485E-003;1.115251448936760E-003;
2.411000000000000E+009;1.805804669857025E-001;1.442008279263973E-002;3.510221140459180E-003;1.193789881654084E-003;
2.411166666666667E+009;1.799670159816742E-001;1.206845510751009E-002;3.530445974320173E-003;1.175327342934907E-003;
2.411333333333334E+009;1.793022900819778E-001;9.480352513492107E-003;3.632271662354469E-003;1.253303606063128E-003;
2.411500000000000E+009;1.789395213127136E-001;7.278784643858671E-003;3.797125769779086E-003;1.048402627930045E-003;
2.411666666666667E+009;1.785839498043060E-001;4.885438829660416E-003;4.016789607703686E-003;1.118939835578203E-003;
2.411833333333334E+009;1.783963292837143E-001;2.382509643211961E-003;4.082699306309223E-003;1.019272487610579E-003;
2.412000000000000E+009;1.784941405057907E-001;-2.631173701956868E-004;4.302530083805323E-003;1.075795618817210E-003;
2.412166666666667E+009;1.785022765398026E-001;-2.584861591458321E-003;4.435661714524031E-003;9.127893717959523E-004;
2.412333333333334E+009;1.788674294948578E-001;-5.040857475250959E-003;4.671398084610701E-003;8.180683944374323E-004;
2.412500000000000E+009;1.792667657136917E-001;-7.587363477796316E-003;4.693059250712395E-003;6.481073214672506E-004;
2.412666666666667E+009;1.798075884580612E-001;-1.008481532335281E-002;4.936288110911846E-003;3.043315955437720E-004;
2.412833333333334E+009;1.804721355438232E-001;-1.262765750288963E-002;4.931431729346514E-003;1.460141793359071E-004;
2.413000000000000E+009;1.811132133007050E-001;-1.475067436695099E-002;5.093759857118130E-003;-2.371371665503830E-004;
2.413166666666667E+009;1.818676590919495E-001;-1.708047278225422E-002;4.943978972733021E-003;-2.891065378207713E-004;
2.413333333333334E+009;1.830086857080460E-001;-1.946575008332729E-002;5.038940347731113E-003;-5.748937837779522E-004;
2.413500000000000E+009;1.839518696069717E-001;-2.193232998251915E-002;5.178793799132109E-003;-8.651160169392824E-004;
2.413666666666667E+009;1.851872503757477E-001;-2.403678745031357E-002;5.028975196182728E-003;-1.122745568864048E-003;
2.413833333333334E+009;1.861372590065002E-001;-2.605077810585499E-002;4.912083037197590E-003;-1.437735627405345E-003;
2.414000000000000E+009;1.872494071722031E-001;-2.799448743462563E-002;4.712095484137535E-003;-1.531090587377548E-003;
2.414166666666667E+009;1.885744631290436E-001;-2.977333962917328E-002;4.686602391302586E-003;-1.870690844953060E-003;
2.414333333333334E+009;1.894821971654892E-001;-3.186256065964699E-002;4.463200457394123E-003;-2.047023503109813E-003;
2.414500000000000E+009;1.909216195344925E-001;-3.319798037409782E-002;4.427840933203697E-003;-2.229425590485334E-003;
2.414666666666667E+009;1.920614391565323E-001;-3.482976183295250E-002;4.276092629879713E-003;-2.307662740349770E-003;
2.414833333333334E+009;1.931066513061523E-001;-3.624845296144486E-002;4.263442941009998E-003;-2.478544833138585E-003;
2.415000000000000E+009;1.942360401153565E-001;-3.745750337839127E-002;3.944348078221083E-003;-2.462490694597364E-003;
2.415166666666667E+009;1.956133693456650E-001;-3.862925246357918E-002;4.016139544546604E-003;-2.834760118275881E-003;
2.415333333333334E+009;1.967139840126038E-001;-3.944440558552742E-002;3.757390193641186E-003;-2.813223982229829E-003;
2.415500000000000E+009;1.978233903646469E-001;-4.037095233798027E-002;3.751387121155858E-003;-2.922527957707644E-003;
2.415666666666667E+009;1.987687498331070E-001;-4.116245731711388E-002;3.458257997408509E-003;-2.941314363852143E-003;
2.415833333333334E+009;1.995781809091568E-001;-4.164914041757584E-002;3.320385236293078E-003;-2.995438175275922E-003;
2.416000000000000E+009;2.003839313983917E-001;-4.227177798748016E-002;3.221849678084254E-003;-3.270994406193495E-003;
2.416166666666667E+009;2.010448724031448E-001;-4.282019287347794E-002;2.997102448716760E-003;-3.262484678998590E-003;
2.416333333333334E+009;2.017128020524979E-001;-4.309472069144249E-002;2.895081648603082E-003;-3.211913630366325E-003;
2.416500000000000E+009;2.021336555480957E-001;-4.333620890974999E-002;2.769541461020708E-003;-3.324970137327910E-003;
2.416666666666667E+009;2.023942917585373E-001;-4.378191009163857E-002;2.672556322067976E-003;-3.347906516864896E-003;
2.416833333333334E+009;2.024718075990677E-001;-4.354509711265564E-002;2.390286885201931E-003;-3.312115557491779E-003;
2.417000000000000E+009;2.026871144771576E-001;-4.364956170320511E-002;2.355406759306788E-003;-3.364169504493475E-003;
2.417166666666667E+009;2.023128271102905E-001;-4.357202723622322E-002;2.269791206344962E-003;-3.347650403156877E-003;
2.417333333333334E+009;2.021293640136719E-001;-4.342057183384895E-002;1.979434164240956E-003;-3.302636090666056E-003;
2.417500000000000E+009;2.017838507890701E-001;-4.342589899897575E-002;2.065643202513456E-003;-3.405702766031027E-003;
2.417666666666667E+009;2.011747658252716E-001;-4.309398680925369E-002;1.715466030873358E-003;-3.344273427501321E-003;
2.417833333333334E+009;2.008200585842133E-001;-4.290914908051491E-002;1.751959440298379E-003;-3.325182013213635E-003;
2.418000000000000E+009;2.000904977321625E-001;-4.261108487844467E-002;1.749042188748717E-003;-3.407766576856375E-003;
2.418166666666667E+009;1.992188394069672E-001;-4.263139516115189E-002;1.587524428032339E-003;-3.309740917757154E-003;
2.418333333333334E+009;1.983359456062317E-001;-4.226296767592430E-002;1.416236744262278E-003;-3.199884667992592E-003;
2.418500000000000E+009;1.972860097885132E-001;-4.244309291243553E-002;1.477322657592595E-003;-3.214269643649459E-003;
2.418666666666667E+009;1.963512152433395E-001;-4.219115898013115E-002;1.357367611490190E-003;-3.174250246956945E-003;
2.418833333333334E+009;1.950910687446594E-001;-4.237090423703194E-002;1.330185099504888E-003;-3.182688960805535E-003;
2.419000000000000E+009;1.935765743255615E-001;-4.246161878108978E-002;1.253191730938852E-003;-3.208803478628397E-003;
2.419166666666667E+009;1.923189759254456E-001;-4.285541921854019E-002;1.202760729938746E-003;-3.209126647561789E-003;
2.419333333333334E+009;1.909664720296860E-001;-4.319361969828606E-002;9.091480169445276E-004;-3.180272411555052E-003;
2.419500000000000E+009;1.894116848707199E-001;-4.369735345244408E-002;1.094873412512243E-003;-3.032582346349955E-003;
2.419666666666667E+009;1.878305673599243E-001;-4.450162127614021E-002;1.071763108484447E-003;-3.042310941964388E-003;
2.419833333333334E+009;1.863249689340591E-001;-4.502613842487335E-002;9.036291157826781E-004;-2.869887044653297E-003;
2.420000000000000E+009;1.846192777156830E-001;-4.587951302528381E-002;8.782008080743253E-004;-2.893579890951514E-003;
2.420166666666667E+009;1.831556409597397E-001;-4.690230637788773E-002;9.196790051646531E-004;-2.788485959172249E-003;
2.420333333333334E+009;1.814150065183640E-001;-4.796660318970680E-002;9.206171962432563E-004;-2.682744292542338E-003;
2.420500000000000E+009;1.796046644449234E-001;-4.931005463004112E-002;8.825155091471970E-004;-2.689796034246683E-003;
2.420666666666667E+009;1.780708283185959E-001;-5.029450729489327E-002;9.890742367133498E-004;-2.757429843768477E-003;
2.420833333333334E+009;1.764117330312729E-001;-5.197018012404442E-002;9.906007908284664E-004;-2.744587836787105E-003;
2.421000000000000E+009;1.749892532825470E-001;-5.356482043862343E-002;1.007127691991627E-003;-2.694949740543962E-003;
2.421166666666667E+009;1.736753433942795E-001;-5.529811233282089E-002;1.084328046999872E-003;-2.620728220790625E-003;
2.421333333333334E+009;1.718309521675110E-001;-5.670245364308357E-002;1.040684757754207E-003;-2.821787726134062E-003;
2.421500000000000E+009;1.706103384494782E-001;-5.858401954174042E-002;1.186745008453727E-003;-2.896988065913320E-003;
2.421666666666667E+009;1.694284230470657E-001;-6.045197322964668E-002;1.145659829489887E-003;-2.715693553909659E-003;
2.421833333333334E+009;1.681716591119766E-001;-6.234131008386612E-002;1.049847691319883E-003;-2.887182170525193E-003;
2.422000000000000E+009;1.670759469270706E-001;-6.420027464628220E-002;1.030149287544191E-003;-2.829560777172446E-003;
2.422166666666667E+009;1.663352698087692E-001;-6.629892438650131E-002;1.068227342329919E-003;-2.933727111667395E-003;
2.422333333333334E+009;1.652388572692871E-001;-6.837692856788635E-002;1.052389154210687E-003;-2.938849618658423E-003;
2.422500000000000E+009;1.645477265119553E-001;-7.025932520627976E-002;9.411033242940903E-004;-3.134033177047968E-003;
2.422666666666667E+009;1.638996452093124E-001;-7.225075364112854E-002;9.658075869083405E-004;-3.029999556019902E-003;
2.422833333333334E+009;1.634157001972199E-001;-7.435856014490128E-002;9.715495980344713E-004;-3.203895874321461E-003;
2.423000000000000E+009;1.628876626491547E-001;-7.621147483587265E-002;9.903969475999475E-004;-3.347373334690929E-003;
2.423166666666667E+009;1.624877303838730E-001;-7.837945967912674E-002;8.292882703244686E-004;-3.411334007978439E-003;
2.423333333333334E+009;1.624263375997543E-001;-8.037581294775009E-002;9.393924847245216E-004;-3.430682467296720E-003;
2.423500000000000E+009;1.622965782880783E-001;-8.211505413055420E-002;8.562090224586427E-004;-3.608330618590117E-003;
2.423666666666667E+009;1.622356474399567E-001;-8.401913195848465E-002;6.945566856302321E-004;-3.687134478241205E-003;
2.423833333333334E+009;1.622943282127380E-001;-8.585254102945328E-002;7.528090500272811E-004;-3.928144928067923E-003;
2.424000000000000E+009;1.625624895095825E-001;-8.769501000642777E-002;4.864309739787132E-004;-4.023663699626923E-003;
2.424166666666667E+009;1.626376807689667E-001;-8.918750286102295E-002;2.689964603632689E-004;-4.001433495432138E-003;
2.424333333333334E+009;1.627749651670456E-001;-9.075025469064713E-002;2.589577343314886E-004;-4.089545458555222E-003;
2.424500000000000E+009;1.633262783288956E-001;-9.255050867795944E-002;9.836631215875968E-005;-4.361995495855808E-003;
2.424666666666667E+009;1.635942757129669E-001;-9.386808425188065E-002;5.250194590189494E-005;-4.164547193795443E-003;
2.424833333333334E+009;1.642954349517822E-001;-9.521698206663132E-002;-1.745442277751863E-004;-4.229186102747917E-003;
2.425000000000000E+009;1.644826233386993E-001;-9.645362943410873E-002;-2.978588745463640E-004;-4.315984435379505E-003;
2.425166666666667E+009;1.649055480957031E-001;-9.738673269748688E-002;-4.040719068143517E-004;-4.228354431688786E-003;
2.425333333333334E+009;1.652821004390717E-001;-9.840506315231323E-002;-6.170872948132455E-004;-4.352771677076817E-003;
2.425500000000000E+009;1.657524555921555E-001;-9.941355884075165E-002;-6.699009099975228E-004;-4.220087546855211E-003;
2.425666666666667E+009;1.662593334913254E-001;-1.000750288367271E-001;-8.318723412230611E-004;-4.265156574547291E-003;
2.425833333333334E+009;1.665301322937012E-001;-1.008700430393219E-001;-9.812826756387949E-004;-4.461973439902067E-003;
2.426000000000000E+009;1.670032292604446E-001;-1.012849062681198E-001;-1.030306215398014E-003;-4.572819452732801E-003;
2.426166666666667E+009;1.674112975597382E-001;-1.017193123698235E-001;-1.255018520168960E-003;-4.221360199153423E-003;
2.426333333333334E+009;1.674557775259018E-001;-1.022955477237701E-001;-1.494157477281988E-003;-4.282813053578138E-003;
2.426500000000000E+009;1.680142283439636E-001;-1.025901958346367E-001;-1.662908820435405E-003;-4.134302958846092E-003;
2.426666666666667E+009;1.681959182024002E-001;-1.029486134648323E-001;-1.723407534882426E-003;-4.249220248311758E-003;
2.426833333333334E+009;1.685052812099457E-001;-1.032404750585556E-001;-1.741379150189459E-003;-4.037212114781141E-003;
2.427000000000000E+009;1.684290170669556E-001;-1.033822372555733E-001;-1.923284493386746E-003;-4.071908537298441E-003;
2.427166666666667E+009;1.684661507606506E-001;-1.035125702619553E-001;-2.260899171233177E-003;-4.046859219670296E-003;
2.427333333333334E+009;1.683980077505112E-001;-1.038114428520203E-001;-2.296692226082087E-003;-3.901709802448750E-003;
2.427500000000000E+009;1.681013852357864E-001;-1.038287281990051E-001;-2.446094760671258E-003;-3.752511925995350E-003;
2.427666666666667E+009;1.678688377141953E-001;-1.039582937955856E-001;-2.385842148214579E-003;-3.764916444197297E-003;
2.427833333333334E+009;1.673763692378998E-001;-1.040414944291115E-001;-2.597830956801772E-003;-3.556374460458756E-003;
