# Version 1.00
#
freq[Hz];re:Trc1_S11;im:Trc1_S11;re:Trc2_S21;im:Trc2_S21;
2.400000000000000E+009;1.554331034421921E-001;1.068311855196953E-001;-7.280916906893253E-004;4.826278425753117E-003;
2.400166666666667E+009;1.552004218101502E-001;1.045300886034966E-001;-5.450633470900357E-004;4.723466001451016E-003;
2.400333333333334E+009;1.553125381469727E-001;1.020776629447937E-001;-4.946867702528834E-004;4.773185122758150E-003;
2.400500000000000E+009;1.554162800312042E-001;9.931804984807968E-002;-3.200284554623067E-004;4.833095241338015E-003;
2.400666666666667E+009;1.552564203739166E-001;9.684684872627258E-002;-2.559417625889182E-004;4.785500466823578E-003;
2.400833333333334E+009;1.554614901542664E-001;9.382141381502152E-002;-1.904985256260261E-004;4.890382755547762E-003;
2.401000000000000E+009;1.555485874414444E-001;9.114980697631836E-002;-1.465056557208300E-004;4.980253521353006E-003;
2.401166666666667E+009;1.554094403982163E-001;8.825057744979858E-002;7.842803825042211E-006;4.996171221137047E-003;
2.401333333333334E+009;1.558539718389511E-001;8.545332401990891E-002;8.459737000521272E-005;5.071535706520081E-003;
2.401500000000000E+009;1.562695652246475E-001;8.251608163118362E-002;3.460487350821495E-004;5.012738518416882E-003;
2.401666666666667E+009;1.564882695674896E-001;7.965929806232452E-002;3.725211427081376E-004;4.945057444274426E-003;
2.401833333333334E+009;1.569525450468063E-001;7.696538418531418E-002;7.107831188477576E-004;4.952974151819944E-003;
2.402000000000000E+009;1.576385945081711E-001;7.392849773168564E-002;9.783999994397163E-004;5.015569273382425E-003;
2.402166666666667E+009;1.584884524345398E-001;7.159928977489471E-002;1.021274365484715E-003;4.899285733699799E-003;
2.402333333333334E+009;1.594626456499100E-001;6.882698088884354E-002;1.227493747137487E-003;4.818961024284363E-003;
2.402500000000000E+009;1.605591326951981E-001;6.622938066720963E-002;1.499093603342772E-003;4.815867170691490E-003;
2.402666666666667E+009;1.617243736982346E-001;6.405241787433624E-002;1.668451935984194E-003;4.676198121160269E-003;
2.402833333333334E+009;1.630108803510666E-001;6.155025213956833E-002;1.664203940890729E-003;4.687737207859755E-003;
2.403000000000000E+009;1.646115928888321E-001;5.900915712118149E-002;1.953893341124058E-003;4.377979319542646E-003;
2.403166666666667E+009;1.661357879638672E-001;5.716824531555176E-002;1.861943863332272E-003;4.298677667975426E-003;
2.403333333333334E+009;1.676520556211472E-001;5.487655475735664E-002;2.106148051097989E-003;4.211004823446274E-003;
2.403500000000000E+009;1.692572981119156E-001;5.265225470066071E-002;2.022711327299476E-003;3.988442476838827E-003;
2.403666666666667E+009;1.710320562124252E-001;5.078706517815590E-002;2.163320779800415E-003;4.043249879032373E-003;
2.403833333333334E+009;1.726477444171906E-001;4.901105165481567E-002;2.185249002650380E-003;4.041433334350586E-003;
2.404000000000000E+009;1.741098612546921E-001;4.720719903707504E-002;2.274060854688287E-003;3.943065181374550E-003;
2.404166666666667E+009;1.758982688188553E-001;4.573228955268860E-002;2.380321035161614E-003;3.654210828244686E-003;
2.404333333333334E+009;1.775597631931305E-001;4.414645209908485E-002;2.383649116382003E-003;3.665197174996138E-003;
2.404500000000000E+009;1.791451126337051E-001;4.294611513614655E-002;2.357186982408166E-003;3.506784792989492E-003;
2.404666666666667E+009;1.808446347713471E-001;4.182269424200058E-002;2.539487788453698E-003;3.479699138551951E-003;
2.404833333333334E+009;1.824928671121597E-001;4.063500836491585E-002;2.717282390221953E-003;3.338339505717158E-003;
2.405000000000000E+009;1.840193122625351E-001;4.013746604323387E-002;2.742677694186568E-003;3.326627193018794E-003;
2.405166666666667E+009;1.854078918695450E-001;3.931225463747978E-002;2.764423144981265E-003;3.263187361881137E-003;
2.405333333333334E+009;1.868014484643936E-001;3.891073539853096E-002;3.048897953704000E-003;3.058445639908314E-003;
2.405500000000000E+009;1.881864070892334E-001;3.844473883509636E-002;2.975007984787226E-003;3.196216886863112E-003;
2.405666666666667E+009;1.895238757133484E-001;3.809705749154091E-002;3.005089005455375E-003;2.900007180869579E-003;
2.405833333333334E+009;1.908147633075714E-001;3.792816400527954E-002;3.031677100807428E-003;2.928907284513116E-003;
2.406000000000000E+009;1.917116940021515E-001;3.773535043001175E-002;2.962548518553376E-003;2.655586926266551E-003;
2.406166666666667E+009;1.927119046449661E-001;3.761591389775276E-002;3.101668320596218E-003;2.526025054976344E-003;
2.406333333333334E+009;1.938247978687286E-001;3.750438243150711E-002;3.152106888592243E-003;2.629391616210342E-003;
2.406500000000000E+009;1.943933665752411E-001;3.768800944089890E-002;3.128648502752185E-003;2.542636357247829E-003;
2.406666666666667E+009;1.951868981122971E-001;3.771097213029862E-002;3.182568587362766E-003;2.415053080767393E-003;
2.406833333333334E+009;1.956395655870438E-001;3.778072074055672E-002;3.250120906159282E-003;2.334051998332143E-003;
2.407000000000000E+009;1.959584951400757E-001;3.789075464010239E-002;3.206563182175160E-003;2.194379922002554E-003;
2.407166666666667E+009;1.964516788721085E-001;3.785917535424233E-002;3.446662332862616E-003;2.081054495647550E-003;
2.407333333333334E+009;1.964444369077683E-001;3.802087903022766E-002;3.236616728827357E-003;1.910179504193366E-003;
2.407500000000000E+009;1.964185237884522E-001;3.811799734830856E-002;3.299436997622252E-003;2.067775931209326E-003;
2.407666666666667E+009;1.963530480861664E-001;3.798734396696091E-002;3.313263179734349E-003;1.929062069393694E-003;
2.407833333333334E+009;1.959803551435471E-001;3.804470226168633E-002;3.271214198321104E-003;1.907588914036751E-003;
2.408000000000000E+009;1.959260255098343E-001;3.778775036334992E-002;3.326998557895422E-003;1.846391009166837E-003;
2.408166666666667E+009;1.953029781579971E-001;3.753503039479256E-002;3.354180138558149E-003;1.758669619448483E-003;
2.408333333333334E+009;1.950346976518631E-001;3.689171001315117E-002;3.301647258922458E-003;1.573145389556885E-003;
2.408500000000000E+009;1.942299455404282E-001;3.670059889554977E-002;3.380635986104608E-003;1.701315399259329E-003;
2.408666666666667E+009;1.937110573053360E-001;3.605297207832336E-002;3.341078991070390E-003;1.565678743645549E-003;
2.408833333333334E+009;1.929404288530350E-001;3.540848940610886E-002;3.191542113199830E-003;1.408164622262120E-003;
2.409000000000000E+009;1.919958591461182E-001;3.441177308559418E-002;3.282447811216116E-003;1.382528804242611E-003;
2.409166666666667E+009;1.911957859992981E-001;3.343281149864197E-002;3.376767504960299E-003;1.353325904347003E-003;
2.409333333333334E+009;1.902754455804825E-001;3.243890404701233E-002;3.322148229926825E-003;1.179697341285646E-003;
2.409500000000000E+009;1.890205442905426E-001;3.108764998614788E-002;3.310938831418753E-003;1.200142316520214E-003;
2.409666666666667E+009;1.880609393119812E-001;2.959134802222252E-002;3.286951221525669E-003;1.100622350350022E-003;
2.409833333333334E+009;1.870180517435074E-001;2.817525714635849E-002;3.176889847964048E-003;1.148342853412032E-003;
2.410000000000000E+009;1.860978454351425E-001;2.649733051657677E-002;3.258956363424659E-003;1.003548037260771E-003;
2.410166666666667E+009;1.849807202816010E-001;2.465501055121422E-002;3.170237876474857E-003;1.073576160706580E-003;
2.410333333333334E+009;1.841061413288117E-001;2.282229997217655E-002;3.270515240728855E-003;1.123385038226843E-003;
2.410500000000000E+009;1.830279529094696E-001;2.083229646086693E-002;3.255713963881135E-003;1.150009455159307E-003;
2.410666666666667E+009;1.821276992559433E-001;1.862522959709168E-002;3.221488324925304E-003;1.209666370414197E-003;
2.410833333333334E+009;1.813784390687943E-001;1.635833457112312E-002;3.281735116615892E-003;1.232373295351863E-003;
2.411000000000000E+009;1.806584596633911E-001;1.396403275430203E-002;3.365189535543323E-003;1.308881444856525E-003;
2.411166666666667E+009;1.799051761627197E-001;1.197474170476198E-002;3.577730618417263E-003;1.340562012046576E-003;
2.411333333333334E+009;1.794107854366303E-001;9.245553053915501E-003;3.560584271326661E-003;1.327498699538410E-003;
2.411500000000000E+009;1.790126860141754E-001;6.931581534445286E-003;3.579902462661266E-003;1.269728294573724E-003;
2.411666666666667E+009;1.787583529949188E-001;4.542253911495209E-003;3.798563266173005E-003;1.255651237443090E-003;
2.411833333333334E+009;1.784865558147430E-001;2.258927561342716E-003;3.953620791435242E-003;1.208908041007817E-003;
2.412000000000000E+009;1.785023510456085E-001;-5.552110378630459E-004;4.098826088011265E-003;1.112330355681479E-003;
2.412166666666667E+009;1.785154193639755E-001;-2.820451511070132E-003;4.272339399904013E-003;9.423286537639797E-004;
2.412333333333334E+009;1.786473095417023E-001;-5.293724592775106E-003;4.457503557205200E-003;9.399816626682878E-004;
2.412500000000000E+009;1.792962849140167E-001;-7.769240532070398E-003;4.708331078290939E-003;7.417924352921546E-004;
2.412666666666667E+009;1.797646284103394E-001;-1.022860687226057E-002;4.791387822479010E-003;5.419528461061418E-004;
2.412833333333334E+009;1.804664731025696E-001;-1.279536355286837E-002;4.849310033023357E-003;3.466841881163418E-004;
2.413000000000000E+009;1.812092363834381E-001;-1.502214185893536E-002;4.777237307280302E-003;-8.901277760742232E-005;
2.413166666666667E+009;1.818785220384598E-001;-1.732390373945236E-002;5.022918805480003E-003;-1.165536596090533E-004;
2.413333333333334E+009;1.828742474317551E-001;-1.966064982116222E-002;4.968350753188133E-003;-4.252167709637433E-004;
2.413500000000000E+009;1.838122755289078E-001;-2.189873531460762E-002;4.909921437501907E-003;-6.927243666723371E-004;
2.413666666666667E+009;1.849596798419952E-001;-2.420188114047051E-002;5.070404615253210E-003;-8.651039097458124E-004;
2.413833333333334E+009;1.861877888441086E-001;-2.617640979588032E-002;4.905400797724724E-003;-1.164163695648313E-003;
2.414000000000000E+009;1.872545927762985E-001;-2.801102213561535E-002;4.789900034666061E-003;-1.376947388052940E-003;
2.414166666666667E+009;1.885649859905243E-001;-2.995339594781399E-002;4.691926296800375E-003;-1.629671663977206E-003;
2.414333333333334E+009;1.895731538534164E-001;-3.189602866768837E-002;4.535498563200235E-003;-1.794304349459708E-003;
2.414500000000000E+009;1.906611770391464E-001;-3.339044749736786E-002;4.323325585573912E-003;-1.920754672028124E-003;
2.414666666666667E+009;1.920513063669205E-001;-3.500794619321823E-002;4.303890280425549E-003;-2.058217767626047E-003;
2.414833333333334E+009;1.931171864271164E-001;-3.625042736530304E-002;4.221757873892784E-003;-2.252849517390132E-003;
2.415000000000000E+009;1.942192018032074E-001;-3.766485676169395E-002;4.057895857840776E-003;-2.303404035046697E-003;
2.415166666666667E+009;1.954213678836823E-001;-3.872806578874588E-002;4.012431018054485E-003;-2.558666048571467E-003;
2.415333333333334E+009;1.964788585901260E-001;-3.981875628232956E-002;3.802492283284664E-003;-2.541878027841449E-003;
2.415500000000000E+009;1.975639015436173E-001;-4.039432108402252E-002;3.688973607495427E-003;-2.733654342591763E-003;
2.415666666666667E+009;1.985784322023392E-001;-4.128186404705048E-002;3.578582080081105E-003;-2.879956271499395E-003;
2.415833333333334E+009;1.994037479162216E-001;-4.168860986828804E-002;3.325100988149643E-003;-2.925816923379898E-003;
2.416000000000000E+009;2.002106904983521E-001;-4.237999394536018E-002;3.206188324838877E-003;-2.933154813945293E-003;
2.416166666666667E+009;2.009496390819550E-001;-4.288381710648537E-002;3.144458634778857E-003;-2.952806418761611E-003;
2.416333333333334E+009;2.014448195695877E-001;-4.314917325973511E-002;2.855446888133884E-003;-3.200652077794075E-003;
2.416500000000000E+009;2.019790112972260E-001;-4.332591593265533E-002;2.690370427444577E-003;-3.283001715317369E-003;
2.416666666666667E+009;2.021739333868027E-001;-4.374541342258453E-002;2.611542586237192E-003;-3.164747729897499E-003;
2.416833333333334E+009;2.023579180240631E-001;-4.372204095125198E-002;2.429002663120627E-003;-3.233639290556312E-003;
2.417000000000000E+009;2.025022357702255E-001;-4.372137784957886E-002;2.324465196579695E-003;-3.202974097803235E-003;
2.417166666666667E+009;2.021138370037079E-001;-4.368343576788902E-002;2.219287911430001E-003;-3.231673967093229E-003;
2.417333333333334E+009;2.019419521093369E-001;-4.349433258175850E-002;1.984302187338471E-003;-3.210266819223762E-003;
2.417500000000000E+009;2.017371654510498E-001;-4.344054684042931E-002;2.062547253444791E-003;-3.078453242778778E-003;
2.417666666666667E+009;2.010715901851654E-001;-4.320624843239784E-002;1.980194356292486E-003;-3.122213063761592E-003;
2.417833333333334E+009;2.006011158227921E-001;-4.302297532558441E-002;1.746322610415518E-003;-3.059482434764504E-003;
2.418000000000000E+009;1.999221146106720E-001;-4.264259710907936E-002;1.791105140000582E-003;-3.295226953923702E-003;
2.418166666666667E+009;1.990824043750763E-001;-4.259913414716721E-002;1.582673285156488E-003;-3.259195014834404E-003;
2.418333333333334E+009;1.980690211057663E-001;-4.229918122291565E-002;1.572057604789734E-003;-3.156060352921486E-003;
2.418500000000000E+009;1.971808671951294E-001;-4.239093512296677E-002;1.380587229505181E-003;-3.168770810589194E-003;
2.418666666666667E+009;1.961483955383301E-001;-4.231678694486618E-002;1.569120679050684E-003;-2.986110048368573E-003;
2.418833333333334E+009;1.948309242725372E-001;-4.254529997706413E-002;1.367480377666652E-003;-3.069908358156681E-003;
2.419000000000000E+009;1.936052143573761E-001;-4.242392256855965E-002;1.265015453100205E-003;-3.098450368270278E-003;
2.419166666666667E+009;1.922514438629150E-001;-4.277842864394188E-002;1.229286426678300E-003;-3.034866414964199E-003;
2.419333333333334E+009;1.907842755317688E-001;-4.334395751357079E-002;1.099517103284597E-003;-3.044018289074302E-003;
2.419500000000000E+009;1.893855929374695E-001;-4.371799528598785E-002;1.058778027072549E-003;-2.886837581172586E-003;
2.419666666666667E+009;1.875696331262589E-001;-4.450369253754616E-002;1.056465902365744E-003;-2.892266493290663E-003;
2.419833333333334E+009;1.860733926296234E-001;-4.517504200339317E-002;9.990275138989091E-004;-2.675183117389679E-003;
2.420000000000000E+009;1.845417618751526E-001;-4.606983810663223E-002;9.878975106403232E-004;-2.682710764929652E-003;
2.420166666666667E+009;1.828511059284210E-001;-4.688859358429909E-002;1.085406052879989E-003;-2.602663822472096E-003;
2.420333333333334E+009;1.811688840389252E-001;-4.804592207074165E-002;1.080245361663401E-003;-2.668731147423387E-003;
2.420500000000000E+009;1.796889454126358E-001;-4.943273961544037E-002;9.880082216113806E-004;-2.594050252810121E-003;
2.420666666666667E+009;1.779437214136124E-001;-5.047453939914703E-002;1.200032769702375E-003;-2.585359616205096E-003;
2.420833333333334E+009;1.761758178472519E-001;-5.197668075561523E-002;1.062698545865715E-003;-2.596011618152261E-003;
2.421000000000000E+009;1.747899800539017E-001;-5.346205085515976E-002;1.228828914463520E-003;-2.618715632706881E-003;
2.421166666666667E+009;1.733953654766083E-001;-5.517656356096268E-002;1.123682479374111E-003;-2.616794779896736E-003;
2.421333333333334E+009;1.717113703489304E-001;-5.673186108469963E-002;1.205066684633493E-003;-2.516539767384529E-003;
2.421500000000000E+009;1.704213023185730E-001;-5.858642235398293E-002;1.243432285264134E-003;-2.642631763592362E-003;
2.421666666666667E+009;1.693148463964462E-001;-6.045636162161827E-002;1.293901703320444E-003;-2.827737480401993E-003;
2.421833333333334E+009;1.681866496801376E-001;-6.226026266813278E-002;1.330766011960805E-003;-2.689556451514363E-003;
2.422000000000000E+009;1.668504625558853E-001;-6.409756839275360E-002;1.135342055931687E-003;-2.773378742858768E-003;
2.422166666666667E+009;1.660558730363846E-001;-6.637528538703919E-002;1.190044335089624E-003;-2.971460809931159E-003;
2.422333333333334E+009;1.651027649641037E-001;-6.826041638851166E-002;1.170508912764490E-003;-2.970727160573006E-003;
2.422500000000000E+009;1.643237173557282E-001;-7.020040601491928E-002;1.294542802497745E-003;-2.897469559684396E-003;
2.422666666666667E+009;1.637128740549088E-001;-7.223087549209595E-002;1.267922110855579E-003;-3.193739568814635E-003;
2.422833333333334E+009;1.632518917322159E-001;-7.431114464998245E-002;1.245214254595339E-003;-3.225211985409260E-003;
2.423000000000000E+009;1.626944690942764E-001;-7.634836435317993E-002;1.264568651095033E-003;-3.229105845093727E-003;
2.423166666666667E+009;1.624226272106171E-001;-7.845276594161987E-002;1.189972506836057E-003;-3.416821593418717E-003;
2.423333333333334E+009;1.621791720390320E-001;-8.028393983840942E-002;1.142153516411781E-003;-3.476076526567340E-003;
2.423500000000000E+009;1.622196286916733E-001;-8.196327835321426E-002;1.114052254706621E-003;-3.569686552509666E-003;
2.423666666666667E+009;1.621817946434021E-001;-8.394797891378403E-002;9.756468352861702E-004;-3.872175002470613E-003;
2.423833333333334E+009;1.621294319629669E-001;-8.576722443103790E-002;8.574231178499758E-004;-3.952121827751398E-003;
2.424000000000000E+009;1.622587144374847E-001;-8.751956373453140E-002;6.537651643157005E-004;-3.895226633176208E-003;
2.424166666666667E+009;1.624872833490372E-001;-8.912921696901321E-002;6.846738979220390E-004;-4.069555550813675E-003;
2.424333333333334E+009;1.627889722585678E-001;-9.058517962694168E-002;4.318736318964511E-004;-4.218344110995531E-003;
2.424500000000000E+009;1.630672514438629E-001;-9.244710952043533E-002;2.918418613262475E-004;-4.065641202032566E-003;
2.424666666666667E+009;1.633592844009399E-001;-9.370685368776321E-002;7.613087655045092E-005;-4.203080199658871E-003;
2.424833333333334E+009;1.639829277992249E-001;-9.494601935148239E-002;4.858902320847847E-005;-4.195184912532568E-003;
2.425000000000000E+009;1.644197553396225E-001;-9.619075804948807E-002;-5.634150147670880E-005;-4.240823443979025E-003;
2.425166666666667E+009;1.646893322467804E-001;-9.728948771953583E-002;-1.914702588692308E-004;-4.309197422116995E-003;
2.425333333333334E+009;1.652029454708099E-001;-9.825626015663147E-002;-3.397028776817024E-004;-4.192722961306572E-003;
2.425500000000000E+009;1.656567156314850E-001;-9.911372512578964E-002;-4.630707262549549E-004;-4.259549546986818E-003;
2.425666666666667E+009;1.661737412214279E-001;-9.991565346717835E-002;-8.335407474078238E-004;-4.372012335807085E-003;
2.425833333333334E+009;1.664306968450546E-001;-1.007582247257233E-001;-7.129347650334239E-004;-4.420513287186623E-003;
2.426000000000000E+009;1.668845266103745E-001;-1.011771634221077E-001;-1.113831414841116E-003;-4.414804745465517E-003;
2.426166666666667E+009;1.672895550727844E-001;-1.016161739826202E-001;-1.224485808052123E-003;-4.243769682943821E-003;
2.426333333333334E+009;1.674937605857849E-001;-1.022115424275398E-001;-1.289188861846924E-003;-4.224714357405901E-003;
2.426500000000000E+009;1.679385900497437E-001;-1.023646369576454E-001;-1.481286715716124E-003;-4.245182033628225E-003;
2.426666666666667E+009;1.680787801742554E-001;-1.027582809329033E-001;-1.536403899081051E-003;-4.228608217090368E-003;
2.426833333333334E+009;1.683254390954971E-001;-1.030487939715385E-001;-1.830920460633934E-003;-4.202786833047867E-003;
2.427000000000000E+009;1.684084832668304E-001;-1.032793745398521E-001;-1.829058281145990E-003;-4.052961245179176E-003;
2.427166666666667E+009;1.683637946844101E-001;-1.032575815916061E-001;-2.072865609079599E-003;-4.104105755686760E-003;
2.427333333333334E+009;1.683362424373627E-001;-1.035471335053444E-001;-2.080710837617517E-003;-3.970526158809662E-003;
2.427500000000000E+009;1.680931597948074E-001;-1.036385595798492E-001;-2.429180545732379E-003;-3.844970837235451E-003;
2.427666666666667E+009;1.678202450275421E-001;-1.037623211741447E-001;-2.425966551527381E-003;-3.697690786793828E-003;
2.427833333333334E+009;1.674203127622604E-001;-1.037746816873550E-001;-2.612912794575095E-003;-3.662273753434420E-003;
