# Version 1.00
#
freq[Hz];re:Trc1_S11;im:Trc1_S11;re:Trc2_S21;im:Trc2_S21;
2.400000000000000E+009;1.554158329963684E-001;1.069437861442566E-001;-6.987560773268342E-004;5.194200202822685E-003;
2.400166666666667E+009;1.548549830913544E-001;1.046115905046463E-001;-6.435634568333626E-004;5.056383553892374E-003;
2.400333333333334E+009;1.550465077161789E-001;1.021153330802918E-001;-4.449297266546637E-004;4.908309318125248E-003;
2.400500000000000E+009;1.550192385911942E-001;9.953336417675018E-002;-3.170991258230060E-004;5.073735956102610E-003;
2.400666666666667E+009;1.549745649099350E-001;9.694077074527741E-002;-4.939951468259096E-004;4.948501940816641E-003;
2.400833333333334E+009;1.549524366855621E-001;9.392426162958145E-002;-2.366976696066558E-004;5.041998811066151E-003;
2.401000000000000E+009;1.551516205072403E-001;9.112239629030228E-002;-2.073101495625451E-004;5.062984768301249E-003;
2.401166666666667E+009;1.551864445209503E-001;8.827480673789978E-002;-2.190256964240689E-005;5.113633815199137E-003;
2.401333333333334E+009;1.554834842681885E-001;8.555052429437637E-002;1.390846009599045E-004;5.252353847026825E-003;
2.401500000000000E+009;1.558155119419098E-001;8.265808224678040E-002;1.002198914648034E-004;5.144907161593437E-003;
2.401666666666667E+009;1.562314629554749E-001;7.970340549945831E-002;5.210477393120527E-004;5.319417919963598E-003;
2.401833333333334E+009;1.568500250577927E-001;7.687310129404068E-002;5.431502941064537E-004;5.243900232017040E-003;
2.402000000000000E+009;1.576227992773056E-001;7.405748218297958E-002;8.883912232704461E-004;5.268517881631851E-003;
2.402166666666667E+009;1.583805680274963E-001;7.160424441099167E-002;1.105269766412675E-003;5.116619635373354E-003;
2.402333333333334E+009;1.592502146959305E-001;6.879279017448425E-002;1.213024021126330E-003;5.007196683436632E-003;
2.402500000000000E+009;1.603266000747681E-001;6.647653132677078E-002;1.511528971605003E-003;5.020448472350836E-003;
2.402666666666667E+009;1.614480912685394E-001;6.395520269870758E-002;1.499130274169147E-003;4.850775934755802E-003;
2.402833333333334E+009;1.628745347261429E-001;6.153690069913864E-002;1.884597935713828E-003;4.736086819320917E-003;
2.403000000000000E+009;1.642126142978668E-001;5.926941707730293E-002;2.076038392260671E-003;4.533075261861086E-003;
2.403166666666667E+009;1.658356338739395E-001;5.694951117038727E-002;2.078850986436009E-003;4.549225792288780E-003;
2.403333333333334E+009;1.672570109367371E-001;5.484301596879959E-002;2.175685018301010E-003;4.484863020479679E-003;
2.403500000000000E+009;1.692265570163727E-001;5.271030589938164E-002;2.151979366317391E-003;4.336446989327669E-003;
2.403666666666667E+009;1.708584278821945E-001;5.092121288180351E-002;2.313757548108697E-003;4.302782006561756E-003;
2.403833333333334E+009;1.725421696901321E-001;4.899631813168526E-002;2.341687912121415E-003;4.233317915350199E-003;
2.404000000000000E+009;1.739411205053330E-001;4.716357216238976E-002;2.428373787552118E-003;3.959947265684605E-003;
2.404166666666667E+009;1.758042424917221E-001;4.575774446129799E-002;2.454118803143501E-003;4.003139212727547E-003;
2.404333333333334E+009;1.774842441082001E-001;4.424380511045456E-002;2.544079441577196E-003;3.820446785539389E-003;
2.404500000000000E+009;1.790229827165604E-001;4.289144277572632E-002;2.592037431895733E-003;3.918382339179516E-003;
2.404666666666667E+009;1.806099861860275E-001;4.189181700348854E-002;2.794443396851420E-003;3.660508897155523E-003;
2.404833333333334E+009;1.824297606945038E-001;4.075748473405838E-002;2.761168172582984E-003;3.583717858418822E-003;
2.405000000000000E+009;1.838430464267731E-001;4.021855443716049E-002;2.869425108656287E-003;3.450360149145126E-003;
2.405166666666667E+009;1.852053701877594E-001;3.940411657094955E-002;3.004289930686355E-003;3.584199817851186E-003;
2.405333333333334E+009;1.867017894983292E-001;3.897196426987648E-002;3.193720243871212E-003;3.288524923846126E-003;
2.405500000000000E+009;1.881176233291626E-001;3.847796469926834E-002;3.041395219042897E-003;3.250573296099901E-003;
2.405666666666667E+009;1.894351840019226E-001;3.818212449550629E-002;3.212729236111045E-003;3.143233712762594E-003;
2.405833333333334E+009;1.907071620225906E-001;3.801589459180832E-002;3.132294630631805E-003;2.937689423561096E-003;
2.406000000000000E+009;1.916263699531555E-001;3.776410222053528E-002;3.174699842929840E-003;2.851432655006647E-003;
2.406166666666667E+009;1.928743422031403E-001;3.759710490703583E-002;3.260737750679255E-003;2.715557580813766E-003;
2.406333333333334E+009;1.936050653457642E-001;3.766318410634995E-002;3.261918202042580E-003;2.722935052588582E-003;
2.406500000000000E+009;1.944457441568375E-001;3.766058012843132E-002;3.320958232507110E-003;2.577538834884763E-003;
2.406666666666667E+009;1.950887441635132E-001;3.775450959801674E-002;3.406278556212783E-003;2.303536050021648E-003;
2.406833333333334E+009;1.957057565450668E-001;3.774841129779816E-002;3.491999581456184E-003;2.293053548783064E-003;
2.407000000000000E+009;1.959126889705658E-001;3.813304379582405E-002;3.469848306849599E-003;2.165689598768950E-003;
2.407166666666667E+009;1.963634639978409E-001;3.799438849091530E-002;3.437686944380403E-003;2.130825072526932E-003;
2.407333333333334E+009;1.962846666574478E-001;3.817181289196014E-002;3.518051467835903E-003;2.173834014683962E-003;
2.407500000000000E+009;1.963450014591217E-001;3.831884637475014E-002;3.463847562670708E-003;2.103887964040041E-003;
2.407666666666667E+009;1.963911652565002E-001;3.819874301552773E-002;3.430581418797374E-003;1.922510215081275E-003;
2.407833333333334E+009;1.959711462259293E-001;3.814525157213211E-002;3.538209712132812E-003;1.857738476246595E-003;
2.408000000000000E+009;1.958175301551819E-001;3.804972767829895E-002;3.567407606169581E-003;1.768594724126160E-003;
2.408166666666667E+009;1.953257769346237E-001;3.779980540275574E-002;3.563998034223914E-003;1.815485418774188E-003;
2.408333333333334E+009;1.948831528425217E-001;3.720226511359215E-002;3.417521715164185E-003;1.744695706292987E-003;
2.408500000000000E+009;1.941767632961273E-001;3.698368370532990E-002;3.548113629221916E-003;1.638633664697409E-003;
2.408666666666667E+009;1.935863494873047E-001;3.650637716054916E-002;3.501172875985503E-003;1.589055988006294E-003;
2.408833333333334E+009;1.928647011518478E-001;3.574880957603455E-002;3.515565069392324E-003;1.467467634938657E-003;
2.409000000000000E+009;1.920466125011444E-001;3.477525711059570E-002;3.524737199768424E-003;1.492133247666061E-003;
2.409166666666667E+009;1.912612915039063E-001;3.378321602940559E-002;3.490732284262776E-003;1.338982838205993E-003;
2.409333333333334E+009;1.901794672012329E-001;3.270963951945305E-002;3.602067474275827E-003;1.439987914636731E-003;
2.409500000000000E+009;1.891903281211853E-001;3.147565573453903E-002;3.533611306920648E-003;1.157498336397111E-003;
2.409666666666667E+009;1.882900446653366E-001;2.994641289114952E-002;3.551311790943146E-003;1.242213300429285E-003;
2.409833333333334E+009;1.871393769979477E-001;2.844380773603916E-002;3.616067115217447E-003;1.130864140577614E-003;
2.410000000000000E+009;1.861288994550705E-001;2.699194662272930E-002;3.515381831675768E-003;1.124481321312487E-003;
2.410166666666667E+009;1.851632446050644E-001;2.479305118322372E-002;3.436619415879250E-003;1.111929072067142E-003;
2.410333333333334E+009;1.842105090618134E-001;2.291846089065075E-002;3.494434058666229E-003;1.188385998830199E-003;
2.410500000000000E+009;1.830225288867950E-001;2.121749147772789E-002;3.442034823819995E-003;9.485494229011238E-004;
2.410666666666667E+009;1.823842525482178E-001;1.879201270639896E-002;3.491368144750595E-003;1.114853308536112E-003;
2.410833333333334E+009;1.814966052770615E-001;1.672216691076756E-002;3.512338036671281E-003;1.079291803762317E-003;
2.411000000000000E+009;1.808737069368362E-001;1.436974201351404E-002;3.603256540372968E-003;1.130152144469321E-003;
2.411166666666667E+009;1.800931245088577E-001;1.216480229049921E-002;3.659238573163748E-003;1.203001709654927E-003;
2.411333333333334E+009;1.794027835130692E-001;9.781705215573311E-003;3.797266865149140E-003;1.253333990462124E-003;
2.411500000000000E+009;1.789662241935730E-001;7.196795195341110E-003;3.932765219360590E-003;1.322145457379520E-003;
2.411666666666667E+009;1.788165122270584E-001;4.837878048419952E-003;4.097285680472851E-003;1.255062525160611E-003;
2.411833333333334E+009;1.784936934709549E-001;2.430172637104988E-003;4.159301053732634E-003;1.159631996415556E-003;
2.412000000000000E+009;1.785299628973007E-001;-2.819693181663752E-004;4.320864565670490E-003;1.048265374265611E-003;
2.412166666666667E+009;1.785951107740402E-001;-2.502242801710963E-003;4.550310783088207E-003;9.443391463719308E-004;
2.412333333333334E+009;1.788990348577499E-001;-5.070451647043228E-003;4.698439966887236E-003;7.565560517832637E-004;
2.412500000000000E+009;1.793013811111450E-001;-7.411006838083267E-003;4.746838938444853E-003;4.920854698866606E-004;
2.412666666666667E+009;1.798859089612961E-001;-1.002519950270653E-002;4.962577950209379E-003;3.460452717263252E-004;
2.412833333333334E+009;1.804502457380295E-001;-1.248543988913298E-002;5.142763722687960E-003;1.294464891543612E-004;
2.413000000000000E+009;1.813039034605026E-001;-1.498048100620508E-002;5.124832969158888E-003;-8.187031198758632E-005;
2.413166666666667E+009;1.819839626550674E-001;-1.717647910118103E-002;5.221446044743061E-003;-3.232177987229079E-004;
2.413333333333334E+009;1.830624490976334E-001;-1.948220841586590E-002;5.246497225016356E-003;-5.395240150392056E-004;
2.413500000000000E+009;1.838068515062332E-001;-2.183137089014053E-002;5.135476589202881E-003;-9.998553432524204E-004;
2.413666666666667E+009;1.850470006465912E-001;-2.392035722732544E-002;5.048688966780901E-003;-1.240259385667741E-003;
2.413833333333334E+009;1.860960125923157E-001;-2.597348205745220E-002;5.039932206273079E-003;-1.374068786390126E-003;
2.414000000000000E+009;1.872798204421997E-001;-2.798070758581162E-002;4.833141807466745E-003;-1.529145636595786E-003;
2.414166666666667E+009;1.885403543710709E-001;-2.973628789186478E-002;4.801205359399319E-003;-1.905056415125728E-003;
2.414333333333334E+009;1.897899508476257E-001;-3.181421011686325E-002;4.593352321535349E-003;-1.809897716157138E-003;
2.414500000000000E+009;1.908310353755951E-001;-3.334973379969597E-002;4.706773906946182E-003;-2.233870560303330E-003;
2.414666666666667E+009;1.920003145933151E-001;-3.472733125090599E-002;4.515987820923328E-003;-2.257467946037650E-003;
2.414833333333334E+009;1.931727230548859E-001;-3.612991794943810E-002;4.297967068850994E-003;-2.577650826424360E-003;
2.415000000000000E+009;1.943798810243607E-001;-3.729426488280296E-002;4.223856143653393E-003;-2.613574732095003E-003;
2.415166666666667E+009;1.955893337726593E-001;-3.862876817584038E-002;3.936131019145250E-003;-2.709780819714069E-003;
2.415333333333334E+009;1.967329680919647E-001;-3.951819986104965E-002;3.842850215733051E-003;-2.787518780678511E-003;
2.415500000000000E+009;1.977587938308716E-001;-4.017402976751328E-002;3.700709901750088E-003;-3.095326712355018E-003;
2.415666666666667E+009;1.988704800605774E-001;-4.112622514367104E-002;3.615890163928270E-003;-3.133670194074512E-003;
2.415833333333334E+009;1.995834857225418E-001;-4.166296496987343E-002;3.456479869782925E-003;-3.190714865922928E-003;
2.416000000000000E+009;2.003416121006012E-001;-4.227899760007858E-002;3.363455180078745E-003;-3.140520071610808E-003;
2.416166666666667E+009;2.011993825435638E-001;-4.274661466479302E-002;3.165694652125239E-003;-3.273091511800885E-003;
2.416333333333334E+009;2.017593532800674E-001;-4.298479855060577E-002;3.014836926013231E-003;-3.239473095163703E-003;
2.416500000000000E+009;2.022047042846680E-001;-4.329269379377365E-002;2.692886628210545E-003;-3.321810625493527E-003;
2.416666666666667E+009;2.024159729480743E-001;-4.362767189741135E-002;2.665127860382199E-003;-3.393680090084672E-003;
2.416833333333334E+009;2.026572972536087E-001;-4.355427622795105E-002;2.622081199660897E-003;-3.579113632440567E-003;
2.417000000000000E+009;2.026290595531464E-001;-4.367356747388840E-002;2.622924745082855E-003;-3.439038759097457E-003;
2.417166666666667E+009;2.024469226598740E-001;-4.357038438320160E-002;2.265844726935029E-003;-3.471613163128495E-003;
2.417333333333334E+009;2.021714746952057E-001;-4.335129261016846E-002;2.180532552301884E-003;-3.505445085465908E-003;
2.417500000000000E+009;2.020269185304642E-001;-4.346057027578354E-002;1.979750348255038E-003;-3.417913569137454E-003;
2.417666666666667E+009;2.013299167156220E-001;-4.305625706911087E-002;1.798580167815089E-003;-3.472340060397983E-003;
2.417833333333334E+009;2.008211910724640E-001;-4.282866045832634E-002;1.733190030790865E-003;-3.389364341273904E-003;
2.418000000000000E+009;2.001982629299164E-001;-4.265826195478439E-002;1.665167743340135E-003;-3.345145611092448E-003;
2.418166666666667E+009;1.994481086730957E-001;-4.245733469724655E-002;1.488835550844669E-003;-3.329269355162978E-003;
2.418333333333334E+009;1.983582079410553E-001;-4.228582233190537E-002;1.635704771615565E-003;-3.369771409779787E-003;
2.418500000000000E+009;1.974217146635056E-001;-4.236005991697311E-002;1.292582484893501E-003;-3.452413948252797E-003;
2.418666666666667E+009;1.964642703533173E-001;-4.219801723957062E-002;1.399492728523910E-003;-3.402169793844223E-003;
2.418833333333334E+009;1.951311528682709E-001;-4.244663938879967E-002;1.224400359205902E-003;-3.252927213907242E-003;
2.419000000000000E+009;1.938037276268005E-001;-4.253738373517990E-002;1.206071348860860E-003;-3.184955334290862E-003;
2.419166666666667E+009;1.925972253084183E-001;-4.282730817794800E-002;1.049214974045754E-003;-3.192119300365448E-003;
2.419333333333334E+009;1.910648643970490E-001;-4.334815964102745E-002;1.034530927427113E-003;-3.146406263113022E-003;
2.419500000000000E+009;1.896249651908875E-001;-4.364080727100372E-002;1.096049440093339E-003;-3.045564750209451E-003;
2.419666666666667E+009;1.880338639020920E-001;-4.443137720227242E-002;9.495769627392292E-004;-3.003107151016593E-003;
2.419833333333334E+009;1.864469498395920E-001;-4.507136344909668E-002;9.457078995183110E-004;-2.962081460282207E-003;
2.420000000000000E+009;1.848140209913254E-001;-4.601117596030235E-002;7.407469092868269E-004;-2.806934528052807E-003;
2.420166666666667E+009;1.832822412252426E-001;-4.699413850903511E-002;8.623619214631617E-004;-3.044308628886938E-003;
2.420333333333334E+009;1.815737783908844E-001;-4.809135198593140E-002;7.953995373100042E-004;-2.879949985072017E-003;
2.420500000000000E+009;1.798842251300812E-001;-4.950379207730293E-002;9.617325849831104E-004;-2.718689385801554E-003;
2.420666666666667E+009;1.783372610807419E-001;-5.048707127571106E-002;9.349209722131491E-004;-2.700823592022061E-003;
2.420833333333334E+009;1.766705662012100E-001;-5.198152363300324E-002;9.514979319646955E-004;-2.693557878956199E-003;
2.421000000000000E+009;1.751370429992676E-001;-5.364729464054108E-002;9.864410385489464E-004;-2.716903341934085E-003;
2.421166666666667E+009;1.736454516649246E-001;-5.521484091877937E-002;1.014245324768126E-003;-2.660509664565325E-003;
2.421333333333334E+009;1.720142066478729E-001;-5.688078701496124E-002;9.195881430059671E-004;-2.687664236873388E-003;
2.421500000000000E+009;1.706688553094864E-001;-5.887582153081894E-002;1.051055151037872E-003;-2.784355543553829E-003;
2.421666666666667E+009;1.693870276212692E-001;-6.060234457254410E-002;9.811200434342027E-004;-3.017478389665484E-003;
2.421833333333334E+009;1.682171076536179E-001;-6.239040195941925E-002;1.175854122266173E-003;-2.811277052387595E-003;
2.422000000000000E+009;1.672390848398209E-001;-6.421391665935516E-002;9.576746379025281E-004;-2.909102011471987E-003;
2.422166666666667E+009;1.663364619016647E-001;-6.645957380533218E-002;1.014085370115936E-003;-2.896015997976065E-003;
2.422333333333334E+009;1.653890907764435E-001;-6.870075315237045E-002;1.073972904123366E-003;-2.954199910163879E-003;
2.422500000000000E+009;1.645808815956116E-001;-7.036440074443817E-002;9.144471259787679E-004;-2.932597883045673E-003;
2.422666666666667E+009;1.639503985643387E-001;-7.244469970464706E-002;1.091633224859834E-003;-3.011724678799510E-003;
2.422833333333334E+009;1.634566038846970E-001;-7.459007203578949E-002;1.025741570629180E-003;-3.179860301315785E-003;
2.423000000000000E+009;1.628623008728027E-001;-7.674394547939301E-002;8.948991307988763E-004;-3.279241966083646E-003;
2.423166666666667E+009;1.626064926385880E-001;-7.847878336906433E-002;1.012827851809561E-003;-3.455212106928229E-003;
2.423333333333334E+009;1.624314337968826E-001;-8.065464347600937E-002;8.711399859748781E-004;-3.529236884787679E-003;
2.423500000000000E+009;1.622963100671768E-001;-8.234838396310806E-002;9.834646480157971E-004;-3.611122258007526E-003;
2.423666666666667E+009;1.623220592737198E-001;-8.426161855459213E-002;7.791981333866715E-004;-3.750010393559933E-003;
2.423833333333334E+009;1.622216105461121E-001;-8.611448854207993E-002;6.803599535487592E-004;-3.735343925654888E-003;
2.424000000000000E+009;1.624931097030640E-001;-8.794690668582916E-002;4.856845189351589E-004;-4.001315217465162E-003;
2.424166666666667E+009;1.624962538480759E-001;-8.953454345464706E-002;3.253288159612566E-004;-3.961812704801559E-003;
2.424333333333334E+009;1.627991944551468E-001;-9.097386896610260E-002;1.558526419103146E-004;-4.140179138630629E-003;
2.424500000000000E+009;1.632324457168579E-001;-9.264186024665833E-002;8.736834570299834E-005;-4.261149559170008E-003;
2.424666666666667E+009;1.635557860136032E-001;-9.407158195972443E-002;-5.943833457422443E-006;-4.218527581542730E-003;
2.424833333333334E+009;1.641452610492706E-001;-9.528566151857376E-002;-6.608387775486335E-005;-4.263636656105518E-003;
2.425000000000000E+009;1.644970774650574E-001;-9.656090289354324E-002;-2.862194087356329E-004;-4.309627227485180E-003;
2.425166666666667E+009;1.648214310407639E-001;-9.752037376165390E-002;-4.519865033216775E-004;-4.146730061620474E-003;
2.425333333333334E+009;1.652673631906509E-001;-9.849102050065994E-002;-4.802064795512706E-004;-4.428375978022814E-003;
2.425500000000000E+009;1.656848937273026E-001;-9.943731129169464E-002;-6.794619839638472E-004;-4.135840572416782E-003;
2.425666666666667E+009;1.662067472934723E-001;-1.001258343458176E-001;-8.087913738563657E-004;-4.261623136699200E-003;
2.425833333333334E+009;1.664341241121292E-001;-1.010199710726738E-001;-1.001686672680080E-003;-4.390847403556109E-003;
2.426000000000000E+009;1.668177694082260E-001;-1.014604568481445E-001;-1.206020242534578E-003;-4.243164788931608E-003;
2.426166666666667E+009;1.673349887132645E-001;-1.018808707594872E-001;-1.369983074255288E-003;-4.214400425553322E-003;
2.426333333333334E+009;1.673227399587631E-001;-1.024461984634399E-001;-1.368727418594062E-003;-4.290824756026268E-003;
2.426500000000000E+009;1.678630858659744E-001;-1.027255505323410E-001;-1.536622643470764E-003;-4.298566840589047E-003;
2.426666666666667E+009;1.681046783924103E-001;-1.029757708311081E-001;-1.820818055421114E-003;-4.110368900001049E-003;
2.426833333333334E+009;1.683143377304077E-001;-1.032234206795692E-001;-1.810723682865501E-003;-4.076610784977675E-003;
2.427000000000000E+009;1.684013456106186E-001;-1.035208404064179E-001;-2.004209207370877E-003;-4.027008078992367E-003;
2.427166666666667E+009;1.683868616819382E-001;-1.035922318696976E-001;-2.111422363668680E-003;-3.829903667792678E-003;
2.427333333333334E+009;1.682758629322052E-001;-1.038116440176964E-001;-2.281689783558250E-003;-3.942761104553938E-003;
2.427500000000000E+009;1.680712550878525E-001;-1.040328815579414E-001;-2.351220231503248E-003;-3.668204415589571E-003;
2.427666666666667E+009;1.676452606916428E-001;-1.039895042777062E-001;-2.506668679416180E-003;-3.797014942392707E-003;
2.427833333333334E+009;1.673695296049118E-001;-1.041181012988091E-001;-2.565721981227398E-003;-3.654639469459653E-003;
