# Version 1.00
#
freq[Hz];re:Trc1_S11;im:Trc1_S11;re:Trc2_S21;im:Trc2_S21;
2.400000000000000E+009;1.554925441741943E-001;1.068981587886810E-001;-7.004182552918792E-004;4.593645222485066E-003;
2.400166666666667E+009;1.553135216236115E-001;1.042641997337341E-001;-4.056552716065198E-004;4.664296749979258E-003;
2.400333333333334E+009;1.551519185304642E-001;1.018933802843094E-001;-3.682891547214240E-004;4.694385919719935E-003;
2.400500000000000E+009;1.552274972200394E-001;9.940066188573837E-002;-4.306178307160735E-004;4.748651757836342E-003;
2.400666666666667E+009;1.552348732948303E-001;9.690532088279724E-002;-3.774136130232364E-004;4.780478309839964E-003;
2.400833333333334E+009;1.551679074764252E-001;9.380807727575302E-002;-4.128222935833037E-004;4.705648403614759E-003;
2.401000000000000E+009;1.553191542625427E-001;9.101984649896622E-002;-1.635882508708164E-004;4.861240275204182E-003;
2.401166666666667E+009;1.554335802793503E-001;8.815201371908188E-002;-1.477080804761499E-004;4.868798889219761E-003;
2.401333333333334E+009;1.557018160820007E-001;8.546002209186554E-002;8.544278534827754E-005;4.845650866627693E-003;
2.401500000000000E+009;1.560022681951523E-001;8.246921002864838E-002;1.590615720488131E-004;5.017010495066643E-003;
2.401666666666667E+009;1.564846336841583E-001;7.964488118886948E-002;3.572498681023717E-004;5.078239366412163E-003;
2.401833333333334E+009;1.569221466779709E-001;7.687128335237503E-002;5.725166993215680E-004;5.071074236184359E-003;
2.402000000000000E+009;1.577103734016419E-001;7.416326552629471E-002;7.444245275110006E-004;4.859537351876497E-003;
2.402166666666667E+009;1.586171835660934E-001;7.168914377689362E-002;1.016854075714946E-003;4.918299149721861E-003;
2.402333333333334E+009;1.592693328857422E-001;6.885480135679245E-002;1.228094450198114E-003;4.816008266061544E-003;
2.402500000000000E+009;1.605687439441681E-001;6.626059859991074E-002;1.374614541418850E-003;4.684787709265947E-003;
2.402666666666667E+009;1.616794615983963E-001;6.397808343172073E-002;1.585005666129291E-003;4.681974183768034E-003;
2.402833333333334E+009;1.628921329975128E-001;6.163818389177322E-002;1.550743705593050E-003;4.692801274359226E-003;
2.403000000000000E+009;1.644543409347534E-001;5.918795987963677E-002;1.915265107527375E-003;4.512611776590347E-003;
2.403166666666667E+009;1.661975830793381E-001;5.711342394351959E-002;1.879417686723173E-003;4.393413197249174E-003;
2.403333333333334E+009;1.676380485296249E-001;5.484516918659210E-002;2.028774004429579E-003;4.260213579982519E-003;
2.403500000000000E+009;1.692024469375610E-001;5.273540318012238E-002;2.180978888645768E-003;4.033499397337437E-003;
2.403666666666667E+009;1.710348278284073E-001;5.081361904740334E-002;2.236384432762861E-003;4.005216062068939E-003;
2.403833333333334E+009;1.727161407470703E-001;4.903834685683250E-002;2.192746615037322E-003;3.815069328993559E-003;
2.404000000000000E+009;1.743095219135284E-001;4.722315073013306E-002;2.302509034052491E-003;3.817686578258872E-003;
2.404166666666667E+009;1.759617775678635E-001;4.566662758588791E-002;2.378479344770312E-003;3.582610981538892E-003;
2.404333333333334E+009;1.776371598243713E-001;4.426770284771919E-002;2.338208258152008E-003;3.630442777648568E-003;
2.404500000000000E+009;1.792453378438950E-001;4.276741668581963E-002;2.537683583796024E-003;3.562004072591662E-003;
2.404666666666667E+009;1.808312684297562E-001;4.170578345656395E-002;2.483616815879941E-003;3.476054174825549E-003;
2.404833333333334E+009;1.826211363077164E-001;4.064451903104782E-002;2.683824161067605E-003;3.324962919577956E-003;
2.405000000000000E+009;1.840206980705261E-001;4.002457112073898E-002;2.616207581013441E-003;3.314299508929253E-003;
2.405166666666667E+009;1.854446083307266E-001;3.932518139481545E-002;2.831776626408100E-003;3.271617926657200E-003;
2.405333333333334E+009;1.869589835405350E-001;3.895725682377815E-002;2.957630669698119E-003;3.190586809068918E-003;
2.405500000000000E+009;1.885116249322891E-001;3.841622173786163E-002;2.922238782048225E-003;2.914472017437220E-003;
2.405666666666667E+009;1.896573454141617E-001;3.815061226487160E-002;3.066561650484800E-003;2.907899441197515E-003;
2.405833333333334E+009;1.909856200218201E-001;3.777511417865753E-002;3.188804490491748E-003;2.836967352777720E-003;
2.406000000000000E+009;1.919167488813400E-001;3.768942505121231E-002;3.010448534041643E-003;2.826930023729801E-003;
2.406166666666667E+009;1.929218620061874E-001;3.748143836855888E-002;3.103544469922781E-003;2.716270042583346E-003;
2.406333333333334E+009;1.939533650875092E-001;3.759735077619553E-002;3.163310466334224E-003;2.620498649775982E-003;
2.406500000000000E+009;1.946410089731216E-001;3.754237666726112E-002;3.183041932061315E-003;2.543990267440677E-003;
2.406666666666667E+009;1.952639967203140E-001;3.768039494752884E-002;3.311778651550412E-003;2.395133487880230E-003;
2.406833333333334E+009;1.958505362272263E-001;3.769732639193535E-002;3.102210815995932E-003;2.299529500305653E-003;
2.407000000000000E+009;1.961360424757004E-001;3.789939358830452E-002;3.256321419030428E-003;2.189797814935446E-003;
2.407166666666667E+009;1.965088695287705E-001;3.782847151160240E-002;3.244480350986123E-003;2.081022132188082E-003;
2.407333333333334E+009;1.965292692184448E-001;3.803661838173866E-002;3.402718575671315E-003;2.054265933111310E-003;
2.407500000000000E+009;1.964994966983795E-001;3.808137029409409E-002;3.341506933793426E-003;2.064237836748362E-003;
2.407666666666667E+009;1.964669227600098E-001;3.799717128276825E-002;3.196513745933771E-003;1.889018923975527E-003;
2.407833333333334E+009;1.961522847414017E-001;3.793087601661682E-002;3.396198153495789E-003;1.777536584995687E-003;
2.408000000000000E+009;1.960164308547974E-001;3.763898089528084E-002;3.308626590296626E-003;1.683985348790884E-003;
2.408166666666667E+009;1.953901052474976E-001;3.755704686045647E-002;3.325205994769931E-003;1.725231646560133E-003;
2.408333333333334E+009;1.948952823877335E-001;3.704508394002914E-002;3.383729606866837E-003;1.755735022015870E-003;
2.408500000000000E+009;1.943338811397553E-001;3.672084584832192E-002;3.399573499336839E-003;1.533298869617283E-003;
2.408666666666667E+009;1.936564892530441E-001;3.621174022555351E-002;3.338072681799531E-003;1.497333985753357E-003;
2.408833333333334E+009;1.929867565631867E-001;3.541357442736626E-002;3.267824184149504E-003;1.529613742604852E-003;
2.409000000000000E+009;1.920409351587296E-001;3.451733663678169E-002;3.417945699766278E-003;1.372735016047955E-003;
2.409166666666667E+009;1.910653710365295E-001;3.352785855531693E-002;3.430220298469067E-003;1.317591173574328E-003;
2.409333333333334E+009;1.902695745229721E-001;3.249933943152428E-002;3.257934935390949E-003;1.238702679984272E-003;
2.409500000000000E+009;1.891273558139801E-001;3.110417537391186E-002;3.258608281612396E-003;1.258309697732329E-003;
2.409666666666667E+009;1.881641447544098E-001;2.968333102762699E-002;3.347150515764952E-003;1.222478924319148E-003;
2.409833333333334E+009;1.870389729738236E-001;2.830529026687145E-002;3.168295137584209E-003;1.227059517987073E-003;
2.410000000000000E+009;1.861877292394638E-001;2.641735039651394E-002;3.290727036073804E-003;1.091021113097668E-003;
2.410166666666667E+009;1.850097477436066E-001;2.465447224676609E-002;3.140976652503014E-003;1.253160065971315E-003;
2.410333333333334E+009;1.840548068284988E-001;2.284254506230354E-002;3.148943884298205E-003;1.153272809460759E-003;
2.410500000000000E+009;1.830602437257767E-001;2.087426930665970E-002;3.215640084818006E-003;1.108205295167863E-003;
2.410666666666667E+009;1.821707636117935E-001;1.833274587988854E-002;3.331672865897417E-003;1.296358299441636E-003;
2.410833333333334E+009;1.815978437662125E-001;1.635374128818512E-002;3.317267401143909E-003;1.272466150112450E-003;
2.411000000000000E+009;1.807189285755158E-001;1.409852690994740E-002;3.437172155827284E-003;1.266710925847292E-003;
2.411166666666667E+009;1.800784170627594E-001;1.180153340101242E-002;3.461453365162015E-003;1.278532785363495E-003;
2.411333333333334E+009;1.794428527355194E-001;9.200586937367916E-003;3.607440972700715E-003;1.250179833732545E-003;
2.411500000000000E+009;1.790183335542679E-001;6.956786848604679E-003;3.776806872338057E-003;1.212858129292727E-003;
2.411666666666667E+009;1.785146892070770E-001;4.489763639867306E-003;3.764039371162653E-003;1.281551783904433E-003;
2.411833333333334E+009;1.783658266067505E-001;2.155879978090525E-003;4.071826115250588E-003;1.206412794999778E-003;
2.412000000000000E+009;1.785855293273926E-001;-4.775117267854512E-004;4.213441628962755E-003;1.108075608499348E-003;
2.412166666666667E+009;1.784738451242447E-001;-2.904249588027597E-003;4.384311381727457E-003;9.731134632602334E-004;
2.412333333333334E+009;1.787754297256470E-001;-5.339687690138817E-003;4.476975649595261E-003;7.327659986913204E-004;
2.412500000000000E+009;1.791663169860840E-001;-7.838997989892960E-003;4.641284700483084E-003;6.704659899696708E-004;
2.412666666666667E+009;1.796636283397675E-001;-1.037111412733793E-002;4.810006823390722E-003;4.562285321298987E-004;
2.412833333333334E+009;1.803193986415863E-001;-1.276856195181608E-002;4.845345392823219E-003;3.420692228246480E-004;
2.413000000000000E+009;1.812568306922913E-001;-1.502298191189766E-002;5.026596598327160E-003;6.528126687044278E-005;
2.413166666666667E+009;1.819515973329544E-001;-1.732217893004417E-002;4.859854467213154E-003;-8.694640564499423E-005;
2.413333333333334E+009;1.829455047845841E-001;-1.974010840058327E-002;5.041799508035183E-003;-5.082559655420482E-004;
2.413500000000000E+009;1.838490217924118E-001;-2.203164063394070E-002;5.033773835748434E-003;-8.219075389206410E-004;
2.413666666666667E+009;1.850546300411224E-001;-2.413423359394074E-002;4.976871423423290E-003;-1.077405642718077E-003;
2.413833333333334E+009;1.862509101629257E-001;-2.620508894324303E-002;4.898082930594683E-003;-1.110598794184625E-003;
2.414000000000000E+009;1.871214956045151E-001;-2.813802473247051E-002;4.757747054100037E-003;-1.441273256205022E-003;
2.414166666666667E+009;1.884450912475586E-001;-3.006109222769737E-002;4.680718295276165E-003;-1.566271763294935E-003;
2.414333333333334E+009;1.895037293434143E-001;-3.201651200652123E-002;4.538762848824263E-003;-1.707743969745934E-003;
2.414500000000000E+009;1.907057613134384E-001;-3.344698250293732E-002;4.475115798413754E-003;-2.086713910102844E-003;
2.414666666666667E+009;1.919351518154144E-001;-3.506271913647652E-002;4.409523680806160E-003;-2.040519844740629E-003;
2.414833333333334E+009;1.929951310157776E-001;-3.640449792146683E-002;4.217828623950481E-003;-2.413841662928462E-003;
2.415000000000000E+009;1.941081434488297E-001;-3.775003552436829E-002;4.103260114789009E-003;-2.348428824916482E-003;
2.415166666666667E+009;1.953897625207901E-001;-3.875823691487312E-002;4.016670398414135E-003;-2.599291736260057E-003;
2.415333333333334E+009;1.966423690319061E-001;-3.971209004521370E-002;3.810649039223790E-003;-2.682353835552931E-003;
2.415500000000000E+009;1.976796239614487E-001;-4.046303778886795E-002;3.692625556141138E-003;-2.830462763085961E-003;
2.415666666666667E+009;1.985815018415451E-001;-4.132341593503952E-002;3.553611924871802E-003;-2.940147649496794E-003;
2.415833333333334E+009;1.993823200464249E-001;-4.185281321406364E-002;3.361206036061049E-003;-2.772694919258356E-003;
2.416000000000000E+009;2.001657038927078E-001;-4.251652210950851E-002;3.280657576397061E-003;-2.941235434263945E-003;
2.416166666666667E+009;2.009904384613037E-001;-4.297014698386192E-002;2.993722213432193E-003;-3.102939110249281E-003;
2.416333333333334E+009;2.015419304370880E-001;-4.328467324376106E-002;2.992063527926803E-003;-3.131363308057189E-003;
2.416500000000000E+009;2.018664032220841E-001;-4.347708076238632E-002;2.944457810372114E-003;-3.047097707167268E-003;
2.416666666666667E+009;2.022705972194672E-001;-4.375901818275452E-002;2.705001505091786E-003;-3.267309395596385E-003;
2.416833333333334E+009;2.022398412227631E-001;-4.380449280142784E-002;2.579357707872987E-003;-3.215993288904429E-003;
2.417000000000000E+009;2.024236321449280E-001;-4.386141523718834E-002;2.434933558106422E-003;-3.245088038966060E-003;
2.417166666666667E+009;2.021330296993256E-001;-4.375271871685982E-002;2.234761370345950E-003;-3.222170053049922E-003;
2.417333333333334E+009;2.020081430673599E-001;-4.355615004897118E-002;2.266147872433066E-003;-3.242052393034101E-003;
2.417500000000000E+009;2.015454918146133E-001;-4.347953572869301E-002;2.040657447651029E-003;-3.161853644996882E-003;
2.417666666666667E+009;2.009343504905701E-001;-4.321383684873581E-002;1.972967060282826E-003;-3.150211879983544E-003;
2.417833333333334E+009;2.005409747362137E-001;-4.307100549340248E-002;1.847000443376601E-003;-3.262320533394814E-003;
2.418000000000000E+009;1.999498307704926E-001;-4.267210513353348E-002;1.709650736302137E-003;-3.200133098289371E-003;
2.418166666666667E+009;1.990056186914444E-001;-4.255371913313866E-002;1.625741017051041E-003;-3.160538850352168E-003;
2.418333333333334E+009;1.981413215398789E-001;-4.246649146080017E-002;1.451652147807181E-003;-3.131793113425374E-003;
2.418500000000000E+009;1.969775259494782E-001;-4.235126823186874E-002;1.542654586955905E-003;-3.114456776529551E-003;
2.418666666666667E+009;1.962009072303772E-001;-4.230420291423798E-002;1.539871678687632E-003;-3.051628591492772E-003;
2.418833333333334E+009;1.948209404945374E-001;-4.238863289356232E-002;1.310275052674115E-003;-2.961211372166872E-003;
2.419000000000000E+009;1.934026032686234E-001;-4.251181706786156E-002;1.276444876566529E-003;-3.010227112099528E-003;
2.419166666666667E+009;1.921718418598175E-001;-4.278377071022987E-002;1.183105516247451E-003;-3.041633404791355E-003;
2.419333333333334E+009;1.907873302698135E-001;-4.334130883216858E-002;1.147895585745573E-003;-2.811937360092998E-003;
2.419500000000000E+009;1.892258524894714E-001;-4.371825978159905E-002;1.030375133268535E-003;-2.810703590512276E-003;
2.419666666666667E+009;1.876100301742554E-001;-4.448853060603142E-002;9.464159957133234E-004;-2.797460183501244E-003;
2.419833333333334E+009;1.859460622072220E-001;-4.507125541567802E-002;1.009670086205006E-003;-2.773910062387586E-003;
2.420000000000000E+009;1.844650506973267E-001;-4.587046802043915E-002;9.835013188421726E-004;-2.786494325846434E-003;
2.420166666666667E+009;1.827352195978165E-001;-4.691341891884804E-002;7.862218189984560E-004;-2.563823480159044E-003;
2.420333333333334E+009;1.811780035495758E-001;-4.806357994675636E-002;9.921829914674163E-004;-2.660696627572179E-003;
2.420500000000000E+009;1.795305013656616E-001;-4.929216951131821E-002;1.110155950300396E-003;-2.645986154675484E-003;
2.420666666666667E+009;1.778550446033478E-001;-5.032228678464890E-002;1.139092375524342E-003;-2.575602848082781E-003;
2.420833333333334E+009;1.761857420206070E-001;-5.194178968667984E-002;1.145374611951411E-003;-2.759858733043075E-003;
2.421000000000000E+009;1.748629212379456E-001;-5.334914103150368E-002;1.096101826988161E-003;-2.591687021777034E-003;
2.421166666666667E+009;1.733486950397492E-001;-5.518072471022606E-002;1.191507559269667E-003;-2.665632637217641E-003;
2.421333333333334E+009;1.715550571680069E-001;-5.667022988200188E-002;1.181005151011050E-003;-2.610976807773113E-003;
2.421500000000000E+009;1.703000515699387E-001;-5.868975073099136E-002;1.208436209708452E-003;-2.741039264947176E-003;
2.421666666666667E+009;1.691280752420425E-001;-6.043980270624161E-002;1.326903584413230E-003;-2.754567191004753E-003;
2.421833333333334E+009;1.680049598217011E-001;-6.237395107746124E-002;1.148357754573226E-003;-2.798354486003518E-003;
2.422000000000000E+009;1.669034510850906E-001;-6.412068009376526E-002;1.141818822361529E-003;-2.855671802535653E-003;
2.422166666666667E+009;1.660859733819962E-001;-6.626795232295990E-002;1.273227855563164E-003;-2.991112880408764E-003;
2.422333333333334E+009;1.649523824453354E-001;-6.815955042839050E-002;1.315042842179537E-003;-2.834294456988573E-003;
2.422500000000000E+009;1.641781032085419E-001;-7.010616362094879E-002;1.292598550207913E-003;-2.905307104811072E-003;
2.422666666666667E+009;1.635376811027527E-001;-7.222286611795425E-002;1.360841211862862E-003;-3.028178820386529E-003;
2.422833333333334E+009;1.631951630115509E-001;-7.434620708227158E-002;1.180900377221406E-003;-3.228581976145506E-003;
2.423000000000000E+009;1.626991927623749E-001;-7.629197835922241E-002;1.332773710601032E-003;-3.402693429961801E-003;
2.423166666666667E+009;1.623636633157730E-001;-7.840771228075028E-002;1.294704969041050E-003;-3.468450158834457E-003;
2.423333333333334E+009;1.621169596910477E-001;-8.024415373802185E-002;1.147934817709029E-003;-3.472405951470137E-003;
2.423500000000000E+009;1.619969755411148E-001;-8.213928341865540E-002;1.159392297267914E-003;-3.642268944531679E-003;
2.423666666666667E+009;1.620725095272064E-001;-8.403771370649338E-002;1.025364734232426E-003;-3.767330665141344E-003;
2.423833333333334E+009;1.620621383190155E-001;-8.579047024250031E-002;8.352153236046433E-004;-3.880655625835061E-003;
2.424000000000000E+009;1.622290909290314E-001;-8.737923204898834E-002;6.268482538871467E-004;-4.067816305905581E-003;
2.424166666666667E+009;1.623028069734573E-001;-8.910262584686279E-002;5.587799241766334E-004;-4.106847103685141E-003;
2.424333333333334E+009;1.626296490430832E-001;-9.058416634798050E-002;4.553161852527410E-004;-4.184444434940815E-003;
2.424500000000000E+009;1.631547808647156E-001;-9.237507730722427E-002;3.726118593476713E-004;-4.243637900799513E-003;
2.424666666666667E+009;1.633526235818863E-001;-9.373334050178528E-002;1.898990594781935E-004;-4.249833058565855E-003;
2.424833333333334E+009;1.640654802322388E-001;-9.501314163208008E-002;-9.112358384300023E-006;-4.396056756377220E-003;
2.425000000000000E+009;1.643792539834976E-001;-9.622323513031006E-002;-1.589184394106269E-004;-4.383871331810951E-003;
2.425166666666667E+009;1.647455096244812E-001;-9.724827855825424E-002;-2.629819791764021E-004;-4.322106018662453E-003;
2.425333333333334E+009;1.650820076465607E-001;-9.817980229854584E-002;-3.686274285428226E-004;-4.457856994122267E-003;
2.425500000000000E+009;1.655887663364410E-001;-9.906014800071716E-002;-6.207752157934010E-004;-4.429378546774387E-003;
2.425666666666667E+009;1.660920828580856E-001;-9.987720102071762E-002;-7.138729561120272E-004;-4.329635296016932E-003;
2.425833333333334E+009;1.664151996374130E-001;-1.007443219423294E-001;-8.323148358613253E-004;-4.366889595985413E-003;
2.426000000000000E+009;1.668429523706436E-001;-1.011358052492142E-001;-1.052564708516002E-003;-4.410310182720423E-003;
2.426166666666667E+009;1.671950072050095E-001;-1.015991941094399E-001;-1.124587724916637E-003;-4.284058231860399E-003;
2.426333333333334E+009;1.674715131521225E-001;-1.021389141678810E-001;-1.315334811806679E-003;-4.230998922139406E-003;
2.426500000000000E+009;1.678271293640137E-001;-1.023864373564720E-001;-1.537667354568839E-003;-4.193163942545652E-003;
2.426666666666667E+009;1.680405288934708E-001;-1.026559323072434E-001;-1.662700553424656E-003;-4.237359389662743E-003;
2.426833333333334E+009;1.682993024587631E-001;-1.030368506908417E-001;-1.719435909762979E-003;-4.144828300923109E-003;
2.427000000000000E+009;1.682999730110169E-001;-1.032131984829903E-001;-1.945127965882421E-003;-4.097928758710623E-003;
2.427166666666667E+009;1.683822572231293E-001;-1.032474413514137E-001;-2.108739921823144E-003;-3.942419309169054E-003;
2.427333333333334E+009;1.682666391134262E-001;-1.035304442048073E-001;-2.128885593265295E-003;-3.911933861672878E-003;
2.427500000000000E+009;1.680614650249481E-001;-1.035996153950691E-001;-2.354907337576151E-003;-3.843582933768630E-003;
2.427666666666667E+009;1.676761060953140E-001;-1.036321744322777E-001;-2.324889181181788E-003;-3.694341750815511E-003;
2.427833333333334E+009;1.672803014516830E-001;-1.038022413849831E-001;-2.617974998429418E-003;-3.681103931739926E-003;
