# Version 1.00
#
freq[Hz];re:Trc1_S11;im:Trc1_S11;re:Trc2_S21;im:Trc2_S21;
2.400000000000000E+009;1.550639718770981E-001;1.071689948439598E-001;-8.086445159278810E-004;4.819456953555346E-003;
2.400166666666667E+009;1.549273878335953E-001;1.047993153333664E-001;-6.550656398758292E-004;4.808958619832993E-003;
2.400333333333334E+009;1.547455340623856E-001;1.024639680981636E-001;-5.424855626188219E-004;4.761650227010250E-003;
2.400500000000000E+009;1.548041850328445E-001;9.977543354034424E-002;-4.457521135918796E-004;4.952379968017340E-003;
2.400666666666667E+009;1.549133509397507E-001;9.714969247579575E-002;-4.064985259901732E-004;4.833388607949019E-003;
2.400833333333334E+009;1.547926366329193E-001;9.422419220209122E-002;-3.797741956077516E-004;4.826846998184919E-003;
2.401000000000000E+009;1.549929976463318E-001;9.149973094463348E-002;-4.216587112750858E-004;4.965561907738447E-003;
2.401166666666667E+009;1.549984216690064E-001;8.868569880723953E-002;-1.264398888451979E-004;5.076407920569181E-003;
2.401333333333334E+009;1.555615365505219E-001;8.585612475872040E-002;8.775610331213102E-005;4.962367005646229E-003;
2.401500000000000E+009;1.558814048767090E-001;8.297935128211975E-002;1.830559776863083E-004;5.089793819934130E-003;
2.401666666666667E+009;1.562240123748779E-001;8.000513166189194E-002;4.039383493363857E-004;5.074798595160246E-003;
2.401833333333334E+009;1.569072008132935E-001;7.739675790071487E-002;5.863235564902425E-004;5.129873286932707E-003;
2.402000000000000E+009;1.575208604335785E-001;7.459998875856400E-002;8.218918228521943E-004;5.227693356573582E-003;
2.402166666666667E+009;1.583342552185059E-001;7.201366871595383E-002;9.653235320001841E-004;5.065646022558212E-003;
2.402333333333334E+009;1.593325883150101E-001;6.940294057130814E-002;1.212169067002833E-003;5.033585242927074E-003;
2.402500000000000E+009;1.604897975921631E-001;6.679674237966538E-002;1.393934478983283E-003;5.094855092465878E-003;
2.402666666666667E+009;1.615215688943863E-001;6.444640457630158E-002;1.487678382545710E-003;4.929820075631142E-003;
2.402833333333334E+009;1.630785316228867E-001;6.185538694262505E-002;1.749602961353958E-003;4.566619172692299E-003;
2.403000000000000E+009;1.643637865781784E-001;5.969471111893654E-002;1.881902222521603E-003;4.516295157372952E-003;
2.403166666666667E+009;1.661888062953949E-001;5.735654756426811E-002;1.955786021426320E-003;4.410138353705406E-003;
2.403333333333334E+009;1.676639467477799E-001;5.526094883680344E-002;2.092533744871616E-003;4.378489684313536E-003;
2.403500000000000E+009;1.692693382501602E-001;5.304914712905884E-002;2.222304698079824E-003;4.169384948909283E-003;
2.403666666666667E+009;1.710778474807739E-001;5.126021802425385E-002;2.370559377595782E-003;4.064836073666811E-003;
2.403833333333334E+009;1.728251874446869E-001;4.936873912811279E-002;2.438852796331048E-003;4.004905931651592E-003;
2.404000000000000E+009;1.742365956306458E-001;4.761165380477905E-002;2.411085413768888E-003;3.793534124270082E-003;
2.404166666666667E+009;1.761783361434937E-001;4.609919711947441E-002;2.449062652885914E-003;3.964936360716820E-003;
2.404333333333334E+009;1.777721643447876E-001;4.454894736409187E-002;2.383580897003412E-003;3.734103869646788E-003;
2.404500000000000E+009;1.794169992208481E-001;4.330957308411598E-002;2.629029797390103E-003;3.672807710245252E-003;
2.404666666666667E+009;1.811672151088715E-001;4.220403358340263E-002;2.589307259768248E-003;3.499768907204270E-003;
2.404833333333334E+009;1.827603727579117E-001;4.117210581898689E-002;2.644151449203491E-003;3.706463379785419E-003;
2.405000000000000E+009;1.841038465499878E-001;4.033495858311653E-002;2.686293330043554E-003;3.506565932184458E-003;
2.405166666666667E+009;1.856378018856049E-001;3.974041342735291E-002;2.687393454834819E-003;3.478166647255421E-003;
2.405333333333334E+009;1.871097683906555E-001;3.912799805402756E-002;2.895965008065105E-003;3.354826942086220E-003;
2.405500000000000E+009;1.885892897844315E-001;3.858457878232002E-002;3.022324293851852E-003;3.281854325905442E-003;
2.405666666666667E+009;1.897668391466141E-001;3.839988261461258E-002;2.956912387162447E-003;3.201690968126059E-003;
2.405833333333334E+009;1.911630332469940E-001;3.814561292529106E-002;3.110267687588930E-003;3.073202678933740E-003;
2.406000000000000E+009;1.920973062515259E-001;3.793648257851601E-002;3.193729789927602E-003;2.869404619559646E-003;
2.406166666666667E+009;1.930217593908310E-001;3.787586092948914E-002;3.233546856790781E-003;2.909606322646141E-003;
2.406333333333334E+009;1.939945369958878E-001;3.782627731561661E-002;3.299940843135119E-003;2.776093315333128E-003;
2.406500000000000E+009;1.948793381452560E-001;3.790318220853806E-002;3.267361316829920E-003;2.708716085180640E-003;
2.406666666666667E+009;1.954221576452255E-001;3.793385252356529E-002;3.477325662970543E-003;2.490446204319596E-003;
2.406833333333334E+009;1.960716247558594E-001;3.800131380558014E-002;3.413384547457099E-003;2.414286136627197E-003;
2.407000000000000E+009;1.963172405958176E-001;3.808188065886498E-002;3.314436180517077E-003;2.264262642711401E-003;
2.407166666666667E+009;1.968280673027039E-001;3.791366145014763E-002;3.399594221264124E-003;2.153524896129966E-003;
2.407333333333334E+009;1.967018097639084E-001;3.813973814249039E-002;3.275814466178417E-003;1.992591889575124E-003;
2.407500000000000E+009;1.967268437147141E-001;3.822966665029526E-002;3.449461888521910E-003;2.050451934337616E-003;
2.407666666666667E+009;1.967380493879318E-001;3.817388415336609E-002;3.655062988400459E-003;1.991232158616185E-003;
2.407833333333334E+009;1.962623745203018E-001;3.807983919978142E-002;3.473769640550017E-003;2.015898935496807E-003;
2.408000000000000E+009;1.962078362703323E-001;3.793165460228920E-002;3.419592976570129E-003;1.867310726083815E-003;
2.408166666666667E+009;1.956086158752441E-001;3.761996328830719E-002;3.465593326836824E-003;1.663590432144702E-003;
2.408333333333334E+009;1.951876431703568E-001;3.709642961621285E-002;3.551686881110072E-003;1.709372852928937E-003;
2.408500000000000E+009;1.944622695446014E-001;3.684360533952713E-002;3.543028840795159E-003;1.725978916510940E-003;
2.408666666666667E+009;1.938348859548569E-001;3.617190569639206E-002;3.606772050261498E-003;1.539569697342813E-003;
2.408833333333334E+009;1.931532323360443E-001;3.549491614103317E-002;3.659437876194716E-003;1.643474446609616E-003;
2.409000000000000E+009;1.921339482069016E-001;3.460882976651192E-002;3.523072693496943E-003;1.476372941397131E-003;
2.409166666666667E+009;1.913558989763260E-001;3.354067727923393E-002;3.530497895553708E-003;1.260254532098770E-003;
2.409333333333334E+009;1.904513537883759E-001;3.251596540212631E-002;3.501236671581864E-003;1.275325543247163E-003;
2.409500000000000E+009;1.893087774515152E-001;3.125116601586342E-002;3.575830953195691E-003;1.144568086601794E-003;
2.409666666666667E+009;1.882908195257187E-001;2.972069382667542E-002;3.430146258324385E-003;1.151914359070361E-003;
2.409833333333334E+009;1.872265189886093E-001;2.824152261018753E-002;3.315252484753728E-003;1.224329695105553E-003;
2.410000000000000E+009;1.864050328731537E-001;2.656234428286552E-002;3.574147587642074E-003;1.040293369442225E-003;
2.410166666666667E+009;1.850829124450684E-001;2.464458532631397E-002;3.512791823595762E-003;1.072018523700535E-003;
2.410333333333334E+009;1.843513250350952E-001;2.282687462866306E-002;3.452678443863988E-003;1.134410151280463E-003;
2.410500000000000E+009;1.832301765680313E-001;2.082833833992481E-002;3.431522520259023E-003;1.132953912019730E-003;
2.410666666666667E+009;1.824189722537994E-001;1.864351145923138E-002;3.398583503440023E-003;9.997660527005792E-004;
2.410833333333334E+009;1.816871017217636E-001;1.643702015280724E-002;3.563656704500318E-003;9.882188169285655E-004;
2.411000000000000E+009;1.807536184787750E-001;1.404190622270107E-002;3.496892284601927E-003;9.884475730359554E-004;
2.411166666666667E+009;1.801218986511231E-001;1.183692645281553E-002;3.526169341057539E-003;1.112714991904795E-003;
2.411333333333334E+009;1.796463727951050E-001;9.353287518024445E-003;3.667512675747275E-003;1.050232211127877E-003;
2.411500000000000E+009;1.789829134941101E-001;6.880238186568022E-003;3.850065404549241E-003;1.232890295796096E-003;
2.411666666666667E+009;1.790480464696884E-001;4.533942788839340E-003;3.895100206136704E-003;1.005900325253606E-003;
2.411833333333334E+009;1.785365939140320E-001;2.255082363262773E-003;4.021872766315937E-003;9.361592237837613E-004;
2.412000000000000E+009;1.787506341934204E-001;-4.056582693010569E-004;4.157315008342266E-003;1.022690557874739E-003;
2.412166666666667E+009;1.788083612918854E-001;-2.694350201636553E-003;4.408428445458412E-003;7.472389261238277E-004;
2.412333333333334E+009;1.790156513452530E-001;-5.366108845919371E-003;4.541851114481688E-003;7.492820150218904E-004;
2.412500000000000E+009;1.792555451393127E-001;-7.753037847578526E-003;4.762932192534208E-003;5.612657987512648E-004;
2.412666666666667E+009;1.797594130039215E-001;-1.036161556839943E-002;4.739170428365469E-003;2.518259279895574E-004;
2.412833333333334E+009;1.806206107139587E-001;-1.265194173902273E-002;4.918493796139956E-003;-4.200617695460096E-005;
2.413000000000000E+009;1.812685877084732E-001;-1.513408217579126E-002;4.832783713936806E-003;-6.190659769345075E-005;
2.413166666666667E+009;1.819584816694260E-001;-1.732938177883625E-002;4.936538636684418E-003;-2.963083679787815E-004;
2.413333333333334E+009;1.830861568450928E-001;-1.965777017176151E-002;5.003442056477070E-003;-6.741266697645187E-004;
2.413500000000000E+009;1.839753538370132E-001;-2.196409925818443E-002;5.028055980801582E-003;-8.822763338685036E-004;
2.413666666666667E+009;1.851115673780441E-001;-2.410388737916946E-002;5.001536104828119E-003;-1.082964474335313E-003;
2.413833333333334E+009;1.863140612840653E-001;-2.621164172887802E-002;4.888996947556734E-003;-1.498450757935643E-003;
2.414000000000000E+009;1.874331384897232E-001;-2.804799750447273E-002;4.865542985498905E-003;-1.513795228675008E-003;
2.414166666666667E+009;1.885704100131989E-001;-3.000660240650177E-002;4.713030532002449E-003;-1.911803847178817E-003;
2.414333333333334E+009;1.896889805793762E-001;-3.204340115189552E-002;4.509373567998409E-003;-1.973016653209925E-003;
2.414500000000000E+009;1.909472942352295E-001;-3.357848152518272E-002;4.432993009686470E-003;-2.068541012704372E-003;
2.414666666666667E+009;1.920780986547470E-001;-3.505568578839302E-002;4.341430496424437E-003;-2.190026454627514E-003;
2.414833333333334E+009;1.933048367500305E-001;-3.645135462284088E-002;4.240557551383972E-003;-2.342415973544121E-003;
2.415000000000000E+009;1.943575143814087E-001;-3.749891743063927E-002;4.024328198283911E-003;-2.342091174796224E-003;
2.415166666666667E+009;1.955928057432175E-001;-3.868253529071808E-002;3.837069729343057E-003;-2.695612609386444E-003;
2.415333333333334E+009;1.967521905899048E-001;-3.980021178722382E-002;3.726629773154855E-003;-2.633395371958613E-003;
2.415500000000000E+009;1.978182494640350E-001;-4.047547280788422E-002;3.688701894134283E-003;-2.759956521913409E-003;
2.415666666666667E+009;1.988340914249420E-001;-4.133909568190575E-002;3.436090191826224E-003;-2.944009378552437E-003;
2.415833333333334E+009;1.996188014745712E-001;-4.191960394382477E-002;3.347816877067089E-003;-2.886736299842596E-003;
2.416000000000000E+009;2.003603875637054E-001;-4.226685315370560E-002;3.148126183077693E-003;-3.187047783285379E-003;
2.416166666666667E+009;2.010133117437363E-001;-4.300405830144882E-002;3.011520951986313E-003;-3.188865492120385E-003;
2.416333333333334E+009;2.016888111829758E-001;-4.326035454869270E-002;3.003884106874466E-003;-3.137029940262437E-003;
2.416500000000000E+009;2.022180706262589E-001;-4.350247234106064E-002;2.773432526737452E-003;-3.382416907697916E-003;
2.416666666666667E+009;2.024347335100174E-001;-4.372970387339592E-002;2.609857590869069E-003;-3.371551865711808E-003;
2.416833333333334E+009;2.025707960128784E-001;-4.383577406406403E-002;2.499683992937207E-003;-3.291340079158545E-003;
2.417000000000000E+009;2.025663554668427E-001;-4.378831014037132E-002;2.143632387742400E-003;-3.404919290915132E-003;
2.417166666666667E+009;2.023369818925858E-001;-4.375290498137474E-002;2.105510095134378E-003;-3.390097059309483E-003;
2.417333333333334E+009;2.019913345575333E-001;-4.346461594104767E-002;2.098076511174440E-003;-3.249727422371507E-003;
2.417500000000000E+009;2.017557919025421E-001;-4.340240731835365E-002;1.976911211386323E-003;-3.252594498917460E-003;
2.417666666666667E+009;2.010960876941681E-001;-4.317111894488335E-002;1.855302252806723E-003;-3.294127527624369E-003;
2.417833333333334E+009;2.008265256881714E-001;-4.301700741052628E-002;1.822037040255964E-003;-3.378570312634111E-003;
2.418000000000000E+009;2.000827640295029E-001;-4.264442250132561E-002;1.720069558359683E-003;-3.168327733874321E-003;
2.418166666666667E+009;1.991436332464218E-001;-4.255811870098114E-002;1.541540259495378E-003;-3.270858433097601E-003;
2.418333333333334E+009;1.982646286487579E-001;-4.242089390754700E-002;1.417335006408393E-003;-3.300619544461370E-003;
2.418500000000000E+009;1.971932798624039E-001;-4.232764989137650E-002;1.358409761451185E-003;-3.206437220796943E-003;
2.418666666666667E+009;1.962276548147202E-001;-4.232649877667427E-002;1.406963099725545E-003;-3.116355044767261E-003;
2.418833333333334E+009;1.949457079172134E-001;-4.241488501429558E-002;1.249099383130670E-003;-3.115990431979299E-003;
2.419000000000000E+009;1.936138719320297E-001;-4.254066571593285E-002;1.052149571478367E-003;-3.089179284870625E-003;
2.419166666666667E+009;1.923735290765762E-001;-4.275188967585564E-002;1.014918670989573E-003;-3.046456491574645E-003;
2.419333333333334E+009;1.909476667642593E-001;-4.337673634290695E-002;1.048592734150589E-003;-2.963355276733637E-003;
2.419500000000000E+009;1.893580555915833E-001;-4.370303079485893E-002;9.832155192270875E-004;-2.845366951078177E-003;
2.419666666666667E+009;1.878199875354767E-001;-4.448397830128670E-002;9.974952554330230E-004;-2.858816180378199E-003;
2.419833333333334E+009;1.861391365528107E-001;-4.496989771723747E-002;8.582205628044903E-004;-2.822159091010690E-003;
2.420000000000000E+009;1.846348941326141E-001;-4.584761336445808E-002;7.409187965095043E-004;-2.783717121928930E-003;
2.420166666666667E+009;1.830177009105682E-001;-4.693317785859108E-002;8.068329771049321E-004;-2.685155021026731E-003;
2.420333333333334E+009;1.814341247081757E-001;-4.814872145652771E-002;8.413101313635707E-004;-2.697359537705779E-003;
2.420500000000000E+009;1.797293573617935E-001;-4.935278370976448E-002;8.188978536054492E-004;-2.610469469800592E-003;
2.420666666666667E+009;1.780007779598236E-001;-5.040214210748673E-002;9.474504622630775E-004;-2.694303635507822E-003;
2.420833333333334E+009;1.765848249197006E-001;-5.191364884376526E-002;1.031353254802525E-003;-2.589837182313204E-003;
2.421000000000000E+009;1.750566512346268E-001;-5.355959758162499E-002;1.083475304767489E-003;-2.643750980496407E-003;
2.421166666666667E+009;1.736330687999725E-001;-5.514760687947273E-002;1.035708002746105E-003;-2.675063442438841E-003;
2.421333333333334E+009;1.719230264425278E-001;-5.665852874517441E-002;1.038499525748193E-003;-2.751152729615569E-003;
2.421500000000000E+009;1.705815941095352E-001;-5.874068662524223E-002;1.121773035265505E-003;-2.748411381617189E-003;
2.421666666666667E+009;1.694110631942749E-001;-6.044197082519531E-002;1.038197660818696E-003;-2.625272143632174E-003;
2.421833333333334E+009;1.682404726743698E-001;-6.237112730741501E-002;1.118071144446731E-003;-2.734616165980697E-003;
2.422000000000000E+009;1.670756042003632E-001;-6.412947922945023E-002;9.911479428410530E-004;-2.845548791810870E-003;
2.422166666666667E+009;1.663447767496109E-001;-6.637398898601532E-002;1.100718975067139E-003;-2.803019247949123E-003;
2.422333333333334E+009;1.654419451951981E-001;-6.831511855125427E-002;1.180657185614109E-003;-2.871964359655976E-003;
2.422500000000000E+009;1.646859943866730E-001;-7.024979591369629E-002;1.202032901346684E-003;-3.036692971363664E-003;
2.422666666666667E+009;1.639741361141205E-001;-7.240935415029526E-002;1.266433275304735E-003;-3.056697314605117E-003;
2.422833333333334E+009;1.634456813335419E-001;-7.426664978265762E-002;1.128274830989540E-003;-3.207317320629954E-003;
2.423000000000000E+009;1.631186902523041E-001;-7.651200145483017E-002;1.138814608566463E-003;-3.294689347967506E-003;
2.423166666666667E+009;1.626267284154892E-001;-7.849178463220596E-002;1.087416894733906E-003;-3.338907379657030E-003;
2.423333333333334E+009;1.624455749988556E-001;-8.067353069782257E-002;1.019496237859130E-003;-3.363290568813682E-003;
2.423500000000000E+009;1.624033451080322E-001;-8.234777301549912E-002;8.952987845987082E-004;-3.680926049128175E-003;
2.423666666666667E+009;1.624153554439545E-001;-8.417638391256332E-002;7.027327083051205E-004;-3.640129230916500E-003;
2.423833333333334E+009;1.624622941017151E-001;-8.598358184099197E-002;6.578541360795498E-004;-3.851846558973193E-003;
2.424000000000000E+009;1.626194119453430E-001;-8.783892542123795E-002;5.336283938959241E-004;-3.873709589242935E-003;
2.424166666666667E+009;1.627288311719894E-001;-8.940742164850235E-002;5.085275042802095E-004;-3.912224434316158E-003;
2.424333333333334E+009;1.628814488649368E-001;-9.088454395532608E-002;3.059599548578262E-004;-4.035355523228645E-003;
2.424500000000000E+009;1.633097380399704E-001;-9.263854473829269E-002;1.795080752344802E-004;-4.112234804779291E-003;
2.424666666666667E+009;1.635288596153259E-001;-9.410457313060761E-002;9.426985343452543E-005;-4.129330627620220E-003;
2.424833333333334E+009;1.642638444900513E-001;-9.537520259618759E-002;-8.445403364021331E-005;-4.109644796699286E-003;
2.425000000000000E+009;1.644698977470398E-001;-9.645080566406250E-002;-2.280605549458414E-004;-4.115526564419270E-003;
2.425166666666667E+009;1.648730635643005E-001;-9.747684001922607E-002;-3.621544456109405E-004;-4.115461837500334E-003;
2.425333333333334E+009;1.651950180530548E-001;-9.851825237274170E-002;-4.549266304820776E-004;-4.136571194976568E-003;
2.425500000000000E+009;1.657975316047669E-001;-9.939059615135193E-002;-7.728694472461939E-004;-4.127299878746271E-003;
2.425666666666667E+009;1.663115620613098E-001;-1.003241837024689E-001;-8.657537982799113E-004;-4.279423970729113E-003;
2.425833333333334E+009;1.664386242628098E-001;-1.010335981845856E-001;-8.622886962257326E-004;-4.158281255513430E-003;
2.426000000000000E+009;1.669130921363831E-001;-1.013697162270546E-001;-1.014861627481878E-003;-4.143193364143372E-003;
2.426166666666667E+009;1.672717332839966E-001;-1.019666641950607E-001;-1.043325522914529E-003;-4.283996298909187E-003;
2.426333333333334E+009;1.674951463937759E-001;-1.024905964732170E-001;-1.484480220824480E-003;-3.993021324276924E-003;
2.426500000000000E+009;1.679262071847916E-001;-1.027117967605591E-001;-1.428666757419705E-003;-4.051031079143286E-003;
2.426666666666667E+009;1.682039350271225E-001;-1.030388846993446E-001;-1.632435014471412E-003;-4.109693691134453E-003;
2.426833333333334E+009;1.683480292558670E-001;-1.033748388290405E-001;-1.837988966144621E-003;-4.020054824650288E-003;
2.427000000000000E+009;1.683907508850098E-001;-1.035606861114502E-001;-1.857035444118083E-003;-3.830473404377699E-003;
2.427166666666667E+009;1.684584915637970E-001;-1.034958511590958E-001;-1.963104121387005E-003;-3.868211293593049E-003;
2.427333333333334E+009;1.683720052242279E-001;-1.037948504090309E-001;-2.040720544755459E-003;-3.830136032775044E-003;
2.427500000000000E+009;1.680831164121628E-001;-1.039872989058495E-001;-2.146462677046657E-003;-3.721228102222085E-003;
2.427666666666667E+009;1.676698923110962E-001;-1.039872318506241E-001;-2.323063788935542E-003;-3.676549298688769E-003;
2.427833333333334E+009;1.673174053430557E-001;-1.040869057178497E-001;-2.322291955351830E-003;-3.501738887280226E-003;
