# Version 1.00
#
freq[Hz];re:Trc1_S11;im:Trc1_S11;re:Trc2_S21;im:Trc2_S21;
2.400000000000000E+009;1.687736362218857E-001;4.646943882107735E-002;-1.717602601274848E-003;2.549614524468780E-003;
2.400166666666667E+009;1.698323041200638E-001;4.557993263006210E-002;-1.686602132394910E-003;2.679879078641534E-003;
2.400333333333334E+009;1.705865710973740E-001;4.438325017690659E-002;-1.704897731542587E-003;2.581948647275567E-003;
2.400500000000000E+009;1.717379093170166E-001;4.340827092528343E-002;-1.739090075716376E-003;2.666262909770012E-003;
2.400666666666667E+009;1.724991947412491E-001;4.234388843178749E-002;-1.565254409797490E-003;2.678668126463890E-003;
2.400833333333334E+009;1.735880225896835E-001;4.157251119613648E-002;-1.550592132844031E-003;2.685330342501402E-003;
2.401000000000000E+009;1.741915196180344E-001;4.075635224580765E-002;-1.618710346519947E-003;2.806667005643249E-003;
2.401166666666667E+009;1.750935167074204E-001;3.995369374752045E-002;-1.641169073991478E-003;2.792203798890114E-003;
2.401333333333334E+009;1.757149398326874E-001;3.946793451905251E-002;-1.405092305503786E-003;2.828424563631415E-003;
2.401500000000000E+009;1.764623522758484E-001;3.870655223727226E-002;-1.351104350760579E-003;2.866133116185665E-003;
2.401666666666667E+009;1.771390885114670E-001;3.808629140257835E-002;-1.201261766254902E-003;2.882533473894000E-003;
2.401833333333334E+009;1.778632998466492E-001;3.750365227460861E-002;-1.198316342197359E-003;3.077655099332333E-003;
2.402000000000000E+009;1.779106259346008E-001;3.698635846376419E-002;-1.238026423379779E-003;3.154551610350609E-003;
2.402166666666667E+009;1.783506721258164E-001;3.621414303779602E-002;-9.970302926376462E-004;3.216101089492440E-003;
2.402333333333334E+009;1.788861453533173E-001;3.568498417735100E-002;-9.708044817671180E-004;3.126977244392037E-003;
2.402500000000000E+009;1.793871372938156E-001;3.506553918123245E-002;-8.395239128731191E-004;3.172809956595302E-003;
2.402666666666667E+009;1.795086860656738E-001;3.435695171356201E-002;-6.899951840750873E-004;3.139987355098128E-003;
2.402833333333334E+009;1.796711981296539E-001;3.374398127198219E-002;-6.148325628601015E-004;3.269283566623926E-003;
2.403000000000000E+009;1.795380860567093E-001;3.296688199043274E-002;-7.332693203352392E-004;3.355974098667502E-003;
2.403166666666667E+009;1.797258555889130E-001;3.217913955450058E-002;-3.929229278583080E-004;3.245182568207383E-003;
2.403333333333334E+009;1.795848608016968E-001;3.144799172878265E-002;-2.926107845269144E-004;3.411434125155211E-003;
2.403500000000000E+009;1.793874353170395E-001;3.046395815908909E-002;-3.441638255026192E-004;3.263185033574700E-003;
2.403666666666667E+009;1.791370809078217E-001;2.926111966371536E-002;-3.317748487461358E-004;3.351851832121611E-003;
2.403833333333334E+009;1.788180470466614E-001;2.817520685493946E-002;-1.593294000485912E-004;3.376610111445189E-003;
2.404000000000000E+009;1.784768402576447E-001;2.718694694340229E-002;-8.071213960647583E-005;3.494009608402848E-003;
2.404166666666667E+009;1.779121607542038E-001;2.584666572511196E-002;-8.445133425993845E-005;3.590500447899103E-003;
2.404333333333334E+009;1.775849461555481E-001;2.468512766063213E-002;6.614601443288848E-005;3.518418641760945E-003;
2.404500000000000E+009;1.769727021455765E-001;2.344754338264465E-002;9.170037083094940E-005;3.571443725377321E-003;
2.404666666666667E+009;1.763872802257538E-001;2.206170000135899E-002;2.397631615167484E-004;3.613080596551299E-003;
2.404833333333334E+009;1.760699599981308E-001;2.059631049633026E-002;2.189171937061474E-004;3.717521438375115E-003;
2.405000000000000E+009;1.754111647605896E-001;1.898025907576084E-002;5.210232920944691E-004;3.728239331394434E-003;
2.405166666666667E+009;1.750392168760300E-001;1.752166263759136E-002;8.141514845192432E-004;3.802208695560694E-003;
2.405333333333334E+009;1.746223419904709E-001;1.578867621719837E-002;7.886464009061456E-004;3.712552599608898E-003;
2.405500000000000E+009;1.742080152034760E-001;1.416292134672403E-002;9.788525057956576E-004;3.578439354896545E-003;
2.405666666666667E+009;1.736741811037064E-001;1.244573201984167E-002;1.109068514779210E-003;3.794123418629170E-003;
2.405833333333334E+009;1.733120977878571E-001;1.071484200656414E-002;1.243751961737871E-003;3.679246176034212E-003;
2.406000000000000E+009;1.731119453907013E-001;8.809966035187244E-003;1.423330395482481E-003;3.772709751501679E-003;
2.406166666666667E+009;1.726379245519638E-001;6.791220977902412E-003;1.582735218107700E-003;3.690568264573813E-003;
2.406333333333334E+009;1.726346313953400E-001;4.847039002925158E-003;1.689954660832882E-003;3.680604277178645E-003;
2.406500000000000E+009;1.723358333110809E-001;2.912359079346061E-003;1.953171566128731E-003;3.696420229971409E-003;
2.406666666666667E+009;1.721654683351517E-001;9.638037881813943E-004;2.111635869368911E-003;3.491273382678628E-003;
2.406833333333334E+009;1.722597330808640E-001;-1.174561446532607E-003;2.174730179831386E-003;3.462858032435179E-003;
2.407000000000000E+009;1.721961051225662E-001;-3.298828145489097E-003;2.460083458572626E-003;3.346206620335579E-003;
2.407166666666667E+009;1.724589318037033E-001;-5.177647341042757E-003;2.615330275148153E-003;3.482111729681492E-003;
2.407333333333334E+009;1.725566238164902E-001;-7.377277594059706E-003;2.770919119939208E-003;3.312351647764444E-003;
2.407500000000000E+009;1.727734506130219E-001;-9.460839442908764E-003;2.946627559140325E-003;3.243173006922007E-003;
2.407666666666667E+009;1.730886697769165E-001;-1.153948530554771E-002;3.233335912227631E-003;2.881403313949704E-003;
2.407833333333334E+009;1.734020859003067E-001;-1.366237644106150E-002;3.284896491095424E-003;2.759306924417615E-003;
2.408000000000000E+009;1.738369613885880E-001;-1.569521054625511E-002;3.387700067833066E-003;2.564986469224095E-003;
2.408166666666667E+009;1.741394400596619E-001;-1.754168234765530E-002;3.638953203335404E-003;2.471121028065682E-003;
2.408333333333334E+009;1.746979802846909E-001;-1.957040838897228E-002;3.668478224426508E-003;2.255162922665477E-003;
2.408500000000000E+009;1.751350015401840E-001;-2.143875695765019E-002;3.863975871354342E-003;2.063260879367590E-003;
2.408666666666667E+009;1.755013018846512E-001;-2.328418754041195E-002;3.781897248700261E-003;1.768857706338167E-003;
2.408833333333334E+009;1.758404374122620E-001;-2.491491846740246E-002;3.905918216332793E-003;1.492681098170579E-003;
2.409000000000000E+009;1.763073951005936E-001;-2.663120068609715E-002;3.887607483193278E-003;1.332842628471553E-003;
2.409166666666667E+009;1.768797039985657E-001;-2.814762108027935E-002;3.820284269750118E-003;1.164414454251528E-003;
2.409333333333334E+009;1.773824393749237E-001;-2.969061397016048E-002;3.838275326415896E-003;9.914248948916793E-004;
2.409500000000000E+009;1.778580546379089E-001;-3.103326074779034E-002;3.830712987110019E-003;8.186267805285752E-004;
2.409666666666667E+009;1.781847923994064E-001;-3.213209658861160E-002;3.697222098708153E-003;7.402102346532047E-004;
2.409833333333334E+009;1.786758303642273E-001;-3.321265801787376E-002;3.966816235333681E-003;7.009567343629897E-004;
2.410000000000000E+009;1.791764646768570E-001;-3.408611193299294E-002;3.733820980414748E-003;4.274139646440744E-004;
2.410166666666667E+009;1.797158569097519E-001;-3.504309430718422E-002;3.807942848652601E-003;3.322010452393442E-004;
2.410333333333334E+009;1.800928860902786E-001;-3.583742305636406E-002;3.643837058916688E-003;4.464666126295924E-004;
2.410500000000000E+009;1.806080192327499E-001;-3.653664141893387E-002;3.664302406832576E-003;1.673524966463447E-004;
2.410666666666667E+009;1.809437274932861E-001;-3.738310560584068E-002;3.726497991010547E-003;-1.268929099751404E-005;
2.410833333333334E+009;1.813723444938660E-001;-3.762853518128395E-002;3.725512186065316E-003;-1.211231574416161E-005;
2.411000000000000E+009;1.816744208335877E-001;-3.834467008709908E-002;3.560145152732730E-003;-8.366099064005539E-005;
2.411166666666667E+009;1.818834394216538E-001;-3.886873647570610E-002;3.667877754196525E-003;-1.910188293550164E-004;
2.411333333333334E+009;1.819652616977692E-001;-3.938158601522446E-002;3.691917518153787E-003;-4.164625715930015E-004;
2.411500000000000E+009;1.820788234472275E-001;-3.994708508253098E-002;3.559179371222854E-003;-5.638851434923708E-004;
2.411666666666667E+009;1.822772026062012E-001;-4.026204720139504E-002;3.623810829594731E-003;-7.180534303188324E-004;
2.411833333333334E+009;1.822357922792435E-001;-4.051293432712555E-002;3.519967896863818E-003;-8.082787389867008E-004;
2.412000000000000E+009;1.821214705705643E-001;-4.111605510115624E-002;3.398242639377713E-003;-9.906652849167585E-004;
2.412166666666667E+009;1.816507130861282E-001;-4.136580601334572E-002;3.298771101981401E-003;-1.111051184125245E-003;
2.412333333333334E+009;1.817106753587723E-001;-4.171122983098030E-002;3.459914354607463E-003;-1.038956688717008E-003;
2.412500000000000E+009;1.808919012546539E-001;-4.196824133396149E-002;3.332486143335700E-003;-1.226950436830521E-003;
2.412666666666667E+009;1.803075820207596E-001;-4.246937856078148E-002;3.189179813489318E-003;-1.279151299968362E-003;
2.412833333333334E+009;1.796692460775375E-001;-4.277409613132477E-002;3.165456466376782E-003;-1.452029566280544E-003;
2.413000000000000E+009;1.790113002061844E-001;-4.312131553888321E-002;3.100375412032008E-003;-1.616641995497048E-003;
2.413166666666667E+009;1.780307739973068E-001;-4.358980059623718E-002;3.089615376666188E-003;-1.649317331612110E-003;
2.413333333333334E+009;1.770999133586884E-001;-4.406981915235519E-002;2.838129177689552E-003;-1.797769917175174E-003;
2.413500000000000E+009;1.762058138847351E-001;-4.466167464852333E-002;2.722908742725849E-003;-1.967313233762980E-003;
2.413666666666667E+009;1.751274764537811E-001;-4.510467126965523E-002;2.568585565313697E-003;-1.987214898690581E-003;
2.413833333333334E+009;1.740025430917740E-001;-4.562553018331528E-002;2.569971838966012E-003;-2.066465560346842E-003;
2.414000000000000E+009;1.726693361997604E-001;-4.633411020040512E-002;2.497599693015218E-003;-2.044097986072302E-003;
2.414166666666667E+009;1.715033948421478E-001;-4.696753248572350E-002;2.251452999189496E-003;-2.272770740091801E-003;
2.414333333333334E+009;1.704785376787186E-001;-4.783147946000099E-002;2.204715739935637E-003;-2.399775432422757E-003;
2.414500000000000E+009;1.693870723247528E-001;-4.852009564638138E-002;2.096905373036861E-003;-2.324666362255812E-003;
2.414666666666667E+009;1.680529713630676E-001;-4.971775040030479E-002;2.070840913802385E-003;-2.378423232585192E-003;
2.414833333333334E+009;1.666848063468933E-001;-5.070232972502708E-002;1.856666058301926E-003;-2.374675823375583E-003;
2.415000000000000E+009;1.654656529426575E-001;-5.180086567997932E-002;1.773897674866021E-003;-2.386522479355335E-003;
2.415166666666667E+009;1.643430590629578E-001;-5.315299332141876E-002;1.714901532977819E-003;-2.366200322285295E-003;
2.415333333333334E+009;1.631635874509811E-001;-5.436918511986733E-002;1.547188963741064E-003;-2.407251857221127E-003;
2.415500000000000E+009;1.619664430618286E-001;-5.581500753760338E-002;1.443273620679975E-003;-2.260888926684856E-003;
2.415666666666667E+009;1.608082652091980E-001;-5.733415856957436E-002;1.298630493693054E-003;-2.246057614684105E-003;
2.415833333333334E+009;1.598342359066010E-001;-5.900497362017632E-002;1.429621013812721E-003;-2.343584317713976E-003;
2.416000000000000E+009;1.585400998592377E-001;-6.067339703440666E-002;1.252494985237718E-003;-2.228590194135904E-003;
2.416166666666667E+009;1.577197015285492E-001;-6.238410994410515E-002;1.220331527292728E-003;-2.190512605011463E-003;
2.416333333333334E+009;1.568557620048523E-001;-6.415919959545136E-002;1.056293840520084E-003;-2.222128678113222E-003;
2.416500000000000E+009;1.556954234838486E-001;-6.622090190649033E-002;9.312158799730241E-004;-2.222516573965550E-003;
2.416666666666667E+009;1.547731459140778E-001;-6.797627359628677E-002;9.587684762664139E-004;-2.281334949657321E-003;
2.416833333333334E+009;1.541175395250320E-001;-7.006159424781799E-002;9.006015607155860E-004;-2.085778396576643E-003;
2.417000000000000E+009;1.530979871749878E-001;-7.211979478597641E-002;8.555564563721418E-004;-2.036436228081584E-003;
2.417166666666667E+009;1.526136547327042E-001;-7.384267449378967E-002;9.905316401273012E-004;-2.195852808654308E-003;
2.417333333333334E+009;1.520552784204483E-001;-7.580688595771790E-002;9.408979094587266E-004;-2.153434325009584E-003;
2.417500000000000E+009;1.513221263885498E-001;-7.801992446184158E-002;8.199985022656620E-004;-2.260629553347826E-003;
2.417666666666667E+009;1.509534418582916E-001;-7.973394542932510E-002;8.415371412411332E-004;-2.394821494817734E-003;
2.417833333333334E+009;1.505858004093170E-001;-8.179242908954620E-002;9.714337647892535E-004;-2.223527524620295E-003;
2.418000000000000E+009;1.501299291849136E-001;-8.366097509860992E-002;8.598440908826888E-004;-2.300200518220663E-003;
2.418166666666667E+009;1.499052792787552E-001;-8.516693860292435E-002;8.743418147787452E-004;-2.265521325170994E-003;
2.418333333333334E+009;1.498489528894424E-001;-8.711590617895126E-002;5.742570501752198E-004;-2.343703294172883E-003;
2.418500000000000E+009;1.495607495307922E-001;-8.863294124603272E-002;6.925139459781349E-004;-2.529548713937402E-003;
2.418666666666667E+009;1.497089862823486E-001;-9.021299332380295E-002;5.416058702394366E-004;-2.584955887869000E-003;
2.418833333333334E+009;1.493451446294785E-001;-9.174098074436188E-002;3.485253546386957E-004;-2.657682169228792E-003;
2.419000000000000E+009;1.493438333272934E-001;-9.312511980533600E-002;1.351316896034405E-004;-2.730132546275854E-003;
2.419166666666667E+009;1.495646685361862E-001;-9.437768906354904E-002;-6.707497959723696E-005;-2.759024500846863E-003;
2.419333333333334E+009;1.495201140642166E-001;-9.531031548976898E-002;9.842916188063100E-005;-2.637585625052452E-003;
2.419500000000000E+009;1.497426331043243E-001;-9.647135436534882E-002;-2.828592550940812E-004;-2.658827928826213E-003;
2.419666666666667E+009;1.500389426946640E-001;-9.738191962242127E-002;-6.229290011106059E-005;-2.581496490165591E-003;
2.419833333333334E+009;1.501560807228088E-001;-9.801363199949265E-002;-4.674302181228995E-004;-2.514045685529709E-003;
2.420000000000000E+009;1.504009366035461E-001;-9.875936061143875E-002;-5.116558750160039E-004;-2.526602242141962E-003;
2.420166666666667E+009;1.506211757659912E-001;-9.935496747493744E-002;-7.869016844779253E-004;-2.419374650344253E-003;
2.420333333333334E+009;1.511165350675583E-001;-9.974581748247147E-002;-7.561966776847839E-004;-2.277008024975658E-003;
2.420500000000000E+009;1.513257771730423E-001;-9.994545578956604E-002;-6.127425585873425E-004;-2.195225562900305E-003;
2.420666666666667E+009;1.516379863023758E-001;-1.000739783048630E-001;-7.404274074360728E-004;-2.072855364531279E-003;
2.420833333333334E+009;1.519768983125687E-001;-1.003610789775848E-001;-7.547010900452733E-004;-2.092747949063778E-003;
2.421000000000000E+009;1.521670222282410E-001;-1.006134748458862E-001;-7.767610368318856E-004;-1.852388842962682E-003;
2.421166666666667E+009;1.525270789861679E-001;-1.002881377935410E-001;-6.557630840688944E-004;-1.856691786088049E-003;
2.421333333333334E+009;1.527755856513977E-001;-1.002672985196114E-001;-7.269218913279474E-004;-1.784798456355929E-003;
2.421500000000000E+009;1.525276154279709E-001;-1.000406146049500E-001;-8.133120718412101E-004;-1.869225408881903E-003;
2.421666666666667E+009;1.528014987707138E-001;-9.984307736158371E-002;-8.495504152961075E-004;-1.746290945447981E-003;
2.421833333333334E+009;1.527038961648941E-001;-9.963426738977432E-002;-7.618661620654166E-004;-1.730278134346008E-003;
2.422000000000000E+009;1.526299118995667E-001;-9.931783378124237E-002;-9.959175949916244E-004;-1.762723433785141E-003;
2.422166666666667E+009;1.523144990205765E-001;-9.919297695159912E-002;-8.090214687399566E-004;-1.809192122891545E-003;
2.422333333333334E+009;1.519679427146912E-001;-9.876155108213425E-002;-1.025840407237411E-003;-1.607887912541628E-003;
2.422500000000000E+009;1.515966057777405E-001;-9.827686846256256E-002;-9.638545452617109E-004;-1.917411922477186E-003;
2.422666666666667E+009;1.509761661291122E-001;-9.800442308187485E-002;-1.004388206638396E-003;-1.814683433622122E-003;
2.422833333333334E+009;1.502482444047928E-001;-9.772316366434097E-002;-8.857418433763087E-004;-1.866622129455209E-003;
2.423000000000000E+009;1.495529860258102E-001;-9.723401814699173E-002;-8.660714956931770E-004;-1.701813424006105E-003;
2.423166666666667E+009;1.486988067626953E-001;-9.706492722034454E-002;-9.161369525827467E-004;-1.849692547693849E-003;
2.423333333333334E+009;1.478292196989059E-001;-9.637317806482315E-002;-1.038126065395773E-003;-1.865163911134005E-003;
2.423500000000000E+009;1.466935276985169E-001;-9.621960669755936E-002;-1.093847909942269E-003;-1.700850552879274E-003;
2.423666666666667E+009;1.454882323741913E-001;-9.581348299980164E-002;-1.176463672891259E-003;-1.759318052791059E-003;
2.423833333333334E+009;1.443609893321991E-001;-9.561311453580856E-002;-1.092988299205899E-003;-1.884928322397173E-003;
2.424000000000000E+009;1.428610831499100E-001;-9.529490023851395E-002;-1.227100030519068E-003;-1.741688232868910E-003;
2.424166666666667E+009;1.413941830396652E-001;-9.515562653541565E-002;-1.273190951906145E-003;-1.714013167656958E-003;
2.424333333333334E+009;1.402212977409363E-001;-9.491410851478577E-002;-1.328212674707174E-003;-1.792233204469085E-003;
2.424500000000000E+009;1.387403011322022E-001;-9.495411068201065E-002;-1.372746657580137E-003;-1.786273787729442E-003;
2.424666666666667E+009;1.374053955078125E-001;-9.487928450107575E-002;-1.418747822754085E-003;-1.735472120344639E-003;
2.424833333333334E+009;1.357144862413406E-001;-9.519585967063904E-002;-1.512589165940881E-003;-1.689998316578567E-003;
2.425000000000000E+009;1.342186033725739E-001;-9.554462879896164E-002;-1.542510581202805E-003;-1.703425776213408E-003;
2.425166666666667E+009;1.325691491365433E-001;-9.599409252405167E-002;-1.637197216041386E-003;-1.723838504403830E-003;
2.425333333333334E+009;1.312228292226791E-001;-9.631117433309555E-002;-1.865972531959415E-003;-1.713130157440901E-003;
2.425500000000000E+009;1.296787261962891E-001;-9.699868410825729E-002;-1.813621027395129E-003;-1.591642387211323E-003;
2.425666666666667E+009;1.281518489122391E-001;-9.777214378118515E-002;-1.968695782124996E-003;-1.354456180706620E-003;
2.425833333333334E+009;1.266546249389648E-001;-9.868118911981583E-002;-2.143265213817358E-003;-1.549417735077441E-003;
2.426000000000000E+009;1.252656430006027E-001;-9.978047758340836E-002;-2.195610897615552E-003;-1.182664302177727E-003;
2.426166666666667E+009;1.240288317203522E-001;-1.009442210197449E-001;-2.223402960225940E-003;-1.036951434798539E-003;
2.426333333333334E+009;1.225367188453674E-001;-1.019788831472397E-001;-2.103104721754789E-003;-1.116148894652724E-003;
2.426500000000000E+009;1.213460937142372E-001;-1.032817214727402E-001;-2.359917154535651E-003;-8.612798410467804E-004;
2.426666666666667E+009;1.202926486730576E-001;-1.046018004417419E-001;-2.412258414551616E-003;-8.102064020931721E-004;
2.426833333333334E+009;1.190775707364082E-001;-1.062541455030441E-001;-2.426467835903168E-003;-6.336166989058256E-004;
2.427000000000000E+009;1.179295033216476E-001;-1.079165935516357E-001;-2.234828658401966E-003;-3.984687500633299E-004;
2.427166666666667E+009;1.169406473636627E-001;-1.094599142670631E-001;-2.259059809148312E-003;-3.820230776909739E-004;
2.427333333333334E+009;1.160095483064652E-001;-1.111023724079132E-001;-2.175957895815373E-003;-3.051852399948984E-004;
2.427500000000000E+009;1.154176667332649E-001;-1.128236725926399E-001;-2.228544326499105E-003;6.941968877072213E-006;
2.427666666666667E+009;1.145007088780403E-001;-1.146078407764435E-001;-2.003714209422469E-003;-4.749108848045580E-005;
