# Version 1.00
#
freq[Hz];re:Trc1_S11;im:Trc1_S11;re:Trc2_S21;im:Trc2_S21;
2.400000000000000E+009;1.565036475658417E-001;1.114134490489960E-001;1.103710033930838E-003;3.703600261360407E-003;
2.400166666666667E+009;1.558048427104950E-001;1.093712225556374E-001;1.081014866940677E-003;3.737438470125198E-003;
2.400333333333334E+009;1.558406054973602E-001;1.070477366447449E-001;1.192301278933883E-003;3.974486608058214E-003;
2.400500000000000E+009;1.552072614431381E-001;1.043546795845032E-001;1.352414721623063E-003;4.040629602968693E-003;
2.400666666666667E+009;1.550946533679962E-001;1.017210260033608E-001;1.701908418908715E-003;4.041182342916727E-003;
2.400833333333334E+009;1.549536883831024E-001;9.879757463932037E-002;1.879634219221771E-003;4.190605133771896E-003;
2.401000000000000E+009;1.547670513391495E-001;9.600194543600082E-002;2.083018887788057E-003;4.179732408374548E-003;
2.401166666666667E+009;1.546895951032639E-001;9.315448254346848E-002;2.336613833904266E-003;3.979444503784180E-003;
2.401333333333334E+009;1.547989100217819E-001;9.012719988822937E-002;2.494760788977146E-003;4.168098792433739E-003;
2.401500000000000E+009;1.549236774444580E-001;8.715593814849854E-002;2.745347330346704E-003;3.953971900045872E-003;
2.401666666666667E+009;1.549678742885590E-001;8.414679765701294E-002;2.927073277533054E-003;3.783565713092685E-003;
2.401833333333334E+009;1.552473902702332E-001;8.132401108741760E-002;3.213338786736131E-003;3.774051088839769E-003;
2.402000000000000E+009;1.560410708189011E-001;7.839591056108475E-002;3.325254423543811E-003;3.593642264604569E-003;
2.402166666666667E+009;1.566306352615356E-001;7.551413774490356E-002;3.484860993921757E-003;3.440154250711203E-003;
2.402333333333334E+009;1.574296206235886E-001;7.254085689783096E-002;3.704818198457360E-003;3.249266883358359E-003;
2.402500000000000E+009;1.583766043186188E-001;6.981660425662994E-002;3.828181186690927E-003;3.152956254780293E-003;
2.402666666666667E+009;1.593375504016876E-001;6.721042096614838E-002;4.018503706902266E-003;3.112406935542822E-003;
2.402833333333334E+009;1.606649607419968E-001;6.443399190902710E-002;4.011658485978842E-003;2.903925953432918E-003;
2.403000000000000E+009;1.621034741401672E-001;6.189568713307381E-002;4.390313755720854E-003;2.749528735876083E-003;
2.403166666666667E+009;1.637101620435715E-001;5.932992324233055E-002;4.378057084977627E-003;2.648766851052642E-003;
2.403333333333334E+009;1.652481406927109E-001;5.682561546564102E-002;4.461024422198534E-003;2.460818272083998E-003;
2.403500000000000E+009;1.670541763305664E-001;5.456335470080376E-002;4.638262093067169E-003;2.255270257592201E-003;
2.403666666666667E+009;1.688695847988129E-001;5.241796001791954E-002;4.761577118188143E-003;2.246546093374491E-003;
2.403833333333334E+009;1.706421077251434E-001;5.017264187335968E-002;4.797763656824827E-003;1.910273567773402E-003;
2.404000000000000E+009;1.721189767122269E-001;4.806085675954819E-002;4.916063975542784E-003;1.669487333856523E-003;
2.404166666666667E+009;1.740422248840332E-001;4.639495164155960E-002;4.962101578712463E-003;1.617656205780804E-003;
2.404333333333334E+009;1.758205443620682E-001;4.463378340005875E-002;5.081391427665949E-003;1.573987887240946E-003;
2.404500000000000E+009;1.777893304824829E-001;4.315754026174545E-002;5.012022331357002E-003;1.330143306404352E-003;
2.404666666666667E+009;1.794990152120590E-001;4.186685383319855E-002;5.186925642192364E-003;1.228186418302357E-003;
2.404833333333334E+009;1.812437325716019E-001;4.032520577311516E-002;5.396337248384953E-003;7.983176619745791E-004;
2.405000000000000E+009;1.829302906990051E-001;3.976783528923988E-002;5.381526425480843E-003;5.512693896889687E-004;
2.405166666666667E+009;1.846227645874023E-001;3.870817646384239E-002;5.524506792426109E-003;4.266322939656675E-004;
2.405333333333334E+009;1.861498802900314E-001;3.833267465233803E-002;5.499623715877533E-003;1.478166814194992E-004;
2.405500000000000E+009;1.880426704883575E-001;3.762914612889290E-002;5.550017580389977E-003;5.069799954071641E-005;
2.405666666666667E+009;1.893598586320877E-001;3.720476105809212E-002;5.538911093026400E-003;-1.698076812317595E-004;
2.405833333333334E+009;1.907884478569031E-001;3.690058737993240E-002;5.747312214225531E-003;-4.981727688573301E-004;
2.406000000000000E+009;1.920788139104843E-001;3.675573691725731E-002;5.497676786035299E-003;-6.614377489313483E-004;
2.406166666666667E+009;1.933917403221130E-001;3.663069382309914E-002;5.632553249597549E-003;-8.620496373623610E-004;
2.406333333333334E+009;1.944624632596970E-001;3.674504533410072E-002;5.609609652310610E-003;-1.237950753420591E-003;
2.406500000000000E+009;1.955548077821732E-001;3.698794543743134E-002;5.311944521963596E-003;-1.650746329687536E-003;
2.406666666666667E+009;1.962634027004242E-001;3.711856529116631E-002;5.372503306716681E-003;-1.671880832873285E-003;
2.406833333333334E+009;1.970503926277161E-001;3.728747740387917E-002;5.213655997067690E-003;-1.861310680396855E-003;
2.407000000000000E+009;1.976004987955093E-001;3.768997266888619E-002;5.168523173779249E-003;-2.134775975719094E-003;
2.407166666666667E+009;1.982199251651764E-001;3.772633150219917E-002;4.968472290784121E-003;-2.287879353389144E-003;
2.407333333333334E+009;1.983063071966171E-001;3.807568177580833E-002;4.924747627228499E-003;-2.519591944292188E-003;
2.407500000000000E+009;1.983762681484222E-001;3.852270916104317E-002;4.593542777001858E-003;-2.647458575665951E-003;
2.407666666666667E+009;1.985832452774048E-001;3.868287429213524E-002;4.322633612900972E-003;-2.735404297709465E-003;
2.407833333333334E+009;1.983392685651779E-001;3.884863108396530E-002;4.311131779104471E-003;-2.829506061971188E-003;
2.408000000000000E+009;1.983568668365479E-001;3.900029510259628E-002;4.174908623099327E-003;-3.036961890757084E-003;
2.408166666666667E+009;1.977270692586899E-001;3.903096169233322E-002;4.145204555243254E-003;-3.087352262809873E-003;
2.408333333333334E+009;1.972479075193405E-001;3.885973244905472E-002;4.084922838956118E-003;-3.313619177788496E-003;
2.408500000000000E+009;1.965186595916748E-001;3.898447751998901E-002;3.700341330841184E-003;-3.256422234699130E-003;
2.408666666666667E+009;1.960359364748001E-001;3.863939270377159E-002;3.771333023905754E-003;-3.512087976559997E-003;
2.408833333333334E+009;1.952739059925079E-001;3.833392262458801E-002;3.513626288622618E-003;-3.558445489034057E-003;
2.409000000000000E+009;1.943273544311523E-001;3.773009777069092E-002;3.243819111958146E-003;-3.734438680112362E-003;
2.409166666666667E+009;1.931887120008469E-001;3.705298155546188E-002;3.106520511209965E-003;-3.550892695784569E-003;
2.409333333333334E+009;1.921753436326981E-001;3.635880351066589E-002;2.889591734856367E-003;-3.820995800197125E-003;
2.409500000000000E+009;1.909509152173996E-001;3.538630902767181E-002;2.771405503153801E-003;-3.820472396910191E-003;
2.409666666666667E+009;1.898301392793655E-001;3.424768149852753E-002;2.656948054209352E-003;-3.963044844567776E-003;
2.409833333333334E+009;1.884930729866028E-001;3.297993913292885E-002;2.449727850034833E-003;-3.713483922183514E-003;
2.410000000000000E+009;1.873168200254440E-001;3.160686790943146E-002;2.373783849179745E-003;-3.834308125078678E-003;
2.410166666666667E+009;1.861965507268906E-001;2.995040267705917E-002;2.089928369969130E-003;-3.910478670150042E-003;
2.410333333333334E+009;1.849749088287354E-001;2.840311639010906E-002;1.988255884498358E-003;-3.948475234210491E-003;
2.410500000000000E+009;1.837491393089294E-001;2.667686715722084E-002;1.928239478729665E-003;-3.908244427293539E-003;
2.410666666666667E+009;1.825859546661377E-001;2.460386045277119E-002;1.753474236465991E-003;-3.771816380321980E-003;
2.410833333333334E+009;1.815834492444992E-001;2.252920344471932E-002;1.584565849043429E-003;-3.870081156492233E-003;
2.411000000000000E+009;1.806807368993759E-001;2.042378112673760E-002;1.481824205256999E-003;-3.830064320936799E-003;
2.411166666666667E+009;1.797076165676117E-001;1.828172057867050E-002;1.465466921217740E-003;-3.869124688208103E-003;
2.411333333333334E+009;1.789079904556274E-001;1.559176482260227E-002;1.444932422600687E-003;-3.821594174951315E-003;
2.411500000000000E+009;1.782563924789429E-001;1.328999642282724E-002;1.299147261306644E-003;-3.934768494218588E-003;
2.411666666666667E+009;1.779036670923233E-001;1.096843741834164E-002;1.273575355298817E-003;-3.850183915346861E-003;
2.411833333333334E+009;1.774660944938660E-001;8.555277250707150E-003;1.138716237619519E-003;-3.718088148161769E-003;
2.412000000000000E+009;1.772294342517853E-001;5.666705779731274E-003;1.145859248936176E-003;-3.654058789834380E-003;
2.412166666666667E+009;1.772434860467911E-001;3.435155609622598E-003;1.099096261896193E-003;-3.610130865126848E-003;
2.412333333333334E+009;1.772727668285370E-001;7.616639486514032E-004;9.892873931676149E-004;-3.622992662712932E-003;
2.412500000000000E+009;1.774215251207352E-001;-1.872539753094316E-003;9.308563312515616E-004;-3.590664826333523E-003;
2.412666666666667E+009;1.777749657630920E-001;-4.430450964719057E-003;8.531392668373883E-004;-3.502727951854467E-003;
2.412833333333334E+009;1.784038543701172E-001;-7.240295410156250E-003;8.736822055652738E-004;-3.617001231759787E-003;
2.413000000000000E+009;1.791271120309830E-001;-9.728643111884594E-003;8.374116732738912E-004;-3.613398410379887E-003;
2.413166666666667E+009;1.797909587621689E-001;-1.221954356878996E-002;7.123638642951846E-004;-3.639625152572990E-003;
2.413333333333334E+009;1.807435154914856E-001;-1.469316519796848E-002;8.275752188637853E-004;-3.764045191928744E-003;
2.413500000000000E+009;1.816079765558243E-001;-1.735333539545536E-002;7.219615508802235E-004;-3.908944781869650E-003;
2.413666666666667E+009;1.828233748674393E-001;-1.969770714640617E-002;6.640687934122980E-004;-3.753827186301351E-003;
2.413833333333334E+009;1.839363873004913E-001;-2.188623882830143E-002;7.158777443692088E-004;-3.929089754819870E-003;
2.414000000000000E+009;1.849893629550934E-001;-2.410468272864819E-002;3.785968874581158E-004;-4.189611878246069E-003;
2.414166666666667E+009;1.865527182817459E-001;-2.617619186639786E-002;3.517938312143087E-004;-4.058321937918663E-003;
2.414333333333334E+009;1.876820921897888E-001;-2.830193191766739E-002;1.249628403456882E-004;-4.009105730801821E-003;
2.414500000000000E+009;1.891171485185623E-001;-3.013630956411362E-002;1.101819361792877E-004;-4.053533542901278E-003;
2.414666666666667E+009;1.904632151126862E-001;-3.172965347766876E-002;5.517845420399681E-005;-4.281808622181416E-003;
2.414833333333334E+009;1.917530894279480E-001;-3.334721550345421E-002;-1.213317500514677E-005;-4.243069328367710E-003;
2.415000000000000E+009;1.930658072233200E-001;-3.490160405635834E-002;-2.353753370698541E-004;-4.271995276212692E-003;
2.415166666666667E+009;1.946113556623459E-001;-3.609044477343559E-002;-3.126041265204549E-004;-4.386791959404945E-003;
2.415333333333334E+009;1.960236728191376E-001;-3.726206719875336E-002;-2.402161626378074E-004;-4.373472649604082E-003;
2.415500000000000E+009;1.974041908979416E-001;-3.805878013372421E-002;-4.730526125058532E-004;-4.422566853463650E-003;
2.415666666666667E+009;1.986241489648819E-001;-3.905450925230980E-002;-5.216769641265273E-004;-4.384820349514484E-003;
2.415833333333334E+009;1.999387443065643E-001;-3.984829783439636E-002;-8.774456218816340E-004;-4.531240556389093E-003;
2.416000000000000E+009;2.008011490106583E-001;-4.048391431570053E-002;-9.070051601156592E-004;-4.626617766916752E-003;
2.416166666666667E+009;2.018595337867737E-001;-4.105102643370628E-002;-1.074282219633460E-003;-4.690818488597870E-003;
2.416333333333334E+009;2.027903646230698E-001;-4.140762239694595E-002;-1.253732130862773E-003;-4.739338066428900E-003;
2.416500000000000E+009;2.035488188266754E-001;-4.156076908111572E-002;-1.407126663252711E-003;-4.834724590182304E-003;
2.416666666666667E+009;2.041708379983902E-001;-4.208559542894363E-002;-1.763546839356422E-003;-4.669126588851214E-003;
2.416833333333334E+009;2.045942991971970E-001;-4.199008643627167E-002;-1.817841199226677E-003;-4.848351702094078E-003;
2.417000000000000E+009;2.050038427114487E-001;-4.208035022020340E-002;-2.055034739896655E-003;-4.683637060225010E-003;
2.417166666666667E+009;2.050398588180542E-001;-4.191765189170837E-002;-2.312713535502553E-003;-4.610222764313221E-003;
2.417333333333334E+009;2.050689905881882E-001;-4.169785603880882E-002;-2.482861746102572E-003;-4.640720319002867E-003;
2.417500000000000E+009;2.050074040889740E-001;-4.149005189538002E-002;-2.823970746248961E-003;-4.268622491508722E-003;
2.417666666666667E+009;2.046863883733749E-001;-4.114849492907524E-002;-2.942633582279086E-003;-4.361358936876059E-003;
2.417833333333334E+009;2.045222967863083E-001;-4.075832664966583E-002;-3.069527447223663E-003;-4.176506772637367E-003;
2.418000000000000E+009;2.039334475994110E-001;-4.028700292110443E-002;-3.263977589085698E-003;-4.090559203177691E-003;
2.418166666666667E+009;2.033832073211670E-001;-4.006799310445786E-002;-3.273122012615204E-003;-3.911227919161320E-003;
2.418333333333334E+009;2.025057971477509E-001;-3.986725583672524E-002;-3.472276963293552E-003;-3.860896918922663E-003;
2.418500000000000E+009;2.016869187355042E-001;-3.956222534179688E-002;-3.591654356569052E-003;-3.752755234017968E-003;
2.418666666666667E+009;2.009920775890350E-001;-3.931101784110069E-002;-3.674539038911462E-003;-3.504775231704116E-003;
2.418833333333334E+009;1.997845619916916E-001;-3.921831399202347E-002;-3.701283596456051E-003;-3.573018359020352E-003;
2.419000000000000E+009;1.984787434339523E-001;-3.920851647853851E-002;-3.909813705831766E-003;-3.387041855603457E-003;
2.419166666666667E+009;1.972054243087769E-001;-3.918066248297691E-002;-3.982156980782747E-003;-3.314291825518012E-003;
2.419333333333334E+009;1.957810819149017E-001;-3.945834189653397E-002;-4.086303524672985E-003;-3.250101581215859E-003;
2.419500000000000E+009;1.943668127059937E-001;-3.956801816821098E-002;-4.192677792161703E-003;-3.236340824514628E-003;
2.419666666666667E+009;1.927204579114914E-001;-4.021197929978371E-002;-4.307657945901156E-003;-2.923267195001245E-003;
2.419833333333334E+009;1.910679787397385E-001;-4.069781675934792E-002;-4.426836501806974E-003;-2.929644193500280E-003;
2.420000000000000E+009;1.893187612295151E-001;-4.125895351171494E-002;-4.594421479851008E-003;-2.764939330518246E-003;
2.420166666666667E+009;1.875749379396439E-001;-4.213429242372513E-002;-4.681976046413183E-003;-2.640635007992387E-003;
2.420333333333334E+009;1.857570558786392E-001;-4.326281324028969E-002;-4.943442065268755E-003;-2.358728321269155E-003;
2.420500000000000E+009;1.840484440326691E-001;-4.435887187719345E-002;-5.089903250336647E-003;-2.305319765582681E-003;
2.420666666666667E+009;1.821947246789932E-001;-4.524483904242516E-002;-5.326083861291409E-003;-2.227190881967545E-003;
2.420833333333334E+009;1.803181916475296E-001;-4.683181643486023E-002;-5.302348174154759E-003;-2.047972055152059E-003;
2.421000000000000E+009;1.786081194877625E-001;-4.842027649283409E-002;-5.467795766890049E-003;-1.884570694528520E-003;
2.421166666666667E+009;1.770834922790527E-001;-4.991831257939339E-002;-5.656995344907045E-003;-1.554341986775398E-003;
2.421333333333334E+009;1.751620471477509E-001;-5.146444216370583E-002;-5.572293885052204E-003;-1.287378254346550E-003;
2.421500000000000E+009;1.737496554851532E-001;-5.339046940207481E-002;-5.590334534645081E-003;-1.068034674972296E-003;
2.421666666666667E+009;1.721877157688141E-001;-5.526122450828552E-002;-5.795970093458891E-003;-8.082917775027454E-004;
2.421833333333334E+009;1.709452420473099E-001;-5.719036981463432E-002;-5.834432318806648E-003;-3.494195698294789E-004;
2.422000000000000E+009;1.696388870477676E-001;-5.914653837680817E-002;-5.752656608819962E-003;-2.347730915062130E-004;
2.422166666666667E+009;1.685158610343933E-001;-6.139797717332840E-002;-5.724688060581684E-003;-9.824070002650842E-005;
2.422333333333334E+009;1.673558652400971E-001;-6.364324688911438E-002;-5.751009099185467E-003;3.290072781965137E-004;
2.422500000000000E+009;1.663981527090073E-001;-6.572552770376205E-002;-5.608125589787960E-003;5.020729731768370E-004;
2.422666666666667E+009;1.655300557613373E-001;-6.791789829730988E-002;-5.568486172705889E-003;7.549191941507161E-004;
2.422833333333334E+009;1.648676395416260E-001;-7.008206099271774E-002;-5.562372505664825E-003;1.013356028124690E-003;
2.423000000000000E+009;1.643012017011643E-001;-7.250696420669556E-002;-5.291311535984278E-003;1.211224356666207E-003;
2.423166666666667E+009;1.638127416372299E-001;-7.470697164535523E-002;-5.258382763713598E-003;1.491031027399004E-003;
2.423333333333334E+009;1.634396612644196E-001;-7.691909372806549E-002;-4.968914669007063E-003;1.735686440952122E-003;
2.423500000000000E+009;1.633547842502594E-001;-7.892210781574249E-002;-5.035298876464367E-003;1.690726261585951E-003;
2.423666666666667E+009;1.634225994348526E-001;-8.100270479917526E-002;-4.642973653972149E-003;1.968376804143190E-003;
2.423833333333334E+009;1.632203459739685E-001;-8.321285247802734E-002;-4.727238789200783E-003;2.080038888379931E-003;
2.424000000000000E+009;1.632077991962433E-001;-8.517993986606598E-002;-4.543194547295570E-003;2.118705073371530E-003;
2.424166666666667E+009;1.634084135293961E-001;-8.706686645746231E-002;-4.236637149006128E-003;2.306243637576699E-003;
2.424333333333334E+009;1.637229472398758E-001;-8.882442116737366E-002;-4.305276554077864E-003;2.342920517548919E-003;
2.424500000000000E+009;1.642130762338638E-001;-9.082375466823578E-002;-4.141004290431738E-003;2.568075433373451E-003;
2.424666666666667E+009;1.643909513950348E-001;-9.231068938970566E-002;-4.032392520457506E-003;2.595575992017984E-003;
2.424833333333334E+009;1.650248020887375E-001;-9.394364804029465E-002;-3.965002950280905E-003;2.749220933765173E-003;
2.425000000000000E+009;1.655485183000565E-001;-9.531769901514053E-002;-3.742429660633206E-003;2.739036222919822E-003;
2.425166666666667E+009;1.659282594919205E-001;-9.657209366559982E-002;-3.656273474916816E-003;2.873382996767759E-003;
2.425333333333334E+009;1.664738953113556E-001;-9.786903858184815E-002;-3.499086946249008E-003;2.767840400338173E-003;
2.425500000000000E+009;1.671611517667770E-001;-9.898862242698669E-002;-3.516714554280043E-003;2.934075193479657E-003;
2.425666666666667E+009;1.677237898111343E-001;-9.978538006544113E-002;-3.197868121787906E-003;2.981445519253612E-003;
2.425833333333334E+009;1.683170348405838E-001;-1.008080989122391E-001;-3.234989009797573E-003;2.994325011968613E-003;
2.426000000000000E+009;1.689839512109757E-001;-1.013873741030693E-001;-3.063818905502558E-003;3.068759571760893E-003;
2.426166666666667E+009;1.695505678653717E-001;-1.019655987620354E-001;-2.909387461841106E-003;3.062597708776593E-003;
2.426333333333334E+009;1.698736101388931E-001;-1.026499420404434E-001;-2.857570769265294E-003;3.155432408675551E-003;
2.426500000000000E+009;1.705458164215088E-001;-1.029200702905655E-001;-2.885568421334028E-003;3.173394128680229E-003;
2.426666666666667E+009;1.709771752357483E-001;-1.033050864934921E-001;-2.762887161225081E-003;3.351366380229592E-003;
2.426833333333334E+009;1.715461909770966E-001;-1.034705266356468E-001;-2.712064422667027E-003;3.254041541367769E-003;
2.427000000000000E+009;1.717038154602051E-001;-1.038151383399963E-001;-2.495371270924807E-003;3.344049211591482E-003;
2.427166666666667E+009;1.720109879970551E-001;-1.038759723305702E-001;-2.433475805446506E-003;3.503087442368269E-003;
2.427333333333334E+009;1.722136288881302E-001;-1.040293276309967E-001;-2.319463295862079E-003;3.610420040786266E-003;
2.427500000000000E+009;1.721346229314804E-001;-1.040823906660080E-001;-2.222222043201327E-003;3.532656468451023E-003;
2.427666666666667E+009;1.721241772174835E-001;-1.039377525448799E-001;-2.129466040059924E-003;3.718800144270062E-003;
