# Version 1.00
#
freq[Hz];re:Trc1_S11;im:Trc1_S11;re:Trc2_S21;im:Trc2_S21;
2.400000000000000E+009;1.563891321420670E-001;1.114921867847443E-001;9.747816366143525E-004;3.732454497367144E-003;
2.400166666666667E+009;1.558867543935776E-001;1.092412546277046E-001;1.259902142919600E-003;3.879843046888709E-003;
2.400333333333334E+009;1.556217968463898E-001;1.069434583187103E-001;1.270400476641953E-003;3.898130264133215E-003;
2.400500000000000E+009;1.553264260292053E-001;1.044244393706322E-001;1.496191020123661E-003;4.029534757137299E-003;
2.400666666666667E+009;1.550246626138687E-001;1.018655076622963E-001;1.770690316334367E-003;4.107185639441013E-003;
2.400833333333334E+009;1.547212898731232E-001;9.901051223278046E-002;1.881703617982566E-003;4.152526613324881E-003;
2.401000000000000E+009;1.548723578453064E-001;9.610995650291443E-002;2.195517066866159E-003;4.157104063779116E-003;
2.401166666666667E+009;1.546873897314072E-001;9.326256811618805E-002;2.288163872435689E-003;4.075349308550358E-003;
2.401333333333334E+009;1.546224355697632E-001;9.033791720867157E-002;2.649531001225114E-003;3.994639497250319E-003;
2.401500000000000E+009;1.549528092145920E-001;8.725131303071976E-002;2.760301344096661E-003;3.896612208336592E-003;
2.401666666666667E+009;1.550868749618530E-001;8.444254100322723E-002;3.052499610930681E-003;3.718950087204576E-003;
2.401833333333334E+009;1.554120481014252E-001;8.121739327907562E-002;3.215766279026866E-003;3.589517436921597E-003;
2.402000000000000E+009;1.560196876525879E-001;7.837217301130295E-002;3.361530601978302E-003;3.593959147110581E-003;
2.402166666666667E+009;1.565334051847458E-001;7.559589296579361E-002;3.608688246458769E-003;3.579192329198122E-003;
2.402333333333334E+009;1.574501693248749E-001;7.254072278738022E-002;3.665098920464516E-003;3.347783815115690E-003;
2.402500000000000E+009;1.584017127752304E-001;6.980209052562714E-002;3.740000305697322E-003;3.210583701729775E-003;
2.402666666666667E+009;1.595915555953980E-001;6.729292869567871E-002;4.031950142234564E-003;3.329755039885640E-003;
2.402833333333334E+009;1.608494371175766E-001;6.442914158105850E-002;4.208709578961134E-003;3.138816915452480E-003;
2.403000000000000E+009;1.621310710906982E-001;6.188152357935906E-002;4.248885903507471E-003;2.870121737942100E-003;
2.403166666666667E+009;1.639650017023087E-001;5.953167378902435E-002;4.260871559381485E-003;2.579820575192571E-003;
2.403333333333334E+009;1.653099060058594E-001;5.693155899643898E-002;4.423532634973526E-003;2.498681657016277E-003;
2.403500000000000E+009;1.671600490808487E-001;5.446049198508263E-002;4.505419172346592E-003;2.338517922908068E-003;
2.403666666666667E+009;1.688814759254456E-001;5.235512554645538E-002;4.694086033850908E-003;2.167682629078627E-003;
2.403833333333334E+009;1.707609742879868E-001;5.028412491083145E-002;4.744551144540310E-003;2.090335823595524E-003;
2.404000000000000E+009;1.721848398447037E-001;4.808824136853218E-002;4.721967503428459E-003;1.915321103297174E-003;
2.404166666666667E+009;1.743198335170746E-001;4.635519534349442E-002;4.742380231618881E-003;1.787896151654422E-003;
2.404333333333334E+009;1.759980618953705E-001;4.458699002861977E-002;5.045169498771429E-003;1.610647072084248E-003;
2.404500000000000E+009;1.778329163789749E-001;4.295575246214867E-002;4.950849805027247E-003;1.357350265607238E-003;
2.404666666666667E+009;1.797198802232742E-001;4.163717478513718E-002;5.144148599356413E-003;1.214312971569598E-003;
2.404833333333334E+009;1.815918087959290E-001;4.039768502116203E-002;5.099488887935877E-003;1.107734395191073E-003;
2.405000000000000E+009;1.831197291612625E-001;3.966248780488968E-002;5.239294841885567E-003;8.199331932701170E-004;
2.405166666666667E+009;1.845529526472092E-001;3.872759640216827E-002;5.417258013039827E-003;6.944333435967565E-004;
2.405333333333334E+009;1.865632981061935E-001;3.806643560528755E-002;5.462135188281536E-003;4.604744608514011E-004;
2.405500000000000E+009;1.880926042795181E-001;3.760448098182678E-002;5.479351151734591E-003;1.227166503667831E-004;
2.405666666666667E+009;1.895433217287064E-001;3.713615611195564E-002;5.464291665703058E-003;-2.236298460047692E-004;
2.405833333333334E+009;1.909563988447189E-001;3.692115470767021E-002;5.651856772601605E-003;-2.115401584887877E-004;
2.406000000000000E+009;1.923209130764008E-001;3.674682229757309E-002;5.772420670837164E-003;-6.694910698570311E-004;
2.406166666666667E+009;1.934375166893005E-001;3.662720695137978E-002;5.596276838332415E-003;-8.435545023530722E-004;
2.406333333333334E+009;1.946828514337540E-001;3.679504245519638E-002;5.491673480719328E-003;-1.025462872348726E-003;
2.406500000000000E+009;1.956109851598740E-001;3.690863028168678E-002;5.379976704716682E-003;-1.493311603553593E-003;
2.406666666666667E+009;1.964424103498459E-001;3.714597970247269E-002;5.460279993712902E-003;-1.637784647755325E-003;
2.406833333333334E+009;1.971533447504044E-001;3.728051856160164E-002;5.253145471215248E-003;-1.960831461474299E-003;
2.407000000000000E+009;1.976231634616852E-001;3.776881843805313E-002;5.194660276174545E-003;-2.048596041277051E-003;
2.407166666666667E+009;1.982643604278565E-001;3.777232021093369E-002;4.866845905780792E-003;-2.368645975366235E-003;
2.407333333333334E+009;1.984855532646179E-001;3.813367336988449E-002;4.682551138103008E-003;-2.403311897069216E-003;
2.407500000000000E+009;1.985284090042114E-001;3.863953799009323E-002;4.761642310768366E-003;-2.560551045462489E-003;
2.407666666666667E+009;1.986574232578278E-001;3.878230601549149E-002;4.618795588612557E-003;-2.912497147917748E-003;
2.407833333333334E+009;1.983453184366226E-001;3.908390924334526E-002;4.429713357239962E-003;-2.881987020373344E-003;
2.408000000000000E+009;1.982904970645905E-001;3.907375037670136E-002;4.163704812526703E-003;-3.069613361731172E-003;
2.408166666666667E+009;1.978536546230316E-001;3.905509784817696E-002;4.198078997433186E-003;-3.271109890192747E-003;
2.408333333333334E+009;1.974490880966187E-001;3.895862028002739E-002;4.126420710235834E-003;-3.327347338199616E-003;
2.408500000000000E+009;1.968315541744232E-001;3.902100399136543E-002;3.771509742364287E-003;-3.446408314630389E-003;
2.408666666666667E+009;1.961341053247452E-001;3.878610953688622E-002;3.548170905560255E-003;-3.535436233505607E-003;
2.408833333333334E+009;1.954051852226257E-001;3.832940384745598E-002;3.444703295826912E-003;-3.620550734922290E-003;
2.409000000000000E+009;1.942703723907471E-001;3.772779554128647E-002;3.360534319654107E-003;-3.688654862344265E-003;
2.409166666666667E+009;1.933262050151825E-001;3.705472126603127E-002;3.105295356363058E-003;-3.784542670473456E-003;
2.409333333333334E+009;1.923296153545380E-001;3.653523325920105E-002;3.044337499886751E-003;-3.914131782948971E-003;
2.409500000000000E+009;1.909620463848114E-001;3.539885208010674E-002;2.763127209618688E-003;-3.924988210201263E-003;
2.409666666666667E+009;1.899394840002060E-001;3.423216566443443E-002;2.616340992972255E-003;-3.819262608885765E-003;
2.409833333333334E+009;1.887183487415314E-001;3.303948789834976E-002;2.357953926548362E-003;-3.922044765204191E-003;
2.410000000000000E+009;1.874370425939560E-001;3.164698183536530E-002;2.342307008802891E-003;-3.797876648604870E-003;
2.410166666666667E+009;1.862294226884842E-001;3.019658848643303E-002;1.991827506572008E-003;-3.848788095638156E-003;
2.410333333333334E+009;1.851133704185486E-001;2.838079072535038E-002;2.013746649026871E-003;-3.904612502083182E-003;
2.410500000000000E+009;1.837896406650543E-001;2.668549306690693E-002;1.855272799730301E-003;-3.880685660988092E-003;
2.410666666666667E+009;1.826731115579605E-001;2.469115518033505E-002;1.845599734224379E-003;-3.819895908236504E-003;
2.410833333333334E+009;1.817910671234131E-001;2.255672961473465E-002;1.663193688727915E-003;-3.793989541009069E-003;
2.411000000000000E+009;1.807435005903244E-001;2.026743814349175E-002;1.664726994931698E-003;-3.796643344685435E-003;
2.411166666666667E+009;1.797660440206528E-001;1.809447258710861E-002;1.276462222449482E-003;-3.939604852348566E-003;
2.411333333333334E+009;1.790500730276108E-001;1.565998047590256E-002;1.332038082182407E-003;-3.778820624575019E-003;
2.411500000000000E+009;1.783090531826019E-001;1.326438225805759E-002;1.250577857717872E-003;-3.632657928392291E-003;
2.411666666666667E+009;1.780281513929367E-001;1.086125336587429E-002;1.301603973843157E-003;-3.781876992434263E-003;
2.411833333333334E+009;1.773970723152161E-001;8.251583203673363E-003;1.135863596573472E-003;-3.708021482452750E-003;
2.412000000000000E+009;1.773836016654968E-001;5.599771626293659E-003;1.169224036857486E-003;-3.629432059824467E-003;
2.412166666666667E+009;1.771568804979324E-001;3.297334536910057E-003;1.059034024365246E-003;-3.598260926082730E-003;
2.412333333333334E+009;1.772032976150513E-001;5.506753223016858E-004;1.063046511262655E-003;-3.528715809807181E-003;
2.412500000000000E+009;1.776006966829300E-001;-2.028069924563170E-003;1.088723074644804E-003;-3.610089188441634E-003;
2.412666666666667E+009;1.777785867452622E-001;-4.785872064530850E-003;9.197637555189431E-004;-3.590539563447237E-003;
2.412833333333334E+009;1.784335374832153E-001;-7.240333128720522E-003;9.494089754298329E-004;-3.685631090775132E-003;
2.413000000000000E+009;1.791394352912903E-001;-9.870008565485477E-003;1.018941868096590E-003;-3.630014602094889E-003;
2.413166666666667E+009;1.798696517944336E-001;-1.222136057913303E-002;8.546311291866005E-004;-3.683038055896759E-003;
2.413333333333334E+009;1.808480471372604E-001;-1.493254490196705E-002;7.920672069303691E-004;-3.641664283350110E-003;
2.413500000000000E+009;1.816390901803970E-001;-1.742748916149139E-002;8.140775607898831E-004;-3.644360462203622E-003;
2.413666666666667E+009;1.829035282135010E-001;-1.989121735095978E-002;7.744943723082542E-004;-3.803684143349528E-003;
2.413833333333334E+009;1.840989440679550E-001;-2.216959372162819E-002;6.341109983623028E-004;-3.970965743064880E-003;
2.414000000000000E+009;1.851200610399246E-001;-2.431410737335682E-002;4.811302060261369E-004;-4.013154190033674E-003;
2.414166666666667E+009;1.864528208971024E-001;-2.637145109474659E-002;4.251972713973373E-004;-4.179104696959257E-003;
2.414333333333334E+009;1.877309381961823E-001;-2.846104837954044E-002;3.525014908518642E-004;-4.155591130256653E-003;
2.414500000000000E+009;1.890620291233063E-001;-3.031421266496182E-002;1.439566258341074E-004;-4.201031755656004E-003;
2.414666666666667E+009;1.904694586992264E-001;-3.204727545380592E-002;6.059704173821956E-005;-4.191706888377667E-003;
2.414833333333334E+009;1.917583793401718E-001;-3.350502252578735E-002;8.954418444773182E-005;-4.153330344706774E-003;
2.415000000000000E+009;1.930266022682190E-001;-3.509818762540817E-002;-6.354403012664989E-005;-4.276778083294630E-003;
2.415166666666667E+009;1.945823878049851E-001;-3.627274185419083E-002;-2.213316329289228E-004;-4.232236184179783E-003;
2.415333333333334E+009;1.960724443197250E-001;-3.742947429418564E-002;-4.208613245282322E-004;-4.326167050749064E-003;
2.415500000000000E+009;1.974214464426041E-001;-3.830521181225777E-002;-5.327845574356616E-004;-4.366648383438587E-003;
2.415666666666667E+009;1.986604034900665E-001;-3.920744732022286E-002;-4.598541418090463E-004;-4.361939150840044E-003;
2.415833333333334E+009;1.997776180505753E-001;-3.995485231280327E-002;-6.664174143224955E-004;-4.442306235432625E-003;
2.416000000000000E+009;2.008412033319473E-001;-4.065012559294701E-002;-8.594552055001259E-004;-4.662781488150358E-003;
2.416166666666667E+009;2.019066065549851E-001;-4.127796739339829E-002;-9.793445933610201E-004;-4.502977710217238E-003;
2.416333333333334E+009;2.028831988573074E-001;-4.161112010478973E-002;-1.200078171677887E-003;-4.637849517166615E-003;
2.416500000000000E+009;2.035405188798904E-001;-4.187546670436859E-002;-1.453624339774251E-003;-4.656156525015831E-003;
2.416666666666667E+009;2.041920423507690E-001;-4.220781847834587E-002;-1.655459171161056E-003;-4.746171645820141E-003;
2.416833333333334E+009;2.046356797218323E-001;-4.221852496266365E-002;-1.831457484513521E-003;-4.638217855244875E-003;
2.417000000000000E+009;2.050069272518158E-001;-4.223323985934258E-002;-2.132939407601953E-003;-4.643568769097328E-003;
2.417166666666667E+009;2.049373090267181E-001;-4.217025637626648E-002;-2.401700243353844E-003;-4.594723694026470E-003;
2.417333333333334E+009;2.050689756870270E-001;-4.179755225777626E-002;-2.594889141619206E-003;-4.529542289674282E-003;
2.417500000000000E+009;2.050703912973404E-001;-4.172320291399956E-002;-2.712583402171731E-003;-4.426042083650827E-003;
2.417666666666667E+009;2.047477960586548E-001;-4.131834954023361E-002;-2.952652983367443E-003;-4.351257346570492E-003;
2.417833333333334E+009;2.045323848724365E-001;-4.100711271166802E-002;-3.068695543333888E-003;-4.185050725936890E-003;
2.418000000000000E+009;2.040871083736420E-001;-4.057401791214943E-002;-3.038340015336871E-003;-4.051214084029198E-003;
2.418166666666667E+009;2.033540010452271E-001;-4.027392342686653E-002;-3.279011696577072E-003;-4.019923508167267E-003;
2.418333333333334E+009;2.025667428970337E-001;-3.986602276563644E-002;-3.510560607537627E-003;-3.704170696437359E-003;
2.418500000000000E+009;2.016808092594147E-001;-3.977225720882416E-002;-3.536701435223222E-003;-3.795020049437881E-003;
2.418666666666667E+009;2.008625268936157E-001;-3.941122815012932E-002;-3.586361650377512E-003;-3.652896499261260E-003;
2.418833333333334E+009;1.996710747480393E-001;-3.933310136198998E-002;-3.845950122922659E-003;-3.528829896822572E-003;
2.419000000000000E+009;1.983623951673508E-001;-3.923833742737770E-002;-3.891457803547382E-003;-3.480863291770220E-003;
2.419166666666667E+009;1.972771286964417E-001;-3.924208134412766E-002;-3.892768407240510E-003;-3.233674680814147E-003;
2.419333333333334E+009;1.958364248275757E-001;-3.950696438550949E-002;-4.051754251122475E-003;-3.186616115272045E-003;
2.419500000000000E+009;1.942783147096634E-001;-3.974705934524536E-002;-4.252931103110313E-003;-3.144280286505818E-003;
2.419666666666667E+009;1.925564706325531E-001;-4.044088721275330E-002;-4.227432422339916E-003;-3.024078207090497E-003;
2.419833333333334E+009;1.909605264663696E-001;-4.086219146847725E-002;-4.348746966570616E-003;-3.034529276192188E-003;
2.420000000000000E+009;1.892455965280533E-001;-4.134388267993927E-002;-4.656860604882240E-003;-2.837292617186904E-003;
2.420166666666667E+009;1.876126378774643E-001;-4.236029833555222E-002;-4.718637559562922E-003;-2.731958404183388E-003;
2.420333333333334E+009;1.858178377151489E-001;-4.323871806263924E-002;-4.880423657596111E-003;-2.817521337419748E-003;
2.420500000000000E+009;1.839340925216675E-001;-4.449095204472542E-002;-5.113405641168356E-003;-2.475724089890719E-003;
2.420666666666667E+009;1.821093410253525E-001;-4.543501511216164E-002;-5.061887670308352E-003;-2.363620791584253E-003;
2.420833333333334E+009;1.803144216537476E-001;-4.695182666182518E-002;-5.302339326590300E-003;-2.059341175481677E-003;
2.421000000000000E+009;1.786488443613052E-001;-4.845103994011879E-002;-5.496867932379246E-003;-1.827591564506292E-003;
2.421166666666667E+009;1.771622598171234E-001;-5.019674822688103E-002;-5.558298900723457E-003;-1.653209328651428E-003;
2.421333333333334E+009;1.751431226730347E-001;-5.155536159873009E-002;-5.666400305926800E-003;-1.294100075028837E-003;
2.421500000000000E+009;1.735834181308746E-001;-5.358480289578438E-002;-5.826834589242935E-003;-9.888102067634463E-004;
2.421666666666667E+009;1.721970885992050E-001;-5.537669360637665E-002;-5.803008563816547E-003;-7.982170209288597E-004;
2.421833333333334E+009;1.708199828863144E-001;-5.744597688317299E-002;-5.766177084296942E-003;-6.108553498052061E-004;
2.422000000000000E+009;1.694618016481400E-001;-5.935753509402275E-002;-5.710218567401171E-003;-3.996985906269401E-004;
2.422166666666667E+009;1.684050709009171E-001;-6.154998391866684E-002;-5.720549728721380E-003;-1.177090089186095E-004;
2.422333333333334E+009;1.672142148017883E-001;-6.365970522165299E-002;-5.744025576859713E-003;1.594246423337609E-004;
2.422500000000000E+009;1.662342995405197E-001;-6.586073338985443E-002;-5.561788100749254E-003;6.150259287096560E-004;
2.422666666666667E+009;1.654881238937378E-001;-6.797299534082413E-002;-5.563145969063044E-003;7.181317778304219E-004;
2.422833333333334E+009;1.647073179483414E-001;-7.030415534973145E-002;-5.491922143846750E-003;9.647199185565114E-004;
2.423000000000000E+009;1.642739623785019E-001;-7.250875234603882E-002;-5.410624668002129E-003;1.232000067830086E-003;
2.423166666666667E+009;1.635805368423462E-001;-7.470904290676117E-002;-5.252655595541000E-003;1.467090798541904E-003;
2.423333333333334E+009;1.634104102849960E-001;-7.691890746355057E-002;-5.154551006853581E-003;1.473400392569602E-003;
2.423500000000000E+009;1.631439179182053E-001;-7.901887595653534E-002;-4.697212483733892E-003;1.673741149716079E-003;
2.423666666666667E+009;1.631663292646408E-001;-8.119100332260132E-002;-4.773076158016920E-003;1.891503343358636E-003;
2.423833333333334E+009;1.629666984081268E-001;-8.310336619615555E-002;-4.732013214379549E-003;1.915048924274743E-003;
2.424000000000000E+009;1.631142944097519E-001;-8.518023788928986E-002;-4.509007558226585E-003;2.048637485131621E-003;
2.424166666666667E+009;1.632151901721954E-001;-8.708120137453079E-002;-4.593632183969021E-003;2.249455777928233E-003;
2.424333333333334E+009;1.636251211166382E-001;-8.880954980850220E-002;-4.412471782416105E-003;2.255339873954654E-003;
2.424500000000000E+009;1.639534085988998E-001;-9.075638651847839E-002;-4.099948331713677E-003;2.493878360837698E-003;
2.424666666666667E+009;1.642324179410934E-001;-9.238655120134354E-002;-3.992994781583548E-003;2.532351994886994E-003;
2.424833333333334E+009;1.649976074695587E-001;-9.389463067054749E-002;-3.780155675485730E-003;2.756732515990734E-003;
2.425000000000000E+009;1.655865609645844E-001;-9.542082250118256E-002;-3.703850321471691E-003;2.647722372785211E-003;
2.425166666666667E+009;1.658999323844910E-001;-9.673335403203964E-002;-3.742826869711280E-003;2.769705839455128E-003;
2.425333333333334E+009;1.664304584264755E-001;-9.795258939266205E-002;-3.513386705890298E-003;2.915784018114209E-003;
2.425500000000000E+009;1.669648289680481E-001;-9.903516620397568E-002;-3.512029536068440E-003;2.904890105128288E-003;
2.425666666666667E+009;1.676428169012070E-001;-9.987384080886841E-002;-3.214051946997643E-003;2.772302366793156E-003;
2.425833333333334E+009;1.681952923536301E-001;-1.008412986993790E-001;-3.216582350432873E-003;3.030358813703060E-003;
2.426000000000000E+009;1.688371002674103E-001;-1.014303043484688E-001;-3.115723840892315E-003;3.149961121380329E-003;
2.426166666666667E+009;1.694101691246033E-001;-1.019843071699143E-001;-2.987690502777696E-003;2.956900512799621E-003;
2.426333333333334E+009;1.697161942720413E-001;-1.025950834155083E-001;-2.920767758041620E-003;3.104096045717597E-003;
2.426500000000000E+009;1.705142408609390E-001;-1.029062569141388E-001;-2.878094092011452E-003;3.338143462315202E-003;
2.426666666666667E+009;1.708517372608185E-001;-1.031936854124069E-001;-2.809610450640321E-003;3.240731777623296E-003;
2.426833333333334E+009;1.713784933090210E-001;-1.036093533039093E-001;-2.456959569826722E-003;3.215583739802241E-003;
2.427000000000000E+009;1.716793179512024E-001;-1.037182882428169E-001;-2.617329591885209E-003;3.408377291634679E-003;
2.427166666666667E+009;1.718227118253708E-001;-1.037695184350014E-001;-2.509513637050986E-003;3.482885658740997E-003;
2.427333333333334E+009;1.720167100429535E-001;-1.039792224764824E-001;-2.267224946990609E-003;3.446821589022875E-003;
2.427500000000000E+009;1.720268130302429E-001;-1.041281148791313E-001;-2.315620891749859E-003;3.535991068929434E-003;
2.427666666666667E+009;1.720170825719833E-001;-1.040036827325821E-001;-2.184633864089847E-003;3.695667022839189E-003;
