# Version 1.00
#
freq[Hz];re:Trc1_S11;im:Trc1_S11;re:Trc2_S21;im:Trc2_S21;
2.400000000000000E+009;1.553750634193420E-001;1.112778484821320E-001;-4.927845206111670E-003;2.012143144384027E-003;
2.400166666666667E+009;1.547516584396362E-001;1.089941710233688E-001;-4.776314366608858E-003;2.172920387238264E-003;
2.400333333333334E+009;1.547492444515228E-001;1.068222746253014E-001;-4.865609575062990E-003;2.442869124934077E-003;
2.400500000000000E+009;1.543593406677246E-001;1.042072474956513E-001;-4.761018324643374E-003;2.511080121621490E-003;
2.400666666666667E+009;1.540426760911942E-001;1.016632914543152E-001;-4.777389112859964E-003;2.626849804073572E-003;
2.400833333333334E+009;1.538726538419724E-001;9.885245561599731E-002;-4.537130240350962E-003;2.848944161087275E-003;
2.401000000000000E+009;1.538997143507004E-001;9.594286233186722E-002;-4.804756958037615E-003;3.021946642547846E-003;
2.401166666666667E+009;1.535955965518951E-001;9.320932626724243E-002;-4.490811377763748E-003;3.309402614831924E-003;
2.401333333333334E+009;1.538772583007813E-001;9.025605022907257E-002;-4.573326092213392E-003;3.316110931336880E-003;
2.401500000000000E+009;1.539605706930161E-001;8.724702894687653E-002;-4.459790885448456E-003;3.464188892394304E-003;
2.401666666666667E+009;1.541704088449478E-001;8.433739095926285E-002;-4.400663543492556E-003;3.641700139269233E-003;
2.401833333333334E+009;1.544387787580490E-001;8.150376379489899E-002;-4.229336511343718E-003;3.883424913510680E-003;
2.402000000000000E+009;1.551587879657745E-001;7.834452390670776E-002;-4.177883733063936E-003;3.939725924283266E-003;
2.402166666666667E+009;1.557969897985458E-001;7.563375681638718E-002;-4.168108105659485E-003;4.276503343135119E-003;
2.402333333333334E+009;1.566747725009918E-001;7.261306047439575E-002;-4.216428846120834E-003;4.370373208075762E-003;
2.402500000000000E+009;1.577827781438828E-001;6.991948187351227E-002;-3.980692941695452E-003;4.664800129830837E-003;
2.402666666666667E+009;1.588568091392517E-001;6.718975305557251E-002;-3.894137218594551E-003;4.743713419884443E-003;
2.402833333333334E+009;1.606025099754334E-001;6.440017372369766E-002;-3.484151093289256E-003;5.353158805519342E-003;
2.403000000000000E+009;1.617138385772705E-001;6.177345290780067E-002;-3.386514494195581E-003;5.314204841852188E-003;
2.403166666666667E+009;1.634164452552795E-001;5.979662388563156E-002;-3.905361983925104E-003;5.676114000380039E-003;
2.403333333333334E+009;1.648497730493546E-001;5.678363889455795E-002;-2.977043390274048E-003;5.759407766163349E-003;
2.403500000000000E+009;1.668445616960526E-001;5.476872995495796E-002;-3.286639694124460E-003;6.414966657757759E-003;
2.403666666666667E+009;1.683214604854584E-001;5.228429287672043E-002;-2.786051481962204E-003;6.033089943230152E-003;
2.403833333333334E+009;1.701510697603226E-001;4.994025826454163E-002;-2.179022878408432E-003;5.954356398433447E-003;
2.404000000000000E+009;1.710489690303803E-001;4.773108288645744E-002;-1.814554678276181E-003;5.504288244992495E-003;
2.404166666666667E+009;1.736515015363693E-001;4.688018560409546E-002;-2.605252666398883E-003;6.601259578019381E-003;
2.404333333333334E+009;1.753734648227692E-001;4.452317208051682E-002;-1.384845236316323E-003;6.532507482916117E-003;
2.404500000000000E+009;1.772825121879578E-001;4.329372569918633E-002;-1.524934894405305E-003;6.914611905813217E-003;
2.404666666666667E+009;1.791245788335800E-001;4.177715256810188E-002;-1.262414734810591E-003;6.939587648957968E-003;
2.404833333333334E+009;1.810625195503235E-001;4.054987803101540E-002;-8.248651865869761E-004;7.039544638246298E-003;
2.405000000000000E+009;1.826685667037964E-001;3.953617066144943E-002;-6.192331202328205E-004;7.221567444503307E-003;
2.405166666666667E+009;1.841589063405991E-001;3.927399590611458E-002;-1.052388106472790E-004;7.267558947205544E-003;
2.405333333333334E+009;1.859572827816010E-001;3.851550072431564E-002;2.056391094811261E-004;7.246881723403931E-003;
2.405500000000000E+009;1.877671480178833E-001;3.789519518613815E-002;7.678234833292663E-004;7.425494957715273E-003;
2.405666666666667E+009;1.891969889402390E-001;3.719713538885117E-002;1.132098026573658E-003;7.285683881491423E-003;
2.405833333333334E+009;1.907867938280106E-001;3.710699453949928E-002;1.457575592212379E-003;7.177775725722313E-003;
2.406000000000000E+009;1.919233649969101E-001;3.714309632778168E-002;1.785759581252933E-003;7.068410515785217E-003;
2.406166666666667E+009;1.930740028619766E-001;3.690547496080399E-002;2.011434640735388E-003;6.847428623586893E-003;
2.406333333333334E+009;1.942611336708069E-001;3.709136322140694E-002;2.433911664411426E-003;6.673862691968679E-003;
2.406500000000000E+009;1.953435838222504E-001;3.732156381011009E-002;2.682706108316779E-003;6.564488634467125E-003;
2.406666666666667E+009;1.961940973997116E-001;3.736052289605141E-002;2.977678552269936E-003;6.295738276094198E-003;
2.406833333333334E+009;1.969408839941025E-001;3.755682706832886E-002;3.182241925969720E-003;6.226389668881893E-003;
2.407000000000000E+009;1.975474357604981E-001;3.816961497068405E-002;3.444420872256160E-003;6.079041399061680E-003;
2.407166666666667E+009;1.979755461215973E-001;3.806100040674210E-002;3.710928373038769E-003;5.856320261955261E-003;
2.407333333333334E+009;1.981044560670853E-001;3.859124705195427E-002;3.963019698858261E-003;5.625323858112097E-003;
2.407500000000000E+009;1.983020454645157E-001;3.893295302987099E-002;4.015677142888308E-003;5.474706180393696E-003;
2.407666666666667E+009;1.984403431415558E-001;3.911112248897553E-002;4.182352684438229E-003;5.292510613799095E-003;
2.407833333333334E+009;1.980399042367935E-001;3.918312489986420E-002;4.417446907609701E-003;5.213449243456125E-003;
2.408000000000000E+009;1.980874389410019E-001;3.945052251219750E-002;4.574353341013193E-003;4.735869355499744E-003;
2.408166666666667E+009;1.975109279155731E-001;3.940895572304726E-002;4.703151062130928E-003;4.629331640899181E-003;
2.408333333333334E+009;1.971230357885361E-001;3.929230570793152E-002;4.912018775939941E-003;4.292344208806753E-003;
2.408500000000000E+009;1.963953077793121E-001;3.928507864475250E-002;4.968783352524042E-003;4.053987096995115E-003;
2.408666666666667E+009;1.958380937576294E-001;3.904205188155174E-002;5.106582306325436E-003;3.703745547682047E-003;
2.408833333333334E+009;1.950816512107849E-001;3.872098773717880E-002;5.197566933929920E-003;3.536658594384790E-003;
2.409000000000000E+009;1.939852684736252E-001;3.799079731106758E-002;5.175580736249685E-003;3.197771962732077E-003;
2.409166666666667E+009;1.930352747440338E-001;3.752543032169342E-002;5.337441805750132E-003;3.071488812565804E-003;
2.409333333333334E+009;1.919739693403244E-001;3.669138252735138E-002;5.211183801293373E-003;2.802947070449591E-003;
2.409500000000000E+009;1.907333433628082E-001;3.580357506871223E-002;5.297614727169275E-003;2.516406122595072E-003;
2.409666666666667E+009;1.895832121372223E-001;3.460074961185455E-002;5.304976366460323E-003;2.264560665935278E-003;
2.409833333333334E+009;1.882651597261429E-001;3.327000513672829E-002;5.286974832415581E-003;2.122213831171393E-003;
2.410000000000000E+009;1.872827857732773E-001;3.209998831152916E-002;5.096033215522766E-003;2.123245503753424E-003;
2.410166666666667E+009;1.858389079570770E-001;3.036372736096382E-002;5.041918717324734E-003;1.886128098703921E-003;
2.410333333333334E+009;1.847028136253357E-001;2.876638248562813E-002;5.066743586212397E-003;1.746807480230928E-003;
2.410500000000000E+009;1.834547817707062E-001;2.711309865117073E-002;5.099961068481207E-003;1.732926699332893E-003;
2.410666666666667E+009;1.823377460241318E-001;2.474217861890793E-002;5.066669080406427E-003;1.565989805385470E-003;
2.410833333333334E+009;1.815551817417145E-001;2.278502471745014E-002;5.041188094764948E-003;1.236545387655497E-003;
2.411000000000000E+009;1.804208457469940E-001;2.061471529304981E-002;5.039256066083908E-003;1.198441605083644E-003;
2.411166666666667E+009;1.796121597290039E-001;1.839203014969826E-002;5.007301457226276E-003;1.239918638020754E-003;
2.411333333333334E+009;1.788837462663651E-001;1.599595323204994E-002;4.982934799045324E-003;1.029348466545343E-003;
2.411500000000000E+009;1.780788302421570E-001;1.362112630158663E-002;4.996968433260918E-003;9.621029603295028E-004;
2.411666666666667E+009;1.777278929948807E-001;1.109366305172443E-002;4.992499481886625E-003;7.485999376513064E-004;
2.411833333333334E+009;1.770712286233902E-001;8.712396025657654E-003;5.009039305150509E-003;7.423711358569562E-004;
2.412000000000000E+009;1.771342009305954E-001;5.975672043859959E-003;4.947900772094727E-003;4.505788092501462E-004;
2.412166666666667E+009;1.770075559616089E-001;3.545717336237431E-003;5.028952844440937E-003;3.285683342255652E-004;
2.412333333333334E+009;1.769865900278091E-001;7.608214509673417E-004;5.130603909492493E-003;2.659387537278235E-004;
2.412500000000000E+009;1.772231608629227E-001;-1.791959861293435E-003;5.061083473265171E-003;1.560700329719111E-004;
2.412666666666667E+009;1.778125017881393E-001;-4.484514705836773E-003;5.098216701298952E-003;-2.056590892607346E-005;
2.412833333333334E+009;1.782624423503876E-001;-7.160031236708164E-003;5.248769652098417E-003;-7.346179336309433E-005;
2.413000000000000E+009;1.789924651384354E-001;-9.640100412070751E-003;5.164627917110920E-003;-3.038318827748299E-004;
2.413166666666667E+009;1.797290593385696E-001;-1.200991589576006E-002;5.207083187997341E-003;-2.801239897962660E-004;
2.413333333333334E+009;1.807946860790253E-001;-1.457135472446680E-002;5.109721329063177E-003;-5.355050670914352E-004;
2.413500000000000E+009;1.815405040979385E-001;-1.718794554471970E-002;5.317379720509052E-003;-6.415771204046905E-004;
2.413666666666667E+009;1.829580068588257E-001;-1.957691088318825E-002;5.197392310947180E-003;-9.987027151510119E-004;
2.413833333333334E+009;1.839672625064850E-001;-2.188035473227501E-002;5.227337591350079E-003;-1.127909636124969E-003;
2.414000000000000E+009;1.852916628122330E-001;-2.408802695572376E-002;5.129751749336720E-003;-1.381588168442249E-003;
2.414166666666667E+009;1.866471618413925E-001;-2.631102502346039E-002;5.109477788209915E-003;-1.644375617615879E-003;
2.414333333333334E+009;1.879060417413712E-001;-2.831273525953293E-002;4.986129235476255E-003;-1.806405722163618E-003;
2.414500000000000E+009;1.892366558313370E-001;-2.994115091860294E-002;4.993553739041090E-003;-1.892801490612328E-003;
2.414666666666667E+009;1.906912922859192E-001;-3.176043927669525E-002;4.889715928584337E-003;-1.951867947354913E-003;
2.414833333333334E+009;1.918937861919403E-001;-3.338606655597687E-002;4.700170829892159E-003;-2.152103697881103E-003;
2.415000000000000E+009;1.934451758861542E-001;-3.484710678458214E-002;4.845641553401947E-003;-2.299593761563301E-003;
2.415166666666667E+009;1.947605907917023E-001;-3.612406551837921E-002;4.691920708864927E-003;-2.464939607307315E-003;
2.415333333333334E+009;1.961836218833923E-001;-3.722839802503586E-002;4.550165962427855E-003;-2.641958184540272E-003;
2.415500000000000E+009;1.975629031658173E-001;-3.806247562170029E-002;4.617259372025728E-003;-2.650205045938492E-003;
2.415666666666667E+009;1.989295482635498E-001;-3.907267749309540E-002;4.601726774126291E-003;-2.876296872273088E-003;
2.415833333333334E+009;2.000423669815064E-001;-3.975991532206535E-002;4.296720027923584E-003;-3.160271793603897E-003;
2.416000000000000E+009;2.013022303581238E-001;-4.041722044348717E-002;4.407974891364574E-003;-3.310129512101412E-003;
2.416166666666667E+009;2.021483182907105E-001;-4.111384227871895E-002;4.092428367584944E-003;-3.544634440913796E-003;
2.416333333333334E+009;2.031915932893753E-001;-4.138116165995598E-002;4.061689600348473E-003;-3.638768568634987E-003;
2.416500000000000E+009;2.039509713649750E-001;-4.161268100142479E-002;3.961638081818819E-003;-3.952507860958576E-003;
2.416666666666667E+009;2.045207768678665E-001;-4.194224625825882E-002;3.864403348416090E-003;-4.068514332175255E-003;
2.416833333333334E+009;2.050011008977890E-001;-4.189210757613182E-002;3.622272284701467E-003;-4.061888437718153E-003;
2.417000000000000E+009;2.054254710674286E-001;-4.206152260303497E-002;3.468016162514687E-003;-4.329618532210589E-003;
2.417166666666667E+009;2.054468542337418E-001;-4.180629923939705E-002;3.163286019116640E-003;-4.291280172765255E-003;
2.417333333333334E+009;2.053616344928742E-001;-4.166867211461067E-002;2.961042337119579E-003;-4.387294407933950E-003;
2.417500000000000E+009;2.054418921470642E-001;-4.157193005084992E-002;2.768067643046379E-003;-4.549055360257626E-003;
2.417666666666667E+009;2.050473839044571E-001;-4.121642187237740E-002;2.620762446895242E-003;-4.589852876961231E-003;
2.417833333333334E+009;2.049394845962524E-001;-4.083308205008507E-002;2.435549395158887E-003;-4.535820335149765E-003;
2.418000000000000E+009;2.044251114130020E-001;-4.038648307323456E-002;2.211366780102253E-003;-4.632651340216398E-003;
2.418166666666667E+009;2.037796378135681E-001;-4.014949500560761E-002;2.093820367008448E-003;-4.866645671427250E-003;
2.418333333333334E+009;2.030307799577713E-001;-3.972473368048668E-002;2.013256307691336E-003;-4.817732609808445E-003;
2.418500000000000E+009;2.021431028842926E-001;-3.963365033268929E-002;1.856822636909783E-003;-4.667065106332302E-003;
2.418666666666667E+009;2.013816237449646E-001;-3.930831700563431E-002;1.632337574847043E-003;-4.786551464349031E-003;
2.418833333333334E+009;2.000640332698822E-001;-3.927093744277954E-002;1.587016042321920E-003;-4.776943475008011E-003;
2.419000000000000E+009;1.988330632448196E-001;-3.919664025306702E-002;1.317020272836089E-003;-4.932966083288193E-003;
2.419166666666667E+009;1.975832730531693E-001;-3.920758888125420E-002;1.117084408178926E-003;-4.948189016431570E-003;
2.419333333333334E+009;1.960487067699432E-001;-3.967968374490738E-002;9.258996578864753E-004;-4.886600188910961E-003;
2.419500000000000E+009;1.946193873882294E-001;-3.982586041092873E-002;9.516799473203719E-004;-4.808545578271151E-003;
2.419666666666667E+009;1.929248273372650E-001;-4.041007161140442E-002;8.579335990361869E-004;-5.186179187148809E-003;
2.419833333333334E+009;1.914232820272446E-001;-4.094836860895157E-002;5.631493986584246E-004;-5.002018529921770E-003;
2.420000000000000E+009;1.896419972181320E-001;-4.156532883644104E-002;4.962918465025723E-004;-5.074891727417707E-003;
2.420166666666667E+009;1.880238503217697E-001;-4.247044399380684E-002;3.835229726973921E-004;-4.850418772548437E-003;
2.420333333333334E+009;1.861042231321335E-001;-4.352172091603279E-002;1.693397643975914E-004;-4.845920950174332E-003;
2.420500000000000E+009;1.842367947101593E-001;-4.477275907993317E-002;4.206818266538903E-005;-4.874214995652437E-003;
2.420666666666667E+009;1.824137121438980E-001;-4.569163545966148E-002;-3.719034430105239E-005;-4.990105051547289E-003;
2.420833333333334E+009;1.805915683507919E-001;-4.722558706998825E-002;-2.922751591540873E-004;-4.920360166579485E-003;
2.421000000000000E+009;1.788943856954575E-001;-4.866944625973702E-002;-3.212820447515696E-004;-4.830345977097750E-003;
2.421166666666667E+009;1.771375238895416E-001;-5.042874440550804E-002;-4.732491215690970E-004;-4.876527935266495E-003;
2.421333333333334E+009;1.753440052270889E-001;-5.192972347140312E-002;-6.234279717318714E-004;-4.765843041241169E-003;
2.421500000000000E+009;1.736611723899841E-001;-5.394700914621353E-002;-7.306183688342571E-004;-4.750072024762631E-003;
2.421666666666667E+009;1.720951646566391E-001;-5.555880814790726E-002;-8.063780260272324E-004;-4.722020123153925E-003;
2.421833333333334E+009;1.708092242479324E-001;-5.772660300135613E-002;-8.966019959188998E-004;-4.766527097672224E-003;
2.422000000000000E+009;1.694960445165634E-001;-5.957332998514175E-002;-1.180543680675328E-003;-4.675293806940317E-003;
2.422166666666667E+009;1.684803217649460E-001;-6.185965240001679E-002;-1.316947746090591E-003;-4.642272833734751E-003;
2.422333333333334E+009;1.672827154397965E-001;-6.405441462993622E-002;-1.473633106797934E-003;-4.601241089403629E-003;
2.422500000000000E+009;1.661138385534287E-001;-6.613567471504211E-002;-1.580052427016199E-003;-4.607496317476034E-003;
2.422666666666667E+009;1.653320193290710E-001;-6.842124462127686E-002;-1.714700949378312E-003;-4.408710170537233E-003;
2.422833333333334E+009;1.648552715778351E-001;-7.069155573844910E-002;-1.898251124657691E-003;-4.579185042530298E-003;
2.423000000000000E+009;1.641876101493835E-001;-7.292659580707550E-002;-1.855073845945299E-003;-4.206201992928982E-003;
2.423166666666667E+009;1.636082828044891E-001;-7.505268603563309E-002;-2.075616735965014E-003;-4.295121878385544E-003;
2.423333333333334E+009;1.632618755102158E-001;-7.715637981891632E-002;-2.297838917002082E-003;-4.231467377394438E-003;
2.423500000000000E+009;1.633152067661285E-001;-7.934771478176117E-002;-2.377518219873309E-003;-4.210549406707287E-003;
2.423666666666667E+009;1.631967276334763E-001;-8.145043998956680E-002;-2.688759239390492E-003;-4.150915425270796E-003;
2.423833333333334E+009;1.630591601133347E-001;-8.347324281930924E-002;-2.763805212453008E-003;-4.050691146403551E-003;
2.424000000000000E+009;1.631085425615311E-001;-8.552292734384537E-002;-3.057780675590038E-003;-3.996172454208136E-003;
2.424166666666667E+009;1.632584929466248E-001;-8.739668130874634E-002;-3.016381524503231E-003;-3.777397330850363E-003;
2.424333333333334E+009;1.636496782302856E-001;-8.927188068628311E-002;-3.339180024340749E-003;-3.604067722335458E-003;
2.424500000000000E+009;1.640157848596573E-001;-9.117063879966736E-002;-3.476737998425961E-003;-3.514889394864440E-003;
2.424666666666667E+009;1.644484251737595E-001;-9.266926348209381E-002;-3.479406936094165E-003;-3.314065514132381E-003;
2.424833333333334E+009;1.650498807430267E-001;-9.430430084466934E-002;-3.657098393887281E-003;-3.047512378543615E-003;
2.425000000000000E+009;1.653948575258255E-001;-9.559431672096252E-002;-3.793567884713411E-003;-2.859766129404306E-003;
2.425166666666667E+009;1.659637540578842E-001;-9.700713306665421E-002;-4.027288872748613E-003;-2.754580229520798E-003;
2.425333333333334E+009;1.664216667413712E-001;-9.813565760850906E-002;-4.044997040182352E-003;-2.500184345990419E-003;
2.425500000000000E+009;1.670994907617569E-001;-9.930349141359329E-002;-4.021479748189449E-003;-2.361587015911937E-003;
2.425666666666667E+009;1.676896214485169E-001;-1.000299230217934E-001;-3.952557221055031E-003;-2.123057842254639E-003;
2.425833333333334E+009;1.682298481464386E-001;-1.010795384645462E-001;-4.135062918066979E-003;-1.973435515537858E-003;
2.426000000000000E+009;1.689485460519791E-001;-1.015999242663384E-001;-3.853711532428861E-003;-1.865776022896171E-003;
2.426166666666667E+009;1.695339530706406E-001;-1.022547930479050E-001;-3.928967751562595E-003;-1.554845948703587E-003;
2.426333333333334E+009;1.699631214141846E-001;-1.028272956609726E-001;-4.054835066199303E-003;-1.476794364862144E-003;
2.426500000000000E+009;1.705051958560944E-001;-1.031495928764343E-001;-3.848736407235265E-003;-1.366623095236719E-003;
2.426666666666667E+009;1.710384637117386E-001;-1.034798622131348E-001;-3.916402347385883E-003;-1.256012707017362E-003;
2.426833333333334E+009;1.715210527181625E-001;-1.037337929010391E-001;-4.114342387765646E-003;-1.140586682595313E-003;
2.427000000000000E+009;1.717934161424637E-001;-1.039087176322937E-001;-4.006363917142153E-003;-9.792158380150795E-004;
2.427166666666667E+009;1.720761358737946E-001;-1.039989292621613E-001;-3.886586055159569E-003;-9.611144196242094E-004;
2.427333333333334E+009;1.722069084644318E-001;-1.041614711284638E-001;-4.076203331351280E-003;-8.254325948655605E-004;
2.427500000000000E+009;1.722666621208191E-001;-1.043280810117722E-001;-3.936586435884237E-003;-6.653572781942785E-004;
2.427666666666667E+009;1.721823066473007E-001;-1.041528359055519E-001;-3.868664149194956E-003;-5.860217497684062E-004;
2.427833333333334E+009;1.720200031995773E-001;-1.042518466711044E-001;-4.030747804790735E-003;-5.059195100329816E-004;
