# Version 1.00
#
freq[Hz];re:Trc1_S11;im:Trc1_S11;re:Trc2_S21;im:Trc2_S21;
2.400000000000000E+009;1.557756066322327E-001;1.112899482250214E-001;4.594067577272654E-003;2.989450702443719E-003;
2.400166666666667E+009;1.552634388208389E-001;1.089799404144287E-001;4.895744379609823E-003;2.853486221283674E-003;
2.400333333333334E+009;1.549851298332214E-001;1.066952422261238E-001;5.099200177937746E-003;2.622611587867141E-003;
2.400500000000000E+009;1.547626703977585E-001;1.042309254407883E-001;5.213394295424223E-003;2.339778933674097E-003;
2.400666666666667E+009;1.545086205005646E-001;1.017101705074310E-001;5.278270691633225E-003;2.020809333771467E-003;
2.400833333333334E+009;1.541934311389923E-001;9.870269149541855E-002;5.380420479923487E-003;1.792524126358330E-003;
2.401000000000000E+009;1.540657877922058E-001;9.602922201156616E-002;5.448041483759880E-003;1.550842076539993E-003;
2.401166666666667E+009;1.537048071622849E-001;9.313439577817917E-002;5.341393873095512E-003;1.105944975279272E-003;
2.401333333333334E+009;1.540504395961762E-001;9.020386636257172E-002;5.416020285338163E-003;1.064416952431202E-003;
2.401500000000000E+009;1.541402041912079E-001;8.713793009519577E-002;5.388499237596989E-003;6.560080801136792E-004;
2.401666666666667E+009;1.544309109449387E-001;8.428493142127991E-002;5.311264656484127E-003;3.913487598765642E-004;
2.401833333333334E+009;1.547205150127411E-001;8.126964420080185E-002;5.472577176988125E-003;1.788109948392957E-004;
2.402000000000000E+009;1.552570015192032E-001;7.828064262866974E-002;5.215874873101711E-003;3.991086850874126E-005;
2.402166666666667E+009;1.561101973056793E-001;7.569503039121628E-002;5.418677814304829E-003;-1.335496926913038E-004;
2.402333333333334E+009;1.569852828979492E-001;7.260785996913910E-002;5.393255036324263E-003;-3.285673155914992E-004;
2.402500000000000E+009;1.578195691108704E-001;6.999735534191132E-002;5.248649977147579E-003;-6.180459749884903E-004;
2.402666666666667E+009;1.590849161148071E-001;6.717137992382050E-002;5.212109535932541E-003;-1.012420048937202E-003;
2.402833333333334E+009;1.600533723831177E-001;6.461612135171890E-002;5.224280990660191E-003;-1.054760301485658E-003;
2.403000000000000E+009;1.615711748600006E-001;6.201686337590218E-002;5.222498439252377E-003;-1.347713870927692E-003;
2.403166666666667E+009;1.632449626922607E-001;5.968748405575752E-002;5.211343057453632E-003;-1.491948380135000E-003;
2.403333333333334E+009;1.649391800165176E-001;5.715796351432800E-002;5.022075492888689E-003;-1.624840078875423E-003;
2.403500000000000E+009;1.664465367794037E-001;5.483244732022286E-002;5.087202414870262E-003;-2.127380110323429E-003;
2.403666666666667E+009;1.685017198324204E-001;5.262944102287293E-002;4.944756627082825E-003;-2.275466686114669E-003;
2.403833333333334E+009;1.701343208551407E-001;5.040244385600090E-002;4.800049122422934E-003;-2.762319985777140E-003;
2.404000000000000E+009;1.718391627073288E-001;4.835119843482971E-002;4.607184324413538E-003;-2.903505926951766E-003;
2.404166666666667E+009;1.736341863870621E-001;4.670514166355133E-002;4.244934767484665E-003;-3.255245508626103E-003;
2.404333333333334E+009;1.754465252161026E-001;4.493937268853188E-002;4.179975483566523E-003;-3.573952242732048E-003;
2.404500000000000E+009;1.774844676256180E-001;4.334866628050804E-002;3.830302506685257E-003;-3.719922387972474E-003;
2.404666666666667E+009;1.791592836380005E-001;4.225767031311989E-002;3.252816153690219E-003;-3.949292935431004E-003;
2.404833333333334E+009;1.811135262250900E-001;4.075759649276733E-002;3.190509974956513E-003;-4.038965795189142E-003;
2.405000000000000E+009;1.827133148908615E-001;4.009209200739861E-002;2.985443919897080E-003;-4.024568479508162E-003;
2.405166666666667E+009;1.843385398387909E-001;3.922002017498016E-002;2.582594985142350E-003;-4.169492516666651E-003;
2.405333333333334E+009;1.858159899711609E-001;3.878021612763405E-002;2.108044922351837E-003;-5.030239466577768E-003;
2.405500000000000E+009;1.875836402177811E-001;3.770266845822334E-002;2.785652875900269E-003;-4.016675520688295E-003;
2.405666666666667E+009;1.890218853950501E-001;3.778923302888870E-002;1.639159978367388E-003;-5.045734811574221E-003;
2.405833333333334E+009;1.908584684133530E-001;3.758272528648377E-002;4.646661109291017E-004;-4.244497511535883E-003;
2.406000000000000E+009;1.919084042310715E-001;3.736627474427223E-002;1.167572685517371E-003;-4.446891602128744E-003;
2.406166666666667E+009;1.935645490884781E-001;3.692425414919853E-002;8.147372282110155E-004;-3.222965635359287E-003;
2.406333333333334E+009;1.947285830974579E-001;3.737711533904076E-002;2.922837447840720E-004;-3.402609610930085E-003;
2.406500000000000E+009;1.954769343137741E-001;3.775431960821152E-002;-1.668611512286589E-004;-4.214092157781124E-003;
2.406666666666667E+009;1.962648928165436E-001;3.758838400244713E-002;3.410360659472644E-004;-4.198195878416300E-003;
2.406833333333334E+009;1.971145123243332E-001;3.708209097385407E-002;3.220073122065514E-004;-2.147432416677475E-003;
2.407000000000000E+009;1.976330280303955E-001;3.817323595285416E-002;-6.640214269282296E-005;-3.784215310588479E-003;
2.407166666666667E+009;1.982440203428268E-001;3.812469542026520E-002;-3.359680995345116E-004;-3.575747832655907E-003;
2.407333333333334E+009;1.984252035617828E-001;3.856397420167923E-002;-3.629929269663990E-004;-3.393314313143492E-003;
2.407500000000000E+009;1.986038982868195E-001;3.892173245549202E-002;-4.830616235267371E-004;-3.286663442850113E-003;
2.407666666666667E+009;1.986966878175736E-001;3.912249207496643E-002;-7.137801148928702E-004;-3.143150825053453E-003;
2.407833333333334E+009;1.983374655246735E-001;3.940757736563683E-002;-7.852593553252518E-004;-2.900752238929272E-003;
2.408000000000000E+009;1.984614878892899E-001;3.932900726795197E-002;-9.721571113914251E-004;-2.527926117181778E-003;
2.408166666666667E+009;1.978095024824143E-001;3.937836736440659E-002;-1.082990784198046E-003;-2.542294794693589E-003;
2.408333333333334E+009;1.973557919263840E-001;3.898499906063080E-002;-1.005477155558765E-003;-2.308337949216366E-003;
2.408500000000000E+009;1.967404186725617E-001;3.927360847592354E-002;-1.037184149026871E-003;-2.059197984635830E-003;
2.408666666666667E+009;1.960240304470062E-001;3.896702453494072E-002;-1.121317734941840E-003;-1.844579936005175E-003;
2.408833333333334E+009;1.953055411577225E-001;3.857132792472839E-002;-1.032370841130614E-003;-1.566865248605609E-003;
2.409000000000000E+009;1.942433267831802E-001;3.799092769622803E-002;-9.486004128120840E-004;-1.522829174064100E-003;
2.409166666666667E+009;1.931394487619400E-001;3.733957931399345E-002;-8.489300962537527E-004;-1.335691194981337E-003;
2.409333333333334E+009;1.921747475862503E-001;3.664118051528931E-002;-8.165596518665552E-004;-1.168914604932070E-003;
2.409500000000000E+009;1.908344179391861E-001;3.564855456352234E-002;-5.228133522905409E-004;-1.027591410093010E-003;
2.409666666666667E+009;1.896205693483353E-001;3.447328135371208E-002;-5.101737915538251E-004;-1.046127406880260E-003;
2.409833333333334E+009;1.885126084089279E-001;3.318965062499046E-002;-2.302016218891367E-004;-1.017623348161578E-003;
2.410000000000000E+009;1.872564554214478E-001;3.189699351787567E-002;-2.580682048574090E-004;-9.656442562118173E-004;
2.410166666666667E+009;1.860170960426331E-001;3.025698103010654E-002;-1.223487051902339E-004;-1.029932987876236E-003;
2.410333333333334E+009;1.847280114889145E-001;2.864127047359943E-002;1.051909712259658E-004;-9.995453292503953E-004;
2.410500000000000E+009;1.836267262697220E-001;2.681162580847740E-002;-4.831758997170255E-005;-1.201438717544079E-003;
2.410666666666667E+009;1.824400424957275E-001;2.485374920070171E-002;1.945861004060134E-004;-1.153054065071046E-003;
2.410833333333334E+009;1.816070973873138E-001;2.282055094838142E-002;1.132904217229225E-004;-1.086236559785903E-003;
2.411000000000000E+009;1.805870532989502E-001;2.069971710443497E-002;2.591992088127881E-004;-1.241546240635216E-003;
2.411166666666667E+009;1.796632409095764E-001;1.836920157074928E-002;2.143475285265595E-004;-1.165127614513040E-003;
2.411333333333334E+009;1.789154708385468E-001;1.593003422021866E-002;2.332752046640962E-004;-1.339227310381830E-003;
2.411500000000000E+009;1.783336848020554E-001;1.347443182021380E-002;1.521394151495770E-004;-1.329649006947875E-003;
2.411666666666667E+009;1.778438836336136E-001;1.112940162420273E-002;1.478174381190911E-004;-1.317795831710100E-003;
2.411833333333334E+009;1.772705018520355E-001;8.764808997511864E-003;3.617512702476233E-004;-1.328588812611997E-003;
2.412000000000000E+009;1.774317473173142E-001;5.775769706815481E-003;2.358077763346955E-004;-1.388143631629646E-003;
2.412166666666667E+009;1.771961152553558E-001;3.400140907615423E-003;2.473031636327505E-004;-1.272049732506275E-003;
2.412333333333334E+009;1.772558391094208E-001;7.914972957223654E-004;1.911459694383666E-004;-1.457852078601718E-003;
2.412500000000000E+009;1.774737238883972E-001;-1.762903993949294E-003;2.856599458027631E-004;-1.338034984655678E-003;
2.412666666666667E+009;1.778617352247238E-001;-4.482964053750038E-003;4.215216613374651E-004;-1.376153668388724E-003;
2.412833333333334E+009;1.786195635795593E-001;-7.067799102514982E-003;3.535890718922019E-004;-1.519323792308569E-003;
2.413000000000000E+009;1.790893673896790E-001;-9.770464152097702E-003;4.174930509179831E-004;-1.441945089027286E-003;
2.413166666666667E+009;1.797865331172943E-001;-1.217669062316418E-002;5.845008417963982E-004;-1.732777804136276E-003;
2.413333333333334E+009;1.808872073888779E-001;-1.485343836247921E-002;6.076815188862383E-004;-1.718133571557701E-003;
2.413500000000000E+009;1.816700696945190E-001;-1.738598011434078E-002;6.117456941865385E-004;-1.847036997787654E-003;
2.413666666666667E+009;1.827594488859177E-001;-1.962227001786232E-002;6.605244707316160E-004;-2.040335210040212E-003;
2.413833333333334E+009;1.840858012437820E-001;-2.200144529342651E-002;8.035515202209353E-004;-2.095229458063841E-003;
2.414000000000000E+009;1.852959543466568E-001;-2.417960949242115E-002;7.670808699913323E-004;-2.289762254804373E-003;
2.414166666666667E+009;1.865867823362351E-001;-2.625118568539619E-002;6.292946054600179E-004;-2.603593980893493E-003;
2.414333333333334E+009;1.877355426549912E-001;-2.840783633291721E-002;4.527438431978226E-004;-2.803713548928499E-003;
2.414500000000000E+009;1.891643851995468E-001;-3.013196960091591E-002;5.464556161314249E-004;-3.061047056689858E-003;
2.414666666666667E+009;1.905916184186935E-001;-3.193975985050201E-002;1.870370178949088E-004;-3.195123048499227E-003;
2.414833333333334E+009;1.918120533227921E-001;-3.337528929114342E-002;8.200736192520708E-005;-3.381602000445128E-003;
2.415000000000000E+009;1.931616365909576E-001;-3.478156030178070E-002;-2.109664346789941E-004;-3.475996199995279E-003;
2.415166666666667E+009;1.945625096559525E-001;-3.611756861209869E-002;-5.170871736481786E-004;-3.626493969932199E-003;
2.415333333333334E+009;1.959739476442337E-001;-3.725507482886314E-002;-8.166013867594302E-004;-3.748552408069372E-003;
2.415500000000000E+009;1.973269879817963E-001;-3.801739588379860E-002;-9.757432853803039E-004;-3.590732812881470E-003;
2.415666666666667E+009;1.986549347639084E-001;-3.912644833326340E-002;-1.233899733051658E-003;-3.726382739841938E-003;
2.415833333333334E+009;1.996891796588898E-001;-3.975087031722069E-002;-1.622352981939912E-003;-3.669427009299398E-003;
2.416000000000000E+009;2.008562982082367E-001;-4.044415429234505E-002;-1.827255822718144E-003;-3.739751409739256E-003;
2.416166666666667E+009;2.018580287694931E-001;-4.096582904458046E-002;-2.224582014605403E-003;-3.475049510598183E-003;
2.416333333333334E+009;2.027943432331085E-001;-4.123784601688385E-002;-2.470020204782486E-003;-3.274969290941954E-003;
2.416500000000000E+009;2.034954130649567E-001;-4.158469289541245E-002;-2.673903945833445E-003;-3.189258044585586E-003;
2.416666666666667E+009;2.041709423065186E-001;-4.188467562198639E-002;-2.846266375854611E-003;-3.149284748360515E-003;
2.416833333333334E+009;2.046576738357544E-001;-4.192305356264114E-002;-3.166054375469685E-003;-2.875422127544880E-003;
2.417000000000000E+009;2.050443440675736E-001;-4.198136925697327E-002;-3.241436323150992E-003;-2.851680153980851E-003;
2.417166666666667E+009;2.050928771495819E-001;-4.171658307313919E-002;-3.367281518876553E-003;-2.669788897037506E-003;
2.417333333333334E+009;2.050979286432266E-001;-4.156925529241562E-002;-3.638416063040495E-003;-2.295950194820762E-003;
2.417500000000000E+009;2.050143778324127E-001;-4.144594818353653E-002;-3.686176147311926E-003;-2.131753368303180E-003;
2.417666666666667E+009;2.047160267829895E-001;-4.098866507411003E-002;-3.707491094246507E-003;-1.842068624682725E-003;
2.417833333333334E+009;2.045308649539948E-001;-4.059956595301628E-002;-3.846213687211275E-003;-1.554106944240630E-003;
2.418000000000000E+009;2.041294276714325E-001;-4.019167646765709E-002;-4.030132666230202E-003;-1.461061299778521E-003;
2.418166666666667E+009;2.033670842647553E-001;-3.983632102608681E-002;-4.026657436043024E-003;-1.267295330762863E-003;
2.418333333333334E+009;2.026596516370773E-001;-3.956496715545654E-002;-4.066844470798969E-003;-1.096788095310330E-003;
2.418500000000000E+009;2.018850892782211E-001;-3.922258317470551E-002;-4.073927644640207E-003;-7.803138578310609E-004;
2.418666666666667E+009;2.010114043951035E-001;-3.898869827389717E-002;-4.188860766589642E-003;-6.506598438136280E-004;
2.418833333333334E+009;1.997929215431213E-001;-3.897689655423164E-002;-4.258919041603804E-003;-3.902418247889727E-004;
2.419000000000000E+009;1.985271573066711E-001;-3.887474164366722E-002;-4.212492145597935E-003;-1.375269639538601E-004;
2.419166666666667E+009;1.973778158426285E-001;-3.889638930559158E-002;-4.121427424252033E-003;5.791692819911987E-005;
2.419333333333334E+009;1.959347277879715E-001;-3.927409648895264E-002;-4.089122638106346E-003;3.993785649072379E-004;
2.419500000000000E+009;1.943491548299789E-001;-3.943691775202751E-002;-4.079536069184542E-003;5.392900784499943E-004;
2.419666666666667E+009;1.928819417953491E-001;-3.992573544383049E-002;-3.982069902122021E-003;9.211798314936459E-004;
2.419833333333334E+009;1.911176145076752E-001;-4.023304954171181E-002;-3.929700702428818E-003;1.067664125002921E-003;
2.420000000000000E+009;1.895823776721954E-001;-4.103624075651169E-002;-3.781547769904137E-003;1.152662327513099E-003;
2.420166666666667E+009;1.876188963651657E-001;-4.183892533183098E-002;-3.638345282524824E-003;1.595746958628297E-003;
2.420333333333334E+009;1.859581768512726E-001;-4.283869639039040E-002;-3.397620515897870E-003;1.625787233933806E-003;
2.420500000000000E+009;1.841521859169006E-001;-4.400052130222321E-002;-3.119526896625757E-003;1.931332051753998E-003;
2.420666666666667E+009;1.824272125959396E-001;-4.504400119185448E-002;-3.141244407743216E-003;2.015345497056842E-003;
2.420833333333334E+009;1.805998831987381E-001;-4.649200290441513E-002;-2.728292252868414E-003;2.136437688022852E-003;
2.421000000000000E+009;1.789179146289825E-001;-4.795715212821960E-002;-2.539289882406592E-003;2.226774347946048E-003;
2.421166666666667E+009;1.772982329130173E-001;-4.969406127929688E-002;-2.337887650355697E-003;2.353772986680269E-003;
2.421333333333334E+009;1.754950284957886E-001;-5.131443589925766E-002;-2.161013428121805E-003;2.443253295496106E-003;
2.421500000000000E+009;1.740237325429916E-001;-5.311825871467590E-002;-1.857817289419472E-003;2.311561722308397E-003;
2.421666666666667E+009;1.724788099527359E-001;-5.511888489127159E-002;-1.581090618856251E-003;2.397023141384125E-003;
2.421833333333334E+009;1.712446510791779E-001;-5.699706822633743E-002;-1.520208432339132E-003;2.369147026911378E-003;
2.422000000000000E+009;1.698421239852905E-001;-5.904782563447952E-002;-1.252761110663414E-003;2.171545522287488E-003;
2.422166666666667E+009;1.688545197248459E-001;-6.132598966360092E-002;-1.154591212980449E-003;2.122273901477456E-003;
2.422333333333334E+009;1.676078736782074E-001;-6.344591826200485E-002;-9.720886591821909E-004;1.960175577551127E-003;
2.422500000000000E+009;1.666864156723023E-001;-6.555579602718353E-002;-9.666977566666901E-004;1.990147400647402E-003;
2.422666666666667E+009;1.658564805984497E-001;-6.780484318733215E-002;-7.160705281421542E-004;1.934698317199945E-003;
2.422833333333334E+009;1.651808768510819E-001;-7.004418224096298E-002;-6.621127249673009E-004;1.897720620036125E-003;
2.423000000000000E+009;1.646689176559448E-001;-7.223517447710037E-002;-5.862971302121878E-004;1.692053047008812E-003;
2.423166666666667E+009;1.640537977218628E-001;-7.458587735891342E-002;-4.939660429954529E-004;1.788110472261906E-003;
2.423333333333334E+009;1.638465970754623E-001;-7.679890096187592E-002;-3.548799431882799E-004;1.502615050412715E-003;
2.423500000000000E+009;1.636693477630615E-001;-7.884046435356140E-002;-4.792445397470146E-004;1.423430629074574E-003;
2.423666666666667E+009;1.636071354150772E-001;-8.095223456621170E-002;-3.161425702273846E-004;1.538553624413908E-003;
2.423833333333334E+009;1.636161208152771E-001;-8.300556242465973E-002;-1.566784922033548E-004;1.317604212090373E-003;
2.424000000000000E+009;1.635964959859848E-001;-8.517452329397202E-002;-2.064240543404594E-004;1.054562977515161E-003;
2.424166666666667E+009;1.637190878391266E-001;-8.696070313453674E-002;-2.728167455643416E-004;1.105836592614651E-003;
2.424333333333334E+009;1.639681905508041E-001;-8.875402063131332E-002;-2.035836951108649E-004;9.347961749881506E-004;
2.424500000000000E+009;1.644028276205063E-001;-9.074417501688004E-002;-9.279128425987437E-005;6.927601643837988E-004;
2.424666666666667E+009;1.647262126207352E-001;-9.240750968456268E-002;-6.400663551175967E-005;5.377599154599011E-004;
2.424833333333334E+009;1.655775904655457E-001;-9.392096102237701E-002;-2.125122700817883E-004;4.356218851171434E-004;
2.425000000000000E+009;1.659924983978272E-001;-9.527645260095596E-002;-2.911815245170146E-004;4.221780691295862E-004;
2.425166666666667E+009;1.663157641887665E-001;-9.659533202648163E-002;-4.142761754337698E-004;2.338039339520037E-004;
2.425333333333334E+009;1.669360995292664E-001;-9.785524755716324E-002;-6.746490835212171E-004;1.137033832492307E-004;
2.425500000000000E+009;1.677081137895584E-001;-9.898254275321960E-002;-8.632458630017936E-004;7.043731602607295E-005;
2.425666666666667E+009;1.681521236896515E-001;-9.987733513116837E-002;-8.262764895334840E-004;-9.361506090499461E-005;
2.425833333333334E+009;1.686696559190750E-001;-1.008508428931236E-001;-1.089077559299767E-003;2.701174344110768E-005;
2.426000000000000E+009;1.694067716598511E-001;-1.013503000140190E-001;-1.123928814195097E-003;1.893818262033165E-004;
2.426166666666667E+009;1.700508296489716E-001;-1.020918786525726E-001;-1.325010554865003E-003;2.621138410177082E-004;
2.426333333333334E+009;1.702709496021271E-001;-1.026723161339760E-001;-1.359019544906914E-003;4.063909873366356E-004;
2.426500000000000E+009;1.709982901811600E-001;-1.029225811362267E-001;-1.507630571722984E-003;5.579667049460113E-004;
2.426666666666667E+009;1.714595705270767E-001;-1.034373119473457E-001;-1.676072250120342E-003;6.585184019058943E-004;
2.426833333333334E+009;1.719932407140732E-001;-1.036822423338890E-001;-1.609268249012530E-003;7.227298337966204E-004;
2.427000000000000E+009;1.722075641155243E-001;-1.039395555853844E-001;-1.611605286598206E-003;8.003268740139902E-004;
2.427166666666667E+009;1.724393963813782E-001;-1.040237247943878E-001;-1.679674023762345E-003;9.007980115711689E-004;
2.427333333333334E+009;1.726370304822922E-001;-1.043032407760620E-001;-1.728373928926885E-003;1.102501060813665E-003;
2.427500000000000E+009;1.726064234972000E-001;-1.042591407895088E-001;-1.710655051283538E-003;1.125721610151231E-003;
2.427666666666667E+009;1.725228428840637E-001;-1.043217182159424E-001;-1.716915750876069E-003;1.235847827047110E-003;
