# Version 1.00
#
freq[Hz];re:Trc1_S11;im:Trc1_S11;re:Trc2_S21;im:Trc2_S21;
2.400000000000000E+009;1.556051075458527E-001;1.111103072762489E-001;4.800620023161173E-003;3.108860924839973E-003;
2.400166666666667E+009;1.549529284238815E-001;1.088736802339554E-001;4.825127776712179E-003;2.856707200407982E-003;
2.400333333333334E+009;1.548488140106201E-001;1.065923124551773E-001;5.016405601054430E-003;2.701733727008104E-003;
2.400500000000000E+009;1.546017229557037E-001;1.040864586830139E-001;5.177762359380722E-003;2.369765657931566E-003;
2.400666666666667E+009;1.543208211660385E-001;1.014499887824059E-001;5.352372303605080E-003;2.000308595597744E-003;
2.400833333333334E+009;1.540571302175522E-001;9.870761632919312E-002;5.430690478533506E-003;1.722411834634841E-003;
2.401000000000000E+009;1.539188027381897E-001;9.579865634441376E-002;5.406864453107119E-003;1.388922682963312E-003;
2.401166666666667E+009;1.536691039800644E-001;9.291542321443558E-002;5.447085946798325E-003;1.208698144182563E-003;
2.401333333333334E+009;1.538346856832504E-001;9.007953852415085E-002;5.704085808247328E-003;9.450415382161737E-004;
2.401500000000000E+009;1.540049016475678E-001;8.695623278617859E-002;5.518219899386168E-003;6.380982813425362E-004;
2.401666666666667E+009;1.541167944669724E-001;8.412234485149384E-002;5.462101660668850E-003;5.158353596925736E-004;
2.401833333333334E+009;1.544915139675140E-001;8.126828819513321E-002;5.497031845152378E-003;1.784198830137029E-004;
2.402000000000000E+009;1.550991684198380E-001;7.833789288997650E-002;5.474850069731474E-003;-1.625212462386116E-004;
2.402166666666667E+009;1.555817276239395E-001;7.553302496671677E-002;5.320107098668814E-003;-3.611735010053963E-004;
2.402333333333334E+009;1.564480364322662E-001;7.254181057214737E-002;5.367016885429621E-003;-4.545750853139907E-004;
2.402500000000000E+009;1.575358062982559E-001;6.972862035036087E-002;5.269680172204971E-003;-7.249792688526213E-004;
2.402666666666667E+009;1.585429608821869E-001;6.728790700435638E-002;5.284571088850498E-003;-9.348918683826923E-004;
2.402833333333334E+009;1.598976552486420E-001;6.434884667396545E-002;5.298638250678778E-003;-1.201178412884474E-003;
2.403000000000000E+009;1.613037139177322E-001;6.214616447687149E-002;5.159432999789715E-003;-1.183427521027625E-003;
2.403166666666667E+009;1.631265282630920E-001;5.960918590426445E-002;5.171917378902435E-003;-1.523527549579740E-003;
2.403333333333334E+009;1.644753217697144E-001;5.707366392016411E-002;5.058798938989639E-003;-1.973514677956700E-003;
2.403500000000000E+009;1.663101613521576E-001;5.468923971056938E-002;5.002941004931927E-003;-2.103197155520320E-003;
2.403666666666667E+009;1.680799424648285E-001;5.262393504381180E-002;4.943425767123699E-003;-2.468056511133909E-003;
2.403833333333334E+009;1.698998957872391E-001;5.043200403451920E-002;4.591762553900480E-003;-2.657525939866900E-003;
2.404000000000000E+009;1.714316010475159E-001;4.843292757868767E-002;4.595516715198755E-003;-2.927389927208424E-003;
2.404166666666667E+009;1.733969151973724E-001;4.680531471967697E-002;4.266846459358931E-003;-3.236789721995592E-003;
2.404333333333334E+009;1.751855015754700E-001;4.510425403714180E-002;4.061256069689989E-003;-3.617135575041175E-003;
2.404500000000000E+009;1.770195066928864E-001;4.341252893209457E-002;3.835125360637903E-003;-3.712943289428949E-003;
2.404666666666667E+009;1.788237392902374E-001;4.228818789124489E-002;3.557759337127209E-003;-3.792570438235998E-003;
2.404833333333334E+009;1.807979494333267E-001;4.097633808851242E-002;3.254316747188568E-003;-4.088898655027151E-003;
2.405000000000000E+009;1.824006885290146E-001;4.001839831471443E-002;2.902649343013763E-003;-4.120275378227234E-003;
2.405166666666667E+009;1.841485649347305E-001;3.920345380902290E-002;2.455984475091100E-003;-4.193369764834642E-003;
2.405333333333334E+009;1.857029944658279E-001;3.869603946805000E-002;2.421262208372355E-003;-4.147944971919060E-003;
2.405500000000000E+009;1.875457167625427E-001;3.812306374311447E-002;1.904732896946371E-003;-4.309094510972500E-003;
2.405666666666667E+009;1.889920234680176E-001;3.766690939664841E-002;1.685465103946626E-003;-4.124709870666266E-003;
2.405833333333334E+009;1.905038654804230E-001;3.743476793169975E-002;1.673889230005443E-003;-4.246069584041834E-003;
2.406000000000000E+009;1.918306946754456E-001;3.728474304080010E-002;1.304021454416215E-003;-4.135321360081434E-003;
2.406166666666667E+009;1.930855661630631E-001;3.724645078182221E-002;9.507912909612060E-004;-4.169122315943241E-003;
2.406333333333334E+009;1.941602975130081E-001;3.722941875457764E-002;8.514517103321850E-004;-4.063872620463371E-003;
2.406500000000000E+009;1.952415406703949E-001;3.746445104479790E-002;6.368714966811240E-004;-3.955624066293240E-003;
2.406666666666667E+009;1.961558610200882E-001;3.758573159575462E-002;4.718556010629982E-004;-3.932043444365263E-003;
2.406833333333334E+009;1.969413459300995E-001;3.778294473886490E-002;1.963969698408619E-004;-3.993321675807238E-003;
2.407000000000000E+009;1.974968165159226E-001;3.818744048476219E-002;1.849928776209708E-005;-3.641669405624270E-003;
2.407166666666667E+009;1.981222033500671E-001;3.822844848036766E-002;-1.738493592711166E-004;-3.624313278123736E-003;
2.407333333333334E+009;1.983296126127243E-001;3.868404030799866E-002;-2.577443665359169E-004;-3.538761986419559E-003;
2.407500000000000E+009;1.983493566513062E-001;3.901704773306847E-002;-5.651981336995959E-004;-3.385756397619844E-003;
2.407666666666667E+009;1.985689103603363E-001;3.910125046968460E-002;-6.593914586119354E-004;-3.272672416642308E-003;
2.407833333333334E+009;1.982837915420532E-001;3.941972926259041E-002;-8.182531455531716E-004;-3.115265397354960E-003;
2.408000000000000E+009;1.982580423355103E-001;3.946855291724205E-002;-1.081848051398993E-003;-2.898422069847584E-003;
2.408166666666667E+009;1.977824717760086E-001;3.950532525777817E-002;-1.137996325269342E-003;-2.571710618212819E-003;
2.408333333333334E+009;1.972751468420029E-001;3.925769031047821E-002;-1.209615729749203E-003;-2.315564313903451E-003;
2.408500000000000E+009;1.966538131237030E-001;3.937412053346634E-002;-1.120855798944831E-003;-2.208314370363951E-003;
2.408666666666667E+009;1.960925012826920E-001;3.913461044430733E-002;-1.142859109677374E-003;-2.046719426289201E-003;
2.408833333333334E+009;1.953221112489700E-001;3.863523527979851E-002;-1.042999094352126E-003;-1.725080888718367E-003;
2.409000000000000E+009;1.942870467901230E-001;3.804128617048264E-002;-1.119047752581537E-003;-1.499490928836167E-003;
2.409166666666667E+009;1.933030039072037E-001;3.757013380527496E-002;-8.653558325022459E-004;-1.371626043692231E-003;
2.409333333333334E+009;1.921569406986237E-001;3.682329505681992E-002;-7.055271416902542E-004;-1.304144388996065E-003;
2.409500000000000E+009;1.908202171325684E-001;3.584590554237366E-002;-8.610963122919202E-004;-2.038577105849981E-003;
2.409666666666667E+009;1.895601600408554E-001;3.467325121164322E-002;-7.564763654954732E-004;-1.296884031035006E-003;
2.409833333333334E+009;1.884128451347351E-001;3.341826424002647E-002;-6.299683445831761E-005;-8.701458573341370E-004;
2.410000000000000E+009;1.872410327196121E-001;3.219345584511757E-002;3.637431073002517E-004;-1.751670613884926E-003;
2.410166666666667E+009;1.859765052795410E-001;3.039532527327538E-002;-1.260461431229487E-004;-7.418242166750133E-004;
2.410333333333334E+009;1.848316043615341E-001;2.893732115626335E-002;2.399522199993953E-004;-1.100703375414014E-003;
2.410500000000000E+009;1.835039258003235E-001;2.706602774560452E-002;7.861799531383440E-005;-1.166075817309320E-003;
2.410666666666667E+009;1.825172454118729E-001;2.489624358713627E-002;-1.429533858754439E-005;-1.005575177259743E-003;
2.410833333333334E+009;1.817024350166321E-001;2.293091267347336E-002;1.254486560355872E-004;-1.189245842397213E-003;
2.411000000000000E+009;1.806239336729050E-001;2.080855518579483E-002;2.071054332191125E-004;-1.302373711951077E-003;
2.411166666666667E+009;1.797830909490585E-001;1.874457113444805E-002;7.055651076370850E-005;-1.188583788461983E-003;
2.411333333333334E+009;1.790834665298462E-001;1.610528677701950E-002;1.028416882036254E-004;-1.286743208765984E-003;
2.411500000000000E+009;1.782101541757584E-001;1.381357200443745E-002;2.623561886139214E-004;-1.330196624621749E-003;
2.411666666666667E+009;1.778123974800110E-001;1.127242390066385E-002;7.907122926553711E-005;-1.297419425100088E-003;
2.411833333333334E+009;1.774876415729523E-001;8.831228129565716E-003;1.717580744298175E-004;-1.427959650754929E-003;
2.412000000000000E+009;1.773818284273148E-001;6.118176970630884E-003;1.146527429227717E-004;-1.386505784466863E-003;
2.412166666666667E+009;1.772087216377258E-001;3.672558581456542E-003;1.331343664787710E-004;-1.519092009402812E-003;
2.412333333333334E+009;1.773588359355927E-001;9.076866554096341E-004;2.305001544300467E-004;-1.456893282011151E-003;
2.412500000000000E+009;1.774405986070633E-001;-1.591631677001715E-003;1.911011786432937E-004;-1.370385754853487E-003;
2.412666666666667E+009;1.779832690954208E-001;-4.317164421081543E-003;3.413275699131191E-004;-1.520427409559488E-003;
2.412833333333334E+009;1.785328388214111E-001;-7.087933830916882E-003;3.283696423750371E-004;-1.385751762427390E-003;
2.413000000000000E+009;1.791931241750717E-001;-9.521623142063618E-003;3.621594223659486E-004;-1.570469234138727E-003;
2.413166666666667E+009;1.797492951154709E-001;-1.209457498043776E-002;6.165076047182083E-004;-1.740148174576461E-003;
2.413333333333334E+009;1.809254288673401E-001;-1.474318560212851E-002;4.895066376775503E-004;-1.611999352462590E-003;
2.413500000000000E+009;1.817056834697723E-001;-1.714959368109703E-002;5.882133846171200E-004;-1.899215742014349E-003;
2.413666666666667E+009;1.827488094568253E-001;-1.945136301219463E-002;7.359824958257377E-004;-2.030235016718507E-003;
2.413833333333334E+009;1.839925646781921E-001;-2.174765989184380E-002;6.671732407994568E-004;-2.215934218838811E-003;
2.414000000000000E+009;1.852391064167023E-001;-2.409335784614086E-002;7.163722766563296E-004;-2.430075779557228E-003;
2.414166666666667E+009;1.865662932395935E-001;-2.594287320971489E-002;5.406573181971908E-004;-2.620835090056062E-003;
2.414333333333334E+009;1.877534836530685E-001;-2.823223918676376E-002;3.875214897561818E-004;-2.797440858557820E-003;
2.414500000000000E+009;1.891700178384781E-001;-2.997520007193089E-002;3.668278804980218E-004;-2.862829016521573E-003;
2.414666666666667E+009;1.906007826328278E-001;-3.165406733751297E-002;5.459265230456367E-005;-3.216016339138150E-003;
2.414833333333334E+009;1.918205469846726E-001;-3.326230868697166E-002;-2.695801595109515E-005;-3.511949209496379E-003;
2.415000000000000E+009;1.931486278772354E-001;-3.478789329528809E-002;-3.564109501894563E-004;-3.550254506990314E-003;
2.415166666666667E+009;1.946776807308197E-001;-3.607643768191338E-002;-5.970515776425600E-004;-3.716005710884929E-003;
2.415333333333334E+009;1.960666179656982E-001;-3.709197416901588E-002;-9.087057551369071E-004;-3.663725685328245E-003;
2.415500000000000E+009;1.973928958177567E-001;-3.794225305318832E-002;-9.998030727729201E-004;-3.686187556013465E-003;
2.415666666666667E+009;1.986231058835983E-001;-3.890924528241158E-002;-1.551466993987560E-003;-3.753894008696079E-003;
2.415833333333334E+009;1.996588706970215E-001;-3.955904766917229E-002;-1.630805083550513E-003;-3.728830954059959E-003;
2.416000000000000E+009;2.008954435586929E-001;-4.032583907246590E-002;-2.067853463813663E-003;-3.558442695066333E-003;
2.416166666666667E+009;2.019694447517395E-001;-4.081461578607559E-002;-2.209591446444392E-003;-3.427736461162567E-003;
2.416333333333334E+009;2.028910517692566E-001;-4.128849506378174E-002;-2.601928776130080E-003;-3.475298872217536E-003;
2.416500000000000E+009;2.036205232143402E-001;-4.154017195105553E-002;-2.655274467542768E-003;-3.287137253209949E-003;
2.416666666666667E+009;2.043259590864182E-001;-4.178332537412643E-002;-2.902913838624954E-003;-3.017634153366089E-003;
2.416833333333334E+009;2.047062814235687E-001;-4.173354804515839E-002;-3.182489424943924E-003;-2.963079838082194E-003;
2.417000000000000E+009;2.051413953304291E-001;-4.187097027897835E-002;-3.312155604362488E-003;-2.645933302119374E-003;
2.417166666666667E+009;2.051635980606079E-001;-4.166894406080246E-002;-3.500863676890731E-003;-2.511832863092423E-003;
2.417333333333334E+009;2.051615118980408E-001;-4.134617373347282E-002;-3.593903733417392E-003;-2.169629093259573E-003;
2.417500000000000E+009;2.051624059677124E-001;-4.123457521200180E-002;-3.854077309370041E-003;-1.985593233257532E-003;
2.417666666666667E+009;2.049252539873123E-001;-4.090986028313637E-002;-4.022685810923576E-003;-1.999476924538612E-003;
2.417833333333334E+009;2.047924846410751E-001;-4.062844067811966E-002;-3.885911079123616E-003;-1.678201835602522E-003;
2.418000000000000E+009;2.041913419961929E-001;-4.021822661161423E-002;-4.019083920866251E-003;-1.416335464455187E-003;
2.418166666666667E+009;2.035931497812271E-001;-3.998762741684914E-002;-4.029646050184965E-003;-1.260694582015276E-003;
2.418333333333334E+009;2.029511183500290E-001;-3.945392370223999E-002;-4.064290784299374E-003;-8.071235497482121E-004;
2.418500000000000E+009;2.019963115453720E-001;-3.929847851395607E-002;-4.263303242623806E-003;-8.605996263213456E-004;
2.418666666666667E+009;2.012186199426651E-001;-3.902718424797058E-002;-4.164229612797499E-003;-4.629126633517444E-004;
2.418833333333334E+009;2.001093178987503E-001;-3.887661173939705E-002;-4.210782237350941E-003;-3.720076638273895E-004;
2.419000000000000E+009;1.986880749464035E-001;-3.886810690164566E-002;-4.111012909561396E-003;5.732899808208458E-005;
2.419166666666667E+009;1.974601298570633E-001;-3.895843029022217E-002;-4.039576742798090E-003;1.859464100562036E-004;
2.419333333333334E+009;1.961623877286911E-001;-3.915223851799965E-002;-4.071175586432219E-003;2.978834672830999E-004;
2.419500000000000E+009;1.945075839757919E-001;-3.941661119461060E-002;-4.103634506464005E-003;7.294746465049684E-004;
2.419666666666667E+009;1.928727477788925E-001;-4.004156589508057E-002;-3.830074798315764E-003;9.276447817683220E-004;
2.419833333333334E+009;1.911819726228714E-001;-4.042501375079155E-002;-3.788944333791733E-003;1.130987773649395E-003;
2.420000000000000E+009;1.896021962165833E-001;-4.117061197757721E-002;-3.641487564891577E-003;1.330143422819674E-003;
2.420166666666667E+009;1.878842562437058E-001;-4.194534942507744E-002;-3.548563923686743E-003;1.574287889525294E-003;
2.420333333333334E+009;1.862103790044785E-001;-4.294584318995476E-002;-3.351401770487428E-003;1.791032613255084E-003;
2.420500000000000E+009;1.843140572309494E-001;-4.418658465147018E-002;-3.316598944365978E-003;1.895631197839975E-003;
2.420666666666667E+009;1.825439929962158E-001;-4.523152858018875E-002;-3.034830326214433E-003;2.098505618050695E-003;
2.420833333333334E+009;1.807776242494583E-001;-4.664730653166771E-002;-2.802213653922081E-003;2.190439961850643E-003;
2.421000000000000E+009;1.791483908891678E-001;-4.817160218954086E-002;-2.695311093702912E-003;2.304753288626671E-003;
2.421166666666667E+009;1.774558126926422E-001;-4.993962496519089E-002;-2.360598882660270E-003;2.371955430135131E-003;
2.421333333333334E+009;1.755354851484299E-001;-5.129202082753182E-002;-2.187577774748206E-003;2.284482587128878E-003;
2.421500000000000E+009;1.741801053285599E-001;-5.337405949831009E-002;-2.033394994214177E-003;2.327425405383110E-003;
2.421666666666667E+009;1.727049648761749E-001;-5.523662269115448E-002;-1.821132958866656E-003;2.545502036809921E-003;
2.421833333333334E+009;1.713728457689285E-001;-5.729522928595543E-002;-1.425125868991017E-003;2.351746195927262E-003;
2.422000000000000E+009;1.699196994304657E-001;-5.922299250960350E-002;-1.177541678771377E-003;2.369691384956241E-003;
2.422166666666667E+009;1.689485609531403E-001;-6.149511784315109E-002;-1.208712812513113E-003;2.359317149966955E-003;
2.422333333333334E+009;1.676919758319855E-001;-6.349758803844452E-002;-8.581132278777659E-004;2.207191893830895E-003;
2.422500000000000E+009;1.667934358119965E-001;-6.570978462696075E-002;-8.949452312663198E-004;2.101933583617210E-003;
2.422666666666667E+009;1.658217310905457E-001;-6.791078299283981E-002;-6.956859142519534E-004;2.069648588076234E-003;
2.422833333333334E+009;1.652906537055969E-001;-7.021293789148331E-002;-5.671399994753301E-004;1.993958372622728E-003;
2.423000000000000E+009;1.645138114690781E-001;-7.257740199565888E-002;-3.843510639853776E-004;1.794681767933071E-003;
2.423166666666667E+009;1.640545874834061E-001;-7.464721053838730E-002;-4.789897066075355E-004;1.807918655686081E-003;
2.423333333333334E+009;1.638326793909073E-001;-7.698304206132889E-002;-5.042604170739651E-004;1.648975186981261E-003;
2.423500000000000E+009;1.635275483131409E-001;-7.906001806259155E-002;-2.427668223390356E-004;1.510233851149678E-003;
2.423666666666667E+009;1.635783165693283E-001;-8.111914247274399E-002;-1.511680311523378E-004;1.396294916048646E-003;
2.423833333333334E+009;1.633582711219788E-001;-8.313684165477753E-002;-1.034455490298569E-004;1.264549675397575E-003;
2.424000000000000E+009;1.635252386331558E-001;-8.529789745807648E-002;-3.353640568093397E-005;1.218012417666614E-003;
2.424166666666667E+009;1.637022048234940E-001;-8.699978888034821E-002;7.464068767149001E-005;1.100633526220918E-003;
2.424333333333334E+009;1.640108376741409E-001;-8.871073275804520E-002;-9.365748155687470E-006;7.676350069232285E-004;
2.424500000000000E+009;1.643620133399963E-001;-9.093715995550156E-002;-1.241078425664455E-004;7.699562702327967E-004;
2.424666666666667E+009;1.646610200405121E-001;-9.239719063043594E-002;-1.137983053922653E-004;6.562386406585574E-004;
2.424833333333334E+009;1.654217839241028E-001;-9.384433180093765E-002;-1.077843044186011E-004;3.861679288093001E-004;
2.425000000000000E+009;1.659511476755142E-001;-9.545462578535080E-002;-1.491412986069918E-004;3.937053552363068E-004;
2.425166666666667E+009;1.663703471422195E-001;-9.668763726949692E-002;-3.091460966970772E-004;4.283495945855975E-004;
2.425333333333334E+009;1.668310165405273E-001;-9.783282130956650E-002;-4.844260984100401E-004;1.634395157452673E-004;
2.425500000000000E+009;1.675353199243546E-001;-9.904314577579498E-002;-6.405590102076531E-004;-3.976389052695595E-005;
2.425666666666667E+009;1.681499034166336E-001;-9.989620000123978E-002;-7.908772095106542E-004;-6.396462413249537E-005;
2.425833333333334E+009;1.687443703413010E-001;-1.008654385805130E-001;-9.164715302176774E-004;-6.080285311327316E-005;
2.426000000000000E+009;1.695173531770706E-001;-1.015235483646393E-001;-1.038106856867671E-003;-3.612731518387591E-007;
2.426166666666667E+009;1.699282377958298E-001;-1.020540967583656E-001;-1.213209121488035E-003;2.318905171705410E-004;
2.426333333333334E+009;1.703810989856720E-001;-1.027130559086800E-001;-1.158774015493691E-003;3.785562585107982E-004;
2.426500000000000E+009;1.710265129804611E-001;-1.031124070286751E-001;-1.590302563272417E-003;4.325579211581498E-004;
2.426666666666667E+009;1.715577840805054E-001;-1.034293547272682E-001;-1.521474448964000E-003;6.205731187947094E-004;
2.426833333333334E+009;1.719577759504318E-001;-1.037485674023628E-001;-1.631795545108616E-003;5.821884260512888E-004;
2.427000000000000E+009;1.721605807542801E-001;-1.039852127432823E-001;-1.690363395027816E-003;7.884201477281749E-004;
2.427166666666667E+009;1.725104004144669E-001;-1.040480136871338E-001;-1.626941142603755E-003;7.823850610293448E-004;
2.427333333333334E+009;1.726457625627518E-001;-1.042478159070015E-001;-1.738311722874641E-003;1.023608958348632E-003;
2.427500000000000E+009;1.726081520318985E-001;-1.043696328997612E-001;-1.656370004639030E-003;9.799214312806726E-004;
2.427666666666667E+009;1.725653409957886E-001;-1.043839156627655E-001;-1.638351241126657E-003;9.845060994848609E-004;
