# Version 1.00
#
freq[Hz];re:Trc1_S11;im:Trc1_S11;re:Trc2_S21;im:Trc2_S21;
2.400000000000000E+009;1.569183319807053E-001;1.061730533838272E-001;-1.530857844045386E-004;-1.436395337805152E-003;
2.400166666666667E+009;1.569226384162903E-001;1.038215979933739E-001;-2.498723624739796E-004;-1.442698528990150E-003;
2.400333333333334E+009;1.570887118577957E-001;1.016143336892128E-001;-1.511708833277226E-004;-1.339421607553959E-003;
2.400500000000000E+009;1.574146449565888E-001;9.907499700784683E-002;-2.955711970571429E-004;-1.396433450281620E-003;
2.400666666666667E+009;1.576222181320190E-001;9.681796282529831E-002;-1.859726762631908E-004;-1.362019567750394E-003;
2.400833333333334E+009;1.579899936914444E-001;9.413836151361466E-002;-2.302771463291720E-004;-1.315814442932606E-003;
2.401000000000000E+009;1.582673043012619E-001;9.158121049404144E-002;-2.310227428097278E-004;-1.561313285492361E-003;
2.401166666666667E+009;1.585429757833481E-001;8.881654590368271E-002;-4.752456152345985E-005;-1.434502890333533E-003;
2.401333333333334E+009;1.590879708528519E-001;8.633790165185928E-002;-3.601848438847810E-004;-1.471283030696213E-003;
2.401500000000000E+009;1.596838235855103E-001;8.359106630086899E-002;-2.041699481196702E-004;-1.631960738450289E-003;
2.401666666666667E+009;1.600215435028076E-001;8.075042068958283E-002;-4.017731989733875E-004;-1.577729708515108E-003;
2.401833333333334E+009;1.608252823352814E-001;7.827766239643097E-002;-5.404670955613256E-004;-1.534170005470514E-003;
2.402000000000000E+009;1.616741716861725E-001;7.579649984836578E-002;-5.867241416126490E-004;-1.573106157593429E-003;
2.402166666666667E+009;1.624238938093185E-001;7.360291481018066E-002;-7.424077484756708E-004;-1.543456222862005E-003;
2.402333333333334E+009;1.633686870336533E-001;7.086759805679321E-002;-8.148233173415065E-004;-1.466513145714998E-003;
2.402500000000000E+009;1.644883453845978E-001;6.858503073453903E-002;-9.224246023222804E-004;-1.264291466213763E-003;
2.402666666666667E+009;1.653613746166229E-001;6.633733958005905E-002;-1.086408738046885E-003;-1.214291318319738E-003;
2.402833333333334E+009;1.667681634426117E-001;6.416808068752289E-002;-9.622297366149724E-004;-1.061356277205050E-003;
2.403000000000000E+009;1.680096089839935E-001;6.198656558990479E-002;-1.021770993247628E-003;-9.395587258040905E-004;
2.403166666666667E+009;1.694215089082718E-001;5.996502935886383E-002;-1.023257733322680E-003;-8.421006496064365E-004;
2.403333333333334E+009;1.706353873014450E-001;5.775447934865952E-002;-8.941859705373645E-004;-6.434320821426809E-004;
2.403500000000000E+009;1.721608787775040E-001;5.589019507169724E-002;-8.508376195095480E-004;-5.018738447688520E-004;
2.403666666666667E+009;1.738536357879639E-001;5.402141064405441E-002;-8.584310417063534E-004;-4.979634541086853E-004;
2.403833333333334E+009;1.751982718706131E-001;5.228808894753456E-002;-8.625888731330633E-004;-3.316039801575244E-004;
2.404000000000000E+009;1.766599714756012E-001;5.052355304360390E-002;-6.495332927443087E-004;-3.621635551098734E-004;
2.404166666666667E+009;1.780027151107788E-001;4.913451522588730E-002;-5.419679800979793E-004;-3.860703727696091E-004;
2.404333333333334E+009;1.793359220027924E-001;4.776355624198914E-002;-5.965469754301012E-004;-3.812900686170906E-004;
2.404500000000000E+009;1.807739436626434E-001;4.630154371261597E-002;-3.050321538466960E-004;-3.751396143343300E-004;
2.404666666666667E+009;1.822258830070496E-001;4.510425403714180E-002;-3.530931135173887E-004;-3.965063369832933E-004;
2.404833333333334E+009;1.836698055267334E-001;4.398478195071220E-002;-3.271459136158228E-004;-5.197937716729939E-004;
2.405000000000000E+009;1.846483200788498E-001;4.335146397352219E-002;-2.812494349200279E-004;-4.632031486835331E-004;
2.405166666666667E+009;1.858133822679520E-001;4.249454662203789E-002;-2.973477239720523E-004;-5.988935590721667E-004;
2.405333333333334E+009;1.870928853750229E-001;4.183065518736839E-002;-2.044479479081929E-004;-4.885145463049412E-004;
2.405500000000000E+009;1.880937665700913E-001;4.126799106597900E-002;-4.267814510967583E-004;-5.763959488831461E-004;
2.405666666666667E+009;1.891074925661087E-001;4.083226621150971E-002;-3.200384380761534E-004;-7.652960484847426E-004;
2.405833333333334E+009;1.902572363615036E-001;4.025954008102417E-002;-2.835862396750599E-004;-6.838901317678392E-004;
2.406000000000000E+009;1.909674257040024E-001;4.008190333843231E-002;-3.764231805689633E-004;-6.496215355582535E-004;
2.406166666666667E+009;1.918670684099197E-001;3.963850066065788E-002;-2.298347098985687E-004;-5.771299474872649E-004;
2.406333333333334E+009;1.926551312208176E-001;3.957634791731834E-002;-4.226948658470064E-004;-7.477981271222234E-004;
2.406500000000000E+009;1.932424157857895E-001;3.938707336783409E-002;-5.496935918927193E-004;-8.134219096973538E-004;
2.406666666666667E+009;1.937555074691773E-001;3.909315541386604E-002;-4.179215175099671E-004;-7.643412682227790E-004;
2.406833333333334E+009;1.941618323326111E-001;3.902621939778328E-002;-3.581160854082555E-004;-7.627801387570798E-004;
2.407000000000000E+009;1.943815946578980E-001;3.902480006217957E-002;-4.828680830541998E-004;-8.091735071502626E-004;
2.407166666666667E+009;1.947750151157379E-001;3.863177075982094E-002;-6.576803280040622E-004;-7.239129627123475E-004;
2.407333333333334E+009;1.947003751993179E-001;3.847704082727432E-002;-6.638818304054439E-004;-7.546843844465911E-004;
2.407500000000000E+009;1.946417838335037E-001;3.837887570261955E-002;-5.943229189142585E-004;-7.540754741057754E-004;
2.407666666666667E+009;1.947249174118042E-001;3.805968910455704E-002;-4.911173018626869E-004;-7.098978385329247E-004;
2.407833333333334E+009;1.943100094795227E-001;3.787386417388916E-002;-5.585032049566507E-004;-8.741674828343093E-004;
2.408000000000000E+009;1.942834556102753E-001;3.748805820941925E-002;-6.500890012830496E-004;-8.101649000309408E-004;
2.408166666666667E+009;1.937810331583023E-001;3.697883710265160E-002;-7.889678236097097E-004;-8.368301787413657E-004;
2.408333333333334E+009;1.934596300125122E-001;3.621188178658485E-002;-5.942821153439581E-004;-6.981564220041037E-004;
2.408500000000000E+009;1.929792016744614E-001;3.582203388214111E-002;-5.480532418005168E-004;-6.032537785358727E-004;
2.408666666666667E+009;1.924938708543778E-001;3.513322398066521E-002;-6.993820425122976E-004;-5.583392339758575E-004;
2.408833333333334E+009;1.920476108789444E-001;3.425266593694687E-002;-7.538602221757174E-004;-5.295013543218374E-004;
2.409000000000000E+009;1.913105100393295E-001;3.322090581059456E-002;-5.984145100228488E-004;-5.242037586867809E-004;
2.409166666666667E+009;1.904688328504562E-001;3.213357180356979E-002;-5.417906213551760E-004;-5.261948099359870E-004;
2.409333333333334E+009;1.897227615118027E-001;3.121966123580933E-002;-7.139699300751090E-004;-4.798865411430597E-004;
2.409500000000000E+009;1.887999475002289E-001;2.975749038159847E-002;-5.396347260102630E-004;-5.328455008566380E-004;
2.409666666666667E+009;1.881199479103088E-001;2.833103761076927E-002;-5.114189698360860E-004;-4.040011262986809E-004;
2.409833333333334E+009;1.872866153717041E-001;2.689892053604126E-002;-5.060837720520794E-004;-6.271876045502722E-004;
2.410000000000000E+009;1.866445541381836E-001;2.531105279922485E-002;-4.880659398622811E-004;-5.439259693957865E-004;
2.410166666666667E+009;1.858134567737579E-001;2.351910807192326E-002;-3.991391567979008E-004;-5.357154877856374E-004;
2.410333333333334E+009;1.850373595952988E-001;2.188942581415176E-002;-4.837796150241047E-004;-5.986497853882611E-004;
2.410500000000000E+009;1.842789500951767E-001;2.007588185369968E-002;-3.614813031163067E-004;-7.972343591973186E-004;
2.410666666666667E+009;1.837504655122757E-001;1.791205629706383E-002;-3.805361629929394E-004;-8.965152665041387E-004;
2.410833333333334E+009;1.831532865762711E-001;1.598974131047726E-002;-3.884905308950692E-004;-8.269030367955566E-004;
2.411000000000000E+009;1.826171278953552E-001;1.395251695066690E-002;-4.725395701825619E-004;-1.042409799993038E-003;
2.411166666666667E+009;1.820531338453293E-001;1.191600970923901E-002;-3.360286355018616E-004;-1.141571905463934E-003;
2.411333333333334E+009;1.817007362842560E-001;9.562377817928791E-003;-7.070319261401892E-004;-1.278672716580331E-003;
2.411500000000000E+009;1.814624667167664E-001;7.441239431500435E-003;-8.008291479200125E-004;-1.398126245476306E-003;
2.411666666666667E+009;1.814451664686203E-001;5.276718176901341E-003;-9.259888902306557E-004;-1.485170680098236E-003;
2.411833333333334E+009;1.811661571264267E-001;3.233874915167689E-003;-9.454569662921131E-004;-1.521640457212925E-003;
2.412000000000000E+009;1.813553571701050E-001;7.857945747673512E-004;-1.258119125850499E-003;-1.383694936521351E-003;
2.412166666666667E+009;1.814770847558975E-001;-1.205731532536447E-003;-1.568336971104145E-003;-1.495767151936889E-003;
2.412333333333334E+009;1.816073507070541E-001;-3.437236649915576E-003;-1.584992627613246E-003;-1.398200867697597E-003;
2.412500000000000E+009;1.819493472576141E-001;-5.625683814287186E-003;-1.704647089354694E-003;-1.396962674334645E-003;
2.412666666666667E+009;1.825683116912842E-001;-7.938376627862454E-003;-1.977078383788467E-003;-1.168381422758102E-003;
2.412833333333334E+009;1.832449883222580E-001;-1.015697047114372E-002;-2.100893296301365E-003;-1.184917171485722E-003;
2.413000000000000E+009;1.839344799518585E-001;-1.205288246273994E-002;-2.365192165598273E-003;-8.546061581000686E-004;
2.413166666666667E+009;1.845335215330124E-001;-1.401312369853258E-002;-2.398958196863532E-003;-7.660595001652837E-004;
2.413333333333334E+009;1.854506433010101E-001;-1.625765115022659E-002;-2.515376778319478E-003;-5.165984039194882E-004;
2.413500000000000E+009;1.862916648387909E-001;-1.827871985733509E-002;-2.496649045497179E-003;-3.301546385046095E-004;
2.413666666666667E+009;1.872313171625137E-001;-2.029889449477196E-002;-2.580693457275629E-003;-1.003171273623593E-004;
2.413833333333334E+009;1.883510947227478E-001;-2.221432887017727E-002;-2.426299033686519E-003;9.127449447987601E-005;
2.414000000000000E+009;1.892362833023071E-001;-2.394327148795128E-002;-2.409468870609999E-003;4.688392218668014E-004;
2.414166666666667E+009;1.902462840080261E-001;-2.566993795335293E-002;-2.337287412956357E-003;4.051503201480955E-004;
2.414333333333334E+009;1.913162171840668E-001;-2.752474136650562E-002;-2.275855746120215E-003;5.959292175248265E-004;
2.414500000000000E+009;1.923844069242477E-001;-2.887663431465626E-002;-2.109487308189273E-003;7.365938508883119E-004;
2.414666666666667E+009;1.931263208389282E-001;-3.018252551555634E-002;-2.016094978898764E-003;7.656559464521706E-004;
2.414833333333334E+009;1.943121403455734E-001;-3.159135952591896E-002;-1.896114787086844E-003;8.182455785572529E-004;
2.415000000000000E+009;1.951573342084885E-001;-3.289210051298142E-002;-1.833617920055986E-003;9.014616953209043E-004;
2.415166666666667E+009;1.962468177080154E-001;-3.396817669272423E-002;-1.800587750039995E-003;1.065831747837365E-003;
2.415333333333334E+009;1.971684098243713E-001;-3.496422246098518E-002;-1.662899623624980E-003;1.015175716020167E-003;
2.415500000000000E+009;1.979856938123703E-001;-3.580428659915924E-002;-1.627821126021445E-003;1.057163695804775E-003;
2.415666666666667E+009;1.988333612680435E-001;-3.671355918049812E-002;-1.601415220648050E-003;1.186919049359858E-003;
2.415833333333334E+009;1.994432508945465E-001;-3.749648854136467E-002;-1.503882114775479E-003;1.018301467411220E-003;
2.416000000000000E+009;2.000981867313385E-001;-3.809909150004387E-002;-1.446132082492113E-003;1.230125199072063E-003;
2.416166666666667E+009;2.006598114967346E-001;-3.871940821409226E-002;-1.397706684656441E-003;1.357334316708148E-003;
2.416333333333334E+009;2.011245340108872E-001;-3.911415487527847E-002;-1.384350936859846E-003;1.297012437134981E-003;
2.416500000000000E+009;2.013954818248749E-001;-3.962368518114090E-002;-1.269872998818755E-003;1.256322138942778E-003;
2.416666666666667E+009;2.015217989683151E-001;-4.007457196712494E-002;-1.294645364396274E-003;1.329286140389741E-003;
2.416833333333334E+009;2.015309482812882E-001;-4.033375531435013E-002;-1.160842482931912E-003;1.542801270261407E-003;
2.417000000000000E+009;2.015709131956101E-001;-4.060490801930428E-002;-1.200853264890611E-003;1.519341720268130E-003;
2.417166666666667E+009;2.012586146593094E-001;-4.082106426358223E-002;-1.025877310894430E-003;1.580338110215962E-003;
2.417333333333334E+009;2.009482234716415E-001;-4.080189391970635E-002;-9.965193457901478E-004;1.555320341140032E-003;
2.417500000000000E+009;2.006852030754089E-001;-4.112271964550018E-002;-8.415654883719981E-004;1.494521158747375E-003;
2.417666666666667E+009;2.000816613435745E-001;-4.100808873772621E-002;-7.178785745054483E-004;1.585564925335348E-003;
2.417833333333334E+009;1.997042447328568E-001;-4.103644192218781E-002;-7.726735202595592E-004;1.592176384292543E-003;
2.418000000000000E+009;1.990677267313004E-001;-4.106653481721878E-002;-6.336462101899087E-004;1.651176484301686E-003;
2.418166666666667E+009;1.982882767915726E-001;-4.123593866825104E-002;-6.446692277677357E-004;1.653194543905556E-003;
2.418333333333334E+009;1.974145919084549E-001;-4.126944765448570E-002;-5.346764810383320E-004;1.625709119252861E-003;
2.418500000000000E+009;1.964358687400818E-001;-4.150706902146339E-002;-3.140907210763544E-004;1.583275268785656E-003;
2.418666666666667E+009;1.956665217876434E-001;-4.165883734822273E-002;-4.726164916064590E-004;1.502006081864238E-003;
2.418833333333334E+009;1.946174651384354E-001;-4.183486849069595E-002;-1.864207297330722E-004;1.506097498349845E-003;
2.419000000000000E+009;1.934681087732315E-001;-4.232720285654068E-002;-2.084535080939531E-004;1.395049737766385E-003;
2.419166666666667E+009;1.922643631696701E-001;-4.283045232295990E-002;-1.037914917105809E-004;1.322848023846746E-003;
2.419333333333334E+009;1.911215782165527E-001;-4.344996809959412E-002;-1.468281261622906E-004;1.332671497948468E-003;
2.419500000000000E+009;1.899231225252152E-001;-4.387559369206429E-002;-1.389047538395971E-004;1.270618406124413E-003;
2.419666666666667E+009;1.884613335132599E-001;-4.481910541653633E-002;-1.521281519671902E-004;1.082489732652903E-003;
2.419833333333334E+009;1.869503110647202E-001;-4.553828388452530E-002;-2.134775277227163E-004;1.072680111974478E-003;
2.420000000000000E+009;1.857655495405197E-001;-4.644123837351799E-002;-1.555161870783195E-004;9.842284489423037E-004;
2.420166666666667E+009;1.843261867761612E-001;-4.740978404879570E-002;-3.637084155343473E-004;1.034131040796638E-003;
2.420333333333334E+009;1.828345507383347E-001;-4.857498779892921E-002;-2.661050239112228E-004;9.917618008330464E-004;
2.420500000000000E+009;1.815194785594940E-001;-4.978371411561966E-002;-3.579220501706004E-004;1.065948512405157E-003;
2.420666666666667E+009;1.800149381160736E-001;-5.102442577481270E-002;-3.665161202661693E-004;9.938928997144103E-004;
2.420833333333334E+009;1.785285025835037E-001;-5.239930003881455E-002;-4.394670540932566E-004;1.269329222850502E-003;
2.421000000000000E+009;1.773958206176758E-001;-5.394949018955231E-002;-1.895033929031342E-004;1.215485041029751E-003;
2.421166666666667E+009;1.761541068553925E-001;-5.560952425003052E-002;-4.657297395169735E-004;1.275313785299659E-003;
2.421333333333334E+009;1.746570914983749E-001;-5.692721903324127E-002;-1.511541777290404E-004;1.391925150528550E-003;
2.421500000000000E+009;1.734598278999329E-001;-5.880535766482353E-002;-1.456223253626376E-004;1.342504750937223E-003;
2.421666666666667E+009;1.724691092967987E-001;-6.042983755469322E-002;-2.017121187236626E-005;1.392853795550764E-003;
2.421833333333334E+009;1.714119017124176E-001;-6.213828176259995E-002;-1.489925634814426E-004;1.417450141161680E-003;
2.422000000000000E+009;1.703962534666061E-001;-6.393196433782578E-002;6.728793323418358E-006;1.463622436858714E-003;
2.422166666666667E+009;1.695358455181122E-001;-6.578804552555084E-002;-1.339665504929144E-005;1.397737301886082E-003;
2.422333333333334E+009;1.687519848346710E-001;-6.756516546010971E-002;6.505406781798229E-005;1.437493599951267E-003;
2.422500000000000E+009;1.678217202425003E-001;-6.916341930627823E-002;6.701382517348975E-005;1.364929368719459E-003;
2.422666666666667E+009;1.672935932874680E-001;-7.112770527601242E-002;3.359348920639604E-005;1.382335205562413E-003;
2.422833333333334E+009;1.668334007263184E-001;-7.306781411170960E-002;7.372401159955189E-005;1.247207983396947E-003;
2.423000000000000E+009;1.661122888326645E-001;-7.488107681274414E-002;3.982921771239489E-005;1.482798834331334E-003;
2.423166666666667E+009;1.659146547317505E-001;-7.650576531887054E-002;2.683702914509922E-004;1.483456580899656E-003;
2.423333333333334E+009;1.656628102064133E-001;-7.831639051437378E-002;2.916443372669164E-005;1.367154764011502E-003;
2.423500000000000E+009;1.654616892337799E-001;-7.998171448707581E-002;2.009361342061311E-004;1.564065343700349E-003;
2.423666666666667E+009;1.654477715492249E-001;-8.178598433732987E-002;2.247578086098656E-004;1.451675547286868E-003;
2.423833333333334E+009;1.653432101011276E-001;-8.317227661609650E-002;2.201567549491301E-004;1.518881646916270E-003;
2.424000000000000E+009;1.653055250644684E-001;-8.490954339504242E-002;4.568162548821420E-004;1.535113668069243E-003;
2.424166666666667E+009;1.653199195861816E-001;-8.648310601711273E-002;4.930707509629428E-004;1.640064641833305E-003;
2.424333333333334E+009;1.652577519416809E-001;-8.786787837743759E-002;5.199332372285426E-004;1.490688533522189E-003;
2.424500000000000E+009;1.655794084072113E-001;-8.949595689773560E-002;7.074077730067074E-004;1.541949226520956E-003;
2.424666666666667E+009;1.656867563724518E-001;-9.067820757627487E-002;6.970239919610322E-004;1.435598125681281E-003;
2.424833333333334E+009;1.661137491464615E-001;-9.192364662885666E-002;9.020839352160692E-004;1.386659918352962E-003;
2.425000000000000E+009;1.662854403257370E-001;-9.306169301271439E-002;9.016291005536914E-004;1.304398174397647E-003;
2.425166666666667E+009;1.664270162582398E-001;-9.421362727880478E-002;8.608432253822684E-004;1.332363113760948E-003;
2.425333333333334E+009;1.666799187660217E-001;-9.503201395273209E-002;1.075957319699228E-003;1.235179253853858E-003;
2.425500000000000E+009;1.670706421136856E-001;-9.604232013225555E-002;1.043199095875025E-003;1.069878693670034E-003;
2.425666666666667E+009;1.671726107597351E-001;-9.681502729654312E-002;1.059817266650498E-003;1.292030443437398E-003;
2.425833333333334E+009;1.674150824546814E-001;-9.767572581768036E-002;1.183265121653676E-003;1.005459227599204E-003;
2.426000000000000E+009;1.676833480596542E-001;-9.816800802946091E-002;1.226487685926259E-003;9.435102110728622E-004;
2.426166666666667E+009;1.679237782955170E-001;-9.870738536119461E-002;1.286053331568837E-003;9.207429829984903E-004;
2.426333333333334E+009;1.679248362779617E-001;-9.928488731384277E-002;1.127561321482062E-003;1.051821163855493E-003;
2.426500000000000E+009;1.683189123868942E-001;-9.970018267631531E-002;1.119203167036176E-003;9.418810368515551E-004;
2.426666666666667E+009;1.684396117925644E-001;-1.002030298113823E-001;1.268090214580298E-003;8.403012761846185E-004;
2.426833333333334E+009;1.685459613800049E-001;-1.005527153611183E-001;1.349727273918688E-003;8.417556528002024E-004;
2.427000000000000E+009;1.685114353895187E-001;-1.010151132941246E-001;1.332285581156611E-003;6.513615371659398E-004;
2.427166666666667E+009;1.685101687908173E-001;-1.011988967657089E-001;1.370147801935673E-003;5.863762926310301E-004;
2.427333333333334E+009;1.683979183435440E-001;-1.016152203083038E-001;1.278635463677347E-003;6.692535826005042E-004;
2.427500000000000E+009;1.681410819292069E-001;-1.019747480750084E-001;1.256128773093224E-003;5.414296756498516E-004;
2.427666666666667E+009;1.678694784641266E-001;-1.024042665958405E-001;1.432266901247203E-003;5.682019982486963E-004;
