# Version 1.00
#
freq[Hz];re:Trc1_S11;im:Trc1_S11;re:Trc2_S21;im:Trc2_S21;
2.400000000000000E+009;1.566829830408096E-001;1.055472269654274E-001;-3.348877944517881E-004;-1.250322326086462E-003;
2.400166666666667E+009;1.566108018159866E-001;1.033162996172905E-001;-3.281628596596420E-004;-1.262439996935427E-003;
2.400333333333334E+009;1.566920876502991E-001;1.009241268038750E-001;-3.086260985583067E-004;-1.262449193745852E-003;
2.400500000000000E+009;1.570137888193131E-001;9.836310893297195E-002;-2.114015951519832E-004;-1.215436146594584E-003;
2.400666666666667E+009;1.573935151100159E-001;9.633056819438934E-002;-2.261161425849423E-004;-1.261295052245259E-003;
2.400833333333334E+009;1.575135290622711E-001;9.351184219121933E-002;-1.478392659919336E-004;-1.217739423736930E-003;
2.401000000000000E+009;1.579266339540482E-001;9.091773629188538E-002;-2.501543494872749E-004;-1.218671328388155E-003;
2.401166666666667E+009;1.580862700939179E-001;8.833516389131546E-002;-2.194919215980917E-004;-1.417075167410076E-003;
2.401333333333334E+009;1.586764752864838E-001;8.565492928028107E-002;-2.751734864432365E-004;-1.286790589801967E-003;
2.401500000000000E+009;1.590809375047684E-001;8.298468589782715E-002;-2.929660258814693E-004;-1.371548394672573E-003;
2.401666666666667E+009;1.595992743968964E-001;8.026441931724548E-002;-5.740919732488692E-004;-1.488333102315664E-003;
2.401833333333334E+009;1.600267291069031E-001;7.796153426170349E-002;-4.555019841063768E-004;-1.460149185732007E-003;
2.402000000000000E+009;1.609978824853897E-001;7.542628794908524E-002;-6.750596221536398E-004;-1.388338278047741E-003;
2.402166666666667E+009;1.618168652057648E-001;7.300236076116562E-002;-7.181951077654958E-004;-1.257821801118553E-003;
2.402333333333334E+009;1.627521663904190E-001;7.039022445678711E-002;-9.267772547900677E-004;-1.331128762103617E-003;
2.402500000000000E+009;1.637773513793945E-001;6.815289705991745E-002;-8.605390903539956E-004;-1.203813473694027E-003;
2.402666666666667E+009;1.647993326187134E-001;6.606783717870712E-002;-9.869026252999902E-004;-1.094540813937783E-003;
2.402833333333334E+009;1.660090833902359E-001;6.377066671848297E-002;-9.612420108169317E-004;-9.214639430865645E-004;
2.403000000000000E+009;1.674247384071350E-001;6.169950589537621E-002;-1.113833626732230E-003;-8.646951173432171E-004;
2.403166666666667E+009;1.689419597387314E-001;5.956996977329254E-002;-9.751084144227207E-004;-5.995257524773479E-004;
2.403333333333334E+009;1.700510978698731E-001;5.750561133027077E-002;-1.080479472875595E-003;-6.511064711958170E-004;
2.403500000000000E+009;1.717519760131836E-001;5.568931251764298E-002;-8.931904449127615E-004;-4.225078446324915E-004;
2.403666666666667E+009;1.732162833213806E-001;5.390590056777000E-002;-7.781630265526474E-004;-3.123765054624528E-004;
2.403833333333334E+009;1.747919470071793E-001;5.206228792667389E-002;-6.787017337046564E-004;-3.637780318967998E-004;
2.404000000000000E+009;1.758048683404923E-001;5.031354725360870E-002;-6.868815980851650E-004;-2.627354115247726E-004;
2.404166666666667E+009;1.775153279304504E-001;4.878227412700653E-002;-6.226089317351580E-004;-2.688020176719874E-004;
2.404333333333334E+009;1.788823455572128E-001;4.745990037918091E-002;-4.626908048521727E-004;-9.205371316056699E-005;
2.404500000000000E+009;1.801421493291855E-001;4.608640447258949E-002;-3.429533680900931E-004;-1.817138545447961E-004;
2.404666666666667E+009;1.817360371351242E-001;4.496541619300842E-002;-3.604553930927068E-004;-2.586830814834684E-004;
2.404833333333334E+009;1.829856932163239E-001;4.385747388005257E-002;-2.410129091003910E-004;-1.932710874825716E-004;
2.405000000000000E+009;1.841460019350052E-001;4.315384104847908E-002;-2.527536998968571E-004;-3.617221373133361E-004;
2.405166666666667E+009;1.854513436555862E-001;4.231487214565277E-002;-2.633613476064056E-004;-4.073333111591637E-004;
2.405333333333334E+009;1.866293400526047E-001;4.165747761726379E-002;-1.666761527303606E-004;-4.327402857597917E-004;
2.405500000000000E+009;1.876900941133499E-001;4.114647209644318E-002;-1.709342177491635E-004;-4.972456954419613E-004;
2.405666666666667E+009;1.888086497783661E-001;4.068301618099213E-002;-1.257254625670612E-004;-5.885040736757219E-004;
2.405833333333334E+009;1.898792535066605E-001;4.028372466564179E-002;-2.382213569944724E-004;-5.586006445810199E-004;
2.406000000000000E+009;1.906111985445023E-001;3.989721834659576E-002;-3.170334675814956E-004;-7.104922551661730E-004;
2.406166666666667E+009;1.915545463562012E-001;3.961078077554703E-002;-3.440782020334154E-004;-6.409336347132921E-004;
2.406333333333334E+009;1.923532187938690E-001;3.940503671765328E-002;-3.866482002194971E-004;-5.107418983243406E-004;
2.406500000000000E+009;1.928068399429321E-001;3.931741416454315E-002;-4.158911760896444E-004;-6.300099776126444E-004;
2.406666666666667E+009;1.932946592569351E-001;3.910637646913528E-002;-3.061208699364215E-004;-5.574757233262062E-004;
2.406833333333334E+009;1.937598586082459E-001;3.895898535847664E-002;-4.097098135389388E-004;-6.501387688331306E-004;
2.407000000000000E+009;1.938984692096710E-001;3.897111490368843E-002;-4.243414441589266E-004;-5.529191694222391E-004;
2.407166666666667E+009;1.942766755819321E-001;3.849957883358002E-002;-4.646317684091628E-004;-6.079998565837741E-004;
2.407333333333334E+009;1.942698806524277E-001;3.855805471539497E-002;-4.072823503520340E-004;-5.660877795889974E-004;
2.407500000000000E+009;1.942797303199768E-001;3.849192708730698E-002;-3.456559497863054E-004;-5.389664438553155E-004;
2.407666666666667E+009;1.943124979734421E-001;3.814634308218956E-002;-4.932063166052103E-004;-5.425222334451973E-004;
2.407833333333334E+009;1.938990205526352E-001;3.783645108342171E-002;-5.000664386898279E-004;-5.531822098419070E-004;
2.408000000000000E+009;1.940098851919174E-001;3.752992302179337E-002;-3.993596183136106E-004;-5.513685173355043E-004;
2.408166666666667E+009;1.934755444526672E-001;3.707258775830269E-002;-4.105502448510379E-004;-5.046558217145503E-004;
2.408333333333334E+009;1.931696236133575E-001;3.628417104482651E-002;-5.056977388449013E-004;-5.633567925542593E-004;
2.408500000000000E+009;1.924930959939957E-001;3.587412461638451E-002;-5.584887694567442E-004;-4.135008202865720E-004;
2.408666666666667E+009;1.921422183513641E-001;3.521188721060753E-002;-5.662633338943124E-004;-4.821889742743224E-004;
2.408833333333334E+009;1.916694790124893E-001;3.444065153598785E-002;-5.573444650508463E-004;-4.296676488593221E-004;
2.409000000000000E+009;1.908508539199829E-001;3.347474709153175E-002;-6.563866627402604E-004;-4.576416104100645E-004;
2.409166666666667E+009;1.899465918540955E-001;3.234238550066948E-002;-6.025068578310311E-004;-6.020673317834735E-004;
2.409333333333334E+009;1.895611584186554E-001;3.137801215052605E-002;-5.507300957106054E-004;-2.961853169836104E-004;
2.409500000000000E+009;1.885912716388702E-001;2.988921292126179E-002;-4.102567909285426E-004;-3.892481909133494E-004;
2.409666666666667E+009;1.877795010805130E-001;2.855274081230164E-002;-5.533907096832991E-004;-4.800183232873678E-004;
2.409833333333334E+009;1.869591325521469E-001;2.711676433682442E-002;-4.309456562623382E-004;-4.252750659361482E-004;
2.410000000000000E+009;1.863166540861130E-001;2.547958865761757E-002;-3.356000524945557E-004;-4.745970072690398E-004;
2.410166666666667E+009;1.855299621820450E-001;2.371116727590561E-002;-2.446336147841066E-004;-5.156953702680767E-004;
2.410333333333334E+009;1.847222000360489E-001;2.206929773092270E-002;-3.301557444501668E-004;-5.967273027636111E-004;
2.410500000000000E+009;1.840007901191711E-001;2.015876770019531E-002;-2.417315408820286E-004;-7.078835624270141E-004;
2.410666666666667E+009;1.832281947135925E-001;1.812805980443955E-002;-1.348858932033181E-004;-7.311901426874101E-004;
2.410833333333334E+009;1.828251928091049E-001;1.625023968517780E-002;-2.524493902456015E-004;-9.073043474927545E-004;
2.411000000000000E+009;1.821087002754211E-001;1.411944814026356E-002;-1.490634458605200E-004;-1.080963294953108E-003;
2.411166666666667E+009;1.817443966865540E-001;1.218577288091183E-002;-3.652587183751166E-004;-1.159542473033071E-003;
2.411333333333334E+009;1.813975870609283E-001;9.792925789952278E-003;-3.879376163240522E-004;-1.176931662485004E-003;
2.411500000000000E+009;1.812355816364288E-001;7.599475793540478E-003;-6.080687162466347E-004;-1.300228876061738E-003;
2.411666666666667E+009;1.810231655836105E-001;5.662541836500168E-003;-6.853041704744101E-004;-1.416143728420138E-003;
2.411833333333334E+009;1.808544248342514E-001;3.338619833812118E-003;-8.838728535920382E-004;-1.432297867722809E-003;
2.412000000000000E+009;1.811302602291107E-001;8.448206353932619E-004;-9.639455238357186E-004;-1.549614593386650E-003;
2.412166666666667E+009;1.811729818582535E-001;-1.008010003715754E-003;-1.106352428905666E-003;-1.312679029069841E-003;
2.412333333333334E+009;1.813383251428604E-001;-3.217834513634443E-003;-1.397410640493035E-003;-1.392036676406860E-003;
2.412500000000000E+009;1.817927807569504E-001;-5.490122362971306E-003;-1.606489531695843E-003;-1.357766799628735E-003;
2.412666666666667E+009;1.823377162218094E-001;-7.724755909293890E-003;-1.833459013141692E-003;-1.189219416119158E-003;
2.412833333333334E+009;1.828607320785523E-001;-9.863667190074921E-003;-1.905460143461824E-003;-1.089710509404540E-003;
2.413000000000000E+009;1.835994124412537E-001;-1.198197342455387E-002;-1.908261911012232E-003;-8.929588948376477E-004;
2.413166666666667E+009;1.841308474540710E-001;-1.390626840293407E-002;-2.077423268929124E-003;-6.274136831052601E-004;
2.413333333333334E+009;1.852365732192993E-001;-1.599332503974438E-002;-2.246811985969544E-003;-4.718205309472978E-004;
2.413500000000000E+009;1.859340220689774E-001;-1.806311868131161E-002;-2.260427922010422E-003;-4.394186253193766E-004;
2.413666666666667E+009;1.869131028652191E-001;-2.000273577868938E-002;-2.287112642079592E-003;-1.413076824974269E-004;
2.413833333333334E+009;1.878463178873062E-001;-2.190201915800571E-002;-2.294155070558190E-003;1.201595023303526E-005;
2.414000000000000E+009;1.887760758399963E-001;-2.370426245033741E-002;-2.163375495001674E-003;3.708745061885566E-004;
2.414166666666667E+009;1.899392008781433E-001;-2.537017688155174E-002;-2.038627397269011E-003;5.040180403739214E-004;
2.414333333333334E+009;1.908706724643707E-001;-2.720548771321774E-002;-1.905140001326799E-003;5.875861388631165E-004;
2.414500000000000E+009;1.919538080692291E-001;-2.852626517415047E-002;-1.979073975235224E-003;5.997628904879093E-004;
2.414666666666667E+009;1.930392533540726E-001;-3.007864952087402E-002;-1.832988345995545E-003;7.772364770062268E-004;
2.414833333333334E+009;1.939672827720642E-001;-3.139618784189224E-002;-1.665287301875651E-003;8.577847620472312E-004;
2.415000000000000E+009;1.948648542165756E-001;-3.256703168153763E-002;-1.596156740561128E-003;7.991205202415586E-004;
2.415166666666667E+009;1.959782242774963E-001;-3.375494107604027E-002;-1.530873123556376E-003;7.514082244597375E-004;
2.415333333333334E+009;1.968509852886200E-001;-3.472768142819405E-002;-1.454587210901082E-003;8.942052372731268E-004;
2.415500000000000E+009;1.977593451738358E-001;-3.546693176031113E-002;-1.550846965983510E-003;8.697074954397976E-004;
2.415666666666667E+009;1.987406015396118E-001;-3.636223450303078E-002;-1.361698610708118E-003;1.009307336062193E-003;
2.415833333333334E+009;1.992606073617935E-001;-3.698014095425606E-002;-1.410192693583667E-003;9.034736431203783E-004;
2.416000000000000E+009;1.998489499092102E-001;-3.781598061323166E-002;-1.296276692301035E-003;9.388728649355471E-004;
2.416166666666667E+009;2.004911303520203E-001;-3.849902376532555E-002;-1.412245095707476E-003;9.859844576567411E-004;
2.416333333333334E+009;2.009355574846268E-001;-3.886361792683601E-002;-1.368996337987483E-003;1.125451643019915E-003;
2.416500000000000E+009;2.012546360492706E-001;-3.931639716029167E-002;-1.387292635627091E-003;1.217293553054333E-003;
2.416666666666667E+009;2.013946324586868E-001;-3.981957584619522E-002;-1.270336797460914E-003;1.156692276708782E-003;
2.416833333333334E+009;2.014459222555161E-001;-4.003668203949928E-002;-1.136051723733544E-003;1.108351745642722E-003;
2.417000000000000E+009;2.014710158109665E-001;-4.031399264931679E-002;-1.123634632676840E-003;1.326069817878306E-003;
2.417166666666667E+009;2.012537270784378E-001;-4.044413566589356E-002;-1.006510341539979E-003;1.292460015974939E-003;
2.417333333333334E+009;2.007974535226822E-001;-4.045291244983673E-002;-8.926703012548387E-004;1.264123828150332E-003;
2.417500000000000E+009;2.005742043256760E-001;-4.069764167070389E-002;-8.922062115743756E-004;1.195317017845810E-003;
2.417666666666667E+009;2.000010907649994E-001;-4.068113490939140E-002;-8.904570713639259E-004;1.278539304621518E-003;
2.417833333333334E+009;1.996637135744095E-001;-4.067889973521233E-002;-5.985242896713316E-004;1.375024556182325E-003;
2.418000000000000E+009;1.990534067153931E-001;-4.068994894623756E-002;-6.293586338870227E-004;1.276941853575409E-003;
2.418166666666667E+009;1.982387453317642E-001;-4.087267443537712E-002;-5.861943354830146E-004;1.287055783905089E-003;
2.418333333333334E+009;1.974472105503082E-001;-4.070979729294777E-002;-4.482734075281769E-004;1.369015313684940E-003;
2.418500000000000E+009;1.964518874883652E-001;-4.116509482264519E-002;-2.628863730933517E-004;1.261413679458201E-003;
2.418666666666667E+009;1.958276182413101E-001;-4.121334478259087E-002;-2.557008701842278E-004;1.213378505781293E-003;
2.418833333333334E+009;1.945641040802002E-001;-4.152067378163338E-002;-2.295473968842998E-004;1.289011561311781E-003;
2.419000000000000E+009;1.934928297996521E-001;-4.191986843943596E-002;-1.908377162180841E-004;1.035766326822341E-003;
2.419166666666667E+009;1.924471855163574E-001;-4.231410473585129E-002;-3.894844849128276E-005;1.102730398997665E-003;
2.419333333333334E+009;1.911164373159409E-001;-4.288316518068314E-002;-1.710700889816508E-004;1.020087394863367E-003;
2.419500000000000E+009;1.898656040430069E-001;-4.351792857050896E-002;-1.320017327088863E-004;9.173207799904048E-004;
2.419666666666667E+009;1.884867101907730E-001;-4.436368122696877E-002;-1.668332697590813E-004;9.118090383708477E-004;
2.419833333333334E+009;1.871631145477295E-001;-4.521619528532028E-002;-8.459827949991450E-005;7.548317662440240E-004;
2.420000000000000E+009;1.858303695917130E-001;-4.600693285465241E-002;-1.803789346013218E-004;8.057180093601346E-004;
2.420166666666667E+009;1.845172196626663E-001;-4.706292599439621E-002;-2.950440684799105E-004;7.004257058724761E-004;
2.420333333333334E+009;1.830024570226669E-001;-4.824875295162201E-002;-2.226615470135585E-004;8.230222156271339E-004;
2.420500000000000E+009;1.815802752971649E-001;-4.948130249977112E-002;-3.319804091006517E-004;7.584578706882894E-004;
2.420666666666667E+009;1.802217215299606E-001;-5.066606774926186E-002;-3.963611379731447E-004;7.741583394818008E-004;
2.420833333333334E+009;1.787658035755158E-001;-5.211849883198738E-002;-4.180366813670844E-004;8.242765325121582E-004;
2.421000000000000E+009;1.774460971355438E-001;-5.350758507847786E-002;-6.010462529957295E-004;9.601155761629343E-004;
2.421166666666667E+009;1.763611137866974E-001;-5.513051524758339E-002;-3.998049069195986E-004;9.754485217854381E-004;
2.421333333333334E+009;1.748409420251846E-001;-5.647565796971321E-002;-4.139544034842402E-004;9.879064746201038E-004;
2.421500000000000E+009;1.738090515136719E-001;-5.830872431397438E-002;-4.782601317856461E-004;1.156054204329848E-003;
2.421666666666667E+009;1.725360900163651E-001;-6.020297855138779E-002;-4.044860252179205E-004;1.200921833515167E-003;
2.421833333333334E+009;1.715828180313110E-001;-6.182776391506195E-002;-1.826511725084856E-004;1.074251020327210E-003;
2.422000000000000E+009;1.706064641475678E-001;-6.350890547037125E-002;-2.171216910937801E-004;1.116420258767903E-003;
2.422166666666667E+009;1.699526757001877E-001;-6.548806279897690E-002;-1.236459211213514E-004;1.255585113540292E-003;
2.422333333333334E+009;1.689764410257340E-001;-6.727082282304764E-002;-4.033134246128611E-005;1.086770324036479E-003;
2.422500000000000E+009;1.681255996227264E-001;-6.902985274791718E-002;-1.739196450216696E-004;1.228221342898905E-003;
2.422666666666667E+009;1.673881113529205E-001;-7.094097882509232E-002;-2.028982271440327E-004;1.106300042010844E-003;
2.422833333333334E+009;1.670813560485840E-001;-7.287617027759552E-002;-8.340086060343310E-005;1.064984709955752E-003;
2.423000000000000E+009;1.665548235177994E-001;-7.454274594783783E-002;-1.185150103992783E-004;1.285074977204204E-003;
2.423166666666667E+009;1.661259084939957E-001;-7.631657272577286E-002;-1.419354521203786E-004;1.241093268617988E-003;
2.423333333333334E+009;1.658854931592941E-001;-7.813027501106262E-002;-2.309087285539135E-004;1.201831502839923E-003;
2.423500000000000E+009;1.658545881509781E-001;-7.978979498147965E-002;3.663259849417955E-005;1.410636818036437E-003;
2.423666666666667E+009;1.656953394412994E-001;-8.154235780239105E-002;9.200874774251133E-005;1.306943711824715E-003;
2.423833333333334E+009;1.655795723199844E-001;-8.312848955392838E-002;7.383740012301132E-005;1.397146843373776E-003;
2.424000000000000E+009;1.656533330678940E-001;-8.491111546754837E-002;7.150182500481606E-005;1.464189146645367E-003;
2.424166666666667E+009;1.655732244253159E-001;-8.631271123886108E-002;1.711159566184506E-004;1.451181829907000E-003;
2.424333333333334E+009;1.657959818840027E-001;-8.779133111238480E-002;3.361270937602967E-004;1.525319064967334E-003;
2.424500000000000E+009;1.659661233425140E-001;-8.929432183504105E-002;4.617125669028610E-004;1.480220234952867E-003;
2.424666666666667E+009;1.659873574972153E-001;-9.066081047058106E-002;5.392755847424269E-004;1.299760304391384E-003;
2.424833333333334E+009;1.664458066225052E-001;-9.179986268281937E-002;5.243396153673530E-004;1.406183815561235E-003;
2.425000000000000E+009;1.666612476110458E-001;-9.300049394369125E-002;8.200689917430282E-004;1.340543618425727E-003;
2.425166666666667E+009;1.667057722806931E-001;-9.408099949359894E-002;7.487572147510946E-004;1.383628230541945E-003;
2.425333333333334E+009;1.669381260871887E-001;-9.503699839115143E-002;9.261618251912296E-004;1.217513345181942E-003;
2.425500000000000E+009;1.672163903713226E-001;-9.594946354627609E-002;8.192512905225158E-004;1.188228605315089E-003;
2.425666666666667E+009;1.675365120172501E-001;-9.672144800424576E-002;6.956616416573525E-004;1.044950447976589E-003;
2.425833333333334E+009;1.677954345941544E-001;-9.768525511026382E-002;8.327731629833579E-004;1.122593297623098E-003;
2.426000000000000E+009;1.679792702198029E-001;-9.814916551113129E-002;1.050862832926214E-003;9.986582444980741E-004;
2.426166666666667E+009;1.683104783296585E-001;-9.867659211158752E-002;7.696388056501746E-004;9.927506325766444E-004;
2.426333333333334E+009;1.682790368795395E-001;-9.945493936538696E-002;9.182645007967949E-004;1.049479702487588E-003;
2.426500000000000E+009;1.685343682765961E-001;-9.975674003362656E-002;8.402598905377090E-004;9.448606288060546E-004;
2.426666666666667E+009;1.687527000904083E-001;-1.002960577607155E-001;9.499829029664397E-004;8.204982150346041E-004;
2.426833333333334E+009;1.688672304153442E-001;-1.007089167833328E-001;9.705379488877952E-004;8.703774656169117E-004;
2.427000000000000E+009;1.688152551651001E-001;-1.010873690247536E-001;1.012193039059639E-003;7.825503125786781E-004;
2.427166666666667E+009;1.688829064369202E-001;-1.013720557093620E-001;1.004397519864142E-003;7.440660265274346E-004;
2.427333333333334E+009;1.686339229345322E-001;-1.017580777406693E-001;1.063818577677012E-003;6.494983099400997E-004;
2.427500000000000E+009;1.685309708118439E-001;-1.020827963948250E-001;1.028892584145069E-003;7.608663872815669E-004;
2.427666666666667E+009;1.681998223066330E-001;-1.023640036582947E-001;1.125847804360092E-003;6.959590245969594E-004;
