# Version 1.00
#
freq[Hz];re:Trc1_S11;im:Trc1_S11;re:Trc2_S21;im:Trc2_S21;
2.400000000000000E+009;1.555093228816986E-001;1.062411591410637E-001;-8.712371927686036E-004;-4.326325841248035E-003;
2.400166666666667E+009;1.551788598299027E-001;1.039082333445549E-001;-8.804601384326816E-004;-4.087196197360754E-003;
2.400333333333334E+009;1.552069634199143E-001;1.015341952443123E-001;-1.025223988108337E-003;-3.919099457561970E-003;
2.400500000000000E+009;1.549857556819916E-001;9.883877635002136E-002;-1.186882145702839E-003;-3.811599686741829E-003;
2.400666666666667E+009;1.551989912986755E-001;9.633796662092209E-002;-1.254981267265976E-003;-3.587019862607122E-003;
2.400833333333334E+009;1.552077978849411E-001;9.353476762771606E-002;-1.180856255814433E-003;-3.506609005853534E-003;
2.401000000000000E+009;1.554683446884155E-001;9.063465893268585E-002;-1.272693276405335E-003;-3.189280861988664E-003;
2.401166666666667E+009;1.554622054100037E-001;8.803106099367142E-002;-1.196819241158664E-003;-3.252773312851787E-003;
2.401333333333334E+009;1.560277193784714E-001;8.510064333677292E-002;-1.229163026437163E-003;-3.154775360599160E-003;
2.401500000000000E+009;1.565674543380737E-001;8.213549107313156E-002;-1.248539192602038E-003;-2.952841343358159E-003;
2.401666666666667E+009;1.566998511552811E-001;7.946006953716278E-002;-1.187448389828205E-003;-3.024688689038158E-003;
2.401833333333334E+009;1.572415381669998E-001;7.652934640645981E-002;-1.188739086501300E-003;-2.972751623019576E-003;
2.402000000000000E+009;1.582140624523163E-001;7.386157661676407E-002;-1.406532363034785E-003;-2.918457845225930E-003;
2.402166666666667E+009;1.588249504566193E-001;7.136970013380051E-002;-1.241132267750800E-003;-2.918951213359833E-003;
2.402333333333334E+009;1.598078161478043E-001;6.867054849863052E-002;-1.237180200405419E-003;-3.158876206725836E-003;
2.402500000000000E+009;1.611752957105637E-001;6.633288413286209E-002;-1.240428886376321E-003;-2.898058155551553E-003;
2.402666666666667E+009;1.620442867279053E-001;6.382463127374649E-002;-1.529302680864930E-003;-2.999568358063698E-003;
2.402833333333334E+009;1.633401215076447E-001;6.157728657126427E-002;-1.630130922421813E-003;-2.976576797664166E-003;
2.403000000000000E+009;1.649472862482071E-001;5.900067836046219E-002;-1.613010186702013E-003;-2.967374864965677E-003;
2.403166666666667E+009;1.666314601898193E-001;5.694851279258728E-002;-1.754252472892404E-003;-2.806175965815783E-003;
2.403333333333334E+009;1.680466830730438E-001;5.471955612301827E-002;-2.028802409768105E-003;-2.546731848269701E-003;
2.403500000000000E+009;1.697490960359573E-001;5.273221060633659E-002;-2.123008714988828E-003;-2.460316056385636E-003;
2.403666666666667E+009;1.714866459369659E-001;5.079176649451256E-002;-2.202119678258896E-003;-2.227639080956578E-003;
2.403833333333334E+009;1.730096787214279E-001;4.899707436561585E-002;-2.288086572661996E-003;-2.130188047885895E-003;
2.404000000000000E+009;1.746305078268051E-001;4.731836542487145E-002;-2.322321757674217E-003;-1.956378109753132E-003;
2.404166666666667E+009;1.762839257717133E-001;4.561158642172813E-002;-2.138882875442505E-003;-1.726745394989848E-003;
2.404333333333334E+009;1.780897378921509E-001;4.415636509656906E-002;-2.255058148875833E-003;-1.379555789753795E-003;
2.404500000000000E+009;1.795167326927185E-001;4.275480657815933E-002;-2.093844581395388E-003;-1.326538855209947E-003;
2.404666666666667E+009;1.812446266412735E-001;4.177695885300636E-002;-2.091624541208148E-003;-1.114525366574526E-003;
2.404833333333334E+009;1.829325705766678E-001;4.059631377458572E-002;-1.814050949178636E-003;-9.900089353322983E-004;
2.405000000000000E+009;1.841569840908051E-001;3.998986631631851E-002;-1.756506972014904E-003;-1.255302107892931E-003;
2.405166666666667E+009;1.856431961059570E-001;3.909789025783539E-002;-1.578620867803693E-003;-1.094379811547697E-003;
2.405333333333334E+009;1.871328055858612E-001;3.884984925389290E-002;-1.321905176155269E-003;-1.169661758467555E-003;
2.405500000000000E+009;1.885132789611816E-001;3.839066624641419E-002;-1.412429264746606E-003;-1.126311486586928E-003;
2.405666666666667E+009;1.896890848875046E-001;3.796428814530373E-002;-1.410735771059990E-003;-1.040326664224267E-003;
2.405833333333334E+009;1.909331679344177E-001;3.759028017520905E-002;-1.539972610771656E-003;-1.058520050719380E-003;
2.406000000000000E+009;1.919637024402618E-001;3.752663359045982E-002;-1.484643202275038E-003;-1.233434537425637E-003;
2.406166666666667E+009;1.927669048309326E-001;3.728123754262924E-002;-1.408287440426648E-003;-1.124816481024027E-003;
2.406333333333334E+009;1.937151849269867E-001;3.748150169849396E-002;-1.390316756442189E-003;-1.075244043022394E-003;
2.406500000000000E+009;1.944401562213898E-001;3.741526603698731E-002;-1.410648226737976E-003;-1.014701672829688E-003;
2.406666666666667E+009;1.951199024915695E-001;3.744797036051750E-002;-1.422310015186667E-003;-1.030571642331779E-003;
2.406833333333334E+009;1.955537348985672E-001;3.744973242282867E-002;-1.356797176413238E-003;-9.348890162073076E-004;
2.407000000000000E+009;1.957350373268127E-001;3.768192604184151E-002;-1.376355648972094E-003;-8.568517514504492E-004;
2.407166666666667E+009;1.960640251636505E-001;3.740916401147842E-002;-1.306627062149346E-003;-9.312721667811275E-004;
2.407333333333334E+009;1.960382014513016E-001;3.770815581083298E-002;-1.188343856483698E-003;-1.008742721751332E-003;
2.407500000000000E+009;1.960346102714539E-001;3.774843364953995E-002;-1.020787400193512E-003;-8.875707862898707E-004;
2.407666666666667E+009;1.960018277168274E-001;3.759532794356346E-002;-1.067586941644549E-003;-1.024907804094255E-003;
2.407833333333334E+009;1.955353170633316E-001;3.755692765116692E-002;-7.693739025853574E-004;-9.952521650120616E-004;
2.408000000000000E+009;1.954327076673508E-001;3.735809773206711E-002;-8.678180747665465E-004;-1.212455797940493E-003;
2.408166666666667E+009;1.947531253099442E-001;3.697261959314346E-002;-9.482816094532609E-004;-1.273066271096468E-003;
2.408333333333334E+009;1.942337602376938E-001;3.650343790650368E-002;-8.976553217507899E-004;-1.204230822622776E-003;
2.408500000000000E+009;1.935859322547913E-001;3.634231165051460E-002;-7.777428836561739E-004;-1.104498049244285E-003;
2.408666666666667E+009;1.929176449775696E-001;3.571361303329468E-002;-9.623595979064703E-004;-1.337597961537540E-003;
2.408833333333334E+009;1.922114789485931E-001;3.499633073806763E-002;-9.157623280771077E-004;-1.417301362380385E-003;
2.409000000000000E+009;1.913011223077774E-001;3.401741012930870E-002;-9.516108548268676E-004;-1.615179004147649E-003;
2.409166666666667E+009;1.902002543210983E-001;3.292065113782883E-002;-1.142953871749342E-003;-1.792165567167103E-003;
2.409333333333334E+009;1.894532144069672E-001;3.192653506994247E-002;-1.128947944380343E-003;-1.832308247685432E-003;
2.409500000000000E+009;1.881940960884094E-001;3.061655163764954E-002;-1.256284653209150E-003;-1.921278890222311E-003;
2.409666666666667E+009;1.872709244489670E-001;2.925795689225197E-002;-1.344002899713814E-003;-2.047039335593581E-003;
2.409833333333334E+009;1.861719638109207E-001;2.782608009874821E-002;-1.376247731968761E-003;-1.997167710214853E-003;
2.410000000000000E+009;1.852142363786697E-001;2.603432536125183E-002;-1.531172194518149E-003;-2.060184720903635E-003;
2.410166666666667E+009;1.841356009244919E-001;2.426208741962910E-002;-1.765599939972162E-003;-2.078012563288212E-003;
2.410333333333334E+009;1.832054406404495E-001;2.264074049890041E-002;-1.879656920209527E-003;-2.135541522875428E-003;
2.410500000000000E+009;1.822491288185120E-001;2.053886651992798E-002;-1.903307856991887E-003;-2.015005797147751E-003;
2.410666666666667E+009;1.814478933811188E-001;1.837729290127754E-002;-2.037219004705548E-003;-1.922511495649815E-003;
2.410833333333334E+009;1.808040142059326E-001;1.615635491907597E-002;-2.157707232981920E-003;-1.988244708627462E-003;
2.411000000000000E+009;1.799318790435791E-001;1.415622793138027E-002;-2.292641438543797E-003;-1.985912444069982E-003;
2.411166666666667E+009;1.795035004615784E-001;1.182102039456368E-002;-2.365474589169025E-003;-1.814632560126483E-003;
2.411333333333334E+009;1.789658218622208E-001;9.305610321462154E-003;-2.499920548871160E-003;-1.906362711451948E-003;
2.411500000000000E+009;1.783737987279892E-001;6.990159396082163E-003;-2.601094311103225E-003;-1.799724996089935E-003;
2.411666666666667E+009;1.783515959978104E-001;4.729281645268202E-003;-2.611813601106405E-003;-1.836488489061594E-003;
2.411833333333334E+009;1.780733168125153E-001;2.379905665293336E-003;-2.697700401768088E-003;-1.665375893935561E-003;
2.412000000000000E+009;1.780713200569153E-001;-3.486823989078403E-004;-2.830995945259929E-003;-1.617188914678991E-003;
2.412166666666667E+009;1.782897710800171E-001;-2.508258912712336E-003;-3.052716841921210E-003;-1.497375895269215E-003;
2.412333333333334E+009;1.784437149763107E-001;-5.067356862127781E-003;-3.194642718881369E-003;-1.472013304010034E-003;
2.412500000000000E+009;1.789278090000153E-001;-7.470099255442619E-003;-3.250502049922943E-003;-1.413875143043697E-003;
2.412666666666667E+009;1.794179975986481E-001;-9.864939376711845E-003;-3.403373295441270E-003;-1.426914590410888E-003;
2.412833333333334E+009;1.800850182771683E-001;-1.240938249975443E-002;-3.571002744138241E-003;-1.262798090465367E-003;
2.413000000000000E+009;1.807751804590225E-001;-1.468279305845499E-002;-3.717349143698812E-003;-1.194466254673898E-003;
2.413166666666667E+009;1.816850453615189E-001;-1.683321036398411E-002;-3.717147046700120E-003;-1.067803241312504E-003;
2.413333333333334E+009;1.825953274965286E-001;-1.920940726995468E-002;-3.902741707861424E-003;-7.807185756973922E-004;
2.413500000000000E+009;1.834575682878494E-001;-2.136041969060898E-002;-4.100117366760969E-003;-7.926007383503020E-004;
2.413666666666667E+009;1.846807599067688E-001;-2.333263866603375E-002;-4.137447569519281E-003;-4.589138261508197E-004;
2.413833333333334E+009;1.858735978603363E-001;-2.546353451907635E-002;-4.253941588103771E-003;-1.232374779647216E-004;
2.414000000000000E+009;1.868325471878052E-001;-2.739662490785122E-002;-4.236770328134298E-003;1.818566961446777E-004;
2.414166666666667E+009;1.882209628820419E-001;-2.901883423328400E-002;-4.291038028895855E-003;3.426223120186478E-004;
2.414333333333334E+009;1.893041878938675E-001;-3.101022914052010E-002;-4.270151257514954E-003;6.611178978346288E-004;
2.414500000000000E+009;1.905842870473862E-001;-3.247909247875214E-002;-4.180152900516987E-003;9.358547395095229E-004;
2.414666666666667E+009;1.916970461606979E-001;-3.394816070795059E-002;-4.061240237206221E-003;1.111610210500658E-003;
2.414833333333334E+009;1.928126364946365E-001;-3.534065186977387E-002;-3.896962618455291E-003;1.408385927788913E-003;
2.415000000000000E+009;1.939963400363922E-001;-3.666389361023903E-002;-3.869692562147975E-003;1.464566681534052E-003;
2.415166666666667E+009;1.951459497213364E-001;-3.753877803683281E-002;-3.754798322916031E-003;1.673405058681965E-003;
2.415333333333334E+009;1.963778138160706E-001;-3.850102052092552E-002;-3.684255061671138E-003;1.805152976885438E-003;
2.415500000000000E+009;1.975258886814117E-001;-3.928583115339279E-002;-3.487138543277979E-003;2.129335422068834E-003;
2.415666666666667E+009;1.985333263874054E-001;-4.013278707861900E-002;-3.475195029750466E-003;2.142040524631739E-003;
2.415833333333334E+009;1.993340253829956E-001;-4.058656468987465E-002;-3.176495898514986E-003;2.278669737279415E-003;
2.416000000000000E+009;2.001569718122482E-001;-4.113645106554031E-002;-3.105737501755357E-003;2.375743584707379E-003;
2.416166666666667E+009;2.007946223020554E-001;-4.175882413983345E-002;-2.980985911563039E-003;2.523084636777639E-003;
2.416333333333334E+009;2.014094591140747E-001;-4.200385510921478E-002;-2.736248308792710E-003;2.528161974623799E-003;
2.416500000000000E+009;2.019058912992477E-001;-4.229942336678505E-002;-2.636434743180871E-003;2.624838380143046E-003;
2.416666666666667E+009;2.021965384483337E-001;-4.253463074564934E-002;-2.403326798230410E-003;2.601735061034560E-003;
2.416833333333334E+009;2.023378908634186E-001;-4.259436950087547E-002;-2.115156501531601E-003;2.853141631931067E-003;
2.417000000000000E+009;2.025393545627594E-001;-4.261652752757072E-002;-2.068478148430586E-003;2.767788013443351E-003;
2.417166666666667E+009;2.022077739238739E-001;-4.265734925866127E-002;-1.768034417182207E-003;2.759709954261780E-003;
2.417333333333334E+009;2.019001245498657E-001;-4.257384315133095E-002;-1.630507875233889E-003;2.599042141810060E-003;
2.417500000000000E+009;2.016353011131287E-001;-4.245266318321228E-002;-1.497922465205193E-003;2.625874709337950E-003;
2.417666666666667E+009;2.010788917541504E-001;-4.222595691680908E-002;-1.395263127051294E-003;2.712994348257780E-003;
2.417833333333334E+009;2.006981223821640E-001;-4.212456196546555E-002;-1.263351645320654E-003;2.553563797846437E-003;
2.418000000000000E+009;2.000543624162674E-001;-4.191388562321663E-002;-1.110384007915855E-003;2.444555750116706E-003;
2.418166666666667E+009;1.991893798112869E-001;-4.185599833726883E-002;-9.907879866659641E-004;2.546126721426845E-003;
2.418333333333334E+009;1.983035206794739E-001;-4.175253957509995E-002;-1.044154982082546E-003;2.284022979438305E-003;
2.418500000000000E+009;1.972790211439133E-001;-4.170994833111763E-002;-9.909304790198803E-004;2.350209048017860E-003;
2.418666666666667E+009;1.962917298078537E-001;-4.160421714186668E-002;-9.029572829604149E-004;2.304702065885067E-003;
2.418833333333334E+009;1.951399147510529E-001;-4.181022197008133E-002;-6.794194341637194E-004;2.182146534323692E-003;
2.419000000000000E+009;1.937554478645325E-001;-4.210320115089417E-002;-7.678284309804440E-004;1.970114884898067E-003;
2.419166666666667E+009;1.924675256013870E-001;-4.234742745757103E-002;-7.236376404762268E-004;1.975943800061941E-003;
2.419333333333334E+009;1.911055445671082E-001;-4.285747930407524E-002;-6.090015522204340E-004;1.986397663131356E-003;
2.419500000000000E+009;1.897880434989929E-001;-4.324003681540489E-002;-6.004796596243978E-004;1.755401957780123E-003;
2.419666666666667E+009;1.880020201206207E-001;-4.423314332962036E-002;-6.778776296414435E-004;1.645116833969951E-003;
2.419833333333334E+009;1.863873451948166E-001;-4.472672566771507E-002;-7.174529600888491E-004;1.382229034788907E-003;
2.420000000000000E+009;1.849566698074341E-001;-4.557596892118454E-002;-8.402133244089782E-004;1.285095582716167E-003;
2.420166666666667E+009;1.833576560020447E-001;-4.676903039216995E-002;-9.735940839163959E-004;1.446563517674804E-003;
2.420333333333334E+009;1.817695647478104E-001;-4.781856015324593E-002;-1.119550433941186E-003;1.304366625845432E-003;
2.420500000000000E+009;1.800888627767563E-001;-4.921086505055428E-002;-1.334438449703157E-003;1.252922113053501E-003;
2.420666666666667E+009;1.785755902528763E-001;-5.029327794909477E-002;-1.244545797817409E-003;1.206892193295062E-003;
2.420833333333334E+009;1.769989579916000E-001;-5.185414478182793E-002;-1.543802558444440E-003;1.455216319300234E-003;
2.421000000000000E+009;1.754232496023178E-001;-5.332692340016365E-002;-1.687037060037255E-003;1.371645368635654E-003;
2.421166666666667E+009;1.740625649690628E-001;-5.505202338099480E-002;-1.678088912740350E-003;1.533927745185792E-003;
2.421333333333334E+009;1.724489480257034E-001;-5.655327439308167E-002;-1.795763731934130E-003;1.674632541835308E-003;
2.421500000000000E+009;1.711546629667282E-001;-5.851926282048225E-002;-1.876638852991164E-003;1.743120723403990E-003;
2.421666666666667E+009;1.698664426803589E-001;-6.038912758231163E-002;-1.923686708323658E-003;1.859705429524183E-003;
2.421833333333334E+009;1.689704656600952E-001;-6.227071583271027E-002;-1.918604713864625E-003;2.077630488201976E-003;
2.422000000000000E+009;1.676081120967865E-001;-6.402812898159027E-002;-1.886925427243114E-003;2.336910460144281E-003;
2.422166666666667E+009;1.669985651969910E-001;-6.634090095758438E-002;-1.856325310654938E-003;2.393662696704269E-003;
2.422333333333334E+009;1.660409569740295E-001;-6.827183067798615E-002;-1.761190709657967E-003;2.617847872897983E-003;
2.422500000000000E+009;1.653087139129639E-001;-7.022687792778015E-002;-1.765626249834895E-003;2.797211986035109E-003;
2.422666666666667E+009;1.643863916397095E-001;-7.231508940458298E-002;-1.552126021124423E-003;2.953250426799059E-003;
2.422833333333334E+009;1.639490872621536E-001;-7.441783696413040E-002;-1.550706801936030E-003;3.007746068760753E-003;
2.423000000000000E+009;1.635422855615616E-001;-7.644464075565338E-002;-1.369369914755225E-003;3.031408647075295E-003;
2.423166666666667E+009;1.631435155868530E-001;-7.838767021894455E-002;-1.347405603155494E-003;3.186247777193785E-003;
2.423333333333334E+009;1.628874987363815E-001;-8.039060980081558E-002;-1.209301641210914E-003;3.207535017281771E-003;
2.423500000000000E+009;1.628934144973755E-001;-8.205603063106537E-002;-1.296409987844527E-003;3.296634182333946E-003;
2.423666666666667E+009;1.629553884267807E-001;-8.404381573200226E-002;-1.216415781527758E-003;3.404031740501523E-003;
2.423833333333334E+009;1.627270728349686E-001;-8.576074242591858E-002;-1.155138132162392E-003;3.510036738589406E-003;
2.424000000000000E+009;1.628356128931046E-001;-8.758497983217239E-002;-9.716441854834557E-004;3.654248081147671E-003;
2.424166666666667E+009;1.628778725862503E-001;-8.907210081815720E-002;-8.957268437370658E-004;3.708607051521540E-003;
2.424333333333334E+009;1.632579118013382E-001;-9.054432809352875E-002;-9.924870682880282E-004;3.876052331179380E-003;
2.424500000000000E+009;1.636032760143280E-001;-9.235107153654099E-002;-8.750382694415748E-004;3.897211048752070E-003;
2.424666666666667E+009;1.638379245996475E-001;-9.361582249403000E-002;-4.932016599923372E-004;4.057312384247780E-003;
2.424833333333334E+009;1.643804460763931E-001;-9.490937739610672E-002;-2.369339781580493E-004;4.266531206667423E-003;
2.425000000000000E+009;1.646729409694672E-001;-9.607392549514771E-002;3.586872935557040E-006;4.472806118428707E-003;
2.425166666666667E+009;1.650209277868271E-001;-9.703429043292999E-002;1.210448972415179E-004;4.427678417414427E-003;
2.425333333333334E+009;1.653249263763428E-001;-9.798112511634827E-002;4.216890665702522E-004;4.518971778452396E-003;
2.425500000000000E+009;1.657848507165909E-001;-9.899699687957764E-002;6.778762908652425E-004;4.502984695136547E-003;
2.425666666666667E+009;1.662432253360748E-001;-9.962751716375351E-002;7.365419296547771E-004;4.420333076268435E-003;
2.425833333333334E+009;1.665115952491760E-001;-1.005264818668366E-001;1.156315323896706E-003;4.494161810725927E-003;
2.426000000000000E+009;1.669904887676239E-001;-1.008320525288582E-001;1.369468402117491E-003;4.354327451437712E-003;
2.426166666666667E+009;1.672565490007401E-001;-1.013627797365189E-001;1.645159791223705E-003;4.321643617004156E-003;
2.426333333333334E+009;1.672815829515457E-001;-1.018854603171349E-001;1.840241020545363E-003;4.192551597952843E-003;
2.426500000000000E+009;1.677605062723160E-001;-1.021578088402748E-001;2.085509942844510E-003;4.077323712408543E-003;
2.426666666666667E+009;1.679778248071671E-001;-1.023678332567215E-001;2.281497465446591E-003;3.965261392295361E-003;
2.426833333333334E+009;1.681768298149109E-001;-1.026788353919983E-001;2.279652049764991E-003;3.800156293436885E-003;
2.427000000000000E+009;1.681507229804993E-001;-1.029300242662430E-001;2.538784174248576E-003;3.520951606333256E-003;
2.427166666666667E+009;1.681586951017380E-001;-1.029714345932007E-001;2.663359744474292E-003;3.535978496074677E-003;
2.427333333333334E+009;1.680268645286560E-001;-1.032083481550217E-001;2.734164474532008E-003;3.282765159383416E-003;
2.427500000000000E+009;1.677525490522385E-001;-1.034387797117233E-001;2.889166353270412E-003;3.101830836385489E-003;
2.427666666666667E+009;1.674560010433197E-001;-1.034331098198891E-001;2.930295886471868E-003;2.952023176476359E-003;
