# Version 1.00
#
freq[Hz];re:Trc1_S11;im:Trc1_S11;re:Trc2_S21;im:Trc2_S21;
2.400000000000000E+009;1.554852128028870E-001;1.063703894615173E-001;-8.956363890320063E-004;-4.328290000557900E-003;
2.400166666666667E+009;1.548992395401001E-001;1.039756909012795E-001;-9.943282930180430E-004;-4.063774365931749E-003;
2.400333333333334E+009;1.550299376249313E-001;1.016111299395561E-001;-1.017582253552973E-003;-3.895223373547196E-003;
2.400500000000000E+009;1.551570147275925E-001;9.899431467056274E-002;-1.127163297496736E-003;-3.692172234877944E-003;
2.400666666666667E+009;1.552520841360092E-001;9.646119177341461E-002;-1.264890539459884E-003;-3.557997522875667E-003;
2.400833333333334E+009;1.552645266056061E-001;9.362097084522247E-002;-1.375941676087678E-003;-3.464950714260340E-003;
2.401000000000000E+009;1.554215252399445E-001;9.087786078453064E-002;-1.271948800422251E-003;-3.253734204918146E-003;
2.401166666666667E+009;1.554370075464249E-001;8.797898143529892E-002;-1.313075888901949E-003;-3.229434834793210E-003;
2.401333333333334E+009;1.557389199733734E-001;8.511308580636978E-002;-1.321581075899303E-003;-3.162197070196271E-003;
2.401500000000000E+009;1.562642008066177E-001;8.234225958585739E-002;-1.338616712018848E-003;-3.035546280443668E-003;
2.401666666666667E+009;1.567299813032150E-001;7.947961986064911E-002;-1.215898199006915E-003;-2.869592048227787E-003;
2.401833333333334E+009;1.572393029928207E-001;7.681858539581299E-002;-1.301151467487216E-003;-2.967601409181953E-003;
2.402000000000000E+009;1.580794751644135E-001;7.404191792011261E-002;-1.295961905270815E-003;-3.017976181581616E-003;
2.402166666666667E+009;1.589384675025940E-001;7.166972756385803E-002;-1.313549582846463E-003;-2.848832402378321E-003;
2.402333333333334E+009;1.598611772060394E-001;6.872189044952393E-002;-1.472129602916539E-003;-2.985602244734764E-003;
2.402500000000000E+009;1.611529588699341E-001;6.619235128164291E-002;-1.319710514508188E-003;-2.922647399827838E-003;
2.402666666666667E+009;1.622252762317658E-001;6.398037075996399E-002;-1.482506166212261E-003;-2.919437596574426E-003;
2.402833333333334E+009;1.634093970060349E-001;6.172325834631920E-002;-1.537251169793308E-003;-2.919975668191910E-003;
2.403000000000000E+009;1.650553047657013E-001;5.920515209436417E-002;-1.691169920377433E-003;-2.862396417185664E-003;
2.403166666666667E+009;1.666712015867233E-001;5.711227655410767E-002;-1.863816753029823E-003;-2.757626585662365E-003;
2.403333333333334E+009;1.681389659643173E-001;5.479515716433525E-002;-2.110307337716222E-003;-2.507273573428392E-003;
2.403500000000000E+009;1.699121743440628E-001;5.290931090712547E-002;-2.214752370491624E-003;-2.450778847560287E-003;
2.403666666666667E+009;1.715006530284882E-001;5.089972913265228E-002;-2.267180243507028E-003;-2.336445264518261E-003;
2.403833333333334E+009;1.731283068656921E-001;4.911760985851288E-002;-2.305367030203342E-003;-2.018776023760438E-003;
2.404000000000000E+009;1.746090501546860E-001;4.731322824954987E-002;-2.323846798390150E-003;-1.864740508608520E-003;
2.404166666666667E+009;1.764157563447952E-001;4.581783339381218E-002;-2.195885404944420E-003;-1.665517920628190E-003;
2.404333333333334E+009;1.779424548149109E-001;4.431107267737389E-002;-2.193403663113713E-003;-1.384124509058893E-003;
2.404500000000000E+009;1.796198785305023E-001;4.287876188755035E-002;-2.143617952242494E-003;-1.340098213404417E-003;
2.404666666666667E+009;1.812200248241425E-001;4.180037230253220E-002;-2.014766680076718E-003;-1.330541446805000E-003;
2.404833333333334E+009;1.828188449144363E-001;4.078811034560204E-002;-1.967245247215033E-003;-1.286981743760407E-003;
2.405000000000000E+009;1.842789351940155E-001;4.012167453765869E-002;-1.688151969574392E-003;-1.180681749247015E-003;
2.405166666666667E+009;1.856876164674759E-001;3.949185088276863E-002;-1.692384365014732E-003;-1.145306625403464E-003;
2.405333333333334E+009;1.870685815811157E-001;3.896921128034592E-002;-1.732490491122007E-003;-1.146269147284329E-003;
2.405500000000000E+009;1.885606348514557E-001;3.837791830301285E-002;-1.603880198672414E-003;-1.008897670544684E-003;
2.405666666666667E+009;1.895837485790253E-001;3.808656707406044E-002;-1.556021859869361E-003;-1.162128173746169E-003;
2.405833333333334E+009;1.907975375652313E-001;3.777480870485306E-002;-1.525734318420291E-003;-1.138321240432560E-003;
2.406000000000000E+009;1.919502764940262E-001;3.767718002200127E-002;-1.520147779956460E-003;-1.157155842520297E-003;
2.406166666666667E+009;1.929194927215576E-001;3.743634372949600E-002;-1.483269035816193E-003;-1.045905286446214E-003;
2.406333333333334E+009;1.938033849000931E-001;3.751305490732193E-002;-1.633411506190896E-003;-1.067123608663678E-003;
2.406500000000000E+009;1.944074034690857E-001;3.749545663595200E-002;-1.366551849059761E-003;-9.691590676084161E-004;
2.406666666666667E+009;1.951049119234085E-001;3.759664297103882E-002;-1.436062157154083E-003;-1.066752476617694E-003;
2.406833333333334E+009;1.956602931022644E-001;3.759337589144707E-002;-1.395826111547649E-003;-9.521785541437566E-004;
2.407000000000000E+009;1.959882825613022E-001;3.768838942050934E-002;-1.200450817123056E-003;-9.878285927698016E-004;
2.407166666666667E+009;1.962747871875763E-001;3.754460439085960E-002;-1.248688437044621E-003;-8.978718542493880E-004;
2.407333333333334E+009;1.961745470762253E-001;3.775849938392639E-002;-1.106085488572717E-003;-9.827519534155726E-004;
2.407500000000000E+009;1.959577798843384E-001;3.789165988564491E-002;-1.061640679836273E-003;-1.012573600746691E-003;
2.407666666666667E+009;1.960740834474564E-001;3.774582222104073E-002;-1.099569723010063E-003;-9.302618564106524E-004;
2.407833333333334E+009;1.954838335514069E-001;3.765503317117691E-002;-1.145271817222238E-003;-8.582933805882931E-004;
2.408000000000000E+009;1.955138742923737E-001;3.737016394734383E-002;-9.149953257292509E-004;-1.090989098884165E-003;
2.408166666666667E+009;1.948772817850113E-001;3.718216717243195E-002;-9.188523399643600E-004;-1.213527750223875E-003;
2.408333333333334E+009;1.943996995687485E-001;3.665986657142639E-002;-7.488681585527957E-004;-1.289336942136288E-003;
2.408500000000000E+009;1.936868429183960E-001;3.630244359374046E-002;-8.275146828964353E-004;-1.249687978997827E-003;
2.408666666666667E+009;1.931566596031189E-001;3.570926189422607E-002;-8.998516132123768E-004;-1.383633702062070E-003;
2.408833333333334E+009;1.922687739133835E-001;3.491499274969101E-002;-9.276497294194996E-004;-1.553255948238075E-003;
2.409000000000000E+009;1.912967860698700E-001;3.403466567397118E-002;-9.426473407074809E-004;-1.724879024550319E-003;
2.409166666666667E+009;1.904418319463730E-001;3.294058889150620E-002;-1.006381353363395E-003;-1.795036136172712E-003;
2.409333333333334E+009;1.893999278545380E-001;3.202655538916588E-002;-1.074146595783532E-003;-1.819976721890271E-003;
2.409500000000000E+009;1.882052868604660E-001;3.087326884269714E-002;-1.257559284567833E-003;-1.815382274799049E-003;
2.409666666666667E+009;1.872566789388657E-001;2.938311547040939E-002;-1.299060997553170E-003;-1.848437124863267E-003;
2.409833333333334E+009;1.862192153930664E-001;2.799866534769535E-002;-1.447937684133649E-003;-1.925077638588846E-003;
2.410000000000000E+009;1.853076666593552E-001;2.639467641711235E-002;-1.587281934916973E-003;-2.004284877330065E-003;
2.410166666666667E+009;1.842302232980728E-001;2.450537867844105E-002;-1.715573598630726E-003;-1.979437191039324E-003;
2.410333333333334E+009;1.832987070083618E-001;2.277872525155544E-002;-1.834072521887720E-003;-2.069571521133184E-003;
2.410500000000000E+009;1.823181957006455E-001;2.069043740630150E-002;-1.930648810230196E-003;-1.965944655239582E-003;
2.410666666666667E+009;1.814215481281281E-001;1.861929520964623E-002;-1.969724195078015E-003;-1.954945735633373E-003;
2.410833333333334E+009;1.807195544242859E-001;1.634389534592629E-002;-2.232813276350498E-003;-1.888364902697504E-003;
2.411000000000000E+009;1.802826076745987E-001;1.423275936394930E-002;-2.418220741674304E-003;-2.024451503530145E-003;
2.411166666666667E+009;1.794380694627762E-001;1.204870268702507E-002;-2.368906745687127E-003;-1.942557515576482E-003;
2.411333333333334E+009;1.791521906852722E-001;9.564750827848911E-003;-2.537064487114549E-003;-1.890647690743208E-003;
2.411500000000000E+009;1.784842759370804E-001;7.028524763882160E-003;-2.558253239840269E-003;-1.875897170975804E-003;
2.411666666666667E+009;1.784990280866623E-001;4.790547769516707E-003;-2.540023764595389E-003;-1.788499881513417E-003;
2.411833333333334E+009;1.779298633337021E-001;2.380873309448361E-003;-2.711918670684099E-003;-1.657564891502261E-003;
2.412000000000000E+009;1.782811433076859E-001;-2.334809832973406E-004;-2.875898499041796E-003;-1.584404613822699E-003;
2.412166666666667E+009;1.782683879137039E-001;-2.366442466154695E-003;-3.061713417991996E-003;-1.707997405901551E-003;
2.412333333333334E+009;1.785960048437119E-001;-4.923637956380844E-003;-3.118919208645821E-003;-1.538488315418363E-003;
2.412500000000000E+009;1.790160089731216E-001;-7.468222640454769E-003;-3.225175663828850E-003;-1.437828177586198E-003;
2.412666666666667E+009;1.795743405818939E-001;-9.958684444427490E-003;-3.507123794406653E-003;-1.496814889833331E-003;
2.412833333333334E+009;1.801733523607254E-001;-1.224577613174915E-002;-3.506598761305213E-003;-1.366339158266783E-003;
2.413000000000000E+009;1.809855699539185E-001;-1.452949922531843E-002;-3.725453978404403E-003;-1.200431375764310E-003;
2.413166666666667E+009;1.817858815193176E-001;-1.675867103040218E-002;-3.777750534936786E-003;-1.111452351324260E-003;
2.413333333333334E+009;1.827628016471863E-001;-1.911044865846634E-002;-3.978529479354620E-003;-8.156227995641530E-004;
2.413500000000000E+009;1.836045533418655E-001;-2.135111391544342E-002;-4.301326815038919E-003;-6.497612339444459E-004;
2.413666666666667E+009;1.848436295986176E-001;-2.339871227741242E-002;-4.305744543671608E-003;-2.725970989558846E-004;
2.413833333333334E+009;1.859242618083954E-001;-2.538065426051617E-002;-4.221415612846613E-003;-1.162325934274122E-004;
2.414000000000000E+009;1.870346367359161E-001;-2.730008214712143E-002;-4.346215631812811E-003;3.783187275985256E-005;
2.414166666666667E+009;1.883832365274429E-001;-2.925839461386204E-002;-4.370144568383694E-003;3.041384043172002E-004;
2.414333333333334E+009;1.894689649343491E-001;-3.112832456827164E-002;-4.276227205991745E-003;6.457931012846530E-004;
2.414500000000000E+009;1.906765103340149E-001;-3.257033973932266E-002;-4.119452554732561E-003;8.831584127619863E-004;
2.414666666666667E+009;1.918949484825134E-001;-3.390031307935715E-002;-4.111915826797485E-003;1.177914091385901E-003;
2.414833333333334E+009;1.930426061153412E-001;-3.528009355068207E-002;-3.951454535126686E-003;1.341948751360178E-003;
2.415000000000000E+009;1.940736472606659E-001;-3.661164641380310E-002;-3.867609193548560E-003;1.591050182469189E-003;
2.415166666666667E+009;1.952325254678726E-001;-3.761048242449760E-002;-3.694944316521287E-003;1.672040787525475E-003;
2.415333333333334E+009;1.965579092502594E-001;-3.862240165472031E-002;-3.578779753297567E-003;1.835630857385695E-003;
2.415500000000000E+009;1.975264251232147E-001;-3.921382129192352E-002;-3.579571843147278E-003;1.966516254469752E-003;
2.415666666666667E+009;1.986197084188461E-001;-4.012272506952286E-002;-3.227238543331623E-003;2.029935829341412E-003;
2.415833333333334E+009;1.993838548660278E-001;-4.069037362933159E-002;-3.153517609462142E-003;2.337795915082097E-003;
2.416000000000000E+009;2.002087235450745E-001;-4.119538143277168E-002;-3.049148013815284E-003;2.455459441989660E-003;
2.416166666666667E+009;2.009733915328980E-001;-4.183007404208183E-002;-3.078602720052004E-003;2.483805408701301E-003;
2.416333333333334E+009;2.015738040208817E-001;-4.206585511565208E-002;-2.818512730300427E-003;2.502896124497056E-003;
2.416500000000000E+009;2.020872235298157E-001;-4.226062446832657E-002;-2.514028223231435E-003;2.592982025817037E-003;
2.416666666666667E+009;2.023206949234009E-001;-4.263097047805786E-002;-2.402319572865963E-003;2.794313943013549E-003;
2.416833333333334E+009;2.023948580026627E-001;-4.267995059490204E-002;-2.218675334006548E-003;2.819668268784881E-003;
2.417000000000000E+009;2.025233656167984E-001;-4.267025738954544E-002;-2.037248341366649E-003;2.800582209601998E-003;
2.417166666666667E+009;2.023300677537918E-001;-4.271591454744339E-002;-1.895845518447459E-003;2.836181549355388E-003;
2.417333333333334E+009;2.021057307720184E-001;-4.246825724840164E-002;-1.461678766645491E-003;2.682554069906473E-003;
2.417500000000000E+009;2.018303424119949E-001;-4.258692264556885E-002;-1.399411237798631E-003;2.856102073565126E-003;
2.417666666666667E+009;2.012711167335510E-001;-4.240347072482109E-002;-1.436529681086540E-003;2.549706259742379E-003;
2.417833333333334E+009;2.007706314325333E-001;-4.215911403298378E-002;-1.203384948894382E-003;2.637360012158752E-003;
2.418000000000000E+009;2.002293020486832E-001;-4.188115894794464E-002;-1.164439483545721E-003;2.499686554074287E-003;
2.418166666666667E+009;1.993031352758408E-001;-4.184444993734360E-002;-1.023374730721116E-003;2.421941608190537E-003;
2.418333333333334E+009;1.984929591417313E-001;-4.163795709609985E-002;-9.793243370950222E-004;2.471118234097958E-003;
2.418500000000000E+009;1.972255259752274E-001;-4.184824600815773E-002;-9.008120978251100E-004;2.426191931590438E-003;
2.418666666666667E+009;1.964940279722214E-001;-4.167702794075012E-002;-8.394230389967561E-004;2.145421691238880E-003;
2.418833333333334E+009;1.951540559530258E-001;-4.193492233753204E-002;-8.339048363268375E-004;2.084885723888874E-003;
2.419000000000000E+009;1.939145922660828E-001;-4.209886118769646E-002;-7.511505391448736E-004;2.009644638746977E-003;
2.419166666666667E+009;1.926922202110291E-001;-4.243235662579536E-002;-6.393480580300093E-004;2.011444419622421E-003;
2.419333333333334E+009;1.912456154823303E-001;-4.301355034112930E-002;-7.382113835774362E-004;1.886105048470199E-003;
2.419500000000000E+009;1.896883398294449E-001;-4.329076781868935E-002;-7.176577928476036E-004;1.701145200058818E-003;
2.419666666666667E+009;1.880779862403870E-001;-4.427631199359894E-002;-5.969378398731351E-004;1.634429674595594E-003;
2.419833333333334E+009;1.865381449460983E-001;-4.485698416829109E-002;-7.061786018311977E-004;1.485061016865075E-003;
2.420000000000000E+009;1.848671585321426E-001;-4.596326872706413E-002;-9.590258705429733E-004;1.389985205605626E-003;
2.420166666666667E+009;1.833305209875107E-001;-4.676172882318497E-002;-1.004975405521691E-003;1.364036812447012E-003;
2.420333333333334E+009;1.816535592079163E-001;-4.794862493872643E-002;-1.081168535165489E-003;1.410877681337297E-003;
2.420500000000000E+009;1.802653670310974E-001;-4.930268600583077E-002;-1.184133463539183E-003;1.191492774523795E-003;
2.420666666666667E+009;1.785901486873627E-001;-5.048429593443871E-002;-1.424003276042640E-003;1.323530799709261E-003;
2.420833333333334E+009;1.769178509712219E-001;-5.186045542359352E-002;-1.527655054815114E-003;1.317996880970895E-003;
2.421000000000000E+009;1.754560172557831E-001;-5.348954349756241E-002;-1.506454427726567E-003;1.427993876859546E-003;
2.421166666666667E+009;1.742113530635834E-001;-5.517620965838432E-002;-1.588496030308306E-003;1.568593899719417E-003;
2.421333333333334E+009;1.725208014249802E-001;-5.666401237249374E-002;-1.727033290080726E-003;1.667930278927088E-003;
2.421500000000000E+009;1.711834669113159E-001;-5.868561565876007E-002;-1.721895649097860E-003;1.760559622198343E-003;
2.421666666666667E+009;1.700581163167954E-001;-6.055085361003876E-002;-1.972441561520100E-003;1.968163298442960E-003;
2.421833333333334E+009;1.688169091939926E-001;-6.243229657411575E-002;-1.923017320223153E-003;2.092303009703755E-003;
2.422000000000000E+009;1.676837056875229E-001;-6.444510072469711E-002;-1.918574562296271E-003;2.273004967719317E-003;
2.422166666666667E+009;1.670327782630920E-001;-6.642746180295944E-002;-1.922895782627165E-003;2.448045182973146E-003;
2.422333333333334E+009;1.659646034240723E-001;-6.846129149198532E-002;-1.795314950868487E-003;2.630194416269660E-003;
2.422500000000000E+009;1.651400327682495E-001;-7.032027840614319E-002;-1.746984315104783E-003;2.846641000360251E-003;
2.422666666666667E+009;1.643242985010147E-001;-7.240179181098938E-002;-1.505902968347073E-003;2.910401672124863E-003;
2.422833333333334E+009;1.639937013387680E-001;-7.453712821006775E-002;-1.550105400383472E-003;2.952985698357225E-003;
2.423000000000000E+009;1.635076850652695E-001;-7.659179717302322E-002;-1.524019404314458E-003;2.986054401844740E-003;
2.423166666666667E+009;1.631026715040207E-001;-7.850290834903717E-002;-1.288263127207756E-003;2.987568499520421E-003;
2.423333333333334E+009;1.628017127513886E-001;-8.047024160623550E-002;-1.360088004730642E-003;3.186365589499474E-003;
2.423500000000000E+009;1.628507226705551E-001;-8.229161798954010E-002;-1.141093787737191E-003;3.412339370697737E-003;
2.423666666666667E+009;1.629097759723663E-001;-8.418003469705582E-002;-1.092220889404416E-003;3.253261558711529E-003;
2.423833333333334E+009;1.628924012184143E-001;-8.585372567176819E-002;-1.046351622790098E-003;3.396878251805902E-003;
2.424000000000000E+009;1.629226803779602E-001;-8.775019645690918E-002;-9.850420756265521E-004;3.554444061592221E-003;
2.424166666666667E+009;1.629820913076401E-001;-8.912844210863113E-002;-9.279539808630943E-004;3.519556717947125E-003;
2.424333333333334E+009;1.632107347249985E-001;-9.078385680913925E-002;-7.863293867558241E-004;3.887864993885160E-003;
2.424500000000000E+009;1.634685546159744E-001;-9.238103032112122E-002;-8.224140619859099E-004;3.944204654544592E-003;
2.424666666666667E+009;1.637963205575943E-001;-9.380411356687546E-002;-6.694020703434944E-004;4.083170089870691E-003;
2.424833333333334E+009;1.642479449510574E-001;-9.496310353279114E-002;-2.880969550460577E-004;4.241694696247578E-003;
2.425000000000000E+009;1.646355688571930E-001;-9.620968252420425E-002;-1.630077167646959E-004;4.169120918959379E-003;
2.425166666666667E+009;1.649521887302399E-001;-9.719464927911758E-002;1.351043902104721E-004;4.460848402231932E-003;
2.425333333333334E+009;1.652588099241257E-001;-9.821273386478424E-002;2.913038188125938E-004;4.378264769911766E-003;
2.425500000000000E+009;1.658335477113724E-001;-9.913557022809982E-002;5.525285960175097E-004;4.482113290578127E-003;
2.425666666666667E+009;1.661147028207779E-001;-9.971863776445389E-002;8.455152274109423E-004;4.447074141353369E-003;
2.425833333333334E+009;1.664197742938995E-001;-1.005591303110123E-001;1.148036448284984E-003;4.516069777309895E-003;
2.426000000000000E+009;1.668050736188889E-001;-1.009585782885552E-001;1.496062497608364E-003;4.371888935565949E-003;
2.426166666666667E+009;1.672181338071823E-001;-1.014470458030701E-001;1.520346151664853E-003;4.315967671573162E-003;
2.426333333333334E+009;1.672217696905136E-001;-1.019344553351402E-001;1.937652705237269E-003;4.110932815819979E-003;
2.426500000000000E+009;1.676853150129318E-001;-1.022797301411629E-001;2.008549869060516E-003;4.116904456168413E-003;
2.426666666666667E+009;1.678879559040070E-001;-1.024738848209381E-001;2.056772820651531E-003;3.853537607938051E-003;
2.426833333333334E+009;1.681693494319916E-001;-1.028000265359879E-001;2.322445390745997E-003;3.761026542633772E-003;
2.427000000000000E+009;1.681205332279205E-001;-1.030181199312210E-001;2.475366462022066E-003;3.576240269467235E-003;
2.427166666666667E+009;1.680434048175812E-001;-1.030292436480522E-001;2.651861170306802E-003;3.477973164990544E-003;
2.427333333333334E+009;1.680057942867279E-001;-1.032810062170029E-001;2.626956906169653E-003;3.214898984879255E-003;
2.427500000000000E+009;1.676652729511261E-001;-1.033628657460213E-001;2.705985447391868E-003;3.203106811270118E-003;
2.427666666666667E+009;1.674371063709259E-001;-1.033639237284660E-001;2.809785772114992E-003;3.010291839018464E-003;
