# Version 1.00
#
freq[Hz];re:Trc1_S11;im:Trc1_S11;re:Trc2_S21;im:Trc2_S21;
2.400000000000000E+009;1.556174308061600E-001;1.063762158155441E-001;-8.745031082071364E-004;-4.239005967974663E-003;
2.400166666666667E+009;1.554366350173950E-001;1.038962453603745E-001;-9.040111908689141E-004;-4.040010739117861E-003;
2.400333333333334E+009;1.555031388998032E-001;1.017799600958824E-001;-1.068307552486658E-003;-3.952638246119022E-003;
2.400500000000000E+009;1.552606970071793E-001;9.892141819000244E-002;-1.256089075468481E-003;-3.902001306414604E-003;
2.400666666666667E+009;1.553311794996262E-001;9.646439552307129E-002;-1.397331710904837E-003;-3.510896814987063E-003;
2.400833333333334E+009;1.554113328456879E-001;9.350115805864334E-002;-1.372273429296911E-003;-3.355109598487616E-003;
2.401000000000000E+009;1.556911617517471E-001;9.072698652744293E-002;-1.355208340100944E-003;-3.302032826468349E-003;
2.401166666666667E+009;1.555774807929993E-001;8.794050663709641E-002;-1.331141218543053E-003;-3.109905170276761E-003;
2.401333333333334E+009;1.561120003461838E-001;8.507744222879410E-002;-1.287736115045846E-003;-2.990504261106253E-003;
2.401500000000000E+009;1.566377431154251E-001;8.219270408153534E-002;-1.203940599225462E-003;-2.997112693265081E-003;
2.401666666666667E+009;1.569117605686188E-001;7.944535464048386E-002;-1.228055683895946E-003;-2.901332452893257E-003;
2.401833333333334E+009;1.572947651147842E-001;7.662375271320343E-002;-1.147081260569394E-003;-2.861099783331156E-003;
2.402000000000000E+009;1.581138670444489E-001;7.390368729829788E-002;-1.307012629695237E-003;-2.875221427530050E-003;
2.402166666666667E+009;1.591056585311890E-001;7.133535295724869E-002;-1.282594283111394E-003;-2.800057642161846E-003;
2.402333333333334E+009;1.601090729236603E-001;6.877035647630692E-002;-1.212582341395319E-003;-2.795276697725058E-003;
2.402500000000000E+009;1.610390543937683E-001;6.629166752099991E-002;-1.469258917495608E-003;-2.998013049364090E-003;
2.402666666666667E+009;1.623056679964066E-001;6.390289217233658E-002;-1.450793002732098E-003;-2.795382868498564E-003;
2.402833333333334E+009;1.637386381626129E-001;6.136752292513847E-002;-1.603672280907631E-003;-2.862073946744204E-003;
2.403000000000000E+009;1.649752706289291E-001;5.897767096757889E-002;-1.755737815983594E-003;-2.720852848142386E-003;
2.403166666666667E+009;1.666539013385773E-001;5.698287859559059E-002;-1.723106019198895E-003;-2.623609267175198E-003;
2.403333333333334E+009;1.683003753423691E-001;5.462617054581642E-002;-2.077986951917410E-003;-2.610977506265044E-003;
2.403500000000000E+009;1.697379946708679E-001;5.259087681770325E-002;-2.103779930621386E-003;-2.278103027492762E-003;
2.403666666666667E+009;1.716187447309494E-001;5.062075331807137E-002;-2.159547526389360E-003;-2.139493124559522E-003;
2.403833333333334E+009;1.733355373144150E-001;4.880018532276154E-002;-2.517418935894966E-003;-2.031391719356179E-003;
2.404000000000000E+009;1.748364716768265E-001;4.712862148880959E-002;-2.308781491592526E-003;-1.760642277076840E-003;
2.404166666666667E+009;1.765971630811691E-001;4.562346264719963E-002;-2.232173690572381E-003;-1.521214144304395E-003;
2.404333333333334E+009;1.782015115022659E-001;4.409525170922279E-002;-2.214906504377723E-003;-1.426726696081460E-003;
2.404500000000000E+009;1.796749383211136E-001;4.263516888022423E-002;-2.008858369663358E-003;-1.339196227490902E-003;
2.404666666666667E+009;1.813385486602783E-001;4.174021258950234E-002;-1.982689369469881E-003;-1.290107029490173E-003;
2.404833333333334E+009;1.831619739532471E-001;4.049346596002579E-002;-2.029868075624108E-003;-1.095944433473051E-003;
2.405000000000000E+009;1.843508929014206E-001;3.999877721071243E-002;-1.659158035181463E-003;-1.106782234273851E-003;
2.405166666666667E+009;1.858234703540802E-001;3.906707838177681E-002;-1.637720852158964E-003;-1.071748556569219E-003;
2.405333333333334E+009;1.873087435960770E-001;3.872548043727875E-002;-1.697054831311107E-003;-1.154181314632297E-003;
2.405500000000000E+009;1.886571496725082E-001;3.813492506742477E-002;-1.500139012932777E-003;-1.096181687898934E-003;
2.405666666666667E+009;1.898289918899536E-001;3.793215751647949E-002;-1.575747155584395E-003;-1.122340443544090E-003;
2.405833333333334E+009;1.910280585289002E-001;3.756432980298996E-002;-1.460672821849585E-003;-9.266119450330734E-004;
2.406000000000000E+009;1.921268254518509E-001;3.744361922144890E-002;-1.504697953350842E-003;-1.071766484528780E-003;
2.406166666666667E+009;1.930271536111832E-001;3.715586289763451E-002;-1.452411059290171E-003;-9.117394802160561E-004;
2.406333333333334E+009;1.938877254724503E-001;3.728160262107849E-002;-1.501807710155845E-003;-1.023955759592354E-003;
2.406500000000000E+009;1.944977045059204E-001;3.730624914169312E-002;-1.422541448846459E-003;-9.408008772879839E-004;
2.406666666666667E+009;1.951788216829300E-001;3.736259043216705E-002;-1.342227798886597E-003;-9.146135998889804E-004;
2.406833333333334E+009;1.956835389137268E-001;3.722406923770905E-002;-1.450288342311978E-003;-9.107518126256764E-004;
2.407000000000000E+009;1.959500163793564E-001;3.760135173797607E-002;-1.288817496970296E-003;-9.393040672875941E-004;
2.407166666666667E+009;1.963543444871903E-001;3.748257830739021E-002;-1.280510798096657E-003;-9.668257553130388E-004;
2.407333333333334E+009;1.961835920810700E-001;3.759176284074783E-002;-1.252287300303578E-003;-9.766708826646209E-004;
2.407500000000000E+009;1.960998177528381E-001;3.758331015706062E-002;-9.999686153605580E-004;-8.865663548931480E-004;
2.407666666666667E+009;1.962746232748032E-001;3.752118349075317E-002;-1.112116151489317E-003;-1.086733536794782E-003;
2.407833333333334E+009;1.957559883594513E-001;3.740962967276573E-002;-8.822095696814358E-004;-9.186342940665782E-004;
2.408000000000000E+009;1.954732686281204E-001;3.726669773459435E-002;-8.908538147807121E-004;-1.061800518073142E-003;
2.408166666666667E+009;1.949223577976227E-001;3.698865324258804E-002;-9.740458917804062E-004;-1.098522683605552E-003;
2.408333333333334E+009;1.944045871496201E-001;3.643205389380455E-002;-8.257110603153706E-004;-1.195066492073238E-003;
2.408500000000000E+009;1.936085373163223E-001;3.619022667407990E-002;-9.531532414257526E-004;-1.267148763872683E-003;
2.408666666666667E+009;1.929773688316345E-001;3.561382368206978E-002;-8.193266112357378E-004;-1.331065315753222E-003;
2.408833333333334E+009;1.922536790370941E-001;3.488021716475487E-002;-7.284256862476468E-004;-1.491780276410282E-003;
2.409000000000000E+009;1.913933902978897E-001;3.395290672779083E-002;-8.546152967028320E-004;-1.534888055175543E-003;
2.409166666666667E+009;1.903572380542755E-001;3.291622549295425E-002;-8.976795361377299E-004;-1.711516408249736E-003;
2.409333333333334E+009;1.896427273750305E-001;3.188800811767578E-002;-9.363510762341321E-004;-1.849184045568109E-003;
2.409500000000000E+009;1.884122788906097E-001;3.061549924314022E-002;-1.141230226494372E-003;-1.973881153389812E-003;
2.409666666666667E+009;1.874421536922455E-001;2.928750403225422E-002;-1.063980977050960E-003;-1.981856068596244E-003;
2.409833333333334E+009;1.863467991352081E-001;2.773890644311905E-002;-1.391440397128463E-003;-2.124623861163855E-003;
2.410000000000000E+009;1.854343414306641E-001;2.623683959245682E-002;-1.505677239038050E-003;-2.173395361751318E-003;
2.410166666666667E+009;1.843628883361816E-001;2.439004555344582E-002;-1.667836913838983E-003;-1.940864254720509E-003;
2.410333333333334E+009;1.833720356225967E-001;2.245715446770191E-002;-1.776112127117813E-003;-2.089917659759522E-003;
2.410500000000000E+009;1.824338436126709E-001;2.060855366289616E-002;-2.029764465987682E-003;-2.058365615084767E-003;
2.410666666666667E+009;1.815068125724793E-001;1.848868466913700E-002;-2.144634956493974E-003;-2.144147641956806E-003;
2.410833333333334E+009;1.808525323867798E-001;1.617395691573620E-002;-2.002360532060266E-003;-2.089687157422304E-003;
2.411000000000000E+009;1.800892502069473E-001;1.393075846135616E-002;-2.299121115356684E-003;-2.024974441155791E-003;
2.411166666666667E+009;1.795352697372437E-001;1.174436789005995E-002;-2.286497037857771E-003;-1.969305099919438E-003;
2.411333333333334E+009;1.788155138492584E-001;9.475088678300381E-003;-2.565916161984205E-003;-1.815497293137014E-003;
2.411500000000000E+009;1.786359250545502E-001;6.987728178501129E-003;-2.554505597800016E-003;-1.753647928126156E-003;
2.411666666666667E+009;1.783016622066498E-001;4.619788844138384E-003;-2.672059694305062E-003;-1.615770393982530E-003;
2.411833333333334E+009;1.781035661697388E-001;2.276320708915591E-003;-2.696009585633874E-003;-1.739965169690549E-003;
2.412000000000000E+009;1.781608462333679E-001;-5.075451917946339E-004;-2.825893694534898E-003;-1.592063112184405E-003;
2.412166666666667E+009;1.784090399742127E-001;-2.639335347339511E-003;-2.857084153220058E-003;-1.678350148722529E-003;
2.412333333333334E+009;1.784825474023819E-001;-5.203141830861569E-003;-3.063357667997479E-003;-1.637596404179931E-003;
2.412500000000000E+009;1.790959686040878E-001;-7.611446548253298E-003;-3.313393564894795E-003;-1.373410806991160E-003;
2.412666666666667E+009;1.793580800294876E-001;-1.008758321404457E-002;-3.451300552114844E-003;-1.416994608007371E-003;
2.412833333333334E+009;1.801506131887436E-001;-1.250888500362635E-002;-3.549281973391771E-003;-1.366291893646121E-003;
2.413000000000000E+009;1.808938235044479E-001;-1.482289470732212E-002;-3.718075575307012E-003;-1.184463617391884E-003;
2.413166666666667E+009;1.816809028387070E-001;-1.701314561069012E-002;-3.829638706520200E-003;-1.282630488276482E-003;
2.413333333333334E+009;1.826834082603455E-001;-1.932729408144951E-002;-4.012406338006258E-003;-1.015715650282800E-003;
2.413500000000000E+009;1.835858672857285E-001;-2.148441039025784E-002;-4.016424994915724E-003;-6.527653313241899E-004;
2.413666666666667E+009;1.849093735218048E-001;-2.371235191822052E-002;-4.244870506227016E-003;-2.782671945169568E-004;
2.413833333333334E+009;1.858275234699249E-001;-2.567497827112675E-002;-4.266150761395693E-003;-1.800516765797511E-004;
2.414000000000000E+009;1.868613213300705E-001;-2.762612327933312E-002;-4.267009440809488E-003;7.377098518190906E-005;
2.414166666666667E+009;1.883081942796707E-001;-2.927683293819428E-002;-4.240620881319046E-003;4.294635728001595E-004;
2.414333333333334E+009;1.893673688173294E-001;-3.111126087605953E-002;-4.298073705285788E-003;5.744103109464049E-004;
2.414500000000000E+009;1.905524879693985E-001;-3.271958976984024E-002;-4.157101735472679E-003;8.863888215273619E-004;
2.414666666666667E+009;1.916844397783279E-001;-3.410582244396210E-002;-4.079422913491726E-003;1.138432766310871E-003;
2.414833333333334E+009;1.928179562091827E-001;-3.549469262361527E-002;-3.767215181142092E-003;1.390294637531042E-003;
2.415000000000000E+009;1.939610093832016E-001;-3.671324998140335E-002;-3.928697668015957E-003;1.517495024017990E-003;
2.415166666666667E+009;1.951745748519898E-001;-3.779666498303413E-002;-3.585482714697719E-003;1.681673573330045E-003;
2.415333333333334E+009;1.964222937822342E-001;-3.871363028883934E-002;-3.732954850420356E-003;1.859600655734539E-003;
2.415500000000000E+009;1.975104063749313E-001;-3.940752893686295E-002;-3.616792149841785E-003;1.760933082550764E-003;
2.415666666666667E+009;1.984855085611343E-001;-4.032125324010849E-002;-3.294346854090691E-003;2.025792142376304E-003;
2.415833333333334E+009;1.992731839418411E-001;-4.083660989999771E-002;-3.207046305760741E-003;2.263100119307637E-003;
2.416000000000000E+009;2.000871598720551E-001;-4.148025810718536E-002;-2.983886050060391E-003;2.295088954269886E-003;
2.416166666666667E+009;2.008756250143051E-001;-4.197814688086510E-002;-2.843987662345171E-003;2.411483554169536E-003;
2.416333333333334E+009;2.014479786157608E-001;-4.220376163721085E-002;-2.887837123125792E-003;2.528231125324965E-003;
2.416500000000000E+009;2.018677294254303E-001;-4.239654913544655E-002;-2.438948722556233E-003;2.546336036175489E-003;
2.416666666666667E+009;2.021898776292801E-001;-4.286677762866020E-002;-2.460404764860869E-003;2.770067192614079E-003;
2.416833333333334E+009;2.023839205503464E-001;-4.280177876353264E-002;-2.127541461959481E-003;2.622933592647314E-003;
2.417000000000000E+009;2.023544609546661E-001;-4.300895705819130E-002;-2.024596091359854E-003;2.688114531338215E-003;
2.417166666666667E+009;2.021136879920960E-001;-4.282639920711517E-002;-1.853392226621509E-003;2.768513979390264E-003;
2.417333333333334E+009;2.019633799791336E-001;-4.267156496644020E-002;-1.804441213607788E-003;2.679510274901986E-003;
2.417500000000000E+009;2.016258984804153E-001;-4.275820404291153E-002;-1.562933786772192E-003;2.718844218179584E-003;
2.417666666666667E+009;2.010037153959274E-001;-4.248609021306038E-002;-1.382185495458543E-003;2.623700071126223E-003;
2.417833333333334E+009;2.006569355726242E-001;-4.236035794019699E-002;-1.306721591390669E-003;2.440606709569693E-003;
2.418000000000000E+009;1.999129951000214E-001;-4.209242761135101E-002;-1.145606976933777E-003;2.391321817412973E-003;
2.418166666666667E+009;1.989423632621765E-001;-4.210126027464867E-002;-1.076368964277208E-003;2.479407470673323E-003;
2.418333333333334E+009;1.982048153877258E-001;-4.186002910137177E-002;-1.085241558030248E-003;2.462832257151604E-003;
2.418500000000000E+009;1.971271932125092E-001;-4.198633506894112E-002;-8.540031267330051E-004;2.233122475445271E-003;
2.418666666666667E+009;1.962709277868271E-001;-4.179571196436882E-002;-9.024304454214871E-004;2.231360878795385E-003;
2.418833333333334E+009;1.949795633554459E-001;-4.199120029807091E-002;-9.354087524116039E-004;2.106704516336322E-003;
2.419000000000000E+009;1.935988366603851E-001;-4.217398911714554E-002;-6.627026596106589E-004;1.992904115468264E-003;
2.419166666666667E+009;1.924404650926590E-001;-4.256279766559601E-002;-6.593317957594991E-004;1.847574720159173E-003;
2.419333333333334E+009;1.910614520311356E-001;-4.306847229599953E-002;-7.021324709057808E-004;1.646517659537494E-003;
2.419500000000000E+009;1.894966214895248E-001;-4.358055815100670E-002;-6.315903738141060E-004;1.608317601494491E-003;
2.419666666666667E+009;1.877958476543427E-001;-4.437194392085075E-002;-7.048491970635951E-004;1.644149539060891E-003;
2.419833333333334E+009;1.863032877445221E-001;-4.501880332827568E-002;-7.124438416212797E-004;1.603081705980003E-003;
2.420000000000000E+009;1.847261488437653E-001;-4.587678611278534E-002;-8.289660909213126E-004;1.412367681041360E-003;
2.420166666666667E+009;1.830691248178482E-001;-4.683167487382889E-002;-9.623020887374878E-004;1.294975634664297E-003;
2.420333333333334E+009;1.815693527460098E-001;-4.799241945147514E-002;-1.066889963112772E-003;1.330550760030747E-003;
2.420500000000000E+009;1.798375993967056E-001;-4.938927292823792E-002;-1.273989095352590E-003;1.115168444812298E-003;
2.420666666666667E+009;1.782382726669312E-001;-5.044283345341682E-002;-1.147872535511851E-003;1.215918222442269E-003;
2.420833333333334E+009;1.766821295022965E-001;-5.192301422357559E-002;-1.332139945589006E-003;1.255654497072101E-003;
2.421000000000000E+009;1.751915812492371E-001;-5.348887294530869E-002;-1.492646522819996E-003;1.273991307243705E-003;
2.421166666666667E+009;1.739258766174316E-001;-5.518683791160584E-002;-1.658339286223054E-003;1.501112477853894E-003;
2.421333333333334E+009;1.721782535314560E-001;-5.679709091782570E-002;-1.832947484217584E-003;1.610291656106710E-003;
2.421500000000000E+009;1.708750277757645E-001;-5.871465429663658E-002;-1.885799225419760E-003;1.705543603748083E-003;
2.421666666666667E+009;1.696699112653732E-001;-6.046555936336517E-002;-1.957005355507135E-003;1.859244424849749E-003;
2.421833333333334E+009;1.686095297336578E-001;-6.234035640954971E-002;-1.932715764269233E-003;2.042136387899518E-003;
2.422000000000000E+009;1.674561202526093E-001;-6.432328373193741E-002;-1.908209291286767E-003;2.144522964954376E-003;
2.422166666666667E+009;1.665744334459305E-001;-6.647869199514389E-002;-1.851248438470066E-003;2.435339614748955E-003;
2.422333333333334E+009;1.656742393970490E-001;-6.832855939865112E-002;-1.846985542215407E-003;2.459625713527203E-003;
2.422500000000000E+009;1.648231893777847E-001;-7.035285979509354E-002;-1.725992653518915E-003;2.728658961132169E-003;
2.422666666666667E+009;1.643078327178955E-001;-7.244043052196503E-002;-1.613168744370341E-003;2.682042540982366E-003;
2.422833333333334E+009;1.639227122068405E-001;-7.444194704294205E-002;-1.635513151995838E-003;2.968259388580918E-003;
2.423000000000000E+009;1.633215397596359E-001;-7.652558386325836E-002;-1.512290444225073E-003;2.961155027151108E-003;
2.423166666666667E+009;1.629123538732529E-001;-7.845471054315567E-002;-1.345301396213472E-003;2.986948471516371E-003;
2.423333333333334E+009;1.627093702554703E-001;-8.042415976524353E-002;-1.274575130082667E-003;3.096006810665131E-003;
2.423500000000000E+009;1.625864058732987E-001;-8.216333389282227E-002;-1.346810138784349E-003;3.244760911911726E-003;
2.423666666666667E+009;1.627603471279144E-001;-8.398461341857910E-002;-1.109358854591847E-003;3.264066530391574E-003;
2.423833333333334E+009;1.624981164932251E-001;-8.584250509738922E-002;-1.081679365597665E-003;3.462004940956831E-003;
2.424000000000000E+009;1.627568006515503E-001;-8.758917450904846E-002;-1.023262622766197E-003;3.441039705649018E-003;
2.424166666666667E+009;1.628300696611404E-001;-8.921086788177490E-002;-8.367357077077031E-004;3.829141845926642E-003;
2.424333333333334E+009;1.630579531192780E-001;-9.054088592529297E-002;-9.567387169227004E-004;3.781244624406099E-003;
2.424500000000000E+009;1.632888466119766E-001;-9.221716970205307E-002;-7.236098754219711E-004;3.888699458912015E-003;
2.424666666666667E+009;1.636080294847488E-001;-9.354962408542633E-002;-5.299590411596000E-004;3.971271682530642E-003;
2.424833333333334E+009;1.642720550298691E-001;-9.497795999050140E-002;-3.671680751722306E-004;4.251631908118725E-003;
2.425000000000000E+009;1.644177138805389E-001;-9.595099091529846E-002;-1.513529568910599E-004;4.432115703821182E-003;
2.425166666666667E+009;1.647836416959763E-001;-9.702969342470169E-002;1.072254599421285E-004;4.359550774097443E-003;
2.425333333333334E+009;1.651436090469360E-001;-9.801281988620758E-002;2.665537467692047E-004;4.439923912286758E-003;
2.425500000000000E+009;1.655621528625488E-001;-9.892982989549637E-002;4.767698119394481E-004;4.467445891350508E-003;
2.425666666666667E+009;1.661059111356735E-001;-9.959345310926437E-002;8.545211749151349E-004;4.375921562314034E-003;
2.425833333333334E+009;1.663180738687515E-001;-1.004571914672852E-001;1.106548123061657E-003;4.482762888073921E-003;
2.426000000000000E+009;1.667526215314865E-001;-1.008692309260368E-001;1.324856886640191E-003;4.345909692347050E-003;
2.426166666666667E+009;1.671608835458756E-001;-1.013158857822418E-001;1.596906688064337E-003;4.349922761321068E-003;
2.426333333333334E+009;1.671540439128876E-001;-1.018639579415321E-001;1.782964565791190E-003;4.145288374274969E-003;
2.426500000000000E+009;1.676420867443085E-001;-1.020172908902168E-001;2.056053606793284E-003;4.122469108551741E-003;
2.426666666666667E+009;1.679314821958542E-001;-1.022366806864739E-001;2.153897890821099E-003;3.935374319553375E-003;
2.426833333333334E+009;1.680531352758408E-001;-1.025219559669495E-001;2.250631805509329E-003;3.726466791704297E-003;
2.427000000000000E+009;1.680174916982651E-001;-1.028476208448410E-001;2.379803452640772E-003;3.642832627519965E-003;
2.427166666666667E+009;1.680193841457367E-001;-1.028677299618721E-001;2.461393829435110E-003;3.520463127642870E-003;
2.427333333333334E+009;1.679185926914215E-001;-1.030464619398117E-001;2.770629711449146E-003;3.353868611156941E-003;
2.427500000000000E+009;1.676209568977356E-001;-1.032366529107094E-001;2.905146684497595E-003;3.226307220757008E-003;
2.427666666666667E+009;1.673405468463898E-001;-1.031994223594666E-001;2.795981708914042E-003;3.004591679200530E-003;
