# Version 1.00
#
freq[Hz];re:Trc1_S11;im:Trc1_S11;re:Trc2_S21;im:Trc2_S21;
2.400000000000000E+009;1.580592989921570E-001;6.238697096705437E-002;-9.145445073954761E-004;-3.129919525235891E-003;
2.400166666666667E+009;1.580990254878998E-001;6.066842749714851E-002;-8.998743142001331E-004;-3.396815154701471E-003;
2.400333333333334E+009;1.579317897558212E-001;5.887220054864883E-002;-9.061894961632788E-004;-3.284882055595517E-003;
2.400500000000000E+009;1.577876806259155E-001;5.700959265232086E-002;-1.088894903659821E-003;-3.229223424568772E-003;
2.400666666666667E+009;1.578612774610519E-001;5.496938899159432E-002;-1.135457307100296E-003;-3.149733878672123E-003;
2.400833333333334E+009;1.579585522413254E-001;5.311089009046555E-002;-1.207154826261103E-003;-3.283923491835594E-003;
2.401000000000000E+009;1.579163670539856E-001;5.110907927155495E-002;-1.336607849225402E-003;-3.370817052200437E-003;
2.401166666666667E+009;1.581861078739166E-001;4.887742549180985E-002;-1.372863305732608E-003;-3.313502995297313E-003;
2.401333333333334E+009;1.582980751991272E-001;4.687529802322388E-002;-1.352985273115337E-003;-3.193636424839497E-003;
2.401500000000000E+009;1.588956564664841E-001;4.492287337779999E-002;-1.707208459265530E-003;-3.257147967815399E-003;
2.401666666666667E+009;1.590590626001358E-001;4.289883002638817E-002;-1.789925852790475E-003;-3.305995604023337E-003;
2.401833333333334E+009;1.593760251998901E-001;4.079895466566086E-002;-1.899671042338014E-003;-3.293276764452457E-003;
2.402000000000000E+009;1.597313135862351E-001;3.884453698992729E-002;-1.874184119515121E-003;-3.338148584589362E-003;
2.402166666666667E+009;1.603438109159470E-001;3.677157685160637E-002;-2.070088405162096E-003;-3.256538417190313E-003;
2.402333333333334E+009;1.609337627887726E-001;3.499206900596619E-002;-2.248715143650770E-003;-3.185326931998134E-003;
2.402500000000000E+009;1.617868393659592E-001;3.320227563381195E-002;-2.333022188395262E-003;-3.220175625756383E-003;
2.402666666666667E+009;1.623559594154358E-001;3.138161823153496E-002;-2.465084660798311E-003;-3.175645601004362E-003;
2.402833333333334E+009;1.630920916795731E-001;2.984623424708843E-002;-2.659532008692622E-003;-3.362393472343683E-003;
2.403000000000000E+009;1.637893915176392E-001;2.803655155003071E-002;-2.858868334442377E-003;-3.150727134197950E-003;
2.403166666666667E+009;1.648413836956024E-001;2.655877731740475E-002;-2.886056201532483E-003;-2.978857839480043E-003;
2.403333333333334E+009;1.656067073345184E-001;2.514073625206947E-002;-3.140134736895561E-003;-2.871862612664700E-003;
2.403500000000000E+009;1.666210740804672E-001;2.367701195180416E-002;-3.372291801497340E-003;-2.904531080275774E-003;
2.403666666666667E+009;1.673915386199951E-001;2.196566388010979E-002;-3.493779106065631E-003;-2.686564344912767E-003;
2.403833333333334E+009;1.685274392366409E-001;2.090967074036598E-002;-3.607898950576782E-003;-2.518682042136788E-003;
2.404000000000000E+009;1.695252507925034E-001;1.988341100513935E-002;-3.803255502134562E-003;-2.453027991577983E-003;
2.404166666666667E+009;1.703094691038132E-001;1.858812570571899E-002;-3.944525960832834E-003;-2.090515801683068E-003;
2.404333333333334E+009;1.713187694549561E-001;1.766135729849339E-002;-3.969664685428143E-003;-2.027878770604730E-003;
2.404500000000000E+009;1.721237152814865E-001;1.665747724473476E-002;-4.351339768618345E-003;-1.817099284380674E-003;
2.404666666666667E+009;1.732878386974335E-001;1.565126143395901E-002;-4.177883267402649E-003;-1.753760967403650E-003;
2.404833333333334E+009;1.740326583385468E-001;1.493181381374598E-002;-4.377603065222502E-003;-1.612216467037797E-003;
2.405000000000000E+009;1.749543994665146E-001;1.408414915204048E-002;-4.425909370183945E-003;-1.386393792927265E-003;
2.405166666666667E+009;1.758671551942825E-001;1.348702143877745E-002;-4.575486294925213E-003;-1.139866886660457E-003;
2.405333333333334E+009;1.766643822193146E-001;1.293832994997501E-002;-4.530370235443115E-003;-8.389195427298546E-004;
2.405500000000000E+009;1.773659437894821E-001;1.241091731935740E-002;-4.660608246922493E-003;-7.031364366412163E-004;
2.405666666666667E+009;1.779721379280090E-001;1.186949200928211E-002;-4.709684289991856E-003;-4.166951403021812E-004;
2.405833333333334E+009;1.783591210842133E-001;1.157321501523256E-002;-4.679348319768906E-003;-9.718774526845664E-005;
2.406000000000000E+009;1.790867745876312E-001;1.107403729110956E-002;-4.654802381992340E-003;-4.459033880266361E-005;
2.406166666666667E+009;1.793513447046280E-001;1.087368000298739E-002;-4.610753618180752E-003;6.384640437318012E-005;
2.406333333333334E+009;1.799988448619843E-001;1.064225379377604E-002;-4.675138741731644E-003;4.598525410983712E-004;
2.406500000000000E+009;1.802410781383514E-001;1.015894301235676E-002;-4.609283991158009E-003;6.386296008713543E-004;
2.406666666666667E+009;1.803371459245682E-001;1.005966030061245E-002;-4.552008118480444E-003;8.369030547328293E-004;
2.406833333333334E+009;1.805209070444107E-001;9.535495191812515E-003;-4.479108378291130E-003;8.839292568154633E-004;
2.407000000000000E+009;1.805568337440491E-001;9.182749316096306E-003;-4.439224954694510E-003;1.017869682982564E-003;
2.407166666666667E+009;1.807609796524048E-001;8.855943568050861E-003;-4.206031095236540E-003;1.219440135173500E-003;
2.407333333333334E+009;1.804864853620529E-001;8.504802361130714E-003;-4.249553196132183E-003;1.469924929551780E-003;
2.407500000000000E+009;1.804513484239578E-001;7.992468774318695E-003;-4.132976755499840E-003;1.550599350593984E-003;
2.407666666666667E+009;1.802457422018051E-001;7.570678833872080E-003;-4.061693791300058E-003;1.864897320047021E-003;
2.407833333333334E+009;1.796374022960663E-001;7.118351757526398E-003;-3.989511635154486E-003;1.920489128679037E-003;
2.408000000000000E+009;1.795045733451843E-001;6.468047387897968E-003;-3.853188361972570E-003;2.173746936023235E-003;
2.408166666666667E+009;1.789686679840088E-001;5.952988751232624E-003;-3.840821562334895E-003;2.351364819332957E-003;
2.408333333333334E+009;1.786222010850906E-001;5.189802963286638E-003;-3.521764418110251E-003;2.207370707765222E-003;
2.408500000000000E+009;1.780991256237030E-001;4.327339120209217E-003;-3.493634983897209E-003;2.472573192790151E-003;
2.408666666666667E+009;1.775212138891220E-001;3.447834169492126E-003;-3.339416347444058E-003;2.612586366012693E-003;
2.408833333333334E+009;1.768518686294556E-001;2.484806580469012E-003;-3.185943700373173E-003;2.591405762359500E-003;
2.409000000000000E+009;1.761270463466644E-001;1.449159462936223E-003;-3.064124612137675E-003;2.702246652916074E-003;
2.409166666666667E+009;1.755453199148178E-001;4.734741523861885E-004;-2.897102618589997E-003;2.751975553110242E-003;
2.409333333333334E+009;1.748965829610825E-001;-9.295003255829215E-004;-2.846483141183853E-003;2.940787700936198E-003;
2.409500000000000E+009;1.743771284818649E-001;-2.444861223921180E-003;-2.711751731112599E-003;2.888125833123922E-003;
2.409666666666667E+009;1.735017299652100E-001;-3.757076337933540E-003;-2.703153528273106E-003;3.053379012271762E-003;
2.409833333333334E+009;1.726937592029572E-001;-5.181554239243269E-003;-2.517560729756951E-003;3.062485950067639E-003;
2.410000000000000E+009;1.721530258655548E-001;-6.405984051525593E-003;-2.355159725993872E-003;3.054913133382797E-003;
2.410166666666667E+009;1.715266853570938E-001;-8.126608096063137E-003;-2.238490385934711E-003;3.103450173512101E-003;
2.410333333333334E+009;1.708949506282806E-001;-9.688762016594410E-003;-2.084874780848622E-003;3.151010256260634E-003;
2.410500000000000E+009;1.704598665237427E-001;-1.149212382733822E-002;-2.099601551890373E-003;3.178335959091783E-003;
2.410666666666667E+009;1.696855425834656E-001;-1.328277587890625E-002;-2.000260166823864E-003;3.385453484952450E-003;
2.410833333333334E+009;1.693471968173981E-001;-1.508898753672838E-002;-1.804364146664739E-003;3.237580880522728E-003;
2.411000000000000E+009;1.690425574779511E-001;-1.691659353673458E-002;-1.749720075167716E-003;3.319674637168646E-003;
2.411166666666667E+009;1.686768084764481E-001;-1.887452788650990E-002;-1.741065760143101E-003;3.357134060934186E-003;
2.411333333333334E+009;1.684456467628479E-001;-2.096239477396011E-002;-1.776744960807264E-003;3.349929349496961E-003;
2.411500000000000E+009;1.683597117662430E-001;-2.275390736758709E-002;-1.513278926722705E-003;3.440653672441840E-003;
2.411666666666667E+009;1.683173626661301E-001;-2.463232539594173E-002;-1.358203240670264E-003;3.315153298899531E-003;
2.411833333333334E+009;1.682710498571396E-001;-2.652941644191742E-002;-1.331100356765091E-003;3.479122882708907E-003;
2.412000000000000E+009;1.684392541646957E-001;-2.870780415832996E-002;-1.214018557220697E-003;3.562042955309153E-003;
2.412166666666667E+009;1.681479811668396E-001;-3.061704710125923E-002;-1.218065968714654E-003;3.683180548250675E-003;
2.412333333333334E+009;1.686641871929169E-001;-3.243618085980415E-002;-1.057073939591646E-003;3.621246665716171E-003;
2.412500000000000E+009;1.687192320823669E-001;-3.438791260123253E-002;-9.715171763673425E-004;3.686800831928849E-003;
2.412666666666667E+009;1.689670681953430E-001;-3.655356168746948E-002;-7.519961218349636E-004;3.730558091774583E-003;
2.412833333333334E+009;1.694465577602387E-001;-3.817586600780487E-002;-6.282662507146597E-004;3.781137522310019E-003;
2.413000000000000E+009;1.697387844324112E-001;-3.999407589435577E-002;-4.823501512873918E-004;3.732832847163081E-003;
2.413166666666667E+009;1.701164990663528E-001;-4.156054928898811E-002;-3.306129074189812E-004;3.929992672055960E-003;
2.413333333333334E+009;1.705218851566315E-001;-4.349435120820999E-002;-2.336060279048979E-004;3.747271839529276E-003;
2.413500000000000E+009;1.708783060312271E-001;-4.505525529384613E-002;-5.622965181828477E-005;3.952182829380035E-003;
2.413666666666667E+009;1.716442406177521E-001;-4.662925377488136E-002;2.507564495317638E-004;3.974032122641802E-003;
2.413833333333334E+009;1.723165512084961E-001;-4.799907281994820E-002;3.395630337763578E-004;3.912613727152348E-003;
2.414000000000000E+009;1.725567281246185E-001;-4.946481809020042E-002;4.723091842606664E-004;3.886300139129162E-003;
2.414166666666667E+009;1.732545942068100E-001;-5.065019056200981E-002;4.635136865545064E-004;3.869399661198258E-003;
2.414333333333334E+009;1.738018542528153E-001;-5.190326645970345E-002;7.618395611643791E-004;3.896789392456412E-003;
2.414500000000000E+009;1.743994802236557E-001;-5.311306565999985E-002;8.880125824362040E-004;3.800924634560943E-003;
2.414666666666667E+009;1.748774051666260E-001;-5.417700856924057E-002;1.230604830197990E-003;3.935142420232296E-003;
2.414833333333334E+009;1.752859055995941E-001;-5.509315431118012E-002;1.240534591488540E-003;3.750675823539496E-003;
2.415000000000000E+009;1.756830066442490E-001;-5.595163628458977E-002;1.379395951516926E-003;3.820501500740647E-003;
2.415166666666667E+009;1.762218624353409E-001;-5.676487460732460E-002;1.397361280396581E-003;3.464975859969854E-003;
2.415333333333334E+009;1.766976714134216E-001;-5.757314339280129E-002;1.730706309899688E-003;3.472418989986181E-003;
2.415500000000000E+009;1.770564615726471E-001;-5.813724920153618E-002;1.756515586748719E-003;3.302882891148329E-003;
2.415666666666667E+009;1.772468090057373E-001;-5.861958488821983E-002;1.935143140144646E-003;3.415852785110474E-003;
2.415833333333334E+009;1.774689257144928E-001;-5.913405120372772E-002;2.119313925504684E-003;3.257571952417493E-003;
2.416000000000000E+009;1.774839758872986E-001;-5.953242629766464E-002;2.159256255254149E-003;3.210115944966674E-003;
2.416166666666667E+009;1.777316480875015E-001;-6.000149250030518E-002;2.221497939899564E-003;3.141239751130343E-003;
2.416333333333334E+009;1.776100546121597E-001;-6.025466695427895E-002;2.459036651998758E-003;3.073615487664938E-003;
2.416500000000000E+009;1.774654984474182E-001;-6.057657673954964E-002;2.447732258588076E-003;2.886140020564199E-003;
2.416666666666667E+009;1.770745664834976E-001;-6.071802973747253E-002;2.483497839421034E-003;2.760003786534071E-003;
2.416833333333334E+009;1.771487593650818E-001;-6.104795634746552E-002;2.552212448790669E-003;2.660692436620593E-003;
2.417000000000000E+009;1.765446215867996E-001;-6.130104884505272E-002;2.708172425627708E-003;2.588386880233884E-003;
2.417166666666667E+009;1.760825663805008E-001;-6.139052659273148E-002;2.678545191884041E-003;2.453357912600040E-003;
2.417333333333334E+009;1.756496280431747E-001;-6.151760369539261E-002;2.787712262943387E-003;2.271246165037155E-003;
2.417500000000000E+009;1.749456375837326E-001;-6.200523674488068E-002;2.799062291160226E-003;2.115743933245540E-003;
2.417666666666667E+009;1.743172854185104E-001;-6.187225505709648E-002;2.880128333345056E-003;2.029907424002886E-003;
2.417833333333334E+009;1.734796613454819E-001;-6.226049736142159E-002;3.217230085283518E-003;1.912427600473166E-003;
2.418000000000000E+009;1.725845783948898E-001;-6.258638948202133E-002;2.991836750879884E-003;1.834154245443642E-003;
2.418166666666667E+009;1.715706884860992E-001;-6.288862973451614E-002;3.087344579398632E-003;1.690490287728608E-003;
2.418333333333334E+009;1.708706617355347E-001;-6.323717534542084E-002;3.260503988713026E-003;1.542442827485502E-003;
2.418500000000000E+009;1.698297411203384E-001;-6.364402174949646E-002;3.208354348316789E-003;1.471792696975172E-003;
2.418666666666667E+009;1.686513423919678E-001;-6.406752765178680E-002;3.198846708983183E-003;1.311116502620280E-003;
2.418833333333334E+009;1.673793196678162E-001;-6.458634883165360E-002;3.193760989233851E-003;1.188281108625233E-003;
2.419000000000000E+009;1.662454307079315E-001;-6.514878571033478E-002;3.299106610938907E-003;1.075467793270946E-003;
2.419166666666667E+009;1.650850921869278E-001;-6.591095030307770E-002;3.310843138024211E-003;9.476478444412351E-004;
2.419333333333334E+009;1.637727767229080E-001;-6.640838831663132E-002;3.338278038427234E-003;7.597207440994680E-004;
2.419500000000000E+009;1.626457124948502E-001;-6.751839071512222E-002;3.395714797079563E-003;5.209838273003697E-004;
2.419666666666667E+009;1.615944504737854E-001;-6.825040280818939E-002;3.294660476967692E-003;5.758389597758651E-004;
2.419833333333334E+009;1.602088063955307E-001;-6.925323605537415E-002;3.491050098091364E-003;3.614610177464783E-004;
2.420000000000000E+009;1.593579500913620E-001;-7.019861787557602E-002;3.375583561137319E-003;1.909256679937244E-004;
2.420166666666667E+009;1.581368893384934E-001;-7.125639170408249E-002;3.289739601314068E-003;1.548260479466990E-004;
2.420333333333334E+009;1.571187227964401E-001;-7.248035073280335E-002;3.351746592670679E-003;-1.632545718166512E-005;
2.420500000000000E+009;1.560749113559723E-001;-7.367412000894547E-002;3.437843639403582E-003;-1.947130076587200E-004;
2.420666666666667E+009;1.549788862466812E-001;-7.505358755588532E-002;3.334287554025650E-003;-3.783225838560611E-004;
2.420833333333334E+009;1.542669981718063E-001;-7.648219913244247E-002;3.259399207308888E-003;-5.632815882563591E-004;
2.421000000000000E+009;1.533657163381577E-001;-7.794484496116638E-002;3.358702873811126E-003;-7.868335233069956E-004;
2.421166666666667E+009;1.526167392730713E-001;-7.944282889366150E-002;3.182897111400962E-003;-9.348898311145604E-004;
2.421333333333334E+009;1.518928706645966E-001;-8.109729737043381E-002;3.061798634007573E-003;-8.600529981777072E-004;
2.421500000000000E+009;1.512198597192764E-001;-8.242242783308029E-002;2.956827869638801E-003;-1.141049084253609E-003;
2.421666666666667E+009;1.506829857826233E-001;-8.417119085788727E-002;2.839463297277689E-003;-1.278207520954311E-003;
2.421833333333334E+009;1.503873318433762E-001;-8.585116267204285E-002;2.730665961280465E-003;-1.369877136312425E-003;
2.422000000000000E+009;1.500647515058518E-001;-8.759983628988266E-002;2.720776945352554E-003;-1.480512670241296E-003;
2.422166666666667E+009;1.497128605842590E-001;-8.949289470911026E-002;2.505169482901692E-003;-1.663278206251562E-003;
2.422333333333334E+009;1.494883894920349E-001;-9.111366420984268E-002;2.337766345590353E-003;-1.649238984100521E-003;
2.422500000000000E+009;1.493369191884995E-001;-9.263667464256287E-002;2.374622272327542E-003;-1.778697711415589E-003;
2.422666666666667E+009;1.491163969039917E-001;-9.469622373580933E-002;2.068823901936412E-003;-1.755596487782896E-003;
2.422833333333334E+009;1.494025737047195E-001;-9.630009531974793E-002;1.925750984810293E-003;-1.799524645321071E-003;
2.423000000000000E+009;1.494796723127365E-001;-9.793318808078766E-002;1.856907503679395E-003;-1.810690970160067E-003;
2.423166666666667E+009;1.497333794832230E-001;-9.951228648424149E-002;1.819130498915911E-003;-1.836848910897970E-003;
2.423333333333334E+009;1.500546634197235E-001;-1.009813100099564E-001;1.682491274550557E-003;-1.939643872901797E-003;
2.423500000000000E+009;1.503229290246964E-001;-1.028622090816498E-001;1.384072587825358E-003;-1.861087046563625E-003;
2.423666666666667E+009;1.505355089902878E-001;-1.042198315262795E-001;1.143601257354021E-003;-1.999518368393183E-003;
2.423833333333334E+009;1.511121690273285E-001;-1.057009845972061E-001;1.202255021780729E-003;-2.099614124745131E-003;
2.424000000000000E+009;1.513154059648514E-001;-1.070226356387138E-001;7.490306743420661E-004;-1.910481369122863E-003;
2.424166666666667E+009;1.517605483531952E-001;-1.083827167749405E-001;7.311807130463421E-004;-1.820784993469715E-003;
2.424333333333334E+009;1.523808836936951E-001;-1.096675544977188E-001;7.102119270712137E-004;-1.753205899149180E-003;
2.424500000000000E+009;1.529352366924286E-001;-1.108341738581657E-001;5.923849530518055E-004;-1.726447604596615E-003;
2.424666666666667E+009;1.533038169145584E-001;-1.117032393813133E-001;5.174779216758907E-004;-1.605261466465890E-003;
2.424833333333334E+009;1.536589413881302E-001;-1.127297356724739E-001;4.152746987529099E-004;-1.559221302159131E-003;
2.425000000000000E+009;1.543058156967163E-001;-1.137255057692528E-001;5.630073137581348E-004;-1.476345583796501E-003;
2.425166666666667E+009;1.545143872499466E-001;-1.145365908741951E-001;2.816682099364698E-004;-1.457547186873853E-003;
2.425333333333334E+009;1.550235599279404E-001;-1.152874231338501E-001;3.955716965720058E-004;-1.324290642514825E-003;
2.425500000000000E+009;1.555461734533310E-001;-1.160072237253189E-001;2.560912689659745E-004;-1.196481403894723E-003;
2.425666666666667E+009;1.556590795516968E-001;-1.165159344673157E-001;7.890202687121928E-005;-1.140103093348444E-003;
2.425833333333334E+009;1.560279428958893E-001;-1.170469000935555E-001;3.397194377612323E-004;-1.162305590696633E-003;
2.426000000000000E+009;1.562736928462982E-001;-1.176882311701775E-001;1.596206566318870E-004;-1.049659796990454E-003;
2.426166666666667E+009;1.564393192529678E-001;-1.180414482951164E-001;1.533120957901701E-004;-9.441203437745571E-004;
2.426333333333334E+009;1.563340127468109E-001;-1.183167546987534E-001;2.201072638854384E-004;-8.610447985120118E-004;
2.426500000000000E+009;1.564189642667770E-001;-1.186171621084213E-001;2.259380562463775E-004;-8.382422965951264E-004;
2.426666666666667E+009;1.564976274967194E-001;-1.186537593603134E-001;1.615462242625654E-004;-6.529359961859882E-004;
2.426833333333334E+009;1.562973409891129E-001;-1.188775151968002E-001;2.239741297671571E-004;-7.960718940012157E-004;
2.427000000000000E+009;1.559922397136688E-001;-1.191425323486328E-001;3.120643086731434E-004;-7.647565216757357E-004;
2.427166666666667E+009;1.555585712194443E-001;-1.190983802080154E-001;4.013628058601171E-004;-5.326810060068965E-004;
2.427333333333334E+009;1.551725864410400E-001;-1.192706748843193E-001;2.795358886942267E-004;-5.797667545266450E-004;
2.427500000000000E+009;1.546534001827240E-001;-1.193326190114021E-001;4.398817254696041E-004;-5.628613289445639E-004;
2.427666666666667E+009;1.539934575557709E-001;-1.194657534360886E-001;5.342685617506504E-004;-5.539820413105190E-004;
