# Version 1.00
#
freq[Hz];re:Trc1_S11;im:Trc1_S11;re:Trc2_S21;im:Trc2_S21;
2.400000000000000E+009;1.581207066774368E-001;6.222562864422798E-002;-9.398592519573867E-004;-3.255006391555071E-003;
2.400166666666667E+009;1.580524146556854E-001;6.083989888429642E-002;-1.008695922791958E-003;-3.211673581972718E-003;
2.400333333333334E+009;1.579440087080002E-001;5.879631638526917E-002;-1.024566823616624E-003;-3.227245295420289E-003;
2.400500000000000E+009;1.579073071479797E-001;5.691843852400780E-002;-9.531836258247495E-004;-3.319662995636463E-003;
2.400666666666667E+009;1.578620970249176E-001;5.498077347874641E-002;-1.122061861678958E-003;-3.324479795992374E-003;
2.400833333333334E+009;1.580845564603806E-001;5.303593724966049E-002;-1.208911882713437E-003;-3.243216313421726E-003;
2.401000000000000E+009;1.580305397510529E-001;5.119448527693749E-002;-1.309469575062394E-003;-3.261680016294122E-003;
2.401166666666667E+009;1.582052558660507E-001;4.892678186297417E-002;-1.475143828429282E-003;-3.373207757249475E-003;
2.401333333333334E+009;1.582612991333008E-001;4.693370684981346E-002;-1.465482055209577E-003;-3.177204402163625E-003;
2.401500000000000E+009;1.587523370981216E-001;4.477801173925400E-002;-1.719500171020627E-003;-3.386080032214522E-003;
2.401666666666667E+009;1.590974181890488E-001;4.290584474802017E-002;-1.657912740483880E-003;-3.390842815861106E-003;
2.401833333333334E+009;1.593898236751556E-001;4.095060750842094E-002;-1.915670465677977E-003;-3.340263618156314E-003;
2.402000000000000E+009;1.598358303308487E-001;3.884001448750496E-002;-1.922028372064233E-003;-3.431130666285753E-003;
2.402166666666667E+009;1.604225784540176E-001;3.679310157895088E-002;-2.006082795560360E-003;-3.248862456530333E-003;
2.402333333333334E+009;1.608709543943405E-001;3.518426045775414E-002;-2.186110243201256E-003;-3.371423343196511E-003;
2.402500000000000E+009;1.617709845304489E-001;3.334041312336922E-002;-2.414893126115203E-003;-3.314554225653410E-003;
2.402666666666667E+009;1.622655391693115E-001;3.149408102035523E-002;-2.538134576752782E-003;-3.162975423038006E-003;
2.402833333333334E+009;1.629993766546249E-001;2.979751862585545E-002;-2.459148643538356E-003;-3.143191337585449E-003;
2.403000000000000E+009;1.637815684080124E-001;2.813587523996830E-002;-2.875885460525751E-003;-3.139381995424628E-003;
2.403166666666667E+009;1.646607369184494E-001;2.651763707399368E-002;-3.036906011402607E-003;-2.991009503602982E-003;
2.403333333333334E+009;1.656098663806915E-001;2.511848323047161E-002;-3.060001879930496E-003;-2.888327464461327E-003;
2.403500000000000E+009;1.663210541009903E-001;2.359972149133682E-002;-3.390402998775244E-003;-2.740992698818445E-003;
2.403666666666667E+009;1.676198542118073E-001;2.215606719255447E-002;-3.606255166232586E-003;-2.667838707566261E-003;
2.403833333333334E+009;1.685894280672073E-001;2.086986601352692E-002;-3.644473850727081E-003;-2.493454143404961E-003;
2.404000000000000E+009;1.694991290569305E-001;1.976613327860832E-002;-3.826802829280496E-003;-2.395564923062921E-003;
2.404166666666667E+009;1.703878045082092E-001;1.863368228077889E-002;-4.127281717956066E-003;-2.217301400378346E-003;
2.404333333333334E+009;1.712536215782166E-001;1.776726916432381E-002;-4.086173139512539E-003;-2.015346661210060E-003;
2.404500000000000E+009;1.722338646650314E-001;1.668456755578518E-002;-4.239586181938648E-003;-1.793130650185049E-003;
2.404666666666667E+009;1.733705848455429E-001;1.564194075763226E-002;-4.298374056816101E-003;-1.739439205266535E-003;
2.404833333333334E+009;1.741070449352264E-001;1.508820056915283E-002;-4.520433489233255E-003;-1.501195249147713E-003;
2.405000000000000E+009;1.749482005834580E-001;1.426865160465241E-002;-4.614995792508125E-003;-1.250285655260086E-003;
2.405166666666667E+009;1.757855415344238E-001;1.358031760901213E-002;-4.641407635062933E-003;-1.124452101066709E-003;
2.405333333333334E+009;1.765222698450089E-001;1.288716588169336E-002;-4.537467844784260E-003;-1.010209205560386E-003;
2.405500000000000E+009;1.773089319467545E-001;1.243095565587282E-002;-4.646338988095522E-003;-7.027807296253741E-004;
2.405666666666667E+009;1.780666112899780E-001;1.198374107480049E-002;-4.550660494714975E-003;-5.508490139618516E-004;
2.405833333333334E+009;1.785322874784470E-001;1.162819191813469E-002;-4.674584604799748E-003;-3.656840417534113E-004;
2.406000000000000E+009;1.791780591011047E-001;1.099703554064035E-002;-4.732429981231690E-003;-6.190053682075813E-005;
2.406166666666667E+009;1.793084889650345E-001;1.094058528542519E-002;-4.531878512352705E-003;1.441489439457655E-004;
2.406333333333334E+009;1.799897998571396E-001;1.053757593035698E-002;-4.657707642763853E-003;3.638425550889224E-004;
2.406500000000000E+009;1.803028136491776E-001;1.023815851658583E-002;-4.419739358127117E-003;5.553667433559895E-004;
2.406666666666667E+009;1.802339702844620E-001;9.997625835239887E-003;-4.590012133121491E-003;6.946960929781199E-004;
2.406833333333334E+009;1.805689930915833E-001;9.627759456634522E-003;-4.408973734825850E-003;9.972676634788513E-004;
2.407000000000000E+009;1.806429028511047E-001;9.312932379543781E-003;-4.322151653468609E-003;1.061727176420391E-003;
2.407166666666667E+009;1.807530224323273E-001;8.985686115920544E-003;-4.555175080895424E-003;1.383634633384645E-003;
2.407333333333334E+009;1.804411560297012E-001;8.454579859972000E-003;-4.355925135314465E-003;1.561856712214649E-003;
2.407500000000000E+009;1.804216504096985E-001;8.133132942020893E-003;-4.253172781318426E-003;1.559968339279294E-003;
2.407666666666667E+009;1.801844090223312E-001;7.668904960155487E-003;-4.391983151435852E-003;1.833496033214033E-003;
2.407833333333334E+009;1.797800809144974E-001;7.006097119301558E-003;-3.999168518930674E-003;1.860567484982312E-003;
2.408000000000000E+009;1.794030070304871E-001;6.422369740903378E-003;-3.900268115103245E-003;2.105214633047581E-003;
2.408166666666667E+009;1.788298487663269E-001;5.875220056623220E-003;-3.750111442059279E-003;2.282510511577129E-003;
2.408333333333334E+009;1.786506325006485E-001;5.245689302682877E-003;-3.535399446263909E-003;2.308089751750231E-003;
2.408500000000000E+009;1.780553460121155E-001;4.355939570814371E-003;-3.551683155819774E-003;2.453433349728584E-003;
2.408666666666667E+009;1.774288266897202E-001;3.388636512681842E-003;-3.227742156013846E-003;2.645524218678474E-003;
2.408833333333334E+009;1.767110079526901E-001;2.533570164814591E-003;-3.304348094388843E-003;2.682370599359274E-003;
2.409000000000000E+009;1.761044114828110E-001;1.539758988656104E-003;-3.089673817157745E-003;2.690546447411180E-003;
2.409166666666667E+009;1.755300462245941E-001;4.112647729925811E-004;-3.021367825567722E-003;2.803068608045578E-003;
2.409333333333334E+009;1.749709546566010E-001;-9.769561002030969E-004;-2.901785308495164E-003;2.946208231151104E-003;
2.409500000000000E+009;1.743286848068237E-001;-2.405809937044978E-003;-2.894628327339888E-003;2.968646120280027E-003;
2.409666666666667E+009;1.734303385019302E-001;-3.542750608175993E-003;-2.416728995740414E-003;2.969705499708653E-003;
2.409833333333334E+009;1.727437824010849E-001;-4.949343390762806E-003;-2.551192883402109E-003;3.066745353862643E-003;
2.410000000000000E+009;1.722455769777298E-001;-6.542895920574665E-003;-2.298069419339299E-003;3.077595494687557E-003;
2.410166666666667E+009;1.715341359376907E-001;-8.123657666146755E-003;-2.263224683701992E-003;3.149925731122494E-003;
2.410333333333334E+009;1.708370596170425E-001;-9.787440299987793E-003;-2.060519298538566E-003;3.205886343494058E-003;
2.410500000000000E+009;1.703500598669052E-001;-1.133520156145096E-002;-2.056623110547662E-003;3.314080880954862E-003;
2.410666666666667E+009;1.698709428310394E-001;-1.330192387104034E-002;-2.049279632046819E-003;3.162512555718422E-003;
2.410833333333334E+009;1.695410460233688E-001;-1.495395042002201E-002;-1.834974391385913E-003;3.218970960006118E-003;
2.411000000000000E+009;1.690591871738434E-001;-1.686333864927292E-002;-1.790080452337861E-003;3.193182870745659E-003;
2.411166666666667E+009;1.687123775482178E-001;-1.887091435492039E-002;-1.738968072459102E-003;3.342190524563193E-003;
2.411333333333334E+009;1.684102118015289E-001;-2.072542347013950E-002;-1.623804215341806E-003;3.505016211420298E-003;
2.411500000000000E+009;1.683527976274490E-001;-2.291270904242992E-002;-1.498144702054560E-003;3.508738242089748E-003;
2.411666666666667E+009;1.682007908821106E-001;-2.476746588945389E-002;-1.401623710989952E-003;3.527758643031120E-003;
2.411833333333334E+009;1.681983172893524E-001;-2.666089124977589E-002;-1.159809296950698E-003;3.541707294061780E-003;
2.412000000000000E+009;1.682859957218170E-001;-2.855139598250389E-002;-1.223538187332451E-003;3.639170201495290E-003;
2.412166666666667E+009;1.682624220848084E-001;-3.064309060573578E-002;-1.067226519808173E-003;3.530911169946194E-003;
2.412333333333334E+009;1.687811911106110E-001;-3.260458633303642E-002;-1.067445613443852E-003;3.664249321445823E-003;
2.412500000000000E+009;1.686904728412628E-001;-3.432253375649452E-002;-9.059457806870341E-004;3.602692624554038E-003;
2.412666666666667E+009;1.690914332866669E-001;-3.648487105965614E-002;-8.835725020617247E-004;3.598490729928017E-003;
2.412833333333334E+009;1.693527847528458E-001;-3.833836317062378E-002;-6.835796521045268E-004;3.737841965630651E-003;
2.413000000000000E+009;1.698476076126099E-001;-3.993621468544006E-002;-6.127257947809994E-004;3.876059083268046E-003;
2.413166666666667E+009;1.702513843774796E-001;-4.178694635629654E-002;-2.862845722120255E-004;3.847277024760842E-003;
2.413333333333334E+009;1.706988215446472E-001;-4.334722086787224E-002;-2.802313247229904E-004;3.888943931087852E-003;
2.413500000000000E+009;1.711925566196442E-001;-4.494483396410942E-002;-1.192880736198276E-004;3.903268836438656E-003;
2.413666666666667E+009;1.718423962593079E-001;-4.670490324497223E-002;1.451917923986912E-004;3.916536457836628E-003;
2.413833333333334E+009;1.722567826509476E-001;-4.817815497517586E-002;2.643022162374109E-004;3.928980790078640E-003;
2.414000000000000E+009;1.727777421474457E-001;-4.960877820849419E-002;4.318880091886967E-004;3.949585836380720E-003;
2.414166666666667E+009;1.733873635530472E-001;-5.075159668922424E-002;4.953367169946432E-004;3.979186993092299E-003;
2.414333333333334E+009;1.738487333059311E-001;-5.210667476058006E-002;6.155964802019298E-004;3.795085009187460E-003;
2.414500000000000E+009;1.744844019412994E-001;-5.318484455347061E-002;8.034247439354658E-004;3.777967067435384E-003;
2.414666666666667E+009;1.749060451984406E-001;-5.424244329333305E-002;1.013550907373428E-003;3.908187150955200E-003;
2.414833333333334E+009;1.753558665513992E-001;-5.520207807421684E-002;1.155781559646130E-003;3.684217575937510E-003;
2.415000000000000E+009;1.756735593080521E-001;-5.611487105488777E-002;1.494174706749618E-003;3.603071905672550E-003;
2.415166666666667E+009;1.762873977422714E-001;-5.671436712145805E-002;1.540603116154671E-003;3.475553123280406E-003;
2.415333333333334E+009;1.766772121191025E-001;-5.769886448979378E-002;1.606163685210049E-003;3.468036884441972E-003;
2.415500000000000E+009;1.770021468400955E-001;-5.815633758902550E-002;1.806312124244869E-003;3.408535383641720E-003;
2.415666666666667E+009;1.771649718284607E-001;-5.859383940696716E-002;1.746757421642542E-003;3.391098231077194E-003;
2.415833333333334E+009;1.774499714374542E-001;-5.919668078422546E-002;2.101985970512033E-003;3.370081540197134E-003;
2.416000000000000E+009;1.774045526981354E-001;-5.968841165304184E-002;2.014275640249252E-003;3.112650243565440E-003;
2.416166666666667E+009;1.776906102895737E-001;-5.997480452060700E-002;2.425378421321511E-003;3.033729037269950E-003;
2.416333333333334E+009;1.775999963283539E-001;-6.019891798496246E-002;2.340638544410467E-003;2.852751407772303E-003;
2.416500000000000E+009;1.774161159992218E-001;-6.053926423192024E-002;2.311133779585362E-003;2.913919277489185E-003;
2.416666666666667E+009;1.771891266107559E-001;-6.077276542782784E-002;2.661609556525946E-003;2.655344549566507E-003;
2.416833333333334E+009;1.770670711994171E-001;-6.107066199183464E-002;2.608824986964464E-003;2.703030826523900E-003;
2.417000000000000E+009;1.764950603246689E-001;-6.122988834977150E-002;2.738878130912781E-003;2.304595429450274E-003;
2.417166666666667E+009;1.761558353900909E-001;-6.138126924633980E-002;2.842644229531288E-003;2.284026704728603E-003;
2.417333333333334E+009;1.756416112184525E-001;-6.150976940989494E-002;2.930236747488380E-003;2.255787141621113E-003;
2.417500000000000E+009;1.750670224428177E-001;-6.187056377530098E-002;3.078354755416513E-003;2.058017300441861E-003;
2.417666666666667E+009;1.744207441806793E-001;-6.185730546712875E-002;3.109646961092949E-003;1.875940128229559E-003;
2.417833333333334E+009;1.735067218542099E-001;-6.218948587775230E-002;3.015116555616260E-003;1.693189260549843E-003;
2.418000000000000E+009;1.726737320423126E-001;-6.260680407285690E-002;3.179377410560846E-003;1.698319218121469E-003;
2.418166666666667E+009;1.716847568750382E-001;-6.265634298324585E-002;3.180308733135462E-003;1.691621262580156E-003;
2.418333333333334E+009;1.708630919456482E-001;-6.324166059494019E-002;3.176857950165868E-003;1.485024229623377E-003;
2.418500000000000E+009;1.697539389133453E-001;-6.353092938661575E-002;3.282685298472643E-003;1.332174055278301E-003;
2.418666666666667E+009;1.687755882740021E-001;-6.413904577493668E-002;3.290490712970495E-003;1.219238736666739E-003;
2.418833333333334E+009;1.674963384866715E-001;-6.457955390214920E-002;3.146572737023234E-003;1.099408487789333E-003;
2.419000000000000E+009;1.661034226417542E-001;-6.517865508794785E-002;3.227458801120520E-003;9.286920540034771E-004;
2.419166666666667E+009;1.650339514017105E-001;-6.584811955690384E-002;3.184994449838996E-003;8.226842619478703E-004;
2.419333333333334E+009;1.637908220291138E-001;-6.636811047792435E-002;3.383031580597162E-003;7.002806523814797E-004;
2.419500000000000E+009;1.627455800771713E-001;-6.733553111553192E-002;3.389383666217327E-003;5.909535684622824E-004;
2.419666666666667E+009;1.615245640277863E-001;-6.831550598144531E-002;3.364738542586565E-003;5.193974357098341E-004;
2.419833333333334E+009;1.603876948356628E-001;-6.907463073730469E-002;3.315832000225782E-003;3.721872635651380E-004;
2.420000000000000E+009;1.592179536819458E-001;-7.021293789148331E-002;3.297797404229641E-003;2.703464997466654E-004;
2.420166666666667E+009;1.581403017044067E-001;-7.121859490871429E-002;3.247199812904000E-003;-4.114867988391779E-005;
2.420333333333334E+009;1.571026891469955E-001;-7.245024293661118E-002;3.222542349249125E-003;-6.972848495934159E-005;
2.420500000000000E+009;1.560775339603424E-001;-7.361491024494171E-002;3.323152661323547E-003;-2.791424340102822E-004;
2.420666666666667E+009;1.552041023969650E-001;-7.477381825447083E-002;3.268992993980646E-003;-2.761665382422507E-004;
2.420833333333334E+009;1.542391180992127E-001;-7.639177888631821E-002;3.212386975064874E-003;-3.475137636996806E-004;
2.421000000000000E+009;1.533423960208893E-001;-7.784954458475113E-002;3.207025118172169E-003;-6.012894446030259E-004;
2.421166666666667E+009;1.526202112436295E-001;-7.946001738309860E-002;3.231333568692207E-003;-8.315139566548169E-004;
2.421333333333334E+009;1.518952101469040E-001;-8.093039691448212E-002;3.018610645085573E-003;-9.497242281213403E-004;
2.421500000000000E+009;1.512672305107117E-001;-8.260133117437363E-002;3.004837548360229E-003;-1.138353953137994E-003;
2.421666666666667E+009;1.507518291473389E-001;-8.425577729940414E-002;2.836637897416949E-003;-1.208001864142716E-003;
2.421833333333334E+009;1.503747254610062E-001;-8.604221045970917E-002;2.907439135015011E-003;-1.450489740818739E-003;
2.422000000000000E+009;1.498401463031769E-001;-8.760328590869904E-002;2.704303245991468E-003;-1.442544627934694E-003;
2.422166666666667E+009;1.495838314294815E-001;-8.957392722368240E-002;2.532512648031116E-003;-1.649891026318073E-003;
2.422333333333334E+009;1.494545787572861E-001;-9.118757396936417E-002;2.480675932019949E-003;-1.620748545974493E-003;
2.422500000000000E+009;1.494095176458359E-001;-9.263449162244797E-002;2.360731130465865E-003;-1.799639197997749E-003;
2.422666666666667E+009;1.493110209703445E-001;-9.474539756774902E-002;2.004603622481227E-003;-1.830761553719640E-003;
2.422833333333334E+009;1.493775397539139E-001;-9.635895490646362E-002;1.869056373834610E-003;-1.920953625813127E-003;
2.423000000000000E+009;1.494904011487961E-001;-9.794997423887253E-002;1.792950904928148E-003;-1.850052387453616E-003;
2.423166666666667E+009;1.496737152338028E-001;-9.942534565925598E-002;1.610901439562440E-003;-2.165923127904534E-003;
2.423333333333334E+009;1.500970274209976E-001;-1.011509746313095E-001;1.457958598621190E-003;-1.915400149300695E-003;
2.423500000000000E+009;1.502213925123215E-001;-1.025815904140472E-001;1.293674926273525E-003;-1.911701518110931E-003;
2.423666666666667E+009;1.505682319402695E-001;-1.043330579996109E-001;1.094260835088790E-003;-1.925385324284434E-003;
2.423833333333334E+009;1.510524451732636E-001;-1.057918593287468E-001;9.703448740765452E-004;-1.991047523915768E-003;
2.424000000000000E+009;1.514693945646286E-001;-1.070455387234688E-001;9.182911016978324E-004;-1.965553965419531E-003;
2.424166666666667E+009;1.517759412527084E-001;-1.084209233522415E-001;9.145354270003736E-004;-1.785105559974909E-003;
2.424333333333334E+009;1.523356288671494E-001;-1.095003932714462E-001;7.035182788968086E-004;-1.830089604482055E-003;
2.424500000000000E+009;1.527215093374252E-001;-1.107552200555801E-001;6.913891411386430E-004;-1.780447550117970E-003;
2.424666666666667E+009;1.535022258758545E-001;-1.117675602436066E-001;4.848607059102505E-004;-1.692973892204464E-003;
2.424833333333334E+009;1.537891030311585E-001;-1.127140894532204E-001;4.207989259157330E-004;-1.642400864511728E-003;
2.425000000000000E+009;1.542969644069672E-001;-1.136997193098068E-001;2.423658734187484E-004;-1.512850052677095E-003;
2.425166666666667E+009;1.546137183904648E-001;-1.145323291420937E-001;3.329185128677636E-004;-1.435496611520648E-003;
2.425333333333334E+009;1.550494879484177E-001;-1.151964515447617E-001;2.957851684186608E-004;-1.314797555096448E-003;
2.425500000000000E+009;1.554478406906128E-001;-1.159449443221092E-001;3.063207550439984E-004;-1.276963972486556E-003;
2.425666666666667E+009;1.555125564336777E-001;-1.165847778320313E-001;1.364239142276347E-004;-1.318190130405128E-003;
2.425833333333334E+009;1.558122783899307E-001;-1.170652657747269E-001;1.443807850591838E-004;-9.715698543004692E-004;
2.426000000000000E+009;1.561794430017471E-001;-1.176413223147392E-001;1.839321485022083E-004;-9.826424065977335E-004;
2.426166666666667E+009;1.564887613058090E-001;-1.179448291659355E-001;1.503541716374457E-004;-1.074458705261350E-003;
2.426333333333334E+009;1.564664095640183E-001;-1.183252036571503E-001;1.274422684218735E-004;-9.976775618270040E-004;
2.426500000000000E+009;1.564652174711227E-001;-1.185324341058731E-001;1.748333743307740E-004;-8.212876273319125E-004;
2.426666666666667E+009;1.564914584159851E-001;-1.185864284634590E-001;2.428570878691971E-004;-7.284809835255146E-004;
2.426833333333334E+009;1.563064455986023E-001;-1.188609600067139E-001;2.833337057381868E-004;-6.220453651621938E-004;
2.427000000000000E+009;1.559879928827286E-001;-1.190940812230110E-001;3.575300506781787E-004;-5.805659457109869E-004;
2.427166666666667E+009;1.556096524000168E-001;-1.191733628511429E-001;3.335196815896779E-004;-6.796592497266829E-004;
2.427333333333334E+009;1.551353782415390E-001;-1.191798448562622E-001;4.794919805135578E-004;-6.256295018829405E-004;
2.427500000000000E+009;1.547154486179352E-001;-1.193347647786140E-001;4.301159642636776E-004;-4.365402273833752E-004;
2.427666666666667E+009;1.539213806390762E-001;-1.195332631468773E-001;4.790314415004104E-004;-6.099073798395693E-004;
