# Version 1.00
#
freq[Hz];re:Trc1_S11;im:Trc1_S11;re:Trc2_S21;im:Trc2_S21;
2.400000000000000E+009;1.580719202756882E-001;6.238486990332604E-002;-7.125774864107370E-004;-3.253255737945437E-003;
2.400166666666667E+009;1.578563004732132E-001;6.071892008185387E-002;-8.884950075298548E-004;-3.169882576912642E-003;
2.400333333333334E+009;1.577866077423096E-001;5.886302515864372E-002;-1.130890217609704E-003;-3.258565673604608E-003;
2.400500000000000E+009;1.579434722661972E-001;5.689106881618500E-002;-1.089916680939496E-003;-3.098694374784827E-003;
2.400666666666667E+009;1.577228009700775E-001;5.501623079180718E-002;-1.175876357592642E-003;-3.262781538069248E-003;
2.400833333333334E+009;1.580112427473068E-001;5.311927944421768E-002;-1.240568119101226E-003;-3.339139046147466E-003;
2.401000000000000E+009;1.581030786037445E-001;5.115560814738274E-002;-1.366023323498666E-003;-3.185027046129108E-003;
2.401166666666667E+009;1.582856476306915E-001;4.893515259027481E-002;-1.521388883702457E-003;-3.324695862829685E-003;
2.401333333333334E+009;1.583008617162705E-001;4.677337035536766E-002;-1.390230376273394E-003;-3.259254619479179E-003;
2.401500000000000E+009;1.587349623441696E-001;4.477938637137413E-002;-1.486775232478976E-003;-3.286840626969934E-003;
2.401666666666667E+009;1.590631604194641E-001;4.298748821020126E-002;-1.654862542636693E-003;-3.316759597510099E-003;
2.401833333333334E+009;1.595675349235535E-001;4.076641052961350E-002;-1.849989988841116E-003;-3.359624417498708E-003;
2.402000000000000E+009;1.597234010696411E-001;3.877722471952438E-002;-2.081254730001092E-003;-3.179853316396475E-003;
2.402166666666667E+009;1.602685302495956E-001;3.686444088816643E-002;-2.036103745922446E-003;-3.318749135360122E-003;
2.402333333333334E+009;1.609462201595306E-001;3.490042313933373E-002;-2.144931582733989E-003;-3.280537901446223E-003;
2.402500000000000E+009;1.616650521755219E-001;3.319294378161430E-002;-2.287755953148007E-003;-3.319603856652975E-003;
2.402666666666667E+009;1.624208092689514E-001;3.151927143335342E-002;-2.612378913909197E-003;-3.192696720361710E-003;
2.402833333333334E+009;1.631686836481094E-001;2.977677062153816E-002;-2.825449686497450E-003;-3.106428077444434E-003;
2.403000000000000E+009;1.638603806495667E-001;2.802024967968464E-002;-2.858140505850315E-003;-2.958157099783421E-003;
2.403166666666667E+009;1.647894978523254E-001;2.654769085347652E-002;-2.982652746140957E-003;-3.086496144533157E-003;
2.403333333333334E+009;1.658289730548859E-001;2.512016519904137E-002;-3.177941776812077E-003;-2.877236343920231E-003;
2.403500000000000E+009;1.663093715906143E-001;2.367004193365574E-002;-3.293932415544987E-003;-2.759832190349698E-003;
2.403666666666667E+009;1.675902903079987E-001;2.219052985310555E-002;-3.447917522862554E-003;-2.669785870239139E-003;
2.403833333333334E+009;1.685829758644104E-001;2.093969285488129E-002;-3.669738536700606E-003;-2.590400865301490E-003;
2.404000000000000E+009;1.696461886167526E-001;1.988005824387074E-002;-3.682391485199332E-003;-2.545583061873913E-003;
2.404166666666667E+009;1.704077124595642E-001;1.855675317347050E-002;-4.021239466965199E-003;-2.150572370737791E-003;
2.404333333333334E+009;1.713787168264389E-001;1.763962954282761E-002;-4.087729845196009E-003;-2.170568332076073E-003;
2.404500000000000E+009;1.722263395786285E-001;1.654298603534699E-002;-4.107482731342316E-003;-1.961783971637487E-003;
2.404666666666667E+009;1.732486039400101E-001;1.578392833471298E-002;-4.328847862780094E-003;-1.584583194926381E-003;
2.404833333333334E+009;1.740917414426804E-001;1.483720075339079E-002;-4.368798807263374E-003;-1.555911265313625E-003;
2.405000000000000E+009;1.748815476894379E-001;1.419437583535910E-002;-4.448251798748970E-003;-1.240058685652912E-003;
2.405166666666667E+009;1.758582144975662E-001;1.353605743497610E-002;-4.547965247184038E-003;-1.097710686735809E-003;
2.405333333333334E+009;1.766123622655869E-001;1.295548584312201E-002;-4.622776526957750E-003;-9.087452781386674E-004;
2.405500000000000E+009;1.773224622011185E-001;1.237184088677168E-002;-4.567077849060297E-003;-6.641099462285638E-004;
2.405666666666667E+009;1.779595017433167E-001;1.196866575628519E-002;-4.591399338096380E-003;-5.219785380177200E-004;
2.405833333333334E+009;1.784625649452210E-001;1.161420997232199E-002;-4.848966374993324E-003;-2.553369849920273E-004;
2.406000000000000E+009;1.790998131036758E-001;1.113852672278881E-002;-4.662170074880123E-003;-9.965272329282016E-005;
2.406166666666667E+009;1.794391572475433E-001;1.099328044801951E-002;-4.576922859996557E-003;-1.868076833488885E-005;
2.406333333333334E+009;1.799155473709106E-001;1.050923485308886E-002;-4.622849635779858E-003;4.352048272266984E-004;
2.406500000000000E+009;1.802183985710144E-001;1.024918351322413E-002;-4.537134896963835E-003;6.597857573069632E-004;
2.406666666666667E+009;1.803690940141678E-001;1.001920178532600E-002;-4.475473891943693E-003;6.529262172989547E-004;
2.406833333333334E+009;1.806065142154694E-001;9.535904973745346E-003;-4.508291371166706E-003;9.988966630771756E-004;
2.407000000000000E+009;1.806338429450989E-001;9.331690147519112E-003;-4.359929356724024E-003;1.124351634643972E-003;
2.407166666666667E+009;1.806940287351608E-001;8.992865681648254E-003;-4.364999011158943E-003;1.386645482853055E-003;
2.407333333333334E+009;1.804271638393402E-001;8.432673290371895E-003;-4.309565760195255E-003;1.379952882416546E-003;
2.407500000000000E+009;1.803851872682571E-001;8.210782893002033E-003;-4.246735014021397E-003;1.525798346847296E-003;
2.407666666666667E+009;1.802281141281128E-001;7.713039871305227E-003;-4.056039266288281E-003;1.583467121236026E-003;
2.407833333333334E+009;1.798435598611832E-001;6.975623778998852E-003;-4.068041685968638E-003;1.896093017421663E-003;
2.408000000000000E+009;1.795130521059036E-001;6.421309895813465E-003;-3.772099735215306E-003;2.143893158063293E-003;
2.408166666666667E+009;1.790233105421066E-001;6.145234685391188E-003;-3.619841067120433E-003;2.176170935854316E-003;
2.408333333333334E+009;1.786999702453613E-001;5.128048826009035E-003;-3.614322282373905E-003;2.324804430827498E-003;
2.408500000000000E+009;1.781760156154633E-001;4.466241225600243E-003;-3.427114803344011E-003;2.552674384787679E-003;
2.408666666666667E+009;1.775077581405640E-001;3.316056914627552E-003;-3.461756743490696E-003;2.510936465114355E-003;
2.408833333333334E+009;1.767756044864655E-001;2.402832265943289E-003;-3.237269585952163E-003;2.709493739530444E-003;
2.409000000000000E+009;1.760618537664414E-001;1.458299229852855E-003;-3.178363665938377E-003;2.800741931423545E-003;
2.409166666666667E+009;1.756292283535004E-001;2.916016965173185E-004;-3.112427890300751E-003;2.780536189675331E-003;
2.409333333333334E+009;1.748635619878769E-001;-9.962921030819416E-004;-2.908445661887527E-003;2.801452763378620E-003;
2.409500000000000E+009;1.742681264877319E-001;-2.401593606919050E-003;-2.524194074794650E-003;2.971411217004061E-003;
2.409666666666667E+009;1.734179258346558E-001;-3.582734614610672E-003;-2.607490168884397E-003;2.968009095638990E-003;
2.409833333333334E+009;1.728436946868897E-001;-4.980612080544233E-003;-2.521888818591833E-003;3.079184098169208E-003;
2.410000000000000E+009;1.723340600728989E-001;-6.546181626617909E-003;-2.363921375945211E-003;3.004753729328513E-003;
2.410166666666667E+009;1.715855300426483E-001;-8.197860792279244E-003;-2.114117844030261E-003;3.069742117077112E-003;
2.410333333333334E+009;1.710492521524429E-001;-9.784953668713570E-003;-2.202976727858186E-003;3.122186055406928E-003;
2.410500000000000E+009;1.705585420131683E-001;-1.148914266377688E-002;-2.075866330415011E-003;3.270904766395688E-003;
2.410666666666667E+009;1.698529720306397E-001;-1.344116497784853E-002;-1.921853050589562E-003;3.151207230985165E-003;
2.410833333333334E+009;1.694707572460175E-001;-1.494585070759058E-002;-1.857128576375544E-003;3.179410705342889E-003;
2.411000000000000E+009;1.691345721483231E-001;-1.695948466658592E-002;-1.729689189232886E-003;3.199659986421466E-003;
2.411166666666667E+009;1.686908751726151E-001;-1.890337839722633E-002;-1.789086614735425E-003;3.129770047962666E-003;
2.411333333333334E+009;1.684316843748093E-001;-2.074769511818886E-002;-1.595159526914358E-003;3.289203858003020E-003;
2.411500000000000E+009;1.684296578168869E-001;-2.272092737257481E-002;-1.559711177833378E-003;3.441984299570322E-003;
2.411666666666667E+009;1.682320982217789E-001;-2.471295371651650E-002;-1.449615345336497E-003;3.488930873572826E-003;
2.411833333333334E+009;1.682942211627960E-001;-2.665519900619984E-002;-1.406306168064475E-003;3.624276258051395E-003;
2.412000000000000E+009;1.683706641197205E-001;-2.873125486075878E-002;-1.219941652379930E-003;3.462277818471193E-003;
2.412166666666667E+009;1.682762503623962E-001;-3.051299601793289E-002;-1.238146913237870E-003;3.633948974311352E-003;
2.412333333333334E+009;1.685753166675568E-001;-3.251181542873383E-002;-9.873977396637201E-004;3.569933352991939E-003;
2.412500000000000E+009;1.686497032642365E-001;-3.440717607736588E-002;-1.032254076562822E-003;3.738951636478305E-003;
2.412666666666667E+009;1.692454814910889E-001;-3.632385656237602E-002;-8.971811039373279E-004;3.589662024751306E-003;
2.412833333333334E+009;1.694704145193100E-001;-3.825766593217850E-002;-6.077240104787052E-004;3.736422862857580E-003;
2.413000000000000E+009;1.698496639728546E-001;-4.010576382279396E-002;-5.563800223171711E-004;3.687704680487514E-003;
2.413166666666667E+009;1.701660603284836E-001;-4.170389473438263E-002;-3.726214345078915E-004;3.819704288616777E-003;
2.413333333333334E+009;1.706630736589432E-001;-4.347629472613335E-002;-2.851143945008516E-004;3.888678969815373E-003;
2.413500000000000E+009;1.711776256561279E-001;-4.505109414458275E-002;-1.123590700444765E-004;3.800732549279928E-003;
2.413666666666667E+009;1.717321127653122E-001;-4.661151394248009E-002;5.985119059914723E-005;4.005386494100094E-003;
2.413833333333334E+009;1.720651686191559E-001;-4.804505407810211E-002;1.292172382818535E-004;3.885021666064858E-003;
2.414000000000000E+009;1.726112514734268E-001;-4.961442574858666E-002;4.222174466121942E-004;3.921505529433489E-003;
2.414166666666667E+009;1.733374595642090E-001;-5.070994421839714E-002;6.759611424058676E-004;3.998360130935907E-003;
2.414333333333334E+009;1.737434715032578E-001;-5.217678099870682E-002;7.530601578764617E-004;3.871758468449116E-003;
2.414500000000000E+009;1.743575632572174E-001;-5.313879624009132E-002;8.098665275610983E-004;3.932103980332613E-003;
2.414666666666667E+009;1.749217808246613E-001;-5.415463447570801E-002;1.183412270620465E-003;3.828574670478702E-003;
2.414833333333334E+009;1.753965020179749E-001;-5.515123531222343E-002;1.217342447489500E-003;3.739857813343406E-003;
2.415000000000000E+009;1.758297532796860E-001;-5.604083836078644E-002;1.458301907405257E-003;3.519958816468716E-003;
2.415166666666667E+009;1.761870682239533E-001;-5.670206993818283E-002;1.670682802796364E-003;3.577119670808315E-003;
2.415333333333334E+009;1.766694486141205E-001;-5.750901624560356E-002;1.771564362570643E-003;3.514915471896529E-003;
2.415500000000000E+009;1.771261245012283E-001;-5.808053910732269E-002;1.797140226699412E-003;3.366807475686073E-003;
2.415666666666667E+009;1.771865487098694E-001;-5.856508016586304E-002;1.953752012923360E-003;3.339223796501756E-003;
2.415833333333334E+009;1.775026768445969E-001;-5.906641110777855E-002;1.978436717763543E-003;3.245453350245953E-003;
2.416000000000000E+009;1.774245798587799E-001;-5.950337275862694E-002;2.166822319850326E-003;3.110820893198252E-003;
2.416166666666667E+009;1.777508407831192E-001;-5.991331860423088E-002;2.260515233501792E-003;3.062169067561626E-003;
2.416333333333334E+009;1.775696128606796E-001;-6.019424647092819E-002;2.224258612841368E-003;2.910982351750135E-003;
2.416500000000000E+009;1.775084882974625E-001;-6.050468608736992E-002;2.470307517796755E-003;2.757150679826737E-003;
2.416666666666667E+009;1.772688031196594E-001;-6.069248542189598E-002;2.615532139316201E-003;2.667143009603024E-003;
2.416833333333334E+009;1.770626604557037E-001;-6.107743829488754E-002;2.578864572569728E-003;2.673749579116702E-003;
2.417000000000000E+009;1.765234917402268E-001;-6.127898022532463E-002;2.626623027026653E-003;2.446753904223442E-003;
2.417166666666667E+009;1.761450022459030E-001;-6.131036952137947E-002;2.617149613797665E-003;2.269805641844869E-003;
2.417333333333334E+009;1.756270825862885E-001;-6.148644909262657E-002;2.893677446991205E-003;2.290098695084453E-003;
2.417500000000000E+009;1.749142855405808E-001;-6.192100420594215E-002;2.853209385648370E-003;2.260238165035844E-003;
2.417666666666667E+009;1.743369400501251E-001;-6.200634315609932E-002;2.975660376250744E-003;1.926767523400486E-003;
2.417833333333334E+009;1.735566705465317E-001;-6.220328807830811E-002;2.989234402775765E-003;2.017143415287137E-003;
2.418000000000000E+009;1.725598722696304E-001;-6.263548135757446E-002;3.003560937941074E-003;1.706165261566639E-003;
2.418166666666667E+009;1.716336309909821E-001;-6.287100911140442E-002;3.119050757959485E-003;1.654553343541920E-003;
2.418333333333334E+009;1.709060817956924E-001;-6.322744488716126E-002;3.106830641627312E-003;1.548291300423443E-003;
2.418500000000000E+009;1.696820706129074E-001;-6.360935419797897E-002;3.180711064487696E-003;1.534566981717944E-003;
2.418666666666667E+009;1.687599420547485E-001;-6.400899589061737E-002;3.177111968398094E-003;1.319645438343287E-003;
2.418833333333334E+009;1.673806756734848E-001;-6.466557085514069E-002;3.223789623007178E-003;1.137430197559297E-003;
2.419000000000000E+009;1.661995947360992E-001;-6.521991640329361E-002;3.328623017296195E-003;1.061771879903972E-003;
2.419166666666667E+009;1.651540547609329E-001;-6.595134735107422E-002;3.329567378386855E-003;1.026198733597994E-003;
2.419333333333334E+009;1.637495458126068E-001;-6.639634072780609E-002;3.360253525897861E-003;6.413515075109899E-004;
2.419500000000000E+009;1.627330332994461E-001;-6.742757558822632E-002;3.428802592679858E-003;6.561102927662432E-004;
2.419666666666667E+009;1.614871472120285E-001;-6.833077967166901E-002;3.358603455126286E-003;3.990922996308655E-004;
2.419833333333334E+009;1.603375077247620E-001;-6.912730634212494E-002;3.380020847544074E-003;4.528806312009692E-004;
2.420000000000000E+009;1.592478901147842E-001;-7.021901756525040E-002;3.462060121819377E-003;2.002801338676363E-004;
2.420166666666667E+009;1.580712497234345E-001;-7.137179374694824E-002;3.396815154701471E-003;1.208432076964527E-004;
2.420333333333334E+009;1.570250242948532E-001;-7.252773642539978E-002;3.406726755201817E-003;1.150944626715500E-005;
2.420500000000000E+009;1.560090780258179E-001;-7.377787679433823E-002;3.430582815781236E-003;-1.487347326474264E-004;
2.420666666666667E+009;1.550334841012955E-001;-7.497824728488922E-002;3.213027957826853E-003;-3.927035140804946E-004;
2.420833333333334E+009;1.541506201028824E-001;-7.641389220952988E-002;3.229813417419791E-003;-4.213304491713643E-004;
2.421000000000000E+009;1.532172709703445E-001;-7.797958701848984E-002;3.187509486451745E-003;-5.522334831766784E-004;
2.421166666666667E+009;1.526194512844086E-001;-7.938416302204132E-002;3.058636328205466E-003;-6.953493575565517E-004;
2.421333333333334E+009;1.519024968147278E-001;-8.109513670206070E-002;2.892101882025600E-003;-9.813853539526463E-004;
2.421500000000000E+009;1.513538956642151E-001;-8.255454897880554E-002;3.027410246431828E-003;-1.061219954863191E-003;
2.421666666666667E+009;1.508068144321442E-001;-8.421819657087326E-002;2.875193487852812E-003;-1.168932067230344E-003;
2.421833333333334E+009;1.504852324724197E-001;-8.607291430234909E-002;2.744556171819568E-003;-1.336068380624056E-003;
2.422000000000000E+009;1.499690264463425E-001;-8.748798817396164E-002;2.665922045707703E-003;-1.452774158678949E-003;
2.422166666666667E+009;1.496883630752564E-001;-8.955145627260208E-002;2.618911443278194E-003;-1.780958729796112E-003;
2.422333333333334E+009;1.494848877191544E-001;-9.110545367002487E-002;2.424073638394475E-003;-1.654453226365149E-003;
2.422500000000000E+009;1.492768675088882E-001;-9.277929365634918E-002;2.218545181676745E-003;-1.714472542516887E-003;
2.422666666666667E+009;1.491514593362808E-001;-9.461364150047302E-002;2.120338147506118E-003;-1.722604501992464E-003;
2.422833333333334E+009;1.494962871074677E-001;-9.633261710405350E-002;1.848280429840088E-003;-1.941281836479902E-003;
2.423000000000000E+009;1.494821757078171E-001;-9.789330512285233E-002;1.845088787376881E-003;-1.905969111248851E-003;
2.423166666666667E+009;1.497354656457901E-001;-9.972208738327026E-002;1.607486978173256E-003;-1.891517662443221E-003;
2.423333333333334E+009;1.500973552465439E-001;-1.010652109980583E-001;1.528903841972351E-003;-2.011927310377359E-003;
2.423500000000000E+009;1.502646505832672E-001;-1.027667447924614E-001;1.501223305240274E-003;-2.022853121161461E-003;
2.423666666666667E+009;1.503810733556747E-001;-1.044707596302033E-001;1.329714199528098E-003;-1.916072797030211E-003;
2.423833333333334E+009;1.509969085454941E-001;-1.057803332805634E-001;1.048265723511577E-003;-1.762955100275576E-003;
2.424000000000000E+009;1.513414531946182E-001;-1.068806201219559E-001;9.245899855159223E-004;-1.927518052980304E-003;
2.424166666666667E+009;1.518884748220444E-001;-1.083892807364464E-001;8.814273751340807E-004;-1.823972212150693E-003;
2.424333333333334E+009;1.523477137088776E-001;-1.094745472073555E-001;7.549982983618975E-004;-1.695131650194526E-003;
2.424500000000000E+009;1.528951525688171E-001;-1.108046621084213E-001;5.471627227962017E-004;-1.756214885972440E-003;
2.424666666666667E+009;1.533384025096893E-001;-1.117028743028641E-001;4.573230107780546E-004;-1.666152384132147E-003;
2.424833333333334E+009;1.535584181547165E-001;-1.128051280975342E-001;3.673358296509832E-004;-1.516498508863151E-003;
2.425000000000000E+009;1.542064696550369E-001;-1.137773841619492E-001;3.540400648489595E-004;-1.487191766500473E-003;
2.425166666666667E+009;1.545186489820480E-001;-1.145737245678902E-001;3.690090379677713E-004;-1.433055731467903E-003;
2.425333333333334E+009;1.550190299749374E-001;-1.152782589197159E-001;2.165507321478799E-004;-1.388590899296105E-003;
2.425500000000000E+009;1.555742919445038E-001;-1.160075142979622E-001;2.874234924092889E-004;-1.298411050811410E-003;
2.425666666666667E+009;1.556975543498993E-001;-1.165449917316437E-001;2.046601293841377E-004;-1.102328533306718E-003;
2.425833333333334E+009;1.559037864208221E-001;-1.170387417078018E-001;1.441144995624200E-004;-1.167427399195731E-003;
2.426000000000000E+009;1.561494767665863E-001;-1.176680102944374E-001;1.417296734871343E-004;-9.734869818203151E-004;
2.426166666666667E+009;1.564634591341019E-001;-1.180002838373184E-001;1.041337382048369E-004;-9.786743903532624E-004;
2.426333333333334E+009;1.564312875270844E-001;-1.183762773871422E-001;2.084166480926797E-004;-8.900823304429650E-004;
2.426500000000000E+009;1.564979851245880E-001;-1.185334324836731E-001;2.226905780844390E-004;-7.549071451649070E-004;
2.426666666666667E+009;1.565092056989670E-001;-1.186310574412346E-001;2.396250638412312E-004;-7.793843396939337E-004;
2.426833333333334E+009;1.562046110630035E-001;-1.188789159059525E-001;2.818929497152567E-004;-6.978746387176216E-004;
2.427000000000000E+009;1.559844613075256E-001;-1.191605404019356E-001;2.962736762128770E-004;-6.871161167509854E-004;
2.427166666666667E+009;1.555707156658173E-001;-1.190636903047562E-001;3.650987346190959E-004;-5.821925587952137E-004;
2.427333333333334E+009;1.551217138767242E-001;-1.193551570177078E-001;3.332068445160985E-004;-6.119922618381679E-004;
2.427500000000000E+009;1.546163260936737E-001;-1.193316355347633E-001;4.293941310606897E-004;-5.706583033315837E-004;
2.427666666666667E+009;1.539240777492523E-001;-1.194645240902901E-001;4.902725922875106E-004;-4.884176305495203E-004;
