# Version 1.00
#
freq[Hz];re:Trc1_S11;im:Trc1_S11;re:Trc2_S21;im:Trc2_S21;
2.400000000000000E+009;1.583230793476105E-001;6.241502985358238E-002;-1.046609948389232E-003;-3.359560156241059E-003;
2.400166666666667E+009;1.580619663000107E-001;6.078535690903664E-002;-9.380325209349394E-004;-3.401027061045170E-003;
2.400333333333334E+009;1.580273658037186E-001;5.855974927544594E-002;-1.109775854274631E-003;-3.312152111902833E-003;
2.400500000000000E+009;1.580349355936050E-001;5.676253139972687E-002;-9.730988531373441E-004;-3.386859549209476E-003;
2.400666666666667E+009;1.581247150897980E-001;5.496777966618538E-002;-1.191668095998466E-003;-3.205802291631699E-003;
2.400833333333334E+009;1.578351110219955E-001;5.306303501129150E-002;-1.182180945761502E-003;-3.415986662730575E-003;
2.401000000000000E+009;1.580706238746643E-001;5.101321637630463E-002;-1.364034367725253E-003;-3.136670915409923E-003;
2.401166666666667E+009;1.582747846841812E-001;4.892582446336746E-002;-1.439517480321229E-003;-3.251108806580305E-003;
2.401333333333334E+009;1.584087014198303E-001;4.674728587269783E-002;-1.626318669877946E-003;-3.263623220846057E-003;
2.401500000000000E+009;1.587426662445068E-001;4.488469287753105E-002;-1.663317671045661E-003;-3.445559181272984E-003;
2.401666666666667E+009;1.590734720230103E-001;4.283725470304489E-002;-1.658529741689563E-003;-3.399198874831200E-003;
2.401833333333334E+009;1.594949364662170E-001;4.076923802495003E-002;-1.831445610150695E-003;-3.215767443180084E-003;
2.402000000000000E+009;1.596814692020416E-001;3.889986127614975E-002;-1.992859411984682E-003;-3.316413145512343E-003;
2.402166666666667E+009;1.603810191154480E-001;3.670037910342217E-002;-2.186580328270793E-003;-3.303396981209517E-003;
2.402333333333334E+009;1.608965247869492E-001;3.503715619444847E-002;-2.357232384383678E-003;-3.356532426550984E-003;
2.402500000000000E+009;1.617324501276016E-001;3.315131738781929E-002;-2.380057005211711E-003;-3.415233455598354E-003;
2.402666666666667E+009;1.623276621103287E-001;3.137582167983055E-002;-2.484893891960383E-003;-3.162773558869958E-003;
2.402833333333334E+009;1.629461795091629E-001;2.981859631836414E-002;-2.884769113734365E-003;-3.136981045827270E-003;
2.403000000000000E+009;1.637997925281525E-001;2.798872441053391E-002;-3.109358018264175E-003;-3.121990943327546E-003;
2.403166666666667E+009;1.647393256425858E-001;2.629349008202553E-002;-3.074442734941840E-003;-3.087137825787067E-003;
2.403333333333334E+009;1.656004637479782E-001;2.506568096578121E-002;-3.202802035957575E-003;-2.928536618128419E-003;
2.403500000000000E+009;1.663982123136520E-001;2.376636676490307E-002;-3.400118555873632E-003;-2.814197912812233E-003;
2.403666666666667E+009;1.674683839082718E-001;2.219698019325733E-002;-3.701481735333800E-003;-2.703237580135465E-003;
2.403833333333334E+009;1.685751825571060E-001;2.103085443377495E-002;-3.806271823123097E-003;-2.577900420874357E-003;
2.404000000000000E+009;1.694403290748596E-001;1.969234272837639E-002;-3.818126861006022E-003;-2.290846779942513E-003;
2.404166666666667E+009;1.704487502574921E-001;1.862210966646671E-002;-3.965397831052542E-003;-2.206742763519287E-003;
2.404333333333334E+009;1.713852137327194E-001;1.755484379827976E-002;-4.129101522266865E-003;-2.120558870956302E-003;
2.404500000000000E+009;1.723695546388626E-001;1.654520444571972E-002;-4.228920210152865E-003;-1.769470982253552E-003;
2.404666666666667E+009;1.734496355056763E-001;1.585721038281918E-002;-4.440120421350002E-003;-1.733937184326351E-003;
2.404833333333334E+009;1.741928160190582E-001;1.492097508162260E-002;-4.587252624332905E-003;-1.509677385911346E-003;
2.405000000000000E+009;1.751383244991303E-001;1.406415458768606E-002;-4.623631015419960E-003;-1.162482658401132E-003;
2.405166666666667E+009;1.759278625249863E-001;1.360714435577393E-002;-4.717815667390823E-003;-1.102746697142720E-003;
2.405333333333334E+009;1.767635494470596E-001;1.288649719208479E-002;-4.799856338649988E-003;-8.232562686316669E-004;
2.405500000000000E+009;1.774516999721527E-001;1.233039796352387E-002;-4.761986900120974E-003;-6.659521022811532E-004;
2.405666666666667E+009;1.780195236206055E-001;1.203580666333437E-002;-4.755267873406410E-003;-3.965529904235154E-004;
2.405833333333334E+009;1.786013841629028E-001;1.170020084828138E-002;-4.780860617756844E-003;-3.122924536000937E-004;
2.406000000000000E+009;1.790971159934998E-001;1.121152099221945E-002;-4.685468506067991E-003;-3.937261499231681E-005;
2.406166666666667E+009;1.794504374265671E-001;1.083109248429537E-002;-4.759286530315876E-003;1.525973930256441E-004;
2.406333333333334E+009;1.800093054771423E-001;1.055673230439425E-002;-4.783722572028637E-003;3.239968500565738E-004;
2.406500000000000E+009;1.802471578121185E-001;1.009779237210751E-002;-4.677192773669958E-003;6.759361713193357E-004;
2.406666666666667E+009;1.803609281778336E-001;9.877953678369522E-003;-4.738163203001022E-003;7.517940248362720E-004;
2.406833333333334E+009;1.806702017784119E-001;9.569737128913403E-003;-4.504832904785872E-003;9.782100096344948E-004;
2.407000000000000E+009;1.806928217411041E-001;9.275109507143498E-003;-4.301479086279869E-003;1.212405622936785E-003;
2.407166666666667E+009;1.808492839336395E-001;8.922403678297997E-003;-4.427423700690270E-003;1.310978666879237E-003;
2.407333333333334E+009;1.805856674909592E-001;8.410790935158730E-003;-4.462165292352438E-003;1.589972642250359E-003;
2.407500000000000E+009;1.804495006799698E-001;8.139868266880512E-003;-4.315078258514404E-003;1.805127831175923E-003;
2.407666666666667E+009;1.803479343652725E-001;7.688029669225216E-003;-4.205335862934589E-003;1.888643600977957E-003;
2.407833333333334E+009;1.798021793365479E-001;6.969875190407038E-003;-4.070471040904522E-003;2.087588189169765E-003;
2.408000000000000E+009;1.795398145914078E-001;6.448762025684118E-003;-4.127661231905222E-003;2.215036423876882E-003;
2.408166666666667E+009;1.790455430746079E-001;5.932364612817764E-003;-3.794766962528229E-003;2.286470029503107E-003;
2.408333333333334E+009;1.787249743938446E-001;5.176406819373369E-003;-3.791111754253507E-003;2.451951149851084E-003;
2.408500000000000E+009;1.780828386545181E-001;4.268139600753784E-003;-3.545212559401989E-003;2.548562595620751E-003;
2.408666666666667E+009;1.775692701339722E-001;3.429860342293978E-003;-3.480999032035470E-003;2.591396449133754E-003;
2.408833333333334E+009;1.768073588609695E-001;2.350298222154379E-003;-3.313818480819464E-003;2.805281197652221E-003;
2.409000000000000E+009;1.760804057121277E-001;1.480339327827096E-003;-3.150069154798985E-003;2.838660962879658E-003;
2.409166666666667E+009;1.754818856716156E-001;2.958018158096820E-004;-2.948912559077144E-003;2.889082999899983E-003;
2.409333333333334E+009;1.749738454818726E-001;-8.361762738786638E-004;-2.914448035880923E-003;2.916531171649694E-003;
2.409500000000000E+009;1.744459271430969E-001;-2.364780288189650E-003;-2.772563369944692E-003;3.059259615838528E-003;
2.409666666666667E+009;1.734969913959503E-001;-3.683961695060134E-003;-2.473502419888973E-003;3.045773366466165E-003;
2.409833333333334E+009;1.728152036666870E-001;-4.921755753457546E-003;-2.435933565720916E-003;2.979815239086747E-003;
2.410000000000000E+009;1.723573207855225E-001;-6.716447416692972E-003;-2.348184119910002E-003;3.122765570878983E-003;
2.410166666666667E+009;1.715422123670578E-001;-8.114068768918514E-003;-2.275627572089434E-003;3.345380770042539E-003;
2.410333333333334E+009;1.710337549448013E-001;-9.817874059081078E-003;-2.145106904208660E-003;3.246040316298604E-003;
2.410500000000000E+009;1.705000847578049E-001;-1.149666216224432E-002;-2.013758756220341E-003;3.436858765780926E-003;
2.410666666666667E+009;1.697968095541000E-001;-1.333395112305880E-002;-2.012716839089990E-003;3.407224081456661E-003;
2.410833333333334E+009;1.695859432220459E-001;-1.521478965878487E-002;-1.926072523929179E-003;3.303650533780456E-003;
2.411000000000000E+009;1.691892594099045E-001;-1.698403619229794E-002;-1.837962656281889E-003;3.409893717616797E-003;
2.411166666666667E+009;1.687830835580826E-001;-1.878902129828930E-002;-1.698566833510995E-003;3.418470732867718E-003;
2.411333333333334E+009;1.684938967227936E-001;-2.066514082252979E-002;-1.446623005904257E-003;3.438780317083001E-003;
2.411500000000000E+009;1.682636886835098E-001;-2.290662936866283E-002;-1.450439682230353E-003;3.464336972683668E-003;
2.411666666666667E+009;1.682419329881668E-001;-2.477084472775459E-002;-1.274122158065438E-003;3.551272675395012E-003;
2.411833333333334E+009;1.684364080429077E-001;-2.660011872649193E-002;-1.387632801197469E-003;3.446689341217279E-003;
2.412000000000000E+009;1.683988422155380E-001;-2.885051816701889E-002;-1.166000263765454E-003;3.544052829965949E-003;
2.412166666666667E+009;1.683230847120285E-001;-3.057825937867165E-002;-1.060425071045756E-003;3.521880833432078E-003;
2.412333333333334E+009;1.687205284833908E-001;-3.254852443933487E-002;-9.799671825021505E-004;3.720447421073914E-003;
2.412500000000000E+009;1.687000542879105E-001;-3.445376455783844E-002;-7.276412216015160E-004;3.757010912522674E-003;
2.412666666666667E+009;1.690801084041596E-001;-3.647394850850105E-002;-6.818357505835593E-004;3.788435831665993E-003;
2.412833333333334E+009;1.693770587444305E-001;-3.818663582205772E-002;-6.477999268099666E-004;3.931447863578796E-003;
2.413000000000000E+009;1.698689758777618E-001;-3.997306898236275E-002;-4.878785402979702E-004;3.851645858958364E-003;
2.413166666666667E+009;1.703149378299713E-001;-4.175623878836632E-002;-1.825989602366462E-004;3.910499159246683E-003;
2.413333333333334E+009;1.705813705921173E-001;-4.339807480573654E-002;-2.573650563135743E-004;3.888334846124053E-003;
2.413500000000000E+009;1.711320579051971E-001;-4.510356113314629E-002;-3.386673415661790E-005;3.919223789125681E-003;
2.413666666666667E+009;1.717213839292526E-001;-4.660663008689880E-002;6.549162935698405E-005;3.922017756849527E-003;
2.413833333333334E+009;1.722600907087326E-001;-4.796452447772026E-002;3.099841705989093E-004;4.009457770735025E-003;
2.414000000000000E+009;1.726554036140442E-001;-4.967374354600906E-002;4.902317305095494E-004;3.916799556463957E-003;
2.414166666666667E+009;1.732839196920395E-001;-5.084247142076492E-002;4.720930883195251E-004;3.870426211506128E-003;
2.414333333333334E+009;1.738286465406418E-001;-5.209622904658318E-002;6.592372665181756E-004;3.854406066238880E-003;
2.414500000000000E+009;1.745839267969132E-001;-5.312458425760269E-002;1.014671055600047E-003;3.878625808283687E-003;
2.414666666666667E+009;1.749241948127747E-001;-5.423053354024887E-002;1.109779928810895E-003;3.773012431338430E-003;
2.414833333333334E+009;1.753370314836502E-001;-5.541541799902916E-002;1.246958854608238E-003;3.671169281005859E-003;
2.415000000000000E+009;1.757785379886627E-001;-5.610612034797669E-002;1.368678756989539E-003;3.644678508862853E-003;
2.415166666666667E+009;1.761792302131653E-001;-5.689797922968864E-002;1.518251141533256E-003;3.506209934130311E-003;
2.415333333333334E+009;1.767944991588593E-001;-5.761439725756645E-002;1.621341099962592E-003;3.411892103031278E-003;
2.415500000000000E+009;1.768956631422043E-001;-5.824904143810272E-002;1.788374152965844E-003;3.366929013282061E-003;
2.415666666666667E+009;1.772708147764206E-001;-5.863073840737343E-002;1.966498326510191E-003;3.410017117857933E-003;
2.415833333333334E+009;1.774825602769852E-001;-5.927968397736549E-002;2.125381492078304E-003;3.194779856130481E-003;
2.416000000000000E+009;1.774013787508011E-001;-5.967338383197784E-002;2.180530689656735E-003;2.911430550739169E-003;
2.416166666666667E+009;1.776794940233231E-001;-6.003824621438980E-002;2.317396225407720E-003;3.000161610543728E-003;
2.416333333333334E+009;1.775884032249451E-001;-6.024630740284920E-002;2.352130599319935E-003;3.054938977584243E-003;
2.416500000000000E+009;1.775076538324356E-001;-6.064395233988762E-002;2.442855155095458E-003;2.834160579368472E-003;
2.416666666666667E+009;1.772603541612625E-001;-6.077171117067337E-002;2.501113340258598E-003;2.590998308733106E-003;
2.416833333333334E+009;1.770207583904266E-001;-6.115516275167465E-002;2.597046783193946E-003;2.639787504449487E-003;
2.417000000000000E+009;1.765038669109345E-001;-6.136166304349899E-002;2.707953099161387E-003;2.562569919973612E-003;
2.417166666666667E+009;1.761194765567780E-001;-6.138404831290245E-002;2.767362166196108E-003;2.294105710461736E-003;
2.417333333333334E+009;1.755879819393158E-001;-6.159678474068642E-002;2.874336903914809E-003;2.212285064160824E-003;
2.417500000000000E+009;1.749252527952194E-001;-6.190358474850655E-002;3.012626897543669E-003;2.137286122888327E-003;
2.417666666666667E+009;1.743273138999939E-001;-6.197948381304741E-002;2.919586375355721E-003;2.031509298831224E-003;
2.417833333333334E+009;1.734591573476791E-001;-6.225649267435074E-002;3.072246676310897E-003;1.901138457469642E-003;
2.418000000000000E+009;1.725367009639740E-001;-6.266319006681442E-002;3.066985169425607E-003;1.667906879447401E-003;
2.418166666666667E+009;1.716424971818924E-001;-6.277704238891602E-002;3.079321701079607E-003;1.567751751281321E-003;
2.418333333333334E+009;1.708138138055801E-001;-6.317427009344101E-002;3.095900639891625E-003;1.447174465283752E-003;
2.418500000000000E+009;1.696675419807434E-001;-6.358087062835693E-002;3.279213793575764E-003;1.259578391909599E-003;
2.418666666666667E+009;1.686991304159164E-001;-6.409225612878799E-002;3.395810723304749E-003;1.211507478728890E-003;
2.418833333333334E+009;1.674383729696274E-001;-6.470273435115814E-002;3.487338311970234E-003;1.004751888103783E-003;
2.419000000000000E+009;1.662515848875046E-001;-6.514462828636169E-002;3.409058786928654E-003;9.975713910534978E-004;
2.419166666666667E+009;1.650937050580978E-001;-6.597953289747238E-002;3.392645157873631E-003;8.067584712989628E-004;
2.419333333333334E+009;1.638111025094986E-001;-6.643337756395340E-002;3.459162777289748E-003;6.383840809576213E-004;
2.419500000000000E+009;1.627628207206726E-001;-6.734806299209595E-002;3.514422103762627E-003;6.500286399386823E-004;
2.419666666666667E+009;1.614732742309570E-001;-6.826760619878769E-002;3.358686342835426E-003;3.986924421042204E-004;
2.419833333333334E+009;1.603180021047592E-001;-6.900868564844132E-002;3.405015915632248E-003;2.223779883934185E-004;
2.420000000000000E+009;1.593304574489594E-001;-7.035260647535324E-002;3.452766919508576E-003;6.021996887284331E-005;
2.420166666666667E+009;1.581661552190781E-001;-7.135012000799179E-002;3.426662879064679E-003;-1.002380668069236E-004;
2.420333333333334E+009;1.571401506662369E-001;-7.261046767234802E-002;3.396140178665519E-003;-2.510462072677910E-004;
2.420500000000000E+009;1.561524271965027E-001;-7.369634509086609E-002;3.242403268814087E-003;-4.786312929354608E-004;
2.420666666666667E+009;1.551333963871002E-001;-7.490501552820206E-002;3.386268857866526E-003;-5.963456933386624E-004;
2.420833333333334E+009;1.543364375829697E-001;-7.638688385486603E-002;3.251693909987807E-003;-5.963227013126016E-004;
2.421000000000000E+009;1.533667296171188E-001;-7.795606553554535E-002;3.221525112167001E-003;-7.942952215671539E-004;
2.421166666666667E+009;1.526649594306946E-001;-7.939343154430389E-002;3.014221088960767E-003;-9.049658547155559E-004;
2.421333333333334E+009;1.520531326532364E-001;-8.103085309267044E-002;2.995312213897705E-003;-1.158932573162019E-003;
2.421500000000000E+009;1.514560729265213E-001;-8.252554386854172E-002;2.819457557052374E-003;-1.267061335965991E-003;
2.421666666666667E+009;1.508457809686661E-001;-8.426690101623535E-002;2.720104996114969E-003;-1.369545585475862E-003;
2.421833333333334E+009;1.503767222166061E-001;-8.607847988605499E-002;2.757060108706355E-003;-1.580401905812323E-003;
2.422000000000000E+009;1.500850468873978E-001;-8.771804720163345E-002;2.585144713521004E-003;-1.519650337286294E-003;
2.422166666666667E+009;1.497836709022522E-001;-8.946698158979416E-002;2.502489369362593E-003;-1.662458991631866E-003;
2.422333333333334E+009;1.496655791997910E-001;-9.111490845680237E-002;2.192930318415165E-003;-1.821821322664619E-003;
2.422500000000000E+009;1.494404673576355E-001;-9.283889085054398E-002;2.232916187494993E-003;-1.892521395348012E-003;
2.422666666666667E+009;1.494423300027847E-001;-9.450644254684448E-002;2.102420665323734E-003;-1.977413892745972E-003;
2.422833333333334E+009;1.493850499391556E-001;-9.628519415855408E-002;2.023035194724798E-003;-1.909546437673271E-003;
2.423000000000000E+009;1.494474858045578E-001;-9.802422672510147E-002;1.679868437349796E-003;-1.985028618946672E-003;
2.423166666666667E+009;1.497310400009155E-001;-9.961953759193420E-002;1.706900424323976E-003;-1.951628481037915E-003;
2.423333333333334E+009;1.501380056142807E-001;-1.010418087244034E-001;1.368195982649922E-003;-2.084809821099043E-003;
2.423500000000000E+009;1.502424776554108E-001;-1.028164029121399E-001;1.285174163058400E-003;-2.079494064673781E-003;
2.423666666666667E+009;1.504323482513428E-001;-1.044247597455978E-001;1.187368528917432E-003;-1.949668861925602E-003;
2.423833333333334E+009;1.511695086956024E-001;-1.058641597628593E-001;1.027143094688654E-003;-1.973866485059261E-003;
2.424000000000000E+009;1.514042913913727E-001;-1.070676147937775E-001;8.424928528256714E-004;-1.856130082160235E-003;
2.424166666666667E+009;1.518853008747101E-001;-1.084601581096649E-001;6.817455869168043E-004;-1.946616685017943E-003;
2.424333333333334E+009;1.523202061653137E-001;-1.095100045204163E-001;5.607578787021339E-004;-1.836097217164934E-003;
2.424500000000000E+009;1.528114229440689E-001;-1.109229549765587E-001;4.777523281518370E-004;-1.800653524696827E-003;
2.424666666666667E+009;1.534073799848557E-001;-1.117912083864212E-001;2.955065283458680E-004;-1.756088109686971E-003;
2.424833333333334E+009;1.538202464580536E-001;-1.127548962831497E-001;4.136782081332058E-004;-1.814691117033362E-003;
2.425000000000000E+009;1.542740315198898E-001;-1.137775555253029E-001;3.285339334979653E-004;-1.672048238106072E-003;
2.425166666666667E+009;1.545126140117645E-001;-1.145216971635819E-001;4.144743143115193E-004;-1.384423347190023E-003;
2.425333333333334E+009;1.550131887197495E-001;-1.153182983398438E-001;1.514239265816286E-004;-1.265585073269904E-003;
2.425500000000000E+009;1.554778814315796E-001;-1.159809529781342E-001;1.619687973288819E-004;-1.264414167962968E-003;
2.425666666666667E+009;1.556609272956848E-001;-1.165302395820618E-001;5.334857632988133E-005;-1.192715368233621E-003;
2.425833333333334E+009;1.559348106384277E-001;-1.170481368899345E-001;2.434416528558359E-004;-1.174907898530364E-003;
2.426000000000000E+009;1.561737209558487E-001;-1.176002621650696E-001;1.247561885975301E-004;-9.502219618298113E-004;
2.426166666666667E+009;1.564982533454895E-001;-1.180092692375183E-001;1.480902428738773E-004;-1.017249305732548E-003;
2.426333333333334E+009;1.563922613859177E-001;-1.182981058955193E-001;-1.015941088553518E-004;-7.999181980267167E-004;
2.426500000000000E+009;1.565437912940979E-001;-1.185841634869576E-001;6.479747389676049E-005;-8.595315739512444E-004;
2.426666666666667E+009;1.564757078886032E-001;-1.186315268278122E-001;2.506264718249440E-004;-8.192163077183068E-004;
2.426833333333334E+009;1.562478542327881E-001;-1.188783943653107E-001;1.108532014768571E-004;-6.594379665330052E-004;
2.427000000000000E+009;1.560650318861008E-001;-1.191192716360092E-001;3.469241491984576E-004;-6.117388838902116E-004;
2.427166666666667E+009;1.556727290153503E-001;-1.190368980169296E-001;2.828534634318203E-004;-6.836724351160228E-004;
2.427333333333334E+009;1.550555527210236E-001;-1.191711053252220E-001;3.944179334212095E-004;-6.326751899905503E-004;
2.427500000000000E+009;1.545806676149368E-001;-1.193316206336021E-001;5.237307632341981E-004;-5.162508459761739E-004;
2.427666666666667E+009;1.539434790611267E-001;-1.194353774189949E-001;4.512734885793179E-004;-7.017555180937052E-004;
