# Version 1.00
#
freq[Hz];re:Trc1_S11;im:Trc1_S11;re:Trc2_S21;im:Trc2_S21;
2.400000000000000E+009;1.557101607322693E-001;1.097170859575272E-001;3.849625820294023E-003;-2.072912873700261E-003;
2.400166666666667E+009;1.552677899599075E-001;1.072862073779106E-001;3.912465646862984E-003;-2.303600544109941E-003;
2.400333333333334E+009;1.552707850933075E-001;1.050011813640595E-001;3.883744357153773E-003;-2.297186292707920E-003;
2.400500000000000E+009;1.552490144968033E-001;1.023953780531883E-001;3.780196420848370E-003;-2.479352056980133E-003;
2.400666666666667E+009;1.551863253116608E-001;9.997867047786713E-002;3.823568811640143E-003;-2.536997664719820E-003;
2.400833333333334E+009;1.551432013511658E-001;9.682624042034149E-002;3.834002884104848E-003;-2.616948215290904E-003;
2.401000000000000E+009;1.551477313041687E-001;9.401099383831024E-002;3.880694974213839E-003;-2.603653818368912E-003;
2.401166666666667E+009;1.552177369594574E-001;9.126545488834381E-002;3.953360486775637E-003;-2.712016226723790E-003;
2.401333333333334E+009;1.554995328187943E-001;8.841449767351151E-002;3.995738457888365E-003;-2.901639090850949E-003;
2.401500000000000E+009;1.557030975818634E-001;8.546866476535797E-002;4.063459578901529E-003;-2.906274981796742E-003;
2.401666666666667E+009;1.560066789388657E-001;8.262559771537781E-002;4.091075155884028E-003;-3.130970522761345E-003;
2.401833333333334E+009;1.564259529113770E-001;7.970026880502701E-002;4.044198896735907E-003;-3.327190410345793E-003;
2.402000000000000E+009;1.572655737400055E-001;7.698431611061096E-002;3.916145302355290E-003;-3.484437009319663E-003;
2.402166666666667E+009;1.580018997192383E-001;7.431966066360474E-002;4.042184911668301E-003;-3.642974654212594E-003;
2.402333333333334E+009;1.587436497211456E-001;7.137486338615418E-002;4.087453708052635E-003;-4.090858623385429E-003;
2.402500000000000E+009;1.601701229810715E-001;6.895215064287186E-002;4.022903274744749E-003;-4.244783427566290E-003;
2.402666666666667E+009;1.612499803304672E-001;6.634774059057236E-002;3.901470685377717E-003;-4.483791533857584E-003;
2.402833333333334E+009;1.626445502042770E-001;6.365738809108734E-002;3.772930009290576E-003;-4.773825872689486E-003;
2.403000000000000E+009;1.640764325857163E-001;6.126031652092934E-002;3.629958489909768E-003;-5.110073368996382E-003;
2.403166666666667E+009;1.654811799526215E-001;5.907062813639641E-002;3.378916531801224E-003;-5.318252369761467E-003;
2.403333333333334E+009;1.671563386917114E-001;5.652317032217979E-002;3.119112690910697E-003;-5.806234199553728E-003;
2.403500000000000E+009;1.688719987869263E-001;5.448305979371071E-002;2.991276327520609E-003;-6.067920476198196E-003;
2.403666666666667E+009;1.707365363836289E-001;5.242766439914703E-002;2.514368388801813E-003;-6.299905478954315E-003;
2.403833333333334E+009;1.721919178962708E-001;5.035425722599030E-002;2.221138449385762E-003;-6.351820193231106E-003;
2.404000000000000E+009;1.739272326231003E-001;4.835594072937965E-002;1.853642985224724E-003;-6.654596421867609E-003;
2.404166666666667E+009;1.758167445659638E-001;4.673200473189354E-002;1.503817271441221E-003;-6.689103785902262E-003;
2.404333333333334E+009;1.774360984563828E-001;4.520598053932190E-002;1.039591268636286E-003;-6.748644635081291E-003;
2.404500000000000E+009;1.792105436325073E-001;4.349821060895920E-002;7.337694987654686E-004;-6.694709416478872E-003;
2.404666666666667E+009;1.808526217937470E-001;4.239095002412796E-002;3.042429743800312E-004;-6.683084648102522E-003;
2.404833333333334E+009;1.826385557651520E-001;4.120317846536636E-002;8.374555363843683E-006;-6.689748726785183E-003;
2.405000000000000E+009;1.839527189731598E-001;4.058730602264404E-002;-3.956451837439090E-004;-6.513641681522131E-003;
2.405166666666667E+009;1.854669004678726E-001;3.964920714497566E-002;-8.194754482246935E-004;-6.485964637249708E-003;
2.405333333333334E+009;1.870170682668686E-001;3.904755041003227E-002;-8.880081004463136E-004;-6.331372540444136E-003;
2.405500000000000E+009;1.883985251188278E-001;3.855499997735024E-002;-1.156446407549083E-003;-6.157956551760435E-003;
2.405666666666667E+009;1.897128969430924E-001;3.811337426304817E-002;-1.337769441306591E-003;-6.123117636889219E-003;
2.405833333333334E+009;1.911744624376297E-001;3.787337243556976E-002;-1.720170141197741E-003;-5.851576570421457E-003;
2.406000000000000E+009;1.922662407159805E-001;3.769071027636528E-002;-2.000157721340656E-003;-5.933561827987433E-003;
2.406166666666667E+009;1.933422684669495E-001;3.762709349393845E-002;-1.982117304578424E-003;-5.638105794787407E-003;
2.406333333333334E+009;1.943847835063934E-001;3.763695433735848E-002;-2.203176263719797E-003;-5.490229465067387E-003;
2.406500000000000E+009;1.952033340930939E-001;3.769648447632790E-002;-2.589523326605558E-003;-5.389968864619732E-003;
2.406666666666667E+009;1.958180963993073E-001;3.784812986850739E-002;-2.569946227595210E-003;-5.254386458545923E-003;
2.406833333333334E+009;1.963836550712585E-001;3.791235014796257E-002;-2.795815933495760E-003;-5.114288069307804E-003;
2.407000000000000E+009;1.968511044979096E-001;3.815252706408501E-002;-3.051915438845754E-003;-4.836261272430420E-003;
2.407166666666667E+009;1.973151117563248E-001;3.810962289571762E-002;-3.200927516445518E-003;-4.825310315936804E-003;
2.407333333333334E+009;1.973597854375839E-001;3.851700574159622E-002;-3.180976025760174E-003;-4.464769735932350E-003;
2.407500000000000E+009;1.973936706781387E-001;3.865275159478188E-002;-3.461035434156656E-003;-4.417869728058577E-003;
2.407666666666667E+009;1.974998116493225E-001;3.879717364907265E-002;-3.579872427508235E-003;-4.305803216993809E-003;
2.407833333333334E+009;1.970583945512772E-001;3.884902969002724E-002;-3.787678899243474E-003;-4.100423771888018E-003;
2.408000000000000E+009;1.969861984252930E-001;3.872465714812279E-002;-3.639508970081806E-003;-3.801218699663878E-003;
2.408166666666667E+009;1.965896785259247E-001;3.871122375130653E-002;-3.779523307457566E-003;-3.549325978383422E-003;
2.408333333333334E+009;1.960791200399399E-001;3.822259977459908E-002;-3.940777853131294E-003;-3.544569481164217E-003;
2.408500000000000E+009;1.954336315393448E-001;3.806704282760620E-002;-3.799419617280364E-003;-3.116757841780782E-003;
2.408666666666667E+009;1.948220878839493E-001;3.769726678729057E-002;-3.898015944287181E-003;-2.970090135931969E-003;
2.408833333333334E+009;1.941366344690323E-001;3.723268210887909E-002;-3.970146644860506E-003;-2.875348785892129E-003;
2.409000000000000E+009;1.931718885898590E-001;3.651453554630280E-002;-3.933691419661045E-003;-2.618307480588555E-003;
2.409166666666667E+009;1.922256797552109E-001;3.570413589477539E-002;-3.874067915603519E-003;-2.461127005517483E-003;
2.409333333333334E+009;1.912610381841660E-001;3.493601828813553E-002;-3.824352519586682E-003;-2.422002842649818E-003;
2.409500000000000E+009;1.899760365486145E-001;3.362716734409332E-002;-3.670257749035955E-003;-2.266806084662676E-003;
2.409666666666667E+009;1.891830563545227E-001;3.244507685303688E-002;-3.887905972078443E-003;-2.294012345373631E-003;
2.409833333333334E+009;1.880780756473541E-001;3.107788600027561E-002;-4.037567880004644E-003;-2.245721174404025E-003;
2.410000000000000E+009;1.869433075189591E-001;2.944724634289742E-002;-3.814144292846322E-003;-2.126094186678529E-003;
2.410166666666667E+009;1.859081834554672E-001;2.785648778080940E-002;-3.854938317090273E-003;-1.983247930184007E-003;
2.410333333333334E+009;1.848288625478745E-001;2.613120153546333E-002;-3.869998734444380E-003;-1.915762317366898E-003;
2.410500000000000E+009;1.837256550788879E-001;2.431046962738037E-002;-3.911773674190044E-003;-1.827494474127889E-003;
2.410666666666667E+009;1.826974898576737E-001;2.195890992879868E-002;-3.810655092820525E-003;-1.786755514331162E-003;
2.410833333333334E+009;1.820510327816010E-001;2.008709684014320E-002;-4.153573885560036E-003;-1.656314707361162E-003;
2.411000000000000E+009;1.811020523309708E-001;1.790244877338409E-002;-3.981417044997215E-003;-1.633702078834176E-003;
2.411166666666667E+009;1.804056614637375E-001;1.564051024615765E-002;-4.146753810346127E-003;-1.322547206655145E-003;
2.411333333333334E+009;1.797595173120499E-001;1.321226730942726E-002;-4.142266232520342E-003;-1.471968949772418E-003;
2.411500000000000E+009;1.792580783367157E-001;1.082396972924471E-002;-4.107704851776362E-003;-1.137896324507892E-003;
2.411666666666667E+009;1.789612621068955E-001;8.531678467988968E-003;-4.051447845995426E-003;-1.098637003451586E-003;
2.411833333333334E+009;1.786211282014847E-001;6.060532759875059E-003;-4.016861785203219E-003;-8.465244900435209E-004;
2.412000000000000E+009;1.787489205598831E-001;3.496087854728103E-003;-4.046169575303793E-003;-8.274005376733840E-004;
2.412166666666667E+009;1.787849962711334E-001;1.044677221216261E-003;-4.035938996821642E-003;-5.789372371509671E-004;
2.412333333333334E+009;1.787886023521423E-001;-1.422759378328919E-003;-4.157539457082748E-003;-5.750727723352611E-004;
2.412500000000000E+009;1.791206449270248E-001;-3.954871557652950E-003;-3.786768065765500E-003;-6.091365939937532E-004;
2.412666666666667E+009;1.797495335340500E-001;-6.485002115368843E-003;-3.866364480927587E-003;-4.126186540815979E-004;
2.412833333333334E+009;1.802374720573425E-001;-8.921771310269833E-003;-3.854083130136132E-003;-2.889277529902756E-004;
2.413000000000000E+009;1.810849905014038E-001;-1.152277458459139E-002;-3.869294654577971E-003;-3.761441330425441E-004;
2.413166666666667E+009;1.818996667861939E-001;-1.375228073447943E-002;-3.673692932352424E-003;-4.398458986543119E-004;
2.413333333333334E+009;1.827940195798874E-001;-1.617960259318352E-002;-3.916298970580101E-003;-3.074360138271004E-004;
2.413500000000000E+009;1.836472302675247E-001;-1.859727688133717E-002;-3.811458824202418E-003;-3.775412915274501E-004;
2.413666666666667E+009;1.850583106279373E-001;-2.084363065660000E-002;-3.766243811696768E-003;-2.037083177128807E-004;
2.413833333333334E+009;1.859636902809143E-001;-2.308543026447296E-002;-3.913146443665028E-003;-8.176393021130934E-005;
2.414000000000000E+009;1.871843487024307E-001;-2.510169893503189E-002;-4.100095015019178E-003;-1.672814541961998E-004;
2.414166666666667E+009;1.884346306324005E-001;-2.694648317992687E-002;-4.249292891472578E-003;1.928345300257206E-004;
2.414333333333334E+009;1.893646717071533E-001;-2.890305593609810E-002;-4.288192838430405E-003;4.209503458696418E-005;
2.414500000000000E+009;1.908932030200958E-001;-3.071515448391438E-002;-4.346149973571301E-003;3.493604308459908E-004;
2.414666666666667E+009;1.921759247779846E-001;-3.212799876928330E-002;-4.463614430278540E-003;6.067947251722217E-004;
2.414833333333334E+009;1.933415234088898E-001;-3.362898156046867E-002;-4.467975348234177E-003;6.774277426302433E-004;
2.415000000000000E+009;1.945823132991791E-001;-3.514691814780235E-002;-4.212491214275360E-003;9.992036502808332E-004;
2.415166666666667E+009;1.958369016647339E-001;-3.625071048736572E-002;-4.207103513181210E-003;1.124178525060415E-003;
2.415333333333334E+009;1.971797198057175E-001;-3.717348724603653E-002;-4.095367621630430E-003;1.247374224476516E-003;
2.415500000000000E+009;1.982904821634293E-001;-3.804498538374901E-002;-4.059173166751862E-003;1.332552172243595E-003;
2.415666666666667E+009;1.994146555662155E-001;-3.899477794766426E-002;-4.018337000161409E-003;1.470110961236060E-003;
2.415833333333334E+009;2.004377543926239E-001;-3.959066793322563E-002;-3.901110030710697E-003;1.663245260715485E-003;
2.416000000000000E+009;2.014340758323669E-001;-4.018640145659447E-002;-3.800550242885947E-003;1.597319729626179E-003;
2.416166666666667E+009;2.021890878677368E-001;-4.093775525689125E-002;-3.827690379694104E-003;1.772150979377329E-003;
2.416333333333334E+009;2.029770314693451E-001;-4.119296744465828E-002;-3.633672604337335E-003;1.894672401249409E-003;
2.416500000000000E+009;2.035960108041763E-001;-4.147727787494659E-002;-3.690437180921435E-003;1.832537120208144E-003;
2.416666666666667E+009;2.040094882249832E-001;-4.178664833307266E-002;-3.541146405041218E-003;2.009859075769782E-003;
2.416833333333334E+009;2.042527943849564E-001;-4.182158783078194E-002;-3.545379266142845E-003;2.004636917263269E-003;
2.417000000000000E+009;2.045805901288986E-001;-4.194179177284241E-002;-3.489584196358919E-003;2.008467679843307E-003;
2.417166666666667E+009;2.044093757867813E-001;-4.191521182656288E-002;-3.591867629438639E-003;2.196328714489937E-003;
2.417333333333334E+009;2.041952162981033E-001;-4.165934771299362E-002;-3.402448957785964E-003;2.199119189754129E-003;
2.417500000000000E+009;2.041097879409790E-001;-4.164810478687286E-002;-3.447192488238215E-003;2.202487783506513E-003;
2.417666666666667E+009;2.036906033754349E-001;-4.122022166848183E-002;-3.437328152358532E-003;2.397772623226047E-003;
2.417833333333334E+009;2.033545076847076E-001;-4.105793684720993E-002;-3.383507253602147E-003;2.522610127925873E-003;
2.418000000000000E+009;2.026625722646713E-001;-4.077835753560066E-002;-3.364017931744456E-003;2.602135064080358E-003;
2.418166666666667E+009;2.020601928234100E-001;-4.074422270059586E-002;-3.388952463865280E-003;2.733550732955337E-003;
2.418333333333334E+009;2.011281996965408E-001;-4.054302349686623E-002;-3.322532400488854E-003;2.863386878743768E-003;
2.418500000000000E+009;2.002100646495819E-001;-4.046906530857086E-002;-3.330886829644442E-003;2.969375811517239E-003;
2.418666666666667E+009;1.993638277053833E-001;-4.031397029757500E-002;-3.158587263897061E-003;3.296872368082404E-003;
2.418833333333334E+009;1.982040107250214E-001;-4.041263833642006E-002;-3.201558953151107E-003;3.392426529899240E-003;
2.419000000000000E+009;1.969079375267029E-001;-4.051200672984123E-002;-3.090452635660768E-003;3.498570527881384E-003;
2.419166666666667E+009;1.955714672803879E-001;-4.082592576742172E-002;-2.863475820049644E-003;3.605033271014690E-003;
2.419333333333334E+009;1.941891312599182E-001;-4.106758534908295E-002;-2.763919765129685E-003;3.801270853728056E-003;
2.419500000000000E+009;1.925561577081680E-001;-4.141170158982277E-002;-2.683514263480902E-003;3.904311452060938E-003;
2.419666666666667E+009;1.909968405961990E-001;-4.221710190176964E-002;-2.544634509831667E-003;3.981111105531454E-003;
2.419833333333334E+009;1.892709583044052E-001;-4.283070564270020E-002;-2.346872352063656E-003;4.032085649669170E-003;
2.420000000000000E+009;1.877729743719101E-001;-4.363331571221352E-002;-2.278334693983197E-003;4.205281380563974E-003;
2.420166666666667E+009;1.861070245504379E-001;-4.462977126240730E-002;-1.984525937587023E-003;4.219791851937771E-003;
2.420333333333334E+009;1.843419075012207E-001;-4.555456340312958E-002;-1.911939936690033E-003;4.328186623752117E-003;
2.420500000000000E+009;1.825332492589951E-001;-4.689458012580872E-002;-1.924532232806087E-003;4.222150426357985E-003;
2.420666666666667E+009;1.808375865221024E-001;-4.811149463057518E-002;-1.834597554989159E-003;4.279914777725935E-003;
2.420833333333334E+009;1.791220754384995E-001;-4.971512407064438E-002;-1.628638477995992E-003;4.414832219481468E-003;
2.421000000000000E+009;1.775240600109100E-001;-5.093609541654587E-002;-1.509478781372309E-003;4.384609404951334E-003;
2.421166666666667E+009;1.760114878416061E-001;-5.273414030671120E-002;-1.485825050622225E-003;4.336841870099306E-003;
2.421333333333334E+009;1.743494570255280E-001;-5.431788042187691E-002;-1.371869584545493E-003;4.448866937309504E-003;
2.421500000000000E+009;1.728256642818451E-001;-5.641004815697670E-002;-1.437961473129690E-003;4.719991702586412E-003;
2.421666666666667E+009;1.713143587112427E-001;-5.817032605409622E-002;-1.338204368948937E-003;4.724659025669098E-003;
2.421833333333334E+009;1.701659113168716E-001;-6.013414636254311E-002;-1.041849958710372E-003;4.818947054445744E-003;
2.422000000000000E+009;1.689904481172562E-001;-6.194810941815376E-002;-1.101638539694250E-003;4.869117401540279E-003;
2.422166666666667E+009;1.681046932935715E-001;-6.413942575454712E-002;-7.825127104297280E-004;5.115779582411051E-003;
2.422333333333334E+009;1.667111814022064E-001;-6.624050438404083E-002;-6.414187373593450E-004;5.278365686535835E-003;
2.422500000000000E+009;1.659743785858154E-001;-6.818000972270966E-002;-3.223355161026120E-004;5.346951074898243E-003;
2.422666666666667E+009;1.651199311017990E-001;-7.023884356021881E-002;-1.348694495391101E-004;5.347365047782660E-003;
2.422833333333334E+009;1.646911352872849E-001;-7.246197760105133E-002;1.417838939232752E-004;5.500212311744690E-003;
2.423000000000000E+009;1.640313863754273E-001;-7.471560686826706E-002;5.380748189054430E-004;5.499434191733599E-003;
2.423166666666667E+009;1.634937375783920E-001;-7.654728740453720E-002;5.410382873378694E-004;5.533805582672358E-003;
2.423333333333334E+009;1.632241904735565E-001;-7.888633012771606E-002;1.147047500126064E-003;5.576510448008776E-003;
2.423500000000000E+009;1.631437093019486E-001;-8.075973391532898E-002;1.299380208365619E-003;5.592387169599533E-003;
2.423666666666667E+009;1.631204038858414E-001;-8.275967836380005E-002;1.632487517781556E-003;5.487288348376751E-003;
2.423833333333334E+009;1.631189733743668E-001;-8.451556414365768E-002;2.023866167291999E-003;5.315948277711868E-003;
2.424000000000000E+009;1.632088124752045E-001;-8.651221543550491E-002;2.271128352731466E-003;5.068902391940355E-003;
2.424166666666667E+009;1.632962673902512E-001;-8.830554038286209E-002;2.545579103752971E-003;4.914721008390188E-003;
2.424333333333334E+009;1.636380255222321E-001;-8.978425711393356E-002;2.921995008364320E-003;4.906052257865667E-003;
2.424500000000000E+009;1.639156341552734E-001;-9.158421307802200E-002;3.084689145907760E-003;4.583496600389481E-003;
2.424666666666667E+009;1.641777604818344E-001;-9.309280663728714E-002;3.099994733929634E-003;4.277795087546110E-003;
2.424833333333334E+009;1.647070348262787E-001;-9.456883370876312E-002;3.401775611564517E-003;4.155320581048727E-003;
2.425000000000000E+009;1.651708781719208E-001;-9.581282734870911E-002;3.548995824530721E-003;3.703858237713575E-003;
2.425166666666667E+009;1.655904650688171E-001;-9.702811390161514E-002;3.665777621790767E-003;3.509588306769729E-003;
2.425333333333334E+009;1.659228354692459E-001;-9.809258580207825E-002;3.728098468855023E-003;3.381429240107536E-003;
2.425500000000000E+009;1.664351522922516E-001;-9.914103150367737E-002;3.789841895923019E-003;3.118281951174140E-003;
2.425666666666667E+009;1.670147478580475E-001;-9.979345649480820E-002;3.994980361312628E-003;2.932077273726463E-003;
2.425833333333334E+009;1.674053370952606E-001;-1.007461249828339E-001;4.028136376291513E-003;2.588027156889439E-003;
2.426000000000000E+009;1.679808199405670E-001;-1.011738777160645E-001;3.980116918683052E-003;2.459850627928972E-003;
2.426166666666667E+009;1.684983670711517E-001;-1.017989963293076E-001;3.925552126020193E-003;2.228316850960255E-003;
2.426333333333334E+009;1.687994152307510E-001;-1.023039668798447E-001;3.930260427296162E-003;2.023239620029926E-003;
2.426500000000000E+009;1.692843735218048E-001;-1.025193184614182E-001;4.051550757139921E-003;1.779790734872222E-003;
2.426666666666667E+009;1.696897596120834E-001;-1.027812436223030E-001;3.737880615517497E-003;1.494796248152852E-003;
2.426833333333334E+009;1.700326502323151E-001;-1.031050682067871E-001;3.768196096643806E-003;1.365187461487949E-003;
2.427000000000000E+009;1.700215339660645E-001;-1.033284887671471E-001;3.846786683425307E-003;1.103146583773196E-003;
2.427166666666667E+009;1.703953891992569E-001;-1.034370437264442E-001;3.787705441936851E-003;1.140856300480664E-003;
2.427333333333334E+009;1.704671978950501E-001;-1.036757379770279E-001;3.660036716610193E-003;8.476456278003752E-004;
2.427500000000000E+009;1.703261435031891E-001;-1.038216799497604E-001;3.731571370735765E-003;8.026751456782222E-004;
2.427666666666667E+009;1.700862199068070E-001;-1.037795543670654E-001;3.397438209503889E-003;5.255965515971184E-004;
