# Version 1.00
#
freq[Hz];re:Trc1_S11;im:Trc1_S11;re:Trc2_S21;im:Trc2_S21;
2.400000000000000E+009;1.557931751012802E-001;1.093909367918968E-001;4.056726582348347E-003;-1.853760797530413E-003;
2.400166666666667E+009;1.555332690477371E-001;1.071453467011452E-001;4.100056830793619E-003;-1.945211435668171E-003;
2.400333333333334E+009;1.553487181663513E-001;1.045574545860291E-001;4.000627435743809E-003;-1.806472544558346E-003;
2.400500000000000E+009;1.552063226699829E-001;1.019177362322807E-001;4.057945217937231E-003;-2.026342554017901E-003;
2.400666666666667E+009;1.553610265254974E-001;9.951747953891754E-002;4.063735250383616E-003;-2.238289918750525E-003;
2.400833333333334E+009;1.550447940826416E-001;9.663344174623489E-002;4.202661570161581E-003;-2.212865976616740E-003;
2.401000000000000E+009;1.551580876111984E-001;9.381287544965744E-002;4.181612748652697E-003;-2.370045054703951E-003;
2.401166666666667E+009;1.550108343362808E-001;9.113792330026627E-002;4.222937393933535E-003;-2.458533504977822E-003;
2.401333333333334E+009;1.552421301603317E-001;8.818021416664124E-002;4.171065520495176E-003;-2.346582710742950E-003;
2.401500000000000E+009;1.556435823440552E-001;8.531394600868225E-002;4.276694729924202E-003;-2.600443083792925E-003;
2.401666666666667E+009;1.560247689485550E-001;8.216967433691025E-002;4.505658987909555E-003;-2.871047006919980E-003;
2.401833333333334E+009;1.564041376113892E-001;7.937382161617279E-002;4.400889854878187E-003;-3.029306419193745E-003;
2.402000000000000E+009;1.571541279554367E-001;7.657640427350998E-002;4.389212466776371E-003;-3.288799431174994E-003;
2.402166666666667E+009;1.579262018203735E-001;7.389350980520248E-002;4.398826509714127E-003;-3.427872201427817E-003;
2.402333333333334E+009;1.588323265314102E-001;7.129627466201782E-002;4.364639520645142E-003;-3.805415239185095E-003;
2.402500000000000E+009;1.599861979484558E-001;6.858794391155243E-002;4.359658341854811E-003;-4.154291935265064E-003;
2.402666666666667E+009;1.610318124294281E-001;6.620289385318756E-002;4.252770915627480E-003;-4.328187089413405E-003;
2.402833333333334E+009;1.624440848827362E-001;6.356764584779739E-002;4.144929349422455E-003;-4.699629731476307E-003;
2.403000000000000E+009;1.637979149818420E-001;6.110427156090736E-002;4.127490799874067E-003;-4.948412068188191E-003;
2.403166666666667E+009;1.655594706535339E-001;5.889240279793739E-002;3.861024044454098E-003;-5.355418659746647E-003;
2.403333333333334E+009;1.669912934303284E-001;5.638807266950607E-002;3.420042572543025E-003;-5.690591409802437E-003;
2.403500000000000E+009;1.687582731246948E-001;5.424303561449051E-002;3.352385945618153E-003;-5.947854835540056E-003;
2.403666666666667E+009;1.703671962022781E-001;5.225105583667755E-002;3.080480964854360E-003;-6.040646694600582E-003;
2.403833333333334E+009;1.721652001142502E-001;5.021628737449646E-002;2.667494816705585E-003;-6.323941517621279E-003;
2.404000000000000E+009;1.737469881772995E-001;4.819255322217941E-002;2.338290680199862E-003;-6.568161305040121E-003;
2.404166666666667E+009;1.755386441946030E-001;4.664922878146172E-002;1.820521662011743E-003;-6.624601781368256E-003;
2.404333333333334E+009;1.771726012229919E-001;4.502541571855545E-002;1.441196305677295E-003;-6.724627688527107E-003;
2.404500000000000E+009;1.789696216583252E-001;4.339653998613358E-002;1.037637121044099E-003;-6.631140597164631E-003;
2.404666666666667E+009;1.806148588657379E-001;4.233279079198837E-002;6.798261892981827E-004;-6.775612477213144E-003;
2.404833333333334E+009;1.823448836803436E-001;4.110160842537880E-002;2.305030939169228E-004;-6.659812293946743E-003;
2.405000000000000E+009;1.837533414363861E-001;4.031946137547493E-002;3.920950348401675E-006;-6.804615724831820E-003;
2.405166666666667E+009;1.854225099086762E-001;3.956651315093041E-002;-3.365590528119355E-004;-6.468260660767555E-003;
2.405333333333334E+009;1.867958903312683E-001;3.892613574862480E-002;-5.605691694654524E-004;-6.436197087168694E-003;
2.405500000000000E+009;1.882544904947281E-001;3.833806887269020E-002;-9.125363430939615E-004;-6.297638174146414E-003;
2.405666666666667E+009;1.896162182092667E-001;3.816404193639755E-002;-9.875043760985136E-004;-6.278594024479389E-003;
2.405833333333334E+009;1.910673379898071E-001;3.780886530876160E-002;-1.374079729430378E-003;-6.008080206811428E-003;
2.406000000000000E+009;1.919906735420227E-001;3.763243928551674E-002;-1.522513921372592E-003;-6.017720792442560E-003;
2.406166666666667E+009;1.932023614645004E-001;3.764833509922028E-002;-1.784009276889265E-003;-5.856671370565891E-003;
2.406333333333334E+009;1.942656487226486E-001;3.757529705762863E-002;-2.002117922529578E-003;-5.795059259980917E-003;
2.406500000000000E+009;1.950198560953140E-001;3.748958185315132E-002;-2.153676934540272E-003;-5.629137158393860E-003;
2.406666666666667E+009;1.956681311130524E-001;3.775015100836754E-002;-2.382206497713924E-003;-5.657671019434929E-003;
2.406833333333334E+009;1.964426189661026E-001;3.778240457177162E-002;-2.612494863569737E-003;-5.313563626259565E-003;
2.407000000000000E+009;1.966236382722855E-001;3.808229416608810E-002;-2.725180704146624E-003;-5.199114326387644E-003;
2.407166666666667E+009;1.972315162420273E-001;3.795896098017693E-002;-3.032331587746739E-003;-5.149731878191233E-003;
2.407333333333334E+009;1.971842050552368E-001;3.822983428835869E-002;-3.021807642653585E-003;-4.776405170559883E-003;
2.407500000000000E+009;1.972909420728684E-001;3.844887390732765E-002;-3.321302821859717E-003;-4.611621610820293E-003;
2.407666666666667E+009;1.974125951528549E-001;3.859088569879532E-002;-3.441259497776628E-003;-4.505447577685118E-003;
2.407833333333334E+009;1.968811303377152E-001;3.849451243877411E-002;-3.466635942459106E-003;-4.374921321868897E-003;
2.408000000000000E+009;1.970480680465698E-001;3.861824423074722E-002;-3.715789876878262E-003;-4.060836508870125E-003;
2.408166666666667E+009;1.964327245950699E-001;3.839270770549774E-002;-3.925813362002373E-003;-4.047195892781019E-003;
2.408333333333334E+009;1.958591043949127E-001;3.805363550782204E-002;-3.813067916780710E-003;-3.731751814484596E-003;
2.408500000000000E+009;1.954280436038971E-001;3.803940862417221E-002;-3.749468130990863E-003;-3.513679141178727E-003;
2.408666666666667E+009;1.947492659091950E-001;3.761328384280205E-002;-3.935143817216158E-003;-3.474432509392500E-003;
2.408833333333334E+009;1.940335035324097E-001;3.699291497468948E-002;-3.932994790375233E-003;-3.191248513758183E-003;
2.409000000000000E+009;1.930306255817413E-001;3.626686707139015E-002;-3.813031362369657E-003;-3.156611695885658E-003;
2.409166666666667E+009;1.921202689409256E-001;3.537308424711227E-002;-3.794620977714658E-003;-2.853027544915676E-003;
2.409333333333334E+009;1.912401467561722E-001;3.451326861977577E-002;-3.903278615325689E-003;-2.707463223487139E-003;
2.409500000000000E+009;1.900003850460053E-001;3.350196406245232E-002;-3.980489913374186E-003;-2.654467010870576E-003;
2.409666666666667E+009;1.889661401510239E-001;3.221921995282173E-002;-3.927355166524649E-003;-2.515698550269008E-003;
2.409833333333334E+009;1.877699196338654E-001;3.089721500873566E-002;-3.868224564939737E-003;-2.685738960281014E-003;
2.410000000000000E+009;1.868746131658554E-001;2.943978831171989E-002;-3.840805729851127E-003;-2.366952132433653E-003;
2.410166666666667E+009;1.856460273265839E-001;2.761191502213478E-002;-4.029418807476759E-003;-2.232474507763982E-003;
2.410333333333334E+009;1.846816390752792E-001;2.592669613659382E-002;-3.943838644772768E-003;-2.327360212802887E-003;
2.410500000000000E+009;1.835868060588837E-001;2.399756573140621E-002;-3.992483485490084E-003;-2.206327626481652E-003;
2.410666666666667E+009;1.826466768980026E-001;2.193935588002205E-002;-4.028930328786373E-003;-2.028313698247075E-003;
2.410833333333334E+009;1.818673312664032E-001;1.985713653266430E-002;-4.226419143378735E-003;-1.973710954189301E-003;
2.411000000000000E+009;1.809598356485367E-001;1.777713000774384E-002;-4.223113413900137E-003;-1.711703953333199E-003;
2.411166666666667E+009;1.802365481853485E-001;1.565282791852951E-002;-4.250873811542988E-003;-1.737231272272766E-003;
2.411333333333334E+009;1.796976029872894E-001;1.322285272181034E-002;-4.204747732728720E-003;-1.458963844925165E-003;
2.411500000000000E+009;1.791785955429077E-001;1.077956799417734E-002;-4.224677570164204E-003;-1.228547072969377E-003;
2.411666666666667E+009;1.789072304964066E-001;8.514407090842724E-003;-4.217722453176975E-003;-1.345864264294505E-003;
2.411833333333334E+009;1.784840971231461E-001;6.069701164960861E-003;-4.376906435936689E-003;-1.131044235080481E-003;
2.412000000000000E+009;1.785634160041809E-001;3.485656343400478E-003;-4.363147541880608E-003;-1.080815913155675E-003;
2.412166666666667E+009;1.785912066698074E-001;1.138713327236474E-003;-4.191514570266008E-003;-7.865972584113479E-004;
2.412333333333334E+009;1.785780787467957E-001;-1.437020837329328E-003;-4.022813402116299E-003;-7.581920945085585E-004;
2.412500000000000E+009;1.791918575763702E-001;-4.064774606376886E-003;-4.065024666488171E-003;-6.952848052605987E-004;
2.412666666666667E+009;1.795016825199127E-001;-6.513016764074564E-003;-4.027024842798710E-003;-6.626053364016116E-004;
2.412833333333334E+009;1.802108436822891E-001;-8.866224437952042E-003;-4.004542250186205E-003;-5.921284900978208E-004;
2.413000000000000E+009;1.808418780565262E-001;-1.136197615414858E-002;-3.966192249208689E-003;-5.154013051651418E-004;
2.413166666666667E+009;1.816929280757904E-001;-1.365754567086697E-002;-3.842745907604694E-003;-4.690735950134695E-004;
2.413333333333334E+009;1.826756298542023E-001;-1.617748290300369E-002;-4.071869421750307E-003;-5.105001037009060E-004;
2.413500000000000E+009;1.835625618696213E-001;-1.852657273411751E-002;-4.086064174771309E-003;-3.366823948454112E-004;
2.413666666666667E+009;1.847434043884277E-001;-2.084675244987011E-002;-3.922528121620417E-003;-3.635630127973855E-004;
2.413833333333334E+009;1.856217384338379E-001;-2.288869582116604E-002;-4.157755058258772E-003;-3.238768258597702E-004;
2.414000000000000E+009;1.869836747646332E-001;-2.504432015120983E-002;-4.238323774188757E-003;-1.793720002751797E-004;
2.414166666666667E+009;1.882163882255554E-001;-2.684918232262135E-002;-4.471934400498867E-003;-1.238360273418948E-004;
2.414333333333334E+009;1.893781721591950E-001;-2.896363660693169E-002;-4.375012125819922E-003;2.692584348551463E-005;
2.414500000000000E+009;1.907432228326798E-001;-3.041074052453041E-002;-4.393050912767649E-003;3.125176299363375E-004;
2.414666666666667E+009;1.918514519929886E-001;-3.205263242125511E-002;-4.436275456100702E-003;4.698155389633030E-004;
2.414833333333334E+009;1.930760294198990E-001;-3.364218398928642E-002;-4.345484543591738E-003;7.791899261064827E-004;
2.415000000000000E+009;1.943376064300537E-001;-3.489344567060471E-002;-4.292541183531284E-003;7.631612243130803E-004;
2.415166666666667E+009;1.957762688398361E-001;-3.609339892864227E-002;-4.242136143147945E-003;1.056181383319199E-003;
2.415333333333334E+009;1.968621611595154E-001;-3.721836209297180E-002;-4.222320392727852E-003;1.164196757599711E-003;
2.415500000000000E+009;1.981856971979141E-001;-3.793958947062492E-002;-4.053701180964708E-003;1.404380076564848E-003;
2.415666666666667E+009;1.993167698383331E-001;-3.886401653289795E-002;-4.020807333290577E-003;1.455123536288738E-003;
2.415833333333334E+009;2.002263218164444E-001;-3.958315029740334E-002;-4.075426608324051E-003;1.572662265971303E-003;
2.416000000000000E+009;2.011065334081650E-001;-4.011716321110725E-002;-3.949386999011040E-003;1.575766131281853E-003;
2.416166666666667E+009;2.019546777009964E-001;-4.074054583907127E-002;-3.923699259757996E-003;1.751846750266850E-003;
2.416333333333334E+009;2.028128057718277E-001;-4.095553979277611E-002;-3.733835648745298E-003;1.584131736308336E-003;
2.416500000000000E+009;2.034061253070831E-001;-4.132748022675514E-002;-3.818093100562692E-003;1.835488248616457E-003;
2.416666666666667E+009;2.037884145975113E-001;-4.161569103598595E-002;-3.833527443930507E-003;1.741132349707186E-003;
2.416833333333334E+009;2.041702419519424E-001;-4.166378453373909E-002;-3.681067610159516E-003;2.027198905125260E-003;
2.417000000000000E+009;2.043775767087936E-001;-4.180598631501198E-002;-3.716129576787353E-003;2.144058467820287E-003;
2.417166666666667E+009;2.041056305170059E-001;-4.172914102673531E-002;-3.809004556387663E-003;2.018060302361846E-003;
2.417333333333334E+009;2.041110992431641E-001;-4.154295474290848E-002;-3.744376357644796E-003;2.147124381735921E-003;
2.417500000000000E+009;2.038868814706802E-001;-4.143646731972694E-002;-3.727459814399481E-003;2.419770462438464E-003;
2.417666666666667E+009;2.035433202981949E-001;-4.116059467196465E-002;-3.642832627519965E-003;2.339771017432213E-003;
2.417833333333334E+009;2.032377570867539E-001;-4.094856604933739E-002;-3.554280148819089E-003;2.429171698167920E-003;
2.418000000000000E+009;2.025530487298966E-001;-4.067690670490265E-002;-3.578878473490477E-003;2.746958285570145E-003;
2.418166666666667E+009;2.018715590238571E-001;-4.045254364609718E-002;-3.557955380529165E-003;2.730438951402903E-003;
2.418333333333334E+009;2.010345458984375E-001;-4.020260646939278E-002;-3.491389565169811E-003;2.900870749726892E-003;
2.418500000000000E+009;2.001121789216995E-001;-4.031208530068398E-002;-3.477460704743862E-003;3.017479553818703E-003;
2.418666666666667E+009;1.992722451686859E-001;-4.005475342273712E-002;-3.528217785060406E-003;3.200849052518606E-003;
2.418833333333334E+009;1.979316473007202E-001;-4.010848701000214E-002;-3.334960434585810E-003;3.396736923605204E-003;
2.419000000000000E+009;1.967504918575287E-001;-4.021789133548737E-002;-3.410402219742537E-003;3.558719530701637E-003;
2.419166666666667E+009;1.954222619533539E-001;-4.044852778315544E-002;-3.146821167320013E-003;3.782412502914667E-003;
2.419333333333334E+009;1.941547989845276E-001;-4.087973013520241E-002;-3.004224039614201E-003;3.987608943134546E-003;
2.419500000000000E+009;1.925598382949829E-001;-4.118900001049042E-002;-2.842397429049015E-003;4.049110226333141E-003;
2.419666666666667E+009;1.910094469785690E-001;-4.210924729704857E-002;-2.737383823841810E-003;4.213762935250998E-003;
2.419833333333334E+009;1.892771422863007E-001;-4.258311539888382E-002;-2.544679446145892E-003;4.232381936162710E-003;
2.420000000000000E+009;1.876671910285950E-001;-4.343833774328232E-002;-2.377341734245420E-003;4.210784099996090E-003;
2.420166666666667E+009;1.859049946069717E-001;-4.438079148530960E-002;-2.265387447550893E-003;4.373648669570684E-003;
2.420333333333334E+009;1.842068731784821E-001;-4.559116065502167E-002;-2.128541003912687E-003;4.448054358363152E-003;
2.420500000000000E+009;1.825095862150192E-001;-4.667245224118233E-002;-2.040943363681436E-003;4.450839478522539E-003;
2.420666666666667E+009;1.808440536260605E-001;-4.783910512924194E-002;-1.859124284237623E-003;4.399830009788275E-003;
2.420833333333334E+009;1.792390048503876E-001;-4.942718148231506E-002;-1.870673149824143E-003;4.491093102842569E-003;
2.421000000000000E+009;1.775451898574829E-001;-5.091010779142380E-002;-1.614740816876292E-003;4.357700701802969E-003;
2.421166666666667E+009;1.760379970073700E-001;-5.238682776689529E-002;-1.580764423124492E-003;4.626662470400333E-003;
2.421333333333334E+009;1.742320507764816E-001;-5.413578450679779E-002;-1.451514544896781E-003;4.656979814171791E-003;
2.421500000000000E+009;1.727824211120606E-001;-5.593194440007210E-002;-1.517718890681863E-003;4.951576702296734E-003;
2.421666666666667E+009;1.715871095657349E-001;-5.776859074831009E-002;-1.328882994130254E-003;4.942595027387142E-003;
2.421833333333334E+009;1.702984869480133E-001;-5.983113870024681E-002;-1.231792266480625E-003;5.138114560395479E-003;
2.422000000000000E+009;1.691334694623947E-001;-6.167628616094589E-002;-1.107602613046765E-003;5.181453656405211E-003;
2.422166666666667E+009;1.682346463203430E-001;-6.384664028882980E-002;-9.259954676963389E-004;5.340827628970146E-003;
2.422333333333334E+009;1.671809554100037E-001;-6.600850820541382E-002;-6.351813208311796E-004;5.461125634610653E-003;
2.422500000000000E+009;1.662360131740570E-001;-6.800398230552673E-002;-3.221488441340625E-004;5.712927784770727E-003;
2.422666666666667E+009;1.653858572244644E-001;-7.008701562881470E-002;-1.242550060851499E-004;5.746231880038977E-003;
2.422833333333334E+009;1.648444086313248E-001;-7.239711284637451E-002;1.660691341385245E-004;5.847717635333538E-003;
2.423000000000000E+009;1.642317473888397E-001;-7.453637570142746E-002;4.222682619001716E-004;5.683764815330505E-003;
2.423166666666667E+009;1.637890487909317E-001;-7.658112049102783E-002;7.149903103709221E-004;5.893935915082693E-003;
2.423333333333334E+009;1.635683774948120E-001;-7.877643406391144E-002;1.187684945762157E-003;5.718706175684929E-003;
2.423500000000000E+009;1.634777486324310E-001;-8.051180094480515E-002;1.358305104076862E-003;5.836773663759232E-003;
2.423666666666667E+009;1.635276228189468E-001;-8.254827558994293E-002;1.692404504865408E-003;5.756988190114498E-003;
2.423833333333334E+009;1.634017825126648E-001;-8.446229994297028E-002;2.102629747241736E-003;5.578725133091211E-003;
2.424000000000000E+009;1.634135693311691E-001;-8.644207566976547E-002;2.432117704302073E-003;5.430537275969982E-003;
2.424166666666667E+009;1.635697782039642E-001;-8.820302039384842E-002;2.498025773093104E-003;5.122851580381393E-003;
2.424333333333334E+009;1.638884991407394E-001;-8.981097489595413E-002;2.927961293607950E-003;5.021492019295692E-003;
2.424500000000000E+009;1.642497926950455E-001;-9.176217764616013E-002;3.152862191200256E-003;4.728510044515133E-003;
2.424666666666667E+009;1.645409762859345E-001;-9.318748116493225E-002;3.146862145513296E-003;4.583668895065785E-003;
2.424833333333334E+009;1.651171594858170E-001;-9.455641359090805E-002;3.456914564594626E-003;4.195339512079954E-003;
2.425000000000000E+009;1.653899699449539E-001;-9.573984891176224E-002;3.589477390050888E-003;4.210046958178282E-003;
2.425166666666667E+009;1.659135371446610E-001;-9.702654927968979E-002;3.818335942924023E-003;3.848341759294272E-003;
2.425333333333334E+009;1.662819683551788E-001;-9.806454926729202E-002;3.974422346800566E-003;3.618546295911074E-003;
2.425500000000000E+009;1.668239682912827E-001;-9.928039461374283E-002;4.002000670880079E-003;3.321947995573282E-003;
2.425666666666667E+009;1.672018319368362E-001;-9.993471205234528E-002;4.044502042233944E-003;3.087096149101853E-003;
2.425833333333334E+009;1.676530838012695E-001;-1.009300798177719E-001;4.068434238433838E-003;2.865649526938796E-003;
2.426000000000000E+009;1.682884842157364E-001;-1.013690382242203E-001;4.079964011907578E-003;2.555533777922392E-003;
2.426166666666667E+009;1.687252521514893E-001;-1.019468978047371E-001;4.139073193073273E-003;2.409597160294652E-003;
2.426333333333334E+009;1.688808053731918E-001;-1.024223268032074E-001;4.162508994340897E-003;2.142593963071704E-003;
2.426500000000000E+009;1.694040447473526E-001;-1.026986241340637E-001;4.124028608202934E-003;1.856667455285788E-003;
2.426666666666667E+009;1.698351204395294E-001;-1.030129268765450E-001;4.159666597843170E-003;1.749366289004684E-003;
2.426833333333334E+009;1.702300459146500E-001;-1.033250316977501E-001;4.073524381965399E-003;1.603807089850307E-003;
2.427000000000000E+009;1.703141629695892E-001;-1.035561189055443E-001;3.973172046244144E-003;1.283722929656506E-003;
2.427166666666667E+009;1.705008745193481E-001;-1.036453694105148E-001;4.024670459330082E-003;1.195712480694056E-003;
2.427333333333334E+009;1.705263704061508E-001;-1.038186326622963E-001;3.836527001112700E-003;1.041931100189686E-003;
2.427500000000000E+009;1.704004853963852E-001;-1.038525402545929E-001;3.725528018549085E-003;9.465079638175666E-004;
2.427666666666667E+009;1.703471839427948E-001;-1.038955822587013E-001;3.599056275561452E-003;6.754035712219775E-004;
