# Version 1.00
#
freq[Hz];re:Trc1_S11;im:Trc1_S11;re:Trc2_S21;im:Trc2_S21;
2.400000000000000E+009;1.558766216039658E-001;1.090754717588425E-001;4.074781201779842E-003;-1.941993832588196E-003;
2.400166666666667E+009;1.553824543952942E-001;1.067438349127770E-001;4.228780511766672E-003;-1.831750618293881E-003;
2.400333333333334E+009;1.555630415678024E-001;1.043301895260811E-001;4.096580669283867E-003;-2.224304946139455E-003;
2.400500000000000E+009;1.551807969808579E-001;1.017893329262734E-001;4.169824067503214E-003;-2.213899744674563E-003;
2.400666666666667E+009;1.552847921848297E-001;9.936875104904175E-002;4.243554547429085E-003;-2.298346720635891E-003;
2.400833333333334E+009;1.550344228744507E-001;9.638407826423645E-002;4.108140245079994E-003;-2.308321651071310E-003;
2.401000000000000E+009;1.553566157817841E-001;9.348105639219284E-002;4.214760381728411E-003;-2.404137980192900E-003;
2.401166666666667E+009;1.550693958997726E-001;9.063832461833954E-002;4.206455778330565E-003;-2.580356085672975E-003;
2.401333333333334E+009;1.553556919097900E-001;8.776882290840149E-002;4.258845467120409E-003;-2.726683625951409E-003;
2.401500000000000E+009;1.557163745164871E-001;8.492915332317352E-002;4.182297270745039E-003;-2.951177069917321E-003;
2.401666666666667E+009;1.559665799140930E-001;8.203653246164322E-002;4.316460806876421E-003;-2.991402056068182E-003;
2.401833333333334E+009;1.563012450933456E-001;7.924515008926392E-002;4.371715709567070E-003;-3.263403894379735E-003;
2.402000000000000E+009;1.571587026119232E-001;7.639470696449280E-002;4.491417668759823E-003;-3.476586192846298E-003;
2.402166666666667E+009;1.578143984079361E-001;7.359546422958374E-002;4.438969306647778E-003;-3.735065693035722E-003;
2.402333333333334E+009;1.586967557668686E-001;7.102549076080322E-002;4.398822784423828E-003;-3.938323352485895E-003;
2.402500000000000E+009;1.599004566669464E-001;6.828156113624573E-002;4.323954693973064E-003;-4.171978682279587E-003;
2.402666666666667E+009;1.609198749065399E-001;6.597371399402618E-002;4.303506575524807E-003;-4.538035485893488E-003;
2.402833333333334E+009;1.623382121324539E-001;6.321431696414948E-002;4.298492800444365E-003;-4.836361855268478E-003;
2.403000000000000E+009;1.636513620615006E-001;6.088648363947868E-002;3.958488348871470E-003;-5.032365676015616E-003;
2.403166666666667E+009;1.653190553188324E-001;5.837896838784218E-002;3.874595044180751E-003;-5.368987563997507E-003;
2.403333333333334E+009;1.668320000171661E-001;5.615619942545891E-002;3.625033190473914E-003;-5.777279380708933E-003;
2.403500000000000E+009;1.686009764671326E-001;5.396315455436707E-002;3.372613806277514E-003;-6.119505036622286E-003;
2.403666666666667E+009;1.703923344612122E-001;5.196698009967804E-002;3.070608945563436E-003;-6.214715540409088E-003;
2.403833333333334E+009;1.720930188894272E-001;4.992995783686638E-002;2.628667512908578E-003;-6.626594811677933E-003;
2.404000000000000E+009;1.735865920782089E-001;4.820132628083229E-002;2.224109601229429E-003;-6.853083148598671E-003;
2.404166666666667E+009;1.755192279815674E-001;4.658795893192291E-002;1.686758361756802E-003;-7.012356072664261E-003;
2.404333333333334E+009;1.768871247768402E-001;4.476981982588768E-002;1.361389062367380E-003;-6.869313307106495E-003;
2.404500000000000E+009;1.786903738975525E-001;4.338945448398590E-002;1.365503878332675E-003;-7.041337434202433E-003;
2.404666666666667E+009;1.805459707975388E-001;4.207387939095497E-002;6.977605517022312E-004;-6.996368058025837E-003;
2.404833333333334E+009;1.821950227022171E-001;4.091649129986763E-002;2.325446257600561E-004;-6.913896184414625E-003;
2.405000000000000E+009;1.837514340877533E-001;4.006781801581383E-002;-1.341125753242523E-004;-6.597490981221199E-003;
2.405166666666667E+009;1.851436942815781E-001;3.943410888314247E-002;-2.441692340653390E-004;-6.813254673033953E-003;
2.405333333333334E+009;1.867063492536545E-001;3.884257748723030E-002;-7.082424126565456E-004;-6.621653679758310E-003;
2.405500000000000E+009;1.881809085607529E-001;3.834496065974236E-002;-1.124200061894953E-003;-6.647703703492880E-003;
2.405666666666667E+009;1.894322633743286E-001;3.795661404728890E-002;-1.087859622202814E-003;-6.477724760770798E-003;
2.405833333333334E+009;1.908338367938995E-001;3.771314024925232E-002;-1.414396683685482E-003;-6.320602260529995E-003;
2.406000000000000E+009;1.918465793132782E-001;3.758141398429871E-002;-1.783034414984286E-003;-6.187007296830416E-003;
2.406166666666667E+009;1.930248588323593E-001;3.750298917293549E-002;-1.873721601441503E-003;-6.213494110852480E-003;
2.406333333333334E+009;1.940017938613892E-001;3.753888607025147E-002;-2.222933806478977E-003;-5.862084217369556E-003;
2.406500000000000E+009;1.948188245296478E-001;3.770275413990021E-002;-2.390648471191526E-003;-5.877567455172539E-003;
2.406666666666667E+009;1.954351812601090E-001;3.778643533587456E-002;-2.601541113108397E-003;-5.629516672343016E-003;
2.406833333333334E+009;1.960957497358322E-001;3.794883191585541E-002;-2.621825784444809E-003;-5.631957203149796E-003;
2.407000000000000E+009;1.966290473937988E-001;3.822295367717743E-002;-3.060107817873359E-003;-5.369218997657299E-003;
2.407166666666667E+009;1.970315575599670E-001;3.810947760939598E-002;-3.189810086041689E-003;-5.169241689145565E-003;
2.407333333333334E+009;1.969695687294006E-001;3.845860809087753E-002;-3.358780406415463E-003;-4.899669904261828E-003;
2.407500000000000E+009;1.970883309841156E-001;3.870935365557671E-002;-3.608143189921975E-003;-4.877247847616673E-003;
2.407666666666667E+009;1.971744745969772E-001;3.875356167554855E-002;-3.510985290631652E-003;-4.511809907853603E-003;
2.407833333333334E+009;1.967041194438934E-001;3.887714818120003E-002;-3.672556485980749E-003;-4.367274697870016E-003;
2.408000000000000E+009;1.967610716819763E-001;3.884659335017204E-002;-3.859438234940171E-003;-4.210371989756823E-003;
2.408166666666667E+009;1.962381899356842E-001;3.860951587557793E-002;-3.865442238748074E-003;-4.073716700077057E-003;
2.408333333333334E+009;1.958791315555573E-001;3.846428915858269E-002;-4.105569794774056E-003;-3.794178599491715E-003;
2.408500000000000E+009;1.952163279056549E-001;3.820022195577622E-002;-4.059765022248030E-003;-3.550250316038728E-003;
2.408666666666667E+009;1.946387290954590E-001;3.779838234186173E-002;-4.029830452054739E-003;-3.352289088070393E-003;
2.408833333333334E+009;1.940153092145920E-001;3.734570741653442E-002;-4.168534185737371E-003;-3.182244719937444E-003;
2.409000000000000E+009;1.930109113454819E-001;3.652231767773628E-002;-4.114164505153894E-003;-2.891547279432416E-003;
2.409166666666667E+009;1.920621395111084E-001;3.574476018548012E-002;-4.189122002571821E-003;-2.867985516786575E-003;
2.409333333333334E+009;1.911078393459320E-001;3.477010503411293E-002;-4.110270645469427E-003;-2.800348680466414E-003;
2.409500000000000E+009;1.899325549602509E-001;3.379591181874275E-002;-4.070654045790434E-003;-2.785307820886374E-003;
2.409666666666667E+009;1.889428198337555E-001;3.239288926124573E-002;-3.976739943027496E-003;-2.325352979823947E-003;
2.409833333333334E+009;1.877861768007278E-001;3.116310015320778E-002;-4.044690635055304E-003;-2.420113654807210E-003;
2.410000000000000E+009;1.867773085832596E-001;2.972695417702198E-002;-4.100722260773182E-003;-2.235771389678121E-003;
2.410166666666667E+009;1.856360584497452E-001;2.788864634931088E-002;-4.053065087646246E-003;-2.079174155369401E-003;
2.410333333333334E+009;1.847192049026489E-001;2.611346356570721E-002;-4.153784830123186E-003;-2.251571277156472E-003;
2.410500000000000E+009;1.836237907409668E-001;2.436198666691780E-002;-4.111316520720720E-003;-2.032255055382848E-003;
2.410666666666667E+009;1.828070282936096E-001;2.218980900943279E-002;-4.263464361429215E-003;-1.914609340019524E-003;
2.410833333333334E+009;1.819447875022888E-001;1.996644772589207E-002;-4.322760272771120E-003;-1.989071723073721E-003;
2.411000000000000E+009;1.811487674713135E-001;1.800396665930748E-002;-4.222457297146320E-003;-1.646026968955994E-003;
2.411166666666667E+009;1.803823709487915E-001;1.564095355570316E-002;-4.468482453376055E-003;-1.673643826507032E-003;
2.411333333333334E+009;1.798343360424042E-001;1.323009282350540E-002;-4.392004571855068E-003;-1.232947921380401E-003;
2.411500000000000E+009;1.793673634529114E-001;1.082798279821873E-002;-4.342805594205856E-003;-1.236373325809836E-003;
2.411666666666667E+009;1.789708584547043E-001;8.546724915504456E-003;-4.478261806070805E-003;-9.933814872056246E-004;
2.411833333333334E+009;1.787325292825699E-001;6.107705645263195E-003;-4.344937391579151E-003;-1.017810893245041E-003;
2.412000000000000E+009;1.785564720630646E-001;3.513631876558065E-003;-4.438550211489201E-003;-7.780028972774744E-004;
2.412166666666667E+009;1.786926537752152E-001;1.241528661921620E-003;-4.342559725046158E-003;-8.056482183746994E-004;
2.412333333333334E+009;1.787590533494949E-001;-1.496635377407074E-003;-4.321400076150894E-003;-6.771039916202426E-004;
2.412500000000000E+009;1.792707592248917E-001;-3.977641928941011E-003;-4.307078663259745E-003;-3.826064930763096E-004;
2.412666666666667E+009;1.797188073396683E-001;-6.676412187516689E-003;-4.132742527872324E-003;-4.482674412429333E-004;
2.412833333333334E+009;1.803472042083740E-001;-9.050628170371056E-003;-4.186989739537239E-003;-1.843999052653089E-004;
2.413000000000000E+009;1.811475455760956E-001;-1.140192057937384E-002;-4.053402226418257E-003;-2.718780888244510E-004;
2.413166666666667E+009;1.817901134490967E-001;-1.394995674490929E-002;-4.159929696470499E-003;-2.323771332157776E-004;
2.413333333333334E+009;1.828757077455521E-001;-1.636207662522793E-002;-4.105530213564634E-003;-2.268263633595780E-004;
2.413500000000000E+009;1.837535947561264E-001;-1.868517510592938E-002;-4.164458718150854E-003;-2.478826500009745E-004;
2.413666666666667E+009;1.848359704017639E-001;-2.091059461236000E-002;-4.112707916647196E-003;-1.220219128299505E-004;
2.413833333333334E+009;1.860756576061249E-001;-2.298877574503422E-002;-4.323774483054876E-003;-1.868286199169233E-004;
2.414000000000000E+009;1.870341151952744E-001;-2.511940523982048E-002;-4.155980423092842E-003;-2.950902126030996E-005;
2.414166666666667E+009;1.883237808942795E-001;-2.714832872152329E-002;-4.311585798859596E-003;1.724217581795529E-004;
2.414333333333334E+009;1.895214468240738E-001;-2.920199930667877E-002;-4.509144462645054E-003;3.385452437214553E-004;
2.414500000000000E+009;1.906940490007401E-001;-3.085195086896420E-002;-4.277991596609354E-003;5.656483699567616E-004;
2.414666666666667E+009;1.919912248849869E-001;-3.244332596659660E-002;-4.533702973276377E-003;6.204194505698979E-004;
2.414833333333334E+009;1.931960135698319E-001;-3.386107459664345E-002;-4.401295445859432E-003;9.061765158548951E-004;
2.415000000000000E+009;1.944318860769272E-001;-3.510911017656326E-002;-4.493020940572023E-003;9.650246938690543E-004;
2.415166666666667E+009;1.958087384700775E-001;-3.642901033163071E-002;-4.497880116105080E-003;1.152547542005777E-003;
2.415333333333334E+009;1.970406770706177E-001;-3.739376738667488E-002;-4.241846967488527E-003;1.431367010809481E-003;
2.415500000000000E+009;1.980871409177780E-001;-3.813812881708145E-002;-4.281086381524801E-003;1.590686501003802E-003;
2.415666666666667E+009;1.992794126272202E-001;-3.898028656840324E-002;-4.120356403291225E-003;1.691093784756959E-003;
2.415833333333334E+009;2.002643197774887E-001;-3.971551358699799E-002;-3.895495552569628E-003;1.820699311792851E-003;
2.416000000000000E+009;2.011054754257202E-001;-4.022482037544251E-002;-4.028926137834787E-003;1.843386795371771E-003;
2.416166666666667E+009;2.020539492368698E-001;-4.075010493397713E-002;-3.806311171501875E-003;1.942732720635831E-003;
2.416333333333334E+009;2.027204036712647E-001;-4.096653684973717E-002;-3.748318646103144E-003;1.820720150135458E-003;
2.416500000000000E+009;2.033978849649429E-001;-4.159515351057053E-002;-3.755975048989058E-003;2.078852383419871E-003;
2.416666666666667E+009;2.038436383008957E-001;-4.180216789245606E-002;-3.662431146949530E-003;2.087565371766686E-003;
2.416833333333334E+009;2.040360867977142E-001;-4.172834008932114E-002;-3.509904025122523E-003;2.039604121819139E-003;
2.417000000000000E+009;2.043230682611466E-001;-4.189929366111755E-002;-3.452240023761988E-003;2.212184015661478E-003;
2.417166666666667E+009;2.040662765502930E-001;-4.180421307682991E-002;-3.678643610328436E-003;2.319907303899527E-003;
2.417333333333334E+009;2.040428370237351E-001;-4.164073988795281E-002;-3.549910616129637E-003;2.420139033347368E-003;
2.417500000000000E+009;2.038936913013458E-001;-4.167987033724785E-002;-3.602353623136878E-003;2.446642844006419E-003;
2.417666666666667E+009;2.033438682556152E-001;-4.135216027498245E-002;-3.453065175563097E-003;2.544255461543798E-003;
2.417833333333334E+009;2.030480206012726E-001;-4.111035168170929E-002;-3.490569768473506E-003;2.622933126986027E-003;
2.418000000000000E+009;2.024454772472382E-001;-4.078711196780205E-002;-3.556244773790240E-003;2.832888858392835E-003;
2.418166666666667E+009;2.017294317483902E-001;-4.056150093674660E-002;-3.436369122937322E-003;2.840630942955613E-003;
2.418333333333334E+009;2.009122371673584E-001;-4.042473062872887E-002;-3.326224163174629E-003;3.068148856982589E-003;
2.418500000000000E+009;2.000095695257187E-001;-4.027686268091202E-002;-3.332644468173385E-003;3.181893844157457E-003;
2.418666666666667E+009;1.991204917430878E-001;-4.020621255040169E-002;-3.339624498039484E-003;3.236642805859447E-003;
2.418833333333334E+009;1.978745609521866E-001;-4.027168825268745E-002;-3.226062981411815E-003;3.435506718233228E-003;
2.419000000000000E+009;1.965537667274475E-001;-4.033711925148964E-002;-3.167012473568320E-003;3.752211108803749E-003;
2.419166666666667E+009;1.953022032976151E-001;-4.059873893857002E-002;-3.022346878424287E-003;3.765063825994730E-003;
2.419333333333334E+009;1.939304322004318E-001;-4.111123830080032E-002;-2.846104092895985E-003;3.960193600505590E-003;
2.419500000000000E+009;1.923741400241852E-001;-4.137976095080376E-002;-2.738173818215728E-003;4.067919217050076E-003;
2.419666666666667E+009;1.907068043947220E-001;-4.211377352476120E-002;-2.614067867398262E-003;4.148478619754314E-003;
2.419833333333334E+009;1.890426427125931E-001;-4.267971217632294E-002;-2.290921984240413E-003;4.244338255375624E-003;
2.420000000000000E+009;1.874270886182785E-001;-4.353617504239082E-002;-2.170021645724773E-003;4.313940647989512E-003;
2.420166666666667E+009;1.857793182134628E-001;-4.439034312963486E-002;-2.122523961588740E-003;4.424947313964367E-003;
2.420333333333334E+009;1.841208040714264E-001;-4.545336961746216E-002;-1.943105831742287E-003;4.477281589061022E-003;
2.420500000000000E+009;1.823189407587051E-001;-4.678386077284813E-002;-1.692988211289048E-003;4.445981699973345E-003;
2.420666666666667E+009;1.807096749544144E-001;-4.776606708765030E-002;-1.751255826093257E-003;4.418251104652882E-003;
2.420833333333334E+009;1.789613664150238E-001;-4.935131967067719E-002;-1.500670332461596E-003;4.452166147530079E-003;
2.421000000000000E+009;1.774834990501404E-001;-5.077218636870384E-002;-1.610024250112474E-003;4.581807181239128E-003;
2.421166666666667E+009;1.757998317480087E-001;-5.258886143565178E-002;-1.413416001014411E-003;4.550464916974306E-003;
2.421333333333334E+009;1.740451455116272E-001;-5.410755053162575E-002;-1.322495169006288E-003;4.590759519487619E-003;
2.421500000000000E+009;1.726383119821549E-001;-5.608665570616722E-002;-1.305163023062050E-003;4.823310300707817E-003;
2.421666666666667E+009;1.712659597396851E-001;-5.786877498030663E-002;-1.132222823798657E-003;4.797370173037052E-003;
2.421833333333334E+009;1.699821054935455E-001;-5.980976670980454E-002;-1.001377706415951E-003;5.075383931398392E-003;
2.422000000000000E+009;1.686890870332718E-001;-6.154872104525566E-002;-9.090878884308040E-004;5.190093535929918E-003;
2.422166666666667E+009;1.679718196392059E-001;-6.390770524740219E-002;-6.306376308202744E-004;5.318858195096254E-003;
2.422333333333334E+009;1.667050421237946E-001;-6.590227782726288E-002;-4.989220178686082E-004;5.483220797032118E-003;
2.422500000000000E+009;1.660053580999374E-001;-6.791957467794418E-002;-2.609398216009140E-004;5.548757966607809E-003;
2.422666666666667E+009;1.651313900947571E-001;-7.002106308937073E-002;1.072821323759854E-004;5.582113750278950E-003;
2.422833333333334E+009;1.646315455436707E-001;-7.215465605258942E-002;3.597929317038506E-004;5.741783883422613E-003;
2.423000000000000E+009;1.639862805604935E-001;-7.431402057409287E-002;5.664550699293613E-004;5.743694491684437E-003;
2.423166666666667E+009;1.635584086179733E-001;-7.639269530773163E-002;9.062837925739586E-004;5.749533884227276E-003;
2.423333333333334E+009;1.632252633571625E-001;-7.842454314231873E-002;1.340891700237989E-003;5.834986455738545E-003;
2.423500000000000E+009;1.632102131843567E-001;-8.052834123373032E-002;1.615409506484866E-003;5.654174834489822E-003;
2.423666666666667E+009;1.630506217479706E-001;-8.251862972974777E-002;1.943125622346997E-003;5.525016225874424E-003;
2.423833333333334E+009;1.630244255065918E-001;-8.422244340181351E-002;2.197948517277837E-003;5.416184663772583E-003;
2.424000000000000E+009;1.632993370294571E-001;-8.620340377092362E-002;2.528567798435688E-003;5.157946608960629E-003;
2.424166666666667E+009;1.633331477642059E-001;-8.785113692283630E-002;2.791404491290450E-003;5.066629033535719E-003;
2.424333333333334E+009;1.635146588087082E-001;-8.965972065925598E-002;3.042843192815781E-003;4.787026438862085E-003;
2.424500000000000E+009;1.640217453241348E-001;-9.144729375839233E-002;3.215534379705787E-003;4.540854133665562E-003;
2.424666666666667E+009;1.642390042543411E-001;-9.271754324436188E-002;3.554097609594464E-003;4.420123063027859E-003;
2.424833333333334E+009;1.649725288152695E-001;-9.426026791334152E-002;3.517585573717952E-003;4.200093448162079E-003;
2.425000000000000E+009;1.652415245771408E-001;-9.549729526042938E-002;3.789096605032682E-003;3.828227752819657E-003;
2.425166666666667E+009;1.657296419143677E-001;-9.684535861015320E-002;3.965291660279036E-003;3.618694841861725E-003;
2.425333333333334E+009;1.660718023777008E-001;-9.778670966625214E-002;3.954970277845860E-003;3.457077778875828E-003;
2.425500000000000E+009;1.665892004966736E-001;-9.880087524652481E-002;4.145687911659479E-003;3.154296195134521E-003;
2.425666666666667E+009;1.671063452959061E-001;-9.963469207286835E-002;4.151089116930962E-003;2.935906406491995E-003;
2.425833333333334E+009;1.676818430423737E-001;-1.005130335688591E-001;4.181664902716875E-003;2.547131851315498E-003;
2.426000000000000E+009;1.681037843227387E-001;-1.009840369224548E-001;4.149381071329117E-003;2.368023619055748E-003;
2.426166666666667E+009;1.685857325792313E-001;-1.015446260571480E-001;4.259351640939713E-003;2.120028482750058E-003;
2.426333333333334E+009;1.689038127660751E-001;-1.020110771059990E-001;4.239232279360294E-003;1.803107326850295E-003;
2.426500000000000E+009;1.694843173027039E-001;-1.022523939609528E-001;4.050930496305227E-003;1.568295643664897E-003;
2.426666666666667E+009;1.697706431150436E-001;-1.026029735803604E-001;4.099987447261810E-003;1.396063831634820E-003;
2.426833333333334E+009;1.702151298522949E-001;-1.029335409402847E-001;3.987349569797516E-003;1.338491099886596E-003;
2.427000000000000E+009;1.704184114933014E-001;-1.031975671648979E-001;3.812516806647182E-003;1.212797127664089E-003;
2.427166666666667E+009;1.705966442823410E-001;-1.032893285155296E-001;3.862349316477776E-003;8.292003767564893E-004;
2.427333333333334E+009;1.706470996141434E-001;-1.034260541200638E-001;3.786718705669045E-003;7.570633315481246E-004;
2.427500000000000E+009;1.705495566129684E-001;-1.035150066018105E-001;3.705334849655628E-003;5.873501650057733E-004;
2.427666666666667E+009;1.704094558954239E-001;-1.035482957959175E-001;3.636931767687202E-003;4.522038798313588E-004;
