# Version 1.00
#
freq[Hz];re:Trc1_S11;im:Trc1_S11;re:Trc2_S21;im:Trc2_S21;
2.400000000000000E+009;1.556712687015533E-001;1.090046986937523E-001;3.954573534429073E-003;-1.633579144254327E-003;
2.400166666666667E+009;1.552233994007111E-001;1.066335290670395E-001;4.070703871548176E-003;-1.709265052340925E-003;
2.400333333333334E+009;1.551634073257446E-001;1.043622568249703E-001;4.095245618373156E-003;-1.817241776734591E-003;
2.400500000000000E+009;1.550735235214233E-001;1.016563922166824E-001;4.068951588124037E-003;-1.860038028098643E-003;
2.400666666666667E+009;1.551813036203384E-001;9.913405776023865E-002;4.219457041472197E-003;-1.799240941181779E-003;
2.400833333333334E+009;1.549850851297379E-001;9.619175642728806E-002;4.188792314380407E-003;-2.064015483483672E-003;
2.401000000000000E+009;1.551398932933807E-001;9.345632046461105E-002;4.120272584259510E-003;-2.124244347214699E-003;
2.401166666666667E+009;1.549887061119080E-001;9.066765010356903E-002;4.221728537231684E-003;-2.061048755422235E-003;
2.401333333333334E+009;1.552351415157318E-001;8.785194903612137E-002;4.300757776945829E-003;-2.171536209061742E-003;
2.401500000000000E+009;1.556520015001297E-001;8.491757512092590E-002;4.353675059974194E-003;-2.277810126543045E-003;
2.401666666666667E+009;1.559960842132568E-001;8.199729025363922E-002;4.325218033045530E-003;-2.654333133250475E-003;
2.401833333333334E+009;1.562327295541763E-001;7.912933081388474E-002;4.472658503800631E-003;-2.662325976416469E-003;
2.402000000000000E+009;1.572285592556000E-001;7.620353996753693E-002;4.542811773717403E-003;-2.971906680613756E-003;
2.402166666666667E+009;1.578126549720764E-001;7.364496588706970E-002;4.426358733326197E-003;-3.437771461904049E-003;
2.402333333333334E+009;1.588120311498642E-001;7.078287005424500E-002;4.580062348395586E-003;-3.531773341819644E-003;
2.402500000000000E+009;1.598397046327591E-001;6.813094764947891E-002;4.563769791275263E-003;-3.773674368858337E-003;
2.402666666666667E+009;1.609080433845520E-001;6.578874588012695E-002;4.521396476775408E-003;-4.049238748848438E-003;
2.402833333333334E+009;1.622442156076431E-001;6.329921633005142E-002;4.393692594021559E-003;-4.365217406302691E-003;
2.403000000000000E+009;1.634769737720490E-001;6.068315729498863E-002;4.213988315314055E-003;-4.646120127290487E-003;
2.403166666666667E+009;1.654122024774551E-001;5.840408802032471E-002;4.150575492531061E-003;-5.062304902821779E-003;
2.403333333333334E+009;1.668881773948669E-001;5.601557716727257E-002;3.867252264171839E-003;-5.356551147997379E-003;
2.403500000000000E+009;1.684696823358536E-001;5.393941700458527E-002;3.529180306941271E-003;-5.558579228818417E-003;
2.403666666666667E+009;1.703999191522598E-001;5.169442296028137E-002;3.155943937599659E-003;-6.076090503484011E-003;
2.403833333333334E+009;1.719458550214768E-001;4.972162842750549E-002;2.881223801523447E-003;-6.274185143411160E-003;
2.404000000000000E+009;1.737078428268433E-001;4.782448709011078E-002;2.375586191192269E-003;-6.287569645792246E-003;
2.404166666666667E+009;1.754475235939026E-001;4.613121598958969E-002;2.000068780034781E-003;-6.466768216341734E-003;
2.404333333333334E+009;1.771031171083450E-001;4.469152167439461E-002;1.654141931794584E-003;-6.578579545021057E-003;
2.404500000000000E+009;1.787405461072922E-001;4.314419999718666E-002;1.337863272055984E-003;-6.602091249078512E-003;
2.404666666666667E+009;1.805481165647507E-001;4.181394726037979E-002;1.067624776624143E-003;-6.653442978858948E-003;
2.404833333333334E+009;1.822344809770584E-001;4.068162664771080E-002;6.204822566360235E-004;-6.571347359567881E-003;
2.405000000000000E+009;1.835323721170425E-001;3.998272493481636E-002;3.792501811403781E-004;-6.621235981583595E-003;
2.405166666666667E+009;1.851390451192856E-001;3.927063196897507E-002;8.801028161542490E-005;-6.371577735990286E-003;
2.405333333333334E+009;1.866292953491211E-001;3.859441354870796E-002;-2.968714979942888E-004;-6.398306228220463E-003;
2.405500000000000E+009;1.880843043327332E-001;3.805338591337204E-002;-5.664338241331279E-004;-6.255398504436016E-003;
2.405666666666667E+009;1.893157362937927E-001;3.774467855691910E-002;-7.045230013318360E-004;-6.265871692448854E-003;
2.405833333333334E+009;1.907313466072083E-001;3.749186918139458E-002;-9.428862249478698E-004;-6.164754740893841E-003;
2.406000000000000E+009;1.917750984430313E-001;3.730354830622673E-002;-1.184382475912571E-003;-6.122686434537172E-003;
2.406166666666667E+009;1.927213668823242E-001;3.725919872522354E-002;-1.447492628358305E-003;-5.911722779273987E-003;
2.406333333333334E+009;1.938541382551193E-001;3.724098578095436E-002;-1.679160282947123E-003;-5.878371652215719E-003;
2.406500000000000E+009;1.946738064289093E-001;3.733990713953972E-002;-1.839756965637207E-003;-5.618807859718800E-003;
2.406666666666667E+009;1.954258829355240E-001;3.750470653176308E-002;-2.083448925986886E-003;-5.588104948401451E-003;
2.406833333333334E+009;1.960676014423370E-001;3.753869608044624E-002;-2.345624379813671E-003;-5.531781818717718E-003;
2.407000000000000E+009;1.963944137096405E-001;3.796251490712166E-002;-2.339553087949753E-003;-5.491078831255436E-003;
2.407166666666667E+009;1.968982070684433E-001;3.775842115283012E-002;-2.605840796604753E-003;-5.269572138786316E-003;
2.407333333333334E+009;1.969899386167526E-001;3.818036243319511E-002;-2.833542646840215E-003;-5.110795143991709E-003;
2.407500000000000E+009;1.969842314720154E-001;3.841848298907280E-002;-2.891420386731625E-003;-4.976168740540743E-003;
2.407666666666667E+009;1.970361471176148E-001;3.858442232012749E-002;-2.973954658955336E-003;-4.745248705148697E-003;
2.407833333333334E+009;1.966904103755951E-001;3.855890780687332E-002;-3.184430534020066E-003;-4.571268800646067E-003;
2.408000000000000E+009;1.966704130172730E-001;3.835467621684074E-002;-3.419659100472927E-003;-4.408577922731638E-003;
2.408166666666667E+009;1.960512995719910E-001;3.838496282696724E-002;-3.587137907743454E-003;-4.205693490803242E-003;
2.408333333333334E+009;1.956855803728104E-001;3.805130347609520E-002;-3.482768777757883E-003;-3.890644293278456E-003;
2.408500000000000E+009;1.949975043535233E-001;3.802483528852463E-002;-3.572049085050821E-003;-3.853284521028400E-003;
2.408666666666667E+009;1.943987011909485E-001;3.757752478122711E-002;-3.622030606493354E-003;-3.608282655477524E-003;
2.408833333333334E+009;1.937199831008911E-001;3.694187477231026E-002;-3.548103850334883E-003;-3.566340077668428E-003;
2.409000000000000E+009;1.927883327007294E-001;3.614846244454384E-002;-3.741709748283029E-003;-3.249359782785177E-003;
2.409166666666667E+009;1.918645501136780E-001;3.528504818677902E-002;-3.706042421981692E-003;-3.167080227285624E-003;
2.409333333333334E+009;1.908054351806641E-001;3.448749706149101E-002;-3.691676072776318E-003;-2.872154815122485E-003;
2.409500000000000E+009;1.896118819713593E-001;3.345471993088722E-002;-3.818411380052567E-003;-2.833592938259244E-003;
2.409666666666667E+009;1.886690258979797E-001;3.202282264828682E-002;-3.786846995353699E-003;-2.723540877923369E-003;
2.409833333333334E+009;1.875321120023727E-001;3.075366280972958E-002;-3.735108301043510E-003;-2.791733480989933E-003;
2.410000000000000E+009;1.864700317382813E-001;2.922990173101425E-002;-3.709886223077774E-003;-2.714401111006737E-003;
2.410166666666667E+009;1.854358464479446E-001;2.749555930495262E-002;-3.781069070100784E-003;-2.537040039896965E-003;
2.410333333333334E+009;1.843818426132202E-001;2.572814933955669E-002;-3.786408808082342E-003;-2.624664688482881E-003;
2.410500000000000E+009;1.831310689449310E-001;2.394322305917740E-002;-4.027161747217178E-003;-2.469201572239399E-003;
2.410666666666667E+009;1.822239607572556E-001;2.174618281424046E-002;-3.931543789803982E-003;-2.296113409101963E-003;
2.410833333333334E+009;1.814935356378555E-001;1.966865174472332E-002;-4.170267842710018E-003;-2.300309948623180E-003;
2.411000000000000E+009;1.804076880216599E-001;1.752286963164806E-002;-4.128082189708948E-003;-2.141498494893313E-003;
2.411166666666667E+009;1.798434257507324E-001;1.546148676425219E-002;-4.212819505482912E-003;-2.031183801591396E-003;
2.411333333333334E+009;1.789107322692871E-001;1.293933484703302E-002;-4.257383756339550E-003;-1.821647048927844E-003;
2.411500000000000E+009;1.785165965557098E-001;1.070272643119097E-002;-4.214047919958830E-003;-1.599760726094246E-003;
2.411666666666667E+009;1.782418787479401E-001;8.270136080682278E-003;-4.420379176735878E-003;-1.388359116390348E-003;
2.411833333333334E+009;1.780079603195190E-001;6.014944985508919E-003;-4.276004619896412E-003;-1.413644291460514E-003;
2.412000000000000E+009;1.779215186834335E-001;3.325289813801646E-003;-4.315581638365984E-003;-1.258561154827476E-003;
2.412166666666667E+009;1.778917610645294E-001;1.014295034110546E-003;-4.385879728943110E-003;-1.071998733095825E-003;
2.412333333333334E+009;1.781377643346787E-001;-1.498750876635313E-003;-4.193495959043503E-003;-1.122773741371930E-003;
2.412500000000000E+009;1.784573197364807E-001;-4.008228890597820E-003;-4.168912302702665E-003;-9.235834586434066E-004;
2.412666666666667E+009;1.787771135568619E-001;-6.573984865099192E-003;-4.110097885131836E-003;-6.012691301293671E-004;
2.412833333333334E+009;1.795989722013474E-001;-8.905794471502304E-003;-3.981697838753462E-003;-6.476884591393173E-004;
2.413000000000000E+009;1.803291440010071E-001;-1.121529750525951E-002;-4.181472118943930E-003;-7.464041700586677E-004;
2.413166666666667E+009;1.811104565858841E-001;-1.378390006721020E-002;-4.159986507147551E-003;-5.583174061030150E-004;
2.413333333333334E+009;1.820651143789291E-001;-1.605959609150887E-002;-4.001324996352196E-003;-6.052970420569181E-004;
2.413500000000000E+009;1.830500811338425E-001;-1.850074343383312E-002;-4.075215663760901E-003;-6.252267048694193E-004;
2.413666666666667E+009;1.842295080423355E-001;-2.070811577141285E-002;-4.247686360031366E-003;-4.178530361969024E-004;
2.413833333333334E+009;1.852581053972244E-001;-2.274444140493870E-002;-4.320832900702953E-003;-5.527352914214134E-004;
2.414000000000000E+009;1.862994879484177E-001;-2.482590451836586E-002;-4.367309156805277E-003;-4.252743383403868E-004;
2.414166666666667E+009;1.877947300672531E-001;-2.673174254596233E-002;-4.477498121559620E-003;-2.374351461185142E-004;
2.414333333333334E+009;1.887674182653427E-001;-2.883703634142876E-002;-4.692154936492443E-003;-2.257162486785092E-005;
2.414500000000000E+009;1.902151554822922E-001;-3.040938079357147E-002;-4.653860349208117E-003;1.295321999350563E-004;
2.414666666666667E+009;1.914275586605072E-001;-3.187707439064980E-002;-4.520829301327467E-003;4.944974789395928E-004;
2.414833333333334E+009;1.927300989627838E-001;-3.333872184157372E-002;-4.598722327500582E-003;4.933443851768971E-004;
2.415000000000000E+009;1.939114034175873E-001;-3.479728475213051E-002;-4.520282614976168E-003;6.354931974783540E-004;
2.415166666666667E+009;1.952264010906220E-001;-3.595074266195297E-002;-4.385908599942923E-003;9.649507701396942E-004;
2.415333333333334E+009;1.965149044990540E-001;-3.696579486131668E-002;-4.470305051654577E-003;1.135019236244261E-003;
2.415500000000000E+009;1.978224962949753E-001;-3.774595260620117E-002;-4.367708694189787E-003;1.123753958381712E-003;
2.415666666666667E+009;1.988649517297745E-001;-3.852298110723496E-002;-4.234862048178911E-003;1.332037267275155E-003;
2.415833333333334E+009;1.999152749776840E-001;-3.923843428492546E-002;-4.234954714775085E-003;1.521637896075845E-003;
2.416000000000000E+009;2.007665187120438E-001;-3.996002674102783E-002;-4.106028936803341E-003;1.407802454195917E-003;
2.416166666666667E+009;2.016492336988449E-001;-4.056967794895172E-002;-4.192426335066557E-003;1.560220727697015E-003;
2.416333333333334E+009;2.023966610431671E-001;-4.072935134172440E-002;-4.052151460200548E-003;1.499561127275229E-003;
2.416500000000000E+009;2.031162977218628E-001;-4.111288115382195E-002;-3.892333945259452E-003;1.792915747500956E-003;
2.416666666666667E+009;2.034575641155243E-001;-4.141004011034966E-002;-4.023077432066202E-003;1.766669214703143E-003;
2.416833333333334E+009;2.037524431943893E-001;-4.139305278658867E-002;-3.912454470992088E-003;1.804984989576042E-003;
2.417000000000000E+009;2.039395719766617E-001;-4.159101843833923E-002;-3.852802794426680E-003;1.904750592075288E-003;
2.417166666666667E+009;2.038311660289764E-001;-4.137622565031052E-002;-3.883078228682280E-003;2.023103879764676E-003;
2.417333333333334E+009;2.037221491336823E-001;-4.112155735492706E-002;-3.922333009541035E-003;2.175312954932451E-003;
2.417500000000000E+009;2.035830467939377E-001;-4.123044759035111E-002;-3.912951797246933E-003;2.385919215157628E-003;
2.417666666666667E+009;2.030842304229736E-001;-4.090233519673348E-002;-3.833828959614039E-003;2.260835608467460E-003;
2.417833333333334E+009;2.026909142732620E-001;-4.067805036902428E-002;-3.729269606992602E-003;2.418645191937685E-003;
2.418000000000000E+009;2.021307498216629E-001;-4.031196236610413E-002;-3.786941990256310E-003;2.633655909448862E-003;
2.418166666666667E+009;2.014415264129639E-001;-4.014518484473229E-002;-3.823957871645689E-003;2.683205995708704E-003;
2.418333333333334E+009;2.007132023572922E-001;-3.989093005657196E-002;-3.813620889559388E-003;2.876815618947148E-003;
2.418500000000000E+009;1.997561156749725E-001;-3.991390392184258E-002;-3.797614481300116E-003;2.956108190119267E-003;
2.418666666666667E+009;1.988832652568817E-001;-3.970246016979218E-002;-3.555329749360681E-003;3.199236933141947E-003;
2.418833333333334E+009;1.976825594902039E-001;-3.973786532878876E-002;-3.622443880885840E-003;3.370891325175762E-003;
2.419000000000000E+009;1.962711364030838E-001;-3.992260619997978E-002;-3.420211840420961E-003;3.538128687068820E-003;
2.419166666666667E+009;1.950153857469559E-001;-4.008089378476143E-002;-3.437550971284509E-003;3.612292464822531E-003;
2.419333333333334E+009;1.936914026737213E-001;-4.052729532122612E-002;-3.277233103290200E-003;3.850485663861036E-003;
2.419500000000000E+009;1.921019107103348E-001;-4.085125774145126E-002;-3.074088133871555E-003;3.982304129749537E-003;
2.419666666666667E+009;1.906036436557770E-001;-4.148835688829422E-002;-2.857046434655786E-003;3.988492768257856E-003;
2.419833333333334E+009;1.890315264463425E-001;-4.204060137271881E-002;-2.715388778597117E-003;4.126214887946844E-003;
2.420000000000000E+009;1.874113231897354E-001;-4.306225478649139E-002;-2.574905287474394E-003;4.310118500143290E-003;
2.420166666666667E+009;1.855466514825821E-001;-4.385711252689362E-002;-2.422701800242066E-003;4.390829708427191E-003;
2.420333333333334E+009;1.839822530746460E-001;-4.502473399043083E-002;-2.265645656734705E-003;4.355967510491610E-003;
2.420500000000000E+009;1.820994019508362E-001;-4.617575556039810E-002;-2.150104613974690E-003;4.475852474570274E-003;
2.420666666666667E+009;1.805341988801956E-001;-4.727774485945702E-002;-1.985544338822365E-003;4.547545686364174E-003;
2.420833333333334E+009;1.789654493331909E-001;-4.868715256452560E-002;-1.952329766936600E-003;4.537194967269898E-003;
2.421000000000000E+009;1.772296428680420E-001;-5.023957788944244E-002;-2.090398222208023E-003;4.610585048794746E-003;
2.421166666666667E+009;1.756675243377686E-001;-5.208318680524826E-002;-1.854938804171979E-003;4.713159054517746E-003;
2.421333333333334E+009;1.740211695432663E-001;-5.351402238011360E-002;-1.890104147605598E-003;4.765679594129324E-003;
2.421500000000000E+009;1.726812869310379E-001;-5.537350848317146E-002;-1.536335679702461E-003;4.783595446497202E-003;
2.421666666666667E+009;1.713133007287979E-001;-5.735913291573525E-002;-1.615688088349998E-003;4.989692475646734E-003;
2.421833333333334E+009;1.701090931892395E-001;-5.925003439188004E-002;-1.471049152314663E-003;5.160367116332054E-003;
2.422000000000000E+009;1.688982397317886E-001;-6.115652248263359E-002;-1.164908637292683E-003;5.314329173415899E-003;
2.422166666666667E+009;1.680422574281693E-001;-6.318466365337372E-002;-1.139519969001412E-003;5.504469387233257E-003;
2.422333333333334E+009;1.669153720140457E-001;-6.538393348455429E-002;-7.738035637885332E-004;5.491652991622686E-003;
2.422500000000000E+009;1.660764217376709E-001;-6.745818257331848E-002;-6.934314151294529E-004;5.811585579067469E-003;
2.422666666666667E+009;1.652156114578247E-001;-6.962823122739792E-002;-3.235887270420790E-004;5.886158905923367E-003;
2.422833333333334E+009;1.648303568363190E-001;-7.172842323780060E-002;-6.160859811643604E-006;5.896908231079578E-003;
2.423000000000000E+009;1.642089188098908E-001;-7.382064312696457E-002;2.382887178100646E-004;6.010184064507484E-003;
2.423166666666667E+009;1.636476665735245E-001;-7.595239579677582E-002;5.916477530263364E-004;6.140601821243763E-003;
2.423333333333334E+009;1.635034680366516E-001;-7.805251330137253E-002;9.502261527813971E-004;6.018104963004589E-003;
2.423500000000000E+009;1.634129881858826E-001;-7.993350178003311E-002;1.374119892716408E-003;5.980120971798897E-003;
2.423666666666667E+009;1.634394824504852E-001;-8.204934000968933E-002;1.679990440607071E-003;5.866627208888531E-003;
2.423833333333334E+009;1.633945107460022E-001;-8.375854790210724E-002;2.016673795878887E-003;5.807380191981792E-003;
2.424000000000000E+009;1.635783761739731E-001;-8.573230355978012E-002;2.289586467668414E-003;5.567566491663456E-003;
2.424166666666667E+009;1.636062860488892E-001;-8.759022504091263E-002;2.617200370877981E-003;5.388100165873766E-003;
2.424333333333334E+009;1.637260168790817E-001;-8.922433853149414E-002;2.798572648316622E-003;5.012156907469034E-003;
2.424500000000000E+009;1.642912626266480E-001;-9.112089127302170E-002;3.229692112654448E-003;4.975605756044388E-003;
2.424666666666667E+009;1.645779460668564E-001;-9.256799519062042E-002;3.247930435463786E-003;4.772351123392582E-003;
2.424833333333334E+009;1.652119010686874E-001;-9.398335963487625E-002;3.397402586415410E-003;4.592545330524445E-003;
2.425000000000000E+009;1.655767560005188E-001;-9.527356177568436E-002;3.581299213692546E-003;4.337402060627937E-003;
2.425166666666667E+009;1.659994125366211E-001;-9.642876684665680E-002;3.687230870127678E-003;3.958623390644789E-003;
2.425333333333334E+009;1.663812696933746E-001;-9.760642051696777E-002;3.814508905634284E-003;3.779433201998472E-003;
2.425500000000000E+009;1.669710427522659E-001;-9.866622835397720E-002;4.045547917485237E-003;3.558782627806068E-003;
2.425666666666667E+009;1.674753278493881E-001;-9.940769523382187E-002;4.058375488966703E-003;3.341564675793052E-003;
2.425833333333334E+009;1.679031252861023E-001;-1.003411859273911E-001;4.121923819184303E-003;2.966925036162138E-003;
2.426000000000000E+009;1.683421880006790E-001;-1.008172482252121E-001;4.169241059571505E-003;2.618063008412719E-003;
2.426166666666667E+009;1.688710898160934E-001;-1.013838425278664E-001;4.134692251682282E-003;2.608461771160364E-003;
2.426333333333334E+009;1.691687703132629E-001;-1.019075885415077E-001;4.329128190875053E-003;2.447136444970965E-003;
2.426500000000000E+009;1.696727275848389E-001;-1.022800654172897E-001;4.230449441820383E-003;2.207820769399405E-003;
2.426666666666667E+009;1.699667274951935E-001;-1.024973690509796E-001;4.136624746024609E-003;1.923043746501207E-003;
2.426833333333334E+009;1.703352332115173E-001;-1.028170138597488E-001;3.987947013229132E-003;1.758421072736383E-003;
2.427000000000000E+009;1.705361902713776E-001;-1.029566302895546E-001;4.110083449631929E-003;1.545501407235861E-003;
2.427166666666667E+009;1.706525236368179E-001;-1.030522510409355E-001;3.935175482183695E-003;1.396576873958111E-003;
2.427333333333334E+009;1.708026081323624E-001;-1.033999919891357E-001;3.979720640927553E-003;1.099587418138981E-003;
2.427500000000000E+009;1.706900894641876E-001;-1.034058779478073E-001;3.810227382928133E-003;8.947505266405642E-004;
2.427666666666667E+009;1.705244481563568E-001;-1.034442856907845E-001;3.894843859598041E-003;7.739807479083538E-004;
