# Version 1.00
#
freq[Hz];re:Trc1_S11;im:Trc1_S11;re:Trc2_S21;im:Trc2_S21;
2.400000000000000E+009;1.558945327997208E-001;1.097118780016899E-001;4.207642283290625E-003;-1.642220304347575E-003;
2.400166666666667E+009;1.554397344589233E-001;1.073745787143707E-001;4.051747731864452E-003;-1.779167563654482E-003;
2.400333333333334E+009;1.555284857749939E-001;1.049038991332054E-001;4.041652195155621E-003;-2.023708308115602E-003;
2.400500000000000E+009;1.554290503263474E-001;1.023579388856888E-001;4.182670731097460E-003;-1.804433763027191E-003;
2.400666666666667E+009;1.553597003221512E-001;9.981697052717209E-002;4.266948439180851E-003;-1.958267763257027E-003;
2.400833333333334E+009;1.553630530834198E-001;9.682250022888184E-002;4.170765168964863E-003;-2.126571256667376E-003;
2.401000000000000E+009;1.552999913692474E-001;9.388145059347153E-002;4.232639446854591E-003;-2.178700407966971E-003;
2.401166666666667E+009;1.553883403539658E-001;9.136532247066498E-002;4.354621749371290E-003;-2.279282780364156E-003;
2.401333333333334E+009;1.554364264011383E-001;8.836260437965393E-002;4.447224084287882E-003;-2.264083595946431E-003;
2.401500000000000E+009;1.560694426298142E-001;8.547174185514450E-002;4.440012853592634E-003;-2.522147027775645E-003;
2.401666666666667E+009;1.561625152826309E-001;8.238192647695541E-002;4.340378101915121E-003;-2.745404606685042E-003;
2.401833333333334E+009;1.567164361476898E-001;7.982140034437180E-002;4.524474497884512E-003;-2.918199636042118E-003;
2.402000000000000E+009;1.575150340795517E-001;7.690583169460297E-002;4.317964892834425E-003;-3.198349848389626E-003;
2.402166666666667E+009;1.581347137689591E-001;7.409469783306122E-002;4.477505106478930E-003;-3.384724957868457E-003;
2.402333333333334E+009;1.590473800897598E-001;7.123837620019913E-002;4.503009840846062E-003;-3.703548340126872E-003;
2.402500000000000E+009;1.601799726486206E-001;6.876523047685623E-002;4.554034210741520E-003;-4.032937344163656E-003;
2.402666666666667E+009;1.612612605094910E-001;6.624575704336166E-002;4.555586725473404E-003;-4.309125244617462E-003;
2.402833333333334E+009;1.626029759645462E-001;6.358094513416290E-002;4.244578536599875E-003;-4.580572247505188E-003;
2.403000000000000E+009;1.639118641614914E-001;6.133916974067688E-002;4.175341222435236E-003;-5.010567605495453E-003;
2.403166666666667E+009;1.657661497592926E-001;5.876430496573448E-002;3.936402965337038E-003;-5.102179944515228E-003;
2.403333333333334E+009;1.670800596475601E-001;5.659426748752594E-002;3.764785127714276E-003;-5.550280679017305E-003;
2.403500000000000E+009;1.690845936536789E-001;5.431610718369484E-002;3.470290219411254E-003;-5.816857330501080E-003;
2.403666666666667E+009;1.707091480493546E-001;5.220792815089226E-002;3.168663010001183E-003;-6.231053732335568E-003;
2.403833333333334E+009;1.724760979413986E-001;5.031941086053848E-002;2.755069639533758E-003;-6.360710132867098E-003;
2.404000000000000E+009;1.739960014820099E-001;4.814634844660759E-002;2.416728297248483E-003;-6.497603841125965E-003;
2.404166666666667E+009;1.759053170681000E-001;4.656057432293892E-002;2.097866265103221E-003;-6.548135541379452E-003;
2.404333333333334E+009;1.775398403406143E-001;4.500514268875122E-002;1.547268475405872E-003;-6.682838313281536E-003;
2.404500000000000E+009;1.792499870061874E-001;4.358729347586632E-002;1.146229682490230E-003;-6.694660056382418E-003;
2.404666666666667E+009;1.808762252330780E-001;4.225118830800057E-002;7.385008502751589E-004;-6.729339249432087E-003;
2.404833333333334E+009;1.826974302530289E-001;4.095788672566414E-002;4.500773793552071E-004;-6.697639357298613E-003;
2.405000000000000E+009;1.841222643852234E-001;4.019515961408615E-002;6.730306631652638E-005;-6.512425839900971E-003;
2.405166666666667E+009;1.855721473693848E-001;3.941842168569565E-002;-1.651983329793438E-004;-6.578952539712191E-003;
2.405333333333334E+009;1.871344149112701E-001;3.879077732563019E-002;-5.106543540023267E-004;-6.569628603756428E-003;
2.405500000000000E+009;1.886040121316910E-001;3.829513490200043E-002;-6.336434162221849E-004;-6.332176271826029E-003;
2.405666666666667E+009;1.899234056472778E-001;3.791056200861931E-002;-9.358592797070742E-004;-6.178756244480610E-003;
2.405833333333334E+009;1.913019567728043E-001;3.770682960748673E-002;-1.132894656620920E-003;-6.078714039176703E-003;
2.406000000000000E+009;1.921905279159546E-001;3.739231824874878E-002;-1.424460089765489E-003;-6.095002871006727E-003;
2.406166666666667E+009;1.934409141540527E-001;3.729398176074028E-002;-1.558544696308672E-003;-6.019818130880594E-003;
2.406333333333334E+009;1.944394558668137E-001;3.745348006486893E-002;-1.792660681530833E-003;-5.798647645860910E-003;
2.406500000000000E+009;1.952281743288040E-001;3.740862756967545E-002;-2.098828554153442E-003;-5.721579305827618E-003;
2.406666666666667E+009;1.959075033664703E-001;3.751268610358238E-002;-2.182124648243189E-003;-5.602099467068911E-003;
2.406833333333334E+009;1.965271234512329E-001;3.771355748176575E-002;-2.314829500392079E-003;-5.447959993034601E-003;
2.407000000000000E+009;1.968770474195480E-001;3.807551041245461E-002;-2.759327413514257E-003;-5.221011582762003E-003;
2.407166666666667E+009;1.973990947008133E-001;3.785045817494392E-002;-2.688463777303696E-003;-5.265652667731047E-003;
2.407333333333334E+009;1.973954290151596E-001;3.825371712446213E-002;-3.064099000766873E-003;-5.041113588958979E-003;
2.407500000000000E+009;1.973084062337875E-001;3.827598690986633E-002;-3.218223107978702E-003;-4.925172775983810E-003;
2.407666666666667E+009;1.975230276584625E-001;3.842934966087341E-002;-3.291031112894416E-003;-4.620823077857494E-003;
2.407833333333334E+009;1.971462517976761E-001;3.846583142876625E-002;-3.262855112552643E-003;-4.498484078794718E-003;
2.408000000000000E+009;1.970159709453583E-001;3.848736733198166E-002;-3.477726597338915E-003;-4.285076167434454E-003;
2.408166666666667E+009;1.964794248342514E-001;3.824936598539352E-002;-3.574621398001909E-003;-4.095177166163921E-003;
2.408333333333334E+009;1.961167752742767E-001;3.798413276672363E-002;-3.626859281212091E-003;-3.897551447153091E-003;
2.408500000000000E+009;1.953698247671127E-001;3.772288188338280E-002;-3.743120003491640E-003;-3.632371313869953E-003;
2.408666666666667E+009;1.949029117822647E-001;3.741334378719330E-002;-3.800039412453771E-003;-3.405440598726273E-003;
2.408833333333334E+009;1.940406113862991E-001;3.685006499290466E-002;-3.847467713057995E-003;-3.257953794673085E-003;
2.409000000000000E+009;1.931657344102860E-001;3.601165860891342E-002;-3.812358714640141E-003;-3.246104810386896E-003;
2.409166666666667E+009;1.921344995498657E-001;3.519832715392113E-002;-3.756099147722125E-003;-3.075199201703072E-003;
2.409333333333334E+009;1.911126822233200E-001;3.448817506432533E-002;-3.643969306722283E-003;-2.923011081293225E-003;
2.409500000000000E+009;1.899801194667816E-001;3.333169221878052E-002;-3.756496822461486E-003;-2.748085185885429E-003;
2.409666666666667E+009;1.888979375362396E-001;3.202708438038826E-002;-3.547401633113623E-003;-2.686011139303446E-003;
2.409833333333334E+009;1.878458559513092E-001;3.072419762611389E-002;-3.607918508350849E-003;-2.733609173446894E-003;
2.410000000000000E+009;1.868422925472260E-001;2.924484014511108E-002;-3.721908899024129E-003;-2.592481905594468E-003;
2.410166666666667E+009;1.856601387262344E-001;2.750298753380776E-002;-3.724253037944436E-003;-2.457793336361647E-003;
2.410333333333334E+009;1.845056712627411E-001;2.586530521512032E-002;-3.878006245940924E-003;-2.461042953655124E-003;
2.410500000000000E+009;1.834388971328735E-001;2.402441203594208E-002;-3.965638112276793E-003;-2.452680841088295E-003;
2.410666666666667E+009;1.824993938207626E-001;2.180423773825169E-002;-3.887381404638290E-003;-2.289611613377929E-003;
2.410833333333334E+009;1.817939877510071E-001;1.982614211738110E-002;-4.186982754617930E-003;-2.151684369891882E-003;
2.411000000000000E+009;1.809161007404327E-001;1.756628975272179E-002;-4.111931659281254E-003;-1.960288034752011E-003;
2.411166666666667E+009;1.800287812948227E-001;1.555310469120741E-002;-4.159408621490002E-003;-1.941499416716397E-003;
2.411333333333334E+009;1.795468032360077E-001;1.289599854499102E-002;-4.168869461864233E-003;-1.714082667604089E-003;
2.411500000000000E+009;1.789861172437668E-001;1.064667198807001E-002;-4.307844676077366E-003;-1.466135843656957E-003;
2.411666666666667E+009;1.787434220314026E-001;8.352513425052166E-003;-4.238514229655266E-003;-1.379984081722796E-003;
2.411833333333334E+009;1.784320324659348E-001;6.068070884793997E-003;-4.172744229435921E-003;-1.250767847523093E-003;
2.412000000000000E+009;1.784838736057282E-001;3.351990366354585E-003;-4.206021316349506E-003;-1.208437141031027E-003;
2.412166666666667E+009;1.785134077072144E-001;9.997456800192595E-004;-4.156527109444141E-003;-1.000321586616337E-003;
2.412333333333334E+009;1.783836483955383E-001;-1.635842490941286E-003;-4.067410714924336E-003;-7.592109031975269E-004;
2.412500000000000E+009;1.788602322340012E-001;-4.006957169622183E-003;-3.994120750576258E-003;-8.737205062061548E-004;
2.412666666666667E+009;1.794532537460327E-001;-6.564694922417402E-003;-4.087117500603199E-003;-7.733190432190895E-004;
2.412833333333334E+009;1.800572276115418E-001;-8.837508037686348E-003;-4.038558807224035E-003;-6.861906731501222E-004;
2.413000000000000E+009;1.807384788990021E-001;-1.149490661919117E-002;-3.880918025970459E-003;-7.408793899230659E-004;
2.413166666666667E+009;1.815445125102997E-001;-1.380992121994495E-002;-4.051845520734787E-003;-7.073190645314753E-004;
2.413333333333334E+009;1.825697720050812E-001;-1.625360175967217E-002;-3.932626917958260E-003;-6.147510139271617E-004;
2.413500000000000E+009;1.833799332380295E-001;-1.853470876812935E-002;-4.043220076709986E-003;-5.621557938866317E-004;
2.413666666666667E+009;1.845796853303909E-001;-2.065230160951614E-002;-4.205098841339350E-003;-5.717762396670878E-004;
2.413833333333334E+009;1.857139766216278E-001;-2.296161465346813E-002;-4.247112199664116E-003;-5.800120998173952E-004;
2.414000000000000E+009;1.867672353982925E-001;-2.493077702820301E-002;-4.261256195604801E-003;-3.880069416482002E-004;
2.414166666666667E+009;1.881072670221329E-001;-2.676950953900814E-002;-4.458507522940636E-003;-4.345630586612970E-004;
2.414333333333334E+009;1.891615241765976E-001;-2.891042456030846E-002;-4.541976843029261E-003;-3.022370219696313E-004;
2.414500000000000E+009;1.906052529811859E-001;-3.054975531995297E-002;-4.543176852166653E-003;-2.921435225289315E-006;
2.414666666666667E+009;1.917570531368256E-001;-3.199703991413117E-002;-4.513306543231010E-003;1.671653153607622E-004;
2.414833333333334E+009;1.930497139692307E-001;-3.359508886933327E-002;-4.614460282027721E-003;4.604773712344468E-004;
2.415000000000000E+009;1.943311095237732E-001;-3.484079241752625E-002;-4.572432488203049E-003;7.765993359498680E-004;
2.415166666666667E+009;1.956093311309815E-001;-3.619520738720894E-002;-4.541710950434208E-003;9.293066686950624E-004;
2.415333333333334E+009;1.968870311975479E-001;-3.721250966191292E-002;-4.292098339647055E-003;9.853906231001020E-004;
2.415500000000000E+009;1.981715410947800E-001;-3.798338025808334E-002;-4.345738328993321E-003;1.201162114739418E-003;
2.415666666666667E+009;1.992105543613434E-001;-3.886261954903603E-002;-4.307937342673540E-003;1.347670448012650E-003;
2.415833333333334E+009;2.002367526292801E-001;-3.946493193507195E-002;-4.219301510602236E-003;1.369229634292424E-003;
2.416000000000000E+009;2.011463642120361E-001;-4.007469862699509E-002;-4.023930057883263E-003;1.561712706461549E-003;
2.416166666666667E+009;2.020554840564728E-001;-4.072025418281555E-002;-4.137509036809206E-003;1.502736238762736E-003;
2.416333333333334E+009;2.028186917304993E-001;-4.101545736193657E-002;-4.093558061867952E-003;1.661101938225329E-003;
2.416500000000000E+009;2.033473849296570E-001;-4.127934202551842E-002;-3.888855455443263E-003;1.645012525841594E-003;
2.416666666666667E+009;2.037609666585922E-001;-4.162862896919251E-002;-3.916316200047731E-003;1.919625326991081E-003;
2.416833333333334E+009;2.040880173444748E-001;-4.172682389616966E-002;-3.962219227105379E-003;1.770895323716104E-003;
2.417000000000000E+009;2.043389230966568E-001;-4.178099706768990E-002;-3.939683083444834E-003;1.945202704519033E-003;
2.417166666666667E+009;2.041798084974289E-001;-4.165153205394745E-002;-3.782854182645679E-003;1.889641047455370E-003;
2.417333333333334E+009;2.041276544332504E-001;-4.146188497543335E-002;-3.805257845669985E-003;1.990978838875890E-003;
2.417500000000000E+009;2.040621489286423E-001;-4.140781983733177E-002;-3.862357931211591E-003;2.164687495678663E-003;
2.417666666666667E+009;2.035245597362518E-001;-4.121331125497818E-002;-3.826071042567492E-003;2.160610165446997E-003;
2.417833333333334E+009;2.031365185976028E-001;-4.088623821735382E-002;-3.796864300966263E-003;2.544415183365345E-003;
2.418000000000000E+009;2.025727778673172E-001;-4.055907577276230E-002;-3.821707097813487E-003;2.641785191372037E-003;
2.418166666666667E+009;2.019221037626267E-001;-4.046531394124031E-002;-3.746186150237918E-003;2.654728014022112E-003;
2.418333333333334E+009;2.010310143232346E-001;-4.032125696539879E-002;-3.750096075236797E-003;2.844716189429164E-003;
2.418500000000000E+009;2.000327259302139E-001;-4.023824259638786E-002;-3.855450311675668E-003;3.039195435121656E-003;
2.418666666666667E+009;1.991345435380936E-001;-3.998419642448425E-002;-3.678164212033153E-003;3.187903901562095E-003;
2.418833333333334E+009;1.979627609252930E-001;-4.007065296173096E-002;-3.666061908006668E-003;3.168240422382951E-003;
2.419000000000000E+009;1.967086642980576E-001;-4.029026627540588E-002;-3.554526716470718E-003;3.661843948066235E-003;
2.419166666666667E+009;1.953795552253723E-001;-4.046508669853210E-002;-3.339289687573910E-003;3.648845711722970E-003;
2.419333333333334E+009;1.940231174230576E-001;-4.087980464100838E-002;-3.321971744298935E-003;3.854278940707445E-003;
2.419500000000000E+009;1.925357580184937E-001;-4.123832285404205E-002;-3.108312375843525E-003;4.040152300149202E-003;
2.419666666666667E+009;1.908632814884186E-001;-4.186049848794937E-002;-3.042567055672407E-003;4.285326227545738E-003;
2.419833333333334E+009;1.893603354692459E-001;-4.263941198587418E-002;-2.798677654936910E-003;4.255122970789671E-003;
2.420000000000000E+009;1.877150088548660E-001;-4.342185333371162E-002;-2.614952623844147E-003;4.153020679950714E-003;
2.420166666666667E+009;1.860207617282867E-001;-4.421378672122955E-002;-2.473337808623910E-003;4.371887538582087E-003;
2.420333333333334E+009;1.842915415763855E-001;-4.542325437068939E-002;-2.343286992982030E-003;4.406032618135214E-003;
2.420500000000000E+009;1.824651807546616E-001;-4.670656844973564E-002;-2.208627061918378E-003;4.434235859662294E-003;
2.420666666666667E+009;1.809020042419434E-001;-4.780906066298485E-002;-2.121109515428543E-003;4.291773308068514E-003;
2.420833333333334E+009;1.790513992309570E-001;-4.926670715212822E-002;-2.082078484818339E-003;4.385107662528753E-003;
2.421000000000000E+009;1.776679754257202E-001;-5.080061778426170E-002;-1.923577743582428E-003;4.422334488481283E-003;
2.421166666666667E+009;1.760754287242889E-001;-5.246577411890030E-002;-1.799929887056351E-003;4.660442937165499E-003;
2.421333333333334E+009;1.743257641792297E-001;-5.406387150287628E-002;-1.862998702563345E-003;4.709768109023571E-003;
2.421500000000000E+009;1.728162616491318E-001;-5.594957992434502E-002;-1.783725339919329E-003;4.829992540180683E-003;
2.421666666666667E+009;1.714951097965241E-001;-5.773826315999031E-002;-1.864396850578487E-003;5.012749228626490E-003;
2.421833333333334E+009;1.703055351972580E-001;-5.984640866518021E-002;-1.470756484195590E-003;5.069548729807138E-003;
2.422000000000000E+009;1.689419746398926E-001;-6.175019592046738E-002;-1.388524426147342E-003;5.127837881445885E-003;
2.422166666666667E+009;1.681864857673645E-001;-6.382183730602264E-002;-1.131768221966922E-003;5.453848280012608E-003;
2.422333333333334E+009;1.669076085090637E-001;-6.597288697957993E-002;-1.063195522874594E-003;5.548028741031885E-003;
2.422500000000000E+009;1.662660986185074E-001;-6.783221662044525E-002;-7.700149435549974E-004;5.802260246127844E-003;
2.422666666666667E+009;1.653215140104294E-001;-7.017645239830017E-002;-4.720539145637304E-004;5.972507875412703E-003;
2.422833333333334E+009;1.647312045097351E-001;-7.235531508922577E-002;-1.287734194193035E-004;5.990313366055489E-003;
2.423000000000000E+009;1.641875207424164E-001;-7.445666939020157E-002;1.091491358238272E-004;6.117565557360649E-003;
2.423166666666667E+009;1.639171540737152E-001;-7.640893757343292E-002;5.965330055914819E-004;6.086380686610937E-003;
2.423333333333334E+009;1.636351495981216E-001;-7.864003628492355E-002;9.294078918173909E-004;5.978982895612717E-003;
2.423500000000000E+009;1.632920652627945E-001;-8.054953068494797E-002;1.128633739426732E-003;5.930457264184952E-003;
2.423666666666667E+009;1.634729504585266E-001;-8.246289193630219E-002;1.561471028253436E-003;5.836100783199072E-003;
2.423833333333334E+009;1.633921861648560E-001;-8.449875563383102E-002;1.873781322501600E-003;5.796594545245171E-003;
2.424000000000000E+009;1.634407788515091E-001;-8.646551519632340E-002;2.095363801345229E-003;5.610953550785780E-003;
2.424166666666667E+009;1.636209040880203E-001;-8.818584680557251E-002;2.320086350664496E-003;5.389243829995394E-003;
2.424333333333334E+009;1.638486236333847E-001;-8.981383591890335E-002;2.636919496580958E-003;5.216645076870918E-003;
2.424500000000000E+009;1.640790849924088E-001;-9.162875264883041E-002;2.981844125315547E-003;5.129978526383638E-003;
2.424666666666667E+009;1.643359661102295E-001;-9.310180693864822E-002;3.023079363629222E-003;4.767310339957476E-003;
2.424833333333334E+009;1.650997549295425E-001;-9.448532015085220E-002;3.409828757867217E-003;4.396390635520220E-003;
2.425000000000000E+009;1.653817445039749E-001;-9.587035328149796E-002;3.565909340977669E-003;4.366788081824780E-003;
2.425166666666667E+009;1.658916920423508E-001;-9.697721898555756E-002;3.653415478765965E-003;4.095311276614666E-003;
2.425333333333334E+009;1.662700623273850E-001;-9.806504845619202E-002;3.709630342200398E-003;3.798786085098982E-003;
2.425500000000000E+009;1.667948216199875E-001;-9.927476197481155E-002;3.773252945393324E-003;3.642060793936253E-003;
2.425666666666667E+009;1.671851426362991E-001;-9.997684508562088E-002;3.967465367168188E-003;3.330597421154380E-003;
2.425833333333334E+009;1.675655543804169E-001;-1.007280126214027E-001;3.903684671968222E-003;3.179094986990094E-003;
2.426000000000000E+009;1.681797355413437E-001;-1.012097671627998E-001;4.094899166375399E-003;3.003780497238040E-003;
2.426166666666667E+009;1.686042696237564E-001;-1.018931940197945E-001;4.135945811867714E-003;2.692136913537979E-003;
2.426333333333334E+009;1.689585596323013E-001;-1.023607999086380E-001;4.043024033308029E-003;2.288983669131994E-003;
2.426500000000000E+009;1.694062650203705E-001;-1.027908250689507E-001;4.005607217550278E-003;2.147848019376397E-003;
2.426666666666667E+009;1.697331517934799E-001;-1.030197516083717E-001;4.058391787111759E-003;2.022566040977836E-003;
2.426833333333334E+009;1.701125949621201E-001;-1.033536717295647E-001;4.086476750671864E-003;1.834391267038882E-003;
2.427000000000000E+009;1.703061461448669E-001;-1.035302504897118E-001;3.953754436224699E-003;1.611701678484678E-003;
2.427166666666667E+009;1.703569591045380E-001;-1.035853028297424E-001;3.980880137532949E-003;1.438227947801352E-003;
2.427333333333334E+009;1.704366952180862E-001;-1.037757396697998E-001;3.864768892526627E-003;1.361700939014554E-003;
2.427500000000000E+009;1.704380661249161E-001;-1.038665920495987E-001;3.942572977393866E-003;1.102443668060005E-003;
2.427666666666667E+009;1.702089905738831E-001;-1.038659289479256E-001;3.678809851408005E-003;1.012324239127338E-003;
