# Version 1.00
#
freq[Hz];re:Trc1_S11;im:Trc1_S11;re:Trc2_S21;im:Trc2_S21;
2.400000000000000E+009;1.553185880184174E-001;1.069519296288490E-001;-8.501486154273152E-004;-4.141380544751883E-003;
2.400166666666667E+009;1.553073525428772E-001;1.044357120990753E-001;-8.746936800889671E-004;-4.209542647004128E-003;
2.400333333333334E+009;1.552470475435257E-001;1.021527573466301E-001;-1.043249154463410E-003;-4.126600921154022E-003;
2.400500000000000E+009;1.552075296640396E-001;9.940152615308762E-002;-1.210729358717799E-003;-4.134744871407747E-003;
2.400666666666667E+009;1.551924198865891E-001;9.707596153020859E-002;-1.315803034231067E-003;-4.160465672612190E-003;
2.400833333333334E+009;1.550909578800201E-001;9.401787817478180E-002;-1.421788358129561E-003;-4.225138109177351E-003;
2.401000000000000E+009;1.553455144166946E-001;9.138061106204987E-002;-1.561083015985787E-003;-4.116926342248917E-003;
2.401166666666667E+009;1.552966237068176E-001;8.834936469793320E-002;-1.717402250505984E-003;-4.031745716929436E-003;
2.401333333333334E+009;1.556114256381989E-001;8.562820404767990E-002;-1.835444010794163E-003;-4.157646559178829E-003;
2.401500000000000E+009;1.557366997003555E-001;8.268294483423233E-002;-1.971667865291238E-003;-4.043225198984146E-003;
2.401666666666667E+009;1.562443226575851E-001;7.975494861602783E-002;-2.237078268080950E-003;-4.041451495140791E-003;
2.401833333333334E+009;1.569143235683441E-001;7.711249589920044E-002;-2.433912828564644E-003;-3.942771349102259E-003;
2.402000000000000E+009;1.574600785970688E-001;7.428928464651108E-002;-2.599036321043968E-003;-3.747032023966312E-003;
2.402166666666667E+009;1.582343280315399E-001;7.197552919387817E-002;-2.979417098686099E-003;-3.755142213776708E-003;
2.402333333333334E+009;1.593874692916870E-001;6.906347721815109E-002;-3.124915063381195E-003;-3.662932664155960E-003;
2.402500000000000E+009;1.604183167219162E-001;6.642326712608337E-002;-3.318781964480877E-003;-3.395167179405689E-003;
2.402666666666667E+009;1.614614278078079E-001;6.420794129371643E-002;-3.561466699466109E-003;-3.333575790748000E-003;
2.402833333333334E+009;1.628552377223969E-001;6.167477369308472E-002;-3.576019778847694E-003;-3.011442488059402E-003;
2.403000000000000E+009;1.643866300582886E-001;5.922773852944374E-002;-3.898384748026729E-003;-2.758323680609465E-003;
2.403166666666667E+009;1.660386621952057E-001;5.719758197665215E-002;-3.949314821511507E-003;-2.435016212984920E-003;
2.403333333333334E+009;1.675794124603272E-001;5.485725775361061E-002;-3.838797565549612E-003;-2.119450597092509E-003;
2.403500000000000E+009;1.692501902580261E-001;5.287050455808640E-002;-3.939420450478792E-003;-1.841423450969160E-003;
2.403666666666667E+009;1.707864552736282E-001;5.094860121607781E-002;-3.801809856668115E-003;-1.626260811462998E-003;
2.403833333333334E+009;1.726445108652115E-001;4.912285879254341E-002;-3.851515008136630E-003;-1.354930456727743E-003;
2.404000000000000E+009;1.740557998418808E-001;4.735751822590828E-002;-3.766429843381047E-003;-1.208504429087043E-003;
2.404166666666667E+009;1.759470552206039E-001;4.584847390651703E-002;-3.715046681463718E-003;-1.115866820327938E-003;
2.404333333333334E+009;1.775265336036682E-001;4.420992359519005E-002;-3.653448075056076E-003;-7.941917283460498E-004;
2.404500000000000E+009;1.792911738157272E-001;4.273049905896187E-002;-3.434446407482028E-003;-7.157764048315585E-004;
2.404666666666667E+009;1.808880865573883E-001;4.171505197882652E-002;-3.375287400558591E-003;-7.315577240660787E-004;
2.404833333333334E+009;1.825591474771500E-001;4.064926877617836E-002;-3.347335848957300E-003;-8.571525686420500E-004;
2.405000000000000E+009;1.839687824249268E-001;4.005099087953568E-002;-3.125449875369668E-003;-6.826315075159073E-004;
2.405166666666667E+009;1.853892654180527E-001;3.928092494606972E-002;-3.178418846800923E-003;-6.471472443081439E-004;
2.405333333333334E+009;1.867904216051102E-001;3.893747180700302E-002;-3.142447443678975E-003;-6.550242542289197E-004;
2.405500000000000E+009;1.881980299949646E-001;3.839080408215523E-002;-3.279540222138166E-003;-4.626421432476491E-004;
2.405666666666667E+009;1.895179003477097E-001;3.794072195887566E-002;-3.345115575939417E-003;-4.532846505753696E-004;
2.405833333333334E+009;1.907387375831604E-001;3.778497502207756E-002;-3.140840912237763E-003;-5.484417779371142E-004;
2.406000000000000E+009;1.918471306562424E-001;3.768897056579590E-002;-3.222574014216662E-003;-4.870835109613836E-004;
2.406166666666667E+009;1.926996558904648E-001;3.739173337817192E-002;-3.332756226882339E-003;-2.410700544714928E-004;
2.406333333333334E+009;1.936303973197937E-001;3.758946433663368E-002;-3.256431780755520E-003;-3.582563949748874E-004;
2.406500000000000E+009;1.944558620452881E-001;3.760148957371712E-002;-3.219678532332182E-003;-1.240662531927228E-004;
2.406666666666667E+009;1.950960308313370E-001;3.759774938225746E-002;-3.207268891856074E-003;-5.442926521936897E-006;
2.406833333333334E+009;1.956115663051605E-001;3.766274452209473E-002;-3.130468539893627E-003;-2.091286660288461E-005;
2.407000000000000E+009;1.959403306245804E-001;3.788634017109871E-002;-3.088128520175815E-003;1.578013179823756E-004;
2.407166666666667E+009;1.963217258453369E-001;3.763410821557045E-002;-3.184420987963677E-003;2.221379982074723E-004;
2.407333333333334E+009;1.963051557540894E-001;3.789132833480835E-002;-3.100017085671425E-003;3.373615036252886E-004;
2.407500000000000E+009;1.961234211921692E-001;3.804751113057137E-002;-3.147091949358583E-003;3.072491381317377E-004;
2.407666666666667E+009;1.962577849626541E-001;3.793138265609741E-002;-2.841939916834235E-003;3.506213543005288E-004;
2.407833333333334E+009;1.957079172134399E-001;3.787651658058167E-002;-2.941165119409561E-003;3.742616099771112E-004;
2.408000000000000E+009;1.957566738128662E-001;3.775254264473915E-002;-2.669915789738298E-003;3.902753524016589E-004;
2.408166666666667E+009;1.950878500938416E-001;3.742592409253120E-002;-2.773129381239414E-003;3.860033757518977E-004;
2.408333333333334E+009;1.947254240512848E-001;3.693932667374611E-002;-2.720127347856760E-003;3.055334964301437E-004;
2.408500000000000E+009;1.940338164567947E-001;3.669260442256928E-002;-2.763570286333561E-003;2.020377578446642E-004;
2.408666666666667E+009;1.933886706829071E-001;3.613071888685226E-002;-2.735633635893464E-003;3.454518737271428E-004;
2.408833333333334E+009;1.926471590995789E-001;3.539088740944862E-002;-2.911323448643088E-003;9.334431524621323E-005;
2.409000000000000E+009;1.917207390069962E-001;3.452518582344055E-002;-2.898319391533732E-003;1.776528806658462E-004;
2.409166666666667E+009;1.907504200935364E-001;3.342271596193314E-002;-2.972671296447516E-003;2.128494670614600E-004;
2.409333333333334E+009;1.898574680089951E-001;3.243047371506691E-002;-3.010176122188568E-003;2.138093841494992E-004;
2.409500000000000E+009;1.889288872480393E-001;3.134976327419281E-002;-3.054746659472585E-003;4.677460528910160E-004;
2.409666666666667E+009;1.876251399517059E-001;2.988740988075733E-002;-3.324801335111260E-003;3.635131288319826E-004;
2.409833333333334E+009;1.867969781160355E-001;2.842974290251732E-002;-3.381436225026846E-003;5.234746495261788E-004;
2.410000000000000E+009;1.856697648763657E-001;2.674160711467266E-002;-3.381113521754742E-003;6.569297984242439E-004;
2.410166666666667E+009;1.846389323472977E-001;2.498067915439606E-002;-3.446995280683041E-003;6.883707246743143E-004;
2.410333333333334E+009;1.837829202413559E-001;2.303232997655869E-002;-3.278614254668355E-003;8.785956888459623E-004;
2.410500000000000E+009;1.826441586017609E-001;2.123753726482391E-002;-3.310738131403923E-003;8.917577797546983E-004;
2.410666666666667E+009;1.819561570882797E-001;1.886638998985291E-002;-3.516819328069687E-003;1.265611732378602E-003;
2.410833333333334E+009;1.809536516666412E-001;1.673066802322865E-002;-3.361510811373591E-003;1.254988485015929E-003;
2.411000000000000E+009;1.805379539728165E-001;1.462852954864502E-002;-3.250485518947244E-003;1.350235077552497E-003;
2.411166666666667E+009;1.798015981912613E-001;1.225808169692755E-002;-3.261805279180408E-003;1.478562480770052E-003;
2.411333333333334E+009;1.794174164533615E-001;9.891454130411148E-003;-3.148055868223310E-003;1.600532792508602E-003;
2.411500000000000E+009;1.788694411516190E-001;7.568521890789270E-003;-3.113956423476338E-003;1.610493403859437E-003;
2.411666666666667E+009;1.786627620458603E-001;5.060619674623013E-003;-3.147562732920051E-003;1.837502932175994E-003;
2.411833333333334E+009;1.783367991447449E-001;2.795943524688482E-003;-3.047791775316000E-003;1.695920596830547E-003;
2.412000000000000E+009;1.784301400184631E-001;1.963024842552841E-004;-3.205598099157214E-003;1.861207420006394E-003;
2.412166666666667E+009;1.784269511699677E-001;-2.040902385488153E-003;-3.134902333840728E-003;2.008450450375676E-003;
2.412333333333334E+009;1.787747293710709E-001;-4.835141357034445E-003;-3.248952794820070E-003;1.909727347083390E-003;
2.412500000000000E+009;1.794274002313614E-001;-7.106863893568516E-003;-3.173557342961431E-003;2.038680715486407E-003;
2.412666666666667E+009;1.796497255563736E-001;-9.707146324217320E-003;-3.083019750192761E-003;2.212486462667584E-003;
2.412833333333334E+009;1.803677082061768E-001;-1.224473491311073E-002;-3.156957216560841E-003;2.356814919039607E-003;
2.413000000000000E+009;1.812080740928650E-001;-1.445080526173115E-002;-3.212841693311930E-003;2.437293063849211E-003;
2.413166666666667E+009;1.819436997175217E-001;-1.668728515505791E-002;-3.097207751125097E-003;2.650396898388863E-003;
2.413333333333334E+009;1.830790340900421E-001;-1.918001659214497E-002;-3.183044726029038E-003;2.874936442822218E-003;
2.413500000000000E+009;1.840206533670425E-001;-2.147762291133404E-002;-3.093487583100796E-003;3.147319657728076E-003;
2.413666666666667E+009;1.851917356252670E-001;-2.363650500774384E-002;-3.016192931681871E-003;3.185108536854386E-003;
2.413833333333334E+009;1.862793117761612E-001;-2.562074176967144E-002;-2.919411053881049E-003;3.332181368023157E-003;
2.414000000000000E+009;1.873514950275421E-001;-2.762049622833729E-002;-2.862370572984219E-003;3.703305730596185E-003;
2.414166666666667E+009;1.886724978685379E-001;-2.949300408363342E-002;-2.510354388505220E-003;3.785338718444109E-003;
2.414333333333334E+009;1.897607147693634E-001;-3.145324066281319E-002;-2.375720534473658E-003;3.828524611890316E-003;
2.414500000000000E+009;1.910462230443955E-001;-3.288189321756363E-002;-2.405822044238448E-003;3.905556164681912E-003;
2.414666666666667E+009;1.922709196805954E-001;-3.436219692230225E-002;-2.027631737291813E-003;3.909545950591564E-003;
2.414833333333334E+009;1.934505552053452E-001;-3.575429320335388E-002;-1.853599445894361E-003;4.159376956522465E-003;
2.415000000000000E+009;1.944890022277832E-001;-3.722855821251869E-002;-1.611260697245598E-003;4.021470434963703E-003;
2.415166666666667E+009;1.956702768802643E-001;-3.829050064086914E-002;-1.603881479240954E-003;4.230255726724863E-003;
2.415333333333334E+009;1.969471573829651E-001;-3.923472017049789E-002;-1.465207664296031E-003;4.320580046623945E-003;
2.415500000000000E+009;1.979968249797821E-001;-3.993263095617294E-002;-1.298257266171277E-003;4.195564892143011E-003;
2.415666666666667E+009;1.990176141262054E-001;-4.084012284874916E-002;-1.159720122814179E-003;4.205542616546154E-003;
2.415833333333334E+009;1.999280750751495E-001;-4.134999215602875E-002;-1.142978202551603E-003;4.301902838051319E-003;
2.416000000000000E+009;2.006193846464157E-001;-4.197400435805321E-002;-9.891841327771545E-004;4.295463673770428E-003;
2.416166666666667E+009;2.013075500726700E-001;-4.258430749177933E-002;-8.289430406875908E-004;4.243753850460053E-003;
2.416333333333334E+009;2.019723206758499E-001;-4.278505221009255E-002;-7.388227386400104E-004;4.481927957385778E-003;
2.416500000000000E+009;2.025371342897415E-001;-4.307268932461739E-002;-6.947146612219513E-004;4.476112313568592E-003;
2.416666666666667E+009;2.028045356273651E-001;-4.342029988765717E-002;-5.057259113527834E-004;4.434337373822928E-003;
2.416833333333334E+009;2.028104215860367E-001;-4.339749366044998E-002;-3.065018099732697E-004;4.603847861289978E-003;
2.417000000000000E+009;2.031760066747665E-001;-4.355750232934952E-002;-1.459868508391082E-004;4.761276300996542E-003;
2.417166666666667E+009;2.027269899845123E-001;-4.339126870036125E-002;1.249309570994228E-004;4.625006578862667E-003;
2.417333333333334E+009;2.025279402732849E-001;-4.326983913779259E-002;2.118935954058543E-004;4.616587422788143E-003;
2.417500000000000E+009;2.022595405578613E-001;-4.327191412448883E-002;4.849240940529853E-004;4.707476124167442E-003;
2.417666666666667E+009;2.017034143209457E-001;-4.300545528531075E-002;6.124638603068888E-004;4.712958820164204E-003;
2.417833333333334E+009;2.012104243040085E-001;-4.288740828633308E-002;9.100789902731776E-004;4.586776718497276E-003;
2.418000000000000E+009;2.004892230033875E-001;-4.255768656730652E-002;9.768134914338589E-004;4.549619276076555E-003;
2.418166666666667E+009;1.996928900480270E-001;-4.252904653549194E-002;1.199816353619099E-003;4.369239788502455E-003;
2.418333333333334E+009;1.987836509943008E-001;-4.237135499715805E-002;1.535626710392535E-003;4.440619610249996E-003;
2.418500000000000E+009;1.978369355201721E-001;-4.241856187582016E-002;1.627510180696845E-003;4.198697395622730E-003;
2.418666666666667E+009;1.968295425176621E-001;-4.235950484871864E-002;1.722452696412802E-003;4.222449380904436E-003;
2.418833333333334E+009;1.955953985452652E-001;-4.254353418946266E-002;1.933088642545044E-003;4.030181560665369E-003;
2.419000000000000E+009;1.941557079553604E-001;-4.268315434455872E-002;2.027857350185514E-003;3.927968442440033E-003;
2.419166666666667E+009;1.929698586463928E-001;-4.298055544495583E-002;1.985095674172044E-003;3.619651542976499E-003;
2.419333333333334E+009;1.915086060762405E-001;-4.337485879659653E-002;1.964112278074026E-003;3.716082777827978E-003;
2.419500000000000E+009;1.898306459188461E-001;-4.386822134256363E-002;2.113091992214322E-003;3.460211912170053E-003;
2.419666666666667E+009;1.883376240730286E-001;-4.461862146854401E-002;2.105622785165906E-003;3.357254667207599E-003;
2.419833333333334E+009;1.866464018821716E-001;-4.528710991144180E-002;2.285608788952231E-003;3.395597683265805E-003;
2.420000000000000E+009;1.850733608007431E-001;-4.615226387977600E-002;2.007260918617249E-003;3.357087960466743E-003;
2.420166666666667E+009;1.834931373596191E-001;-4.707646369934082E-002;2.146920189261437E-003;3.276508767157793E-003;
2.420333333333334E+009;1.816534847021103E-001;-4.824954271316528E-002;2.181766787543893E-003;3.217730903998017E-003;
2.420500000000000E+009;1.800684332847595E-001;-4.961713775992394E-002;2.281089080497623E-003;3.475104458630085E-003;
2.420666666666667E+009;1.784335374832153E-001;-5.076321586966515E-002;2.419757423922420E-003;3.292622510343790E-003;
2.420833333333334E+009;1.766597181558609E-001;-5.212480574846268E-002;2.459575887769461E-003;3.249436384066939E-003;
2.421000000000000E+009;1.752639263868332E-001;-5.377847701311112E-002;2.629976486787200E-003;3.181325271725655E-003;
2.421166666666667E+009;1.738915145397186E-001;-5.554334074258804E-002;2.751749707385898E-003;3.221078775823116E-003;
2.421333333333334E+009;1.721023172140122E-001;-5.687474086880684E-002;2.852864330634475E-003;3.048948710784316E-003;
2.421500000000000E+009;1.708604246377945E-001;-5.891727283596993E-002;2.951159141957760E-003;3.065004711970687E-003;
2.421666666666667E+009;1.696290224790573E-001;-6.079038605093956E-002;3.158763283863664E-003;2.919134916737676E-003;
2.421833333333334E+009;1.684279143810272E-001;-6.260882318019867E-002;3.133351216092706E-003;2.740729134529829E-003;
2.422000000000000E+009;1.673081070184708E-001;-6.450949609279633E-002;3.426712471991777E-003;2.548202406615019E-003;
2.422166666666667E+009;1.664472073316574E-001;-6.663680076599121E-002;3.410594537854195E-003;2.529766410589218E-003;
2.422333333333334E+009;1.653465330600739E-001;-6.863235682249069E-002;3.490455681458116E-003;2.169225132092834E-003;
2.422500000000000E+009;1.647476702928543E-001;-7.054088264703751E-002;3.521923441439867E-003;2.112530637532473E-003;
2.422666666666667E+009;1.639006584882736E-001;-7.250957936048508E-002;3.751346841454506E-003;1.774558448232710E-003;
2.422833333333334E+009;1.635398566722870E-001;-7.464145123958588E-002;3.490607487037778E-003;1.693577738478780E-003;
2.423000000000000E+009;1.631665676832199E-001;-7.672110944986343E-002;3.447718219831586E-003;1.646529650315642E-003;
2.423166666666667E+009;1.627500355243683E-001;-7.863131910562515E-002;3.474370110780001E-003;1.490062801167369E-003;
2.423333333333334E+009;1.625283062458038E-001;-8.060657232999802E-002;3.393416991457343E-003;1.252206624485552E-003;
2.423500000000000E+009;1.624250411987305E-001;-8.246321976184845E-002;3.442791523411870E-003;1.367832650430501E-003;
2.423666666666667E+009;1.623559594154358E-001;-8.450536429882050E-002;3.170552896335721E-003;1.132053090259433E-003;
2.423833333333334E+009;1.625818461179733E-001;-8.611437678337097E-002;3.259690944105387E-003;1.323839300312102E-003;
2.424000000000000E+009;1.626643538475037E-001;-8.793491870164871E-002;3.273652633652091E-003;1.261940924450755E-003;
2.424166666666667E+009;1.626425385475159E-001;-8.960033953189850E-002;3.296842100098729E-003;1.235492643900216E-003;
2.424333333333334E+009;1.629846394062042E-001;-9.112625569105148E-002;3.291309112682939E-003;1.119957654736936E-003;
2.424500000000000E+009;1.634194850921631E-001;-9.295482933521271E-002;3.258155658841133E-003;1.202328596264124E-003;
2.424666666666667E+009;1.635523438453674E-001;-9.426822513341904E-002;3.321258816868067E-003;1.065962016582489E-003;
2.424833333333334E+009;1.641678363084793E-001;-9.550425410270691E-002;3.459494560956955E-003;9.747364092618227E-004;
2.425000000000000E+009;1.645499169826508E-001;-9.680364280939102E-002;3.649965859949589E-003;1.064259442500770E-003;
2.425166666666667E+009;1.649113297462463E-001;-9.785039722919464E-002;3.444688860327005E-003;1.017899019643664E-003;
2.425333333333334E+009;1.651986688375473E-001;-9.879336506128311E-002;3.446465125307441E-003;9.499502484686673E-004;
2.425500000000000E+009;1.656949520111084E-001;-9.978073835372925E-002;3.569040913134813E-003;9.286817512474954E-004;
2.425666666666667E+009;1.661309450864792E-001;-1.004183143377304E-001;3.682754235342145E-003;7.646874873898923E-004;
2.425833333333334E+009;1.664327532052994E-001;-1.012492477893829E-001;3.676655469462276E-003;6.572425481863320E-004;
2.426000000000000E+009;1.668950915336609E-001;-1.016032621264458E-001;3.581073367968202E-003;4.355294222477824E-004;
2.426166666666667E+009;1.672742068767548E-001;-1.021701991558075E-001;3.755770856514573E-003;4.828391247428954E-004;
2.426333333333334E+009;1.673669815063477E-001;-1.027083173394203E-001;3.772695781663060E-003;4.241473798174411E-004;
2.426500000000000E+009;1.678334474563599E-001;-1.029027476906776E-001;3.906293306499720E-003;3.458222490735352E-004;
2.426666666666667E+009;1.679628938436508E-001;-1.033071205019951E-001;3.874682122841477E-003;1.673488586675376E-004;
2.426833333333334E+009;1.682110577821732E-001;-1.035000756382942E-001;3.807344008237124E-003;9.911822417052463E-006;
2.427000000000000E+009;1.681500971317291E-001;-1.037249192595482E-001;3.870416898280382E-003;9.070220403373241E-005;
2.427166666666667E+009;1.682679951190949E-001;-1.036458760499954E-001;3.755162004381418E-003;-2.151144726667553E-004;
2.427333333333334E+009;1.682281345129013E-001;-1.039231121540070E-001;3.840239020064473E-003;-4.024207883048803E-004;
2.427500000000000E+009;1.678649783134460E-001;-1.041864305734634E-001;3.833127208054066E-003;-4.225937009323388E-004;
2.427666666666667E+009;1.675812304019928E-001;-1.041128411889076E-001;3.830008674412966E-003;-3.209871647413820E-004;
2.427833333333334E+009;1.670533418655396E-001;-1.041545271873474E-001;3.820417448878288E-003;-4.885909147560597E-004;
