# Version 1.00
#
freq[Hz];re:Trc1_S11;im:Trc1_S11;re:Trc2_S21;im:Trc2_S21;
2.400000000000000E+009;1.555172055959702E-001;1.068435236811638E-001;-1.055292203091085E-003;-4.345035646110773E-003;
2.400166666666667E+009;1.553736776113510E-001;1.045570299029350E-001;-1.188393565826118E-003;-4.110207781195641E-003;
2.400333333333334E+009;1.552933603525162E-001;1.020664200186729E-001;-1.129286829382181E-003;-4.107165616005659E-003;
2.400500000000000E+009;1.552472263574600E-001;9.941166639328003E-002;-1.311164698563516E-003;-4.202162381261587E-003;
2.400666666666667E+009;1.554632633924484E-001;9.698486328125000E-002;-1.351494458504021E-003;-4.027538001537323E-003;
2.400833333333334E+009;1.552067399024963E-001;9.404879063367844E-002;-1.605520839802921E-003;-4.114887211471796E-003;
2.401000000000000E+009;1.553324162960053E-001;9.118533879518509E-002;-1.506140921264887E-003;-4.104968626052141E-003;
2.401166666666667E+009;1.553327888250351E-001;8.849350363016129E-002;-1.764856395311654E-003;-3.974469844251871E-003;
2.401333333333334E+009;1.556016504764557E-001;8.552870154380798E-002;-2.004079520702362E-003;-3.990216646343470E-003;
2.401500000000000E+009;1.561115235090256E-001;8.263421058654785E-002;-2.107886131852865E-003;-4.036124795675278E-003;
2.401666666666667E+009;1.565373092889786E-001;7.993828505277634E-002;-2.368884161114693E-003;-3.952361177653074E-003;
2.401833333333334E+009;1.569129079580307E-001;7.693548500537872E-002;-2.687364118173719E-003;-4.046414978802204E-003;
2.402000000000000E+009;1.577902734279633E-001;7.420167326927185E-002;-2.873690100386739E-003;-3.733015852048993E-003;
2.402166666666667E+009;1.585209220647812E-001;7.151186466217041E-002;-2.910786541178823E-003;-3.694512415677309E-003;
2.402333333333334E+009;1.595106422901154E-001;6.884481757879257E-002;-3.075063694268465E-003;-3.596712369471788E-003;
2.402500000000000E+009;1.605923175811768E-001;6.639651209115982E-002;-3.511228365823627E-003;-3.470566356554627E-003;
2.402666666666667E+009;1.617683619260788E-001;6.404189765453339E-002;-3.669541561976075E-003;-3.095370950177312E-003;
2.402833333333334E+009;1.628455221652985E-001;6.163468956947327E-002;-3.768448485061526E-003;-2.968850079923868E-003;
2.403000000000000E+009;1.643524318933487E-001;5.913524329662323E-002;-3.947456832975149E-003;-2.597066108137369E-003;
2.403166666666667E+009;1.659283488988876E-001;5.696410685777664E-002;-4.058327525854111E-003;-2.381243277341127E-003;
2.403333333333334E+009;1.675543040037155E-001;5.470525473356247E-002;-4.058090504258871E-003;-1.996279228478670E-003;
2.403500000000000E+009;1.691170930862427E-001;5.257604271173477E-002;-4.198673646897078E-003;-1.774212112650275E-003;
2.403666666666667E+009;1.711045503616333E-001;5.080657452344894E-002;-3.846621839329600E-003;-1.402528025209904E-003;
2.403833333333334E+009;1.726739108562470E-001;4.880359396338463E-002;-3.914691042155027E-003;-1.391294645145536E-003;
2.404000000000000E+009;1.741954535245895E-001;4.711965471506119E-002;-3.783765481784940E-003;-1.262134406715632E-003;
2.404166666666667E+009;1.759260594844818E-001;4.561927169561386E-002;-3.742018481716514E-003;-9.171225246973336E-004;
2.404333333333334E+009;1.776856034994125E-001;4.421090334653854E-002;-3.713279264047742E-003;-9.449826320633292E-004;
2.404500000000000E+009;1.793651729822159E-001;4.275327920913696E-002;-3.737896680831909E-003;-8.910615579225123E-004;
2.404666666666667E+009;1.808448880910873E-001;4.175141081213951E-002;-3.447621595114470E-003;-8.415355114266276E-004;
2.404833333333334E+009;1.825084686279297E-001;4.054525122046471E-002;-3.368108998984098E-003;-5.906468722969294E-004;
2.405000000000000E+009;1.839521527290344E-001;4.001175239682198E-002;-3.247501794248819E-003;-6.063255714252591E-004;
2.405166666666667E+009;1.854838281869888E-001;3.920469805598259E-002;-3.363168099895120E-003;-6.037877756170929E-004;
2.405333333333334E+009;1.868528723716736E-001;3.870249912142754E-002;-3.300325479358435E-003;-6.104197236709297E-004;
2.405500000000000E+009;1.883072257041931E-001;3.831991180777550E-002;-3.197292098775506E-003;-4.303386667743325E-004;
2.405666666666667E+009;1.895128190517426E-001;3.784833848476410E-002;-3.178185783326626E-003;-3.993964928667992E-004;
2.405833333333334E+009;1.907456666231155E-001;3.763389959931374E-002;-3.290669061243534E-003;-5.170015501789749E-004;
2.406000000000000E+009;1.917767375707626E-001;3.729101270437241E-002;-3.251350717619062E-003;-2.398556243861094E-004;
2.406166666666667E+009;1.927053779363632E-001;3.733118250966072E-002;-3.273166483268142E-003;-2.795892942231149E-004;
2.406333333333334E+009;1.935133188962936E-001;3.732369095087051E-002;-3.254375420510769E-003;-1.332367392024025E-004;
2.406500000000000E+009;1.944811940193176E-001;3.748583421111107E-002;-3.172739176079631E-003;-9.863053128356114E-005;
2.406666666666667E+009;1.950936019420624E-001;3.753998503088951E-002;-3.113773418590426E-003;6.816943641752005E-005;
2.406833333333334E+009;1.956089884042740E-001;3.754645958542824E-002;-3.221882507205010E-003;5.094541847938672E-005;
2.407000000000000E+009;1.959518939256668E-001;3.776063770055771E-002;-3.136061131954193E-003;2.947775647044182E-004;
2.407166666666667E+009;1.962178349494934E-001;3.754477947950363E-002;-3.174442099407315E-003;1.190492912428454E-004;
2.407333333333334E+009;1.962067931890488E-001;3.769472241401672E-002;-3.098675282672048E-003;2.292395947733894E-004;
2.407500000000000E+009;1.961471289396286E-001;3.786572813987732E-002;-3.016179660335183E-003;4.212592029944062E-004;
2.407666666666667E+009;1.962212771177292E-001;3.772458434104919E-002;-2.944751409813762E-003;2.882868575397879E-004;
2.407833333333334E+009;1.957826465368271E-001;3.774791955947876E-002;-2.837082138285041E-003;3.388799377717078E-004;
2.408000000000000E+009;1.956930458545685E-001;3.761610761284828E-002;-2.834433224052191E-003;4.507242410909385E-004;
2.408166666666667E+009;1.950748860836029E-001;3.736873343586922E-002;-2.905894769355655E-003;4.283648740965873E-004;
2.408333333333334E+009;1.947000920772553E-001;3.679243102669716E-002;-2.832744270563126E-003;2.539449196774513E-004;
2.408500000000000E+009;1.939326524734497E-001;3.651900589466095E-002;-2.925444394350052E-003;3.109876706730574E-004;
2.408666666666667E+009;1.933392584323883E-001;3.613485768437386E-002;-2.939029131084681E-003;2.273767895530909E-004;
2.408833333333334E+009;1.926315426826477E-001;3.528392687439919E-002;-2.974778879433870E-003;2.993483503814787E-004;
2.409000000000000E+009;1.917463839054108E-001;3.446960821747780E-002;-2.964265644550324E-003;2.709824475459755E-004;
2.409166666666667E+009;1.908571571111679E-001;3.336000069975853E-002;-3.034856403246522E-003;2.886368602048606E-004;
2.409333333333334E+009;1.898250728845596E-001;3.250394389033318E-002;-3.144381567835808E-003;3.016200207639486E-004;
2.409500000000000E+009;1.886837333440781E-001;3.116759471595287E-002;-3.157444531098008E-003;2.708776446525008E-004;
2.409666666666667E+009;1.876685768365860E-001;2.978268638253212E-002;-3.355867695063353E-003;3.153050201945007E-004;
2.409833333333334E+009;1.866222918033600E-001;2.824209071695805E-002;-3.252270631492138E-003;5.668831872753799E-004;
2.410000000000000E+009;1.856294423341751E-001;2.664788253605366E-002;-3.424789989367127E-003;6.371400668285787E-004;
2.410166666666667E+009;1.846085041761398E-001;2.477556653320789E-002;-3.465710440650582E-003;9.971255203709006E-004;
2.410333333333334E+009;1.837417483329773E-001;2.288683131337166E-002;-3.471466712653637E-003;1.003463519737124E-003;
2.410500000000000E+009;1.826517283916473E-001;2.108633145689964E-002;-3.365337383002043E-003;1.052842126227915E-003;
2.410666666666667E+009;1.819142848253250E-001;1.888217404484749E-002;-3.439990105107427E-003;1.232134643942118E-003;
2.410833333333334E+009;1.812240183353424E-001;1.658331416547298E-002;-3.449778305366635E-003;1.311394269578159E-003;
2.411000000000000E+009;1.802838295698166E-001;1.437089312821627E-002;-3.353712614625692E-003;1.377136330120266E-003;
2.411166666666667E+009;1.796444654464722E-001;1.223357859998941E-002;-3.295193426311016E-003;1.711195451207459E-003;
2.411333333333334E+009;1.790243834257126E-001;9.752118960022926E-003;-3.284400328993797E-003;1.722535234875977E-003;
2.411500000000000E+009;1.787655055522919E-001;7.325295824557543E-003;-3.233547089621425E-003;1.749600633047521E-003;
2.411666666666667E+009;1.784564703702927E-001;4.991312045603991E-003;-3.098934190347791E-003;1.796970260329545E-003;
2.411833333333334E+009;1.781273931264877E-001;2.543552312999964E-003;-3.178831655532122E-003;1.781145925633609E-003;
2.412000000000000E+009;1.782917678356171E-001;1.394962737322203E-006;-3.163761692121625E-003;1.725777867250145E-003;
2.412166666666667E+009;1.784729361534119E-001;-2.225173171609640E-003;-3.106409916654229E-003;1.924202195368707E-003;
2.412333333333334E+009;1.788122057914734E-001;-4.769959952682257E-003;-3.042211988940835E-003;2.171910833567381E-003;
2.412500000000000E+009;1.790196895599365E-001;-7.328145205974579E-003;-3.083722200244665E-003;2.210559323430061E-003;
2.412666666666667E+009;1.795048266649246E-001;-9.777537547051907E-003;-3.033591201528907E-003;2.204339951276779E-003;
2.412833333333334E+009;1.802968531847000E-001;-1.234853360801935E-002;-3.250841749832034E-003;2.374721458181739E-003;
2.413000000000000E+009;1.809050142765045E-001;-1.471818238496780E-002;-3.241923172026873E-003;2.594179939478636E-003;
2.413166666666667E+009;1.818522810935974E-001;-1.695019565522671E-002;-3.243363695219159E-003;2.734382171183825E-003;
2.413333333333334E+009;1.831426471471787E-001;-1.918718963861466E-002;-3.181511303409934E-003;2.925694221630693E-003;
2.413500000000000E+009;1.836604773998261E-001;-2.151565439999104E-002;-3.057684749364853E-003;3.213567892089486E-003;
2.413666666666667E+009;1.849808543920517E-001;-2.375557273626328E-002;-3.043727949261665E-003;3.269775304943323E-003;
2.413833333333334E+009;1.859951019287109E-001;-2.565914019942284E-002;-2.756946254521608E-003;3.438898827880621E-003;
2.414000000000000E+009;1.873127073049545E-001;-2.765869535505772E-002;-2.529030432924628E-003;3.621784504503012E-003;
2.414166666666667E+009;1.884534955024719E-001;-2.947821840643883E-002;-2.524065086618066E-003;3.756609978154302E-003;
2.414333333333334E+009;1.894303262233734E-001;-3.155048564076424E-002;-2.299625193700194E-003;4.039788153022528E-003;
2.414500000000000E+009;1.907873600721359E-001;-3.295614197850227E-002;-2.151339547708631E-003;3.971783909946680E-003;
2.414666666666667E+009;1.919858008623123E-001;-3.433640673756599E-002;-1.987773692235351E-003;4.222742747515440E-003;
2.414833333333334E+009;1.931287348270416E-001;-3.575345873832703E-002;-1.862878096289933E-003;3.984689712524414E-003;
2.415000000000000E+009;1.943334639072418E-001;-3.705534338951111E-002;-1.641026348806918E-003;4.194174427539110E-003;
2.415166666666667E+009;1.955069005489349E-001;-3.826271742582321E-002;-1.552197849377990E-003;4.132605157792568E-003;
2.415333333333334E+009;1.966519802808762E-001;-3.908886387944222E-002;-1.443258370272815E-003;4.200963303446770E-003;
2.415500000000000E+009;1.977594196796417E-001;-3.991710394620895E-002;-1.268042949959636E-003;4.152653738856316E-003;
2.415666666666667E+009;1.988171190023422E-001;-4.078005254268646E-002;-1.235924195498228E-003;4.223509225994349E-003;
2.415833333333334E+009;1.996065080165863E-001;-4.141719639301300E-002;-1.077187480404973E-003;4.167761653661728E-003;
2.416000000000000E+009;2.003611326217651E-001;-4.192671179771423E-002;-8.488128660246730E-004;4.386355169117451E-003;
2.416166666666667E+009;2.011039853096008E-001;-4.266286268830299E-002;-8.368108537979424E-004;4.452783148735762E-003;
2.416333333333334E+009;2.018285244703293E-001;-4.269059374928474E-002;-6.146719679236412E-004;4.543674178421497E-003;
2.416500000000000E+009;2.022576779127121E-001;-4.298888146877289E-002;-4.452412540558726E-004;4.518512636423111E-003;
2.416666666666667E+009;2.025202065706253E-001;-4.333967715501785E-002;-2.731398562900722E-004;4.540815018117428E-003;
2.416833333333334E+009;2.027401924133301E-001;-4.332947358489037E-002;-2.385488478466868E-004;4.554687533527613E-003;
2.417000000000000E+009;2.028527408838272E-001;-4.342903569340706E-002;-4.465331221581437E-005;4.740754608064890E-003;
2.417166666666667E+009;2.025959640741348E-001;-4.329948499798775E-002;1.155424179160036E-004;4.724037367850542E-003;
2.417333333333334E+009;2.023622989654541E-001;-4.302173107862473E-002;3.571554843802005E-004;4.850598983466625E-003;
2.417500000000000E+009;2.021019756793976E-001;-4.306981340050697E-002;4.188630555290729E-004;4.597380757331848E-003;
2.417666666666667E+009;2.015836238861084E-001;-4.288863390684128E-002;6.972323171794415E-004;4.660944454371929E-003;
2.417833333333334E+009;2.012102603912354E-001;-4.255596548318863E-002;9.227874106727541E-004;4.486646968871355E-003;
2.418000000000000E+009;2.005293965339661E-001;-4.234706610441208E-002;1.142520108260214E-003;4.637638106942177E-003;
2.418166666666667E+009;1.995593756437302E-001;-4.231793805956841E-002;1.403962960466743E-003;4.448858089745045E-003;
2.418333333333334E+009;1.986213028430939E-001;-4.225052148103714E-002;1.380582456476986E-003;4.358505830168724E-003;
2.418500000000000E+009;1.976279616355896E-001;-4.229625687003136E-002;1.410522265359759E-003;4.451000131666660E-003;
2.418666666666667E+009;1.968012750148773E-001;-4.214654490351677E-002;1.753898803144693E-003;4.171241540461779E-003;
2.418833333333334E+009;1.954070627689362E-001;-4.234524071216583E-002;1.874147565104067E-003;3.871595021337271E-003;
2.419000000000000E+009;1.940354853868485E-001;-4.251635447144508E-002;1.976265339180827E-003;3.815511474385858E-003;
2.419166666666667E+009;1.928934901952744E-001;-4.281480982899666E-002;1.994119957089424E-003;3.562039230018854E-003;
2.419333333333334E+009;1.913547068834305E-001;-4.324959963560104E-002;2.047012560069561E-003;3.635400440543890E-003;
2.419500000000000E+009;1.898942589759827E-001;-4.358948022127152E-002;2.143096178770065E-003;3.462272463366389E-003;
2.419666666666667E+009;1.882584840059280E-001;-4.433553293347359E-002;2.240165369585156E-003;3.430274780839682E-003;
2.419833333333334E+009;1.866880804300308E-001;-4.518412053585053E-002;2.046171575784683E-003;3.301021875813603E-003;
2.420000000000000E+009;1.851792484521866E-001;-4.595820233225822E-002;2.051711548119783E-003;3.331864252686501E-003;
2.420166666666667E+009;1.834972351789475E-001;-4.687631130218506E-002;2.163207624107599E-003;3.317455761134625E-003;
2.420333333333334E+009;1.818395853042603E-001;-4.791357740759850E-002;2.174705965444446E-003;3.217370947822928E-003;
2.420500000000000E+009;1.801628172397614E-001;-4.942137748003006E-002;2.220186172053218E-003;3.246043575927615E-003;
2.420666666666667E+009;1.784990876913071E-001;-5.052198469638825E-002;2.282045315951109E-003;3.362390212714672E-003;
2.420833333333334E+009;1.767781078815460E-001;-5.200363695621491E-002;2.556750550866127E-003;3.265171777456999E-003;
2.421000000000000E+009;1.752113699913025E-001;-5.360824614763260E-002;2.629676368087530E-003;3.348841797560453E-003;
2.421166666666667E+009;1.738150864839554E-001;-5.522749945521355E-002;2.701204735785723E-003;3.257069503888488E-003;
2.421333333333334E+009;1.721403002738953E-001;-5.683758854866028E-002;2.875280333682895E-003;3.054975066334009E-003;
2.421500000000000E+009;1.708484292030335E-001;-5.862830206751823E-002;3.061450785025954E-003;3.041666699573398E-003;
2.421666666666667E+009;1.696456223726273E-001;-6.059157103300095E-002;3.191779600456357E-003;2.952345181256533E-003;
2.421833333333334E+009;1.685693264007568E-001;-6.244545057415962E-002;3.134445287287235E-003;2.551466459408402E-003;
2.422000000000000E+009;1.673612296581268E-001;-6.435173749923706E-002;3.468666458502412E-003;2.618577564135194E-003;
2.422166666666667E+009;1.666178405284882E-001;-6.651999056339264E-002;3.390608355402947E-003;2.425841055810452E-003;
2.422333333333334E+009;1.654572784900665E-001;-6.852783262729645E-002;3.606298705562949E-003;2.323730383068323E-003;
2.422500000000000E+009;1.647150367498398E-001;-7.041916251182556E-002;3.522123442962766E-003;2.115562558174133E-003;
2.422666666666667E+009;1.640658229589462E-001;-7.245472073554993E-002;3.557670861482620E-003;1.949971425347030E-003;
2.422833333333334E+009;1.635113060474396E-001;-7.444486767053604E-002;3.634454682469368E-003;1.796794473193586E-003;
2.423000000000000E+009;1.631040722131729E-001;-7.661763578653336E-002;3.545859130099416E-003;1.620233873836696E-003;
2.423166666666667E+009;1.628272533416748E-001;-7.841447740793228E-002;3.479006467387080E-003;1.504738233052194E-003;
2.423333333333334E+009;1.625051647424698E-001;-8.048164099454880E-002;3.359221853315830E-003;1.358752022497356E-003;
2.423500000000000E+009;1.625381410121918E-001;-8.233505487442017E-002;3.520418191328645E-003;1.356087974272668E-003;
2.423666666666667E+009;1.625639647245407E-001;-8.425025641918182E-002;3.397530643269420E-003;1.341533963568509E-003;
2.423833333333334E+009;1.624900102615356E-001;-8.602997660636902E-002;3.256103256717324E-003;1.245479797944427E-003;
2.424000000000000E+009;1.626346856355667E-001;-8.797232806682587E-002;3.357646055519581E-003;1.228413777425885E-003;
2.424166666666667E+009;1.627643555402756E-001;-8.952918648719788E-002;3.348434111103416E-003;1.154365716502070E-003;
2.424333333333334E+009;1.630661338567734E-001;-9.102239459753037E-002;3.168481169268489E-003;1.186505774967372E-003;
2.424500000000000E+009;1.634291261434555E-001;-9.264886379241943E-002;3.348169382661581E-003;1.020511728711426E-003;
2.424666666666667E+009;1.636895686388016E-001;-9.411398321390152E-002;3.255920251831412E-003;9.006214677356184E-004;
2.424833333333334E+009;1.643196791410446E-001;-9.541660547256470E-002;3.343362826853991E-003;1.099362620152533E-003;
2.425000000000000E+009;1.647266000509262E-001;-9.647831320762634E-002;3.462326945737004E-003;9.509209776297212E-004;
2.425166666666667E+009;1.650226563215256E-001;-9.764721244573593E-002;3.457068465650082E-003;9.103653137572110E-004;
2.425333333333334E+009;1.652914881706238E-001;-9.860966354608536E-002;3.464035922661424E-003;8.984307060018182E-004;
2.425500000000000E+009;1.656680703163147E-001;-9.956676512956619E-002;3.620860166847706E-003;7.379212765954435E-004;
2.425666666666667E+009;1.663112193346024E-001;-1.002888008952141E-001;3.527011955156922E-003;7.855345029383898E-004;
2.425833333333334E+009;1.666053235530853E-001;-1.011793613433838E-001;3.594264388084412E-003;7.166672730818391E-004;
2.426000000000000E+009;1.670599877834320E-001;-1.015240848064423E-001;3.540665144100785E-003;5.372731829993427E-004;
2.426166666666667E+009;1.673629581928253E-001;-1.021374911069870E-001;3.663702635094523E-003;5.283118807710707E-004;
2.426333333333334E+009;1.675021946430206E-001;-1.025795191526413E-001;3.782753832638264E-003;3.199312486685813E-004;
2.426500000000000E+009;1.679284721612930E-001;-1.029106751084328E-001;3.778943559154868E-003;3.094515413977206E-004;
2.426666666666667E+009;1.681461036205292E-001;-1.031140759587288E-001;3.929066471755505E-003;2.662730985321105E-004;
2.426833333333334E+009;1.684036999940872E-001;-1.033932119607925E-001;3.838227596133947E-003;-3.531514084897935E-005;
2.427000000000000E+009;1.684578210115433E-001;-1.036901101469994E-001;3.831255715340376E-003;-7.015180744929239E-005;
2.427166666666667E+009;1.683702021837235E-001;-1.037256196141243E-001;3.829631954431534E-003;-1.240086858160794E-004;
2.427333333333334E+009;1.682602316141129E-001;-1.039210855960846E-001;3.756748745217919E-003;-1.476965408073738E-004;
2.427500000000000E+009;1.681057214736939E-001;-1.041195765137672E-001;3.805700922384858E-003;-2.532684302423149E-004;
2.427666666666667E+009;1.676845401525497E-001;-1.040814593434334E-001;3.861458506435156E-003;-4.563504189718515E-004;
2.427833333333334E+009;1.672772318124771E-001;-1.041449829936028E-001;3.927334211766720E-003;-5.586400511674583E-004;
