# Version 1.00
#
freq[Hz];re:Trc1_S11;im:Trc1_S11;re:Trc2_S21;im:Trc2_S21;
2.400000000000000E+009;1.552247554063797E-001;1.070153638720512E-001;-8.898026426322758E-004;-4.186864942312241E-003;
2.400166666666667E+009;1.550578474998474E-001;1.045709773898125E-001;-8.793542510829866E-004;-4.073105752468109E-003;
2.400333333333334E+009;1.550240665674210E-001;1.022247821092606E-001;-9.543300839141011E-004;-4.036277066916227E-003;
2.400500000000000E+009;1.548776775598526E-001;9.958743304014206E-002;-1.111930585466325E-003;-4.048283677548170E-003;
2.400666666666667E+009;1.549414545297623E-001;9.688484668731690E-002;-1.294041750952601E-003;-4.043229855597019E-003;
2.400833333333334E+009;1.549033671617508E-001;9.421995282173157E-002;-1.506909960880876E-003;-4.019148647785187E-003;
2.401000000000000E+009;1.550090610980988E-001;9.120560437440872E-002;-1.565678627230227E-003;-4.132665228098631E-003;
2.401166666666667E+009;1.551006734371185E-001;8.850674331188202E-002;-1.648688339628279E-003;-4.008146002888680E-003;
2.401333333333334E+009;1.555529534816742E-001;8.554492890834808E-002;-1.848025596700609E-003;-4.007324576377869E-003;
2.401500000000000E+009;1.558218747377396E-001;8.281544595956802E-002;-2.256790641695261E-003;-4.009846132248640E-003;
2.401666666666667E+009;1.562740057706833E-001;7.985883951187134E-002;-2.297970000654459E-003;-4.055632278323174E-003;
2.401833333333334E+009;1.568234264850617E-001;7.714426517486572E-002;-2.467126585543156E-003;-3.958138637244701E-003;
2.402000000000000E+009;1.575265824794769E-001;7.452415674924851E-002;-2.887455048039556E-003;-4.093957133591175E-003;
2.402166666666667E+009;1.585867106914520E-001;7.178846746683121E-002;-2.998816315084696E-003;-3.847501939162612E-003;
2.402333333333334E+009;1.593327969312668E-001;6.903570145368576E-002;-3.183264983817935E-003;-3.663060488179326E-003;
2.402500000000000E+009;1.605147123336792E-001;6.647883355617523E-002;-3.527000080794096E-003;-3.382380120456219E-003;
2.402666666666667E+009;1.616462320089340E-001;6.416705250740051E-002;-3.592553082853556E-003;-3.193965647369623E-003;
2.402833333333334E+009;1.628963947296143E-001;6.169179454445839E-002;-3.746870206668973E-003;-3.058179048821330E-003;
2.403000000000000E+009;1.644200086593628E-001;5.920046567916870E-002;-3.879317780956626E-003;-2.862167079001665E-003;
2.403166666666667E+009;1.661270111799240E-001;5.712586641311646E-002;-4.037509672343731E-003;-2.607041969895363E-003;
2.403333333333334E+009;1.675441861152649E-001;5.487599596381187E-002;-4.079196136444807E-003;-2.188540762290359E-003;
2.403500000000000E+009;1.692587137222290E-001;5.296003445982933E-002;-3.993796650320292E-003;-1.871939166449010E-003;
2.403666666666667E+009;1.709366887807846E-001;5.103981867432594E-002;-3.993580117821693E-003;-1.570161897689104E-003;
2.403833333333334E+009;1.728599965572357E-001;4.920152574777603E-002;-3.909356426447630E-003;-1.462948974221945E-003;
2.404000000000000E+009;1.742014139890671E-001;4.734003171324730E-002;-3.801062004640698E-003;-1.381288398988545E-003;
2.404166666666667E+009;1.761029362678528E-001;4.591793939471245E-002;-3.641668008640409E-003;-9.703293326310813E-004;
2.404333333333334E+009;1.776935607194901E-001;4.444799944758415E-002;-3.641663352027535E-003;-9.096951107494533E-004;
2.404500000000000E+009;1.793123334646225E-001;4.285452514886856E-002;-3.411335637792945E-003;-9.866650216281414E-004;
2.404666666666667E+009;1.808333992958069E-001;4.199437797069550E-002;-3.345292527228594E-003;-7.528769783675671E-004;
2.404833333333334E+009;1.825886368751526E-001;4.076008126139641E-002;-3.367007244378328E-003;-6.875506369397044E-004;
2.405000000000000E+009;1.839793622493744E-001;4.003766551613808E-002;-3.371973987668753E-003;-7.905980455689132E-004;
2.405166666666667E+009;1.854615807533264E-001;3.950909152626991E-002;-3.231308655813336E-003;-6.118059973232448E-004;
2.405333333333334E+009;1.867799758911133E-001;3.896855190396309E-002;-3.092620288953185E-003;-5.508363828994334E-004;
2.405500000000000E+009;1.883534044027329E-001;3.853531181812286E-002;-3.109880723059177E-003;-5.202927859500051E-004;
2.405666666666667E+009;1.895705163478851E-001;3.805004432797432E-002;-3.192820819094777E-003;-3.729447489604354E-004;
2.405833333333334E+009;1.909257769584656E-001;3.790213912725449E-002;-3.172554075717926E-003;-4.260124405846000E-004;
2.406000000000000E+009;1.917543560266495E-001;3.770297765731812E-002;-3.284071572124958E-003;-2.504524600226432E-004;
2.406166666666667E+009;1.929223388433456E-001;3.760519623756409E-002;-3.220593556761742E-003;-1.023115401039831E-004;
2.406333333333334E+009;1.937903910875320E-001;3.770910203456879E-002;-3.352163359522820E-003;-9.903024329105392E-005;
2.406500000000000E+009;1.945957839488983E-001;3.759456425905228E-002;-3.228481160476804E-003;-2.215894055552781E-004;
2.406666666666667E+009;1.950741559267044E-001;3.768411278724670E-002;-3.218604484573007E-003;-1.162777916761115E-004;
2.406833333333334E+009;1.956544816493988E-001;3.785348311066628E-002;-3.166527720168233E-003;5.998850610922091E-005;
2.407000000000000E+009;1.960828751325607E-001;3.802118822932243E-002;-3.108300501480699E-003;1.451351854484528E-004;
2.407166666666667E+009;1.963630020618439E-001;3.776401281356812E-002;-2.950449706986547E-003;1.971710153156892E-004;
2.407333333333334E+009;1.962945312261581E-001;3.793762996792793E-002;-2.939533675089479E-003;3.697968495544046E-004;
2.407500000000000E+009;1.962840408086777E-001;3.813916817307472E-002;-2.828496275469661E-003;3.352186176925898E-004;
2.407666666666667E+009;1.963475346565247E-001;3.815412521362305E-002;-2.771244384348393E-003;3.242734237574041E-004;
2.407833333333334E+009;1.959283798933029E-001;3.799889981746674E-002;-2.711763605475426E-003;3.832773945759982E-004;
2.408000000000000E+009;1.958228796720505E-001;3.782656416296959E-002;-2.947167726233602E-003;4.250321071594954E-004;
2.408166666666667E+009;1.951964944601059E-001;3.764265775680542E-002;-2.692987676709890E-003;3.738086088560522E-004;
2.408333333333334E+009;1.948030591011047E-001;3.707444667816162E-002;-2.839576685801148E-003;3.954622370656580E-004;
2.408500000000000E+009;1.940479278564453E-001;3.672968223690987E-002;-2.799770794808865E-003;1.738916325848550E-004;
2.408666666666667E+009;1.935272812843323E-001;3.623004257678986E-002;-2.808338031172752E-003;2.966286265291274E-004;
2.408833333333334E+009;1.928130388259888E-001;3.549247980117798E-002;-2.902004169300199E-003;2.671336405910552E-004;
2.409000000000000E+009;1.919016838073731E-001;3.459044173359871E-002;-2.857264131307602E-003;2.067187888314948E-004;
2.409166666666667E+009;1.908776760101318E-001;3.359289467334747E-002;-3.006065031513572E-003;1.999431842705235E-004;
2.409333333333334E+009;1.900559514760971E-001;3.271164372563362E-002;-3.049558261409402E-003;2.135822142008692E-004;
2.409500000000000E+009;1.888464689254761E-001;3.112970478832722E-002;-3.313922090455890E-003;5.345561658032239E-004;
2.409666666666667E+009;1.879161745309830E-001;2.991078794002533E-002;-3.420518944039941E-003;3.763392160180956E-004;
2.409833333333334E+009;1.867975890636444E-001;2.844744548201561E-002;-3.379329340532422E-003;5.233784904703498E-004;
2.410000000000000E+009;1.858167648315430E-001;2.676963992416859E-002;-3.549084067344666E-003;7.092297892086208E-004;
2.410166666666667E+009;1.847005486488342E-001;2.474035322666168E-002;-3.475916339084506E-003;8.431370952166617E-004;
2.410333333333334E+009;1.837648600339890E-001;2.322748675942421E-002;-3.487386973574758E-003;9.964617202058435E-004;
2.410500000000000E+009;1.828369498252869E-001;2.111633308231831E-002;-3.521650331094861E-003;1.308448612689972E-003;
2.410666666666667E+009;1.819434911012650E-001;1.885639317333698E-002;-3.440429223701358E-003;1.228213659487665E-003;
2.410833333333334E+009;1.813517957925797E-001;1.673073507845402E-002;-3.318420378491283E-003;1.314084394834936E-003;
2.411000000000000E+009;1.804349869489670E-001;1.455422211438417E-002;-3.259182674810290E-003;1.634223386645317E-003;
2.411166666666667E+009;1.797798275947571E-001;1.231134589761496E-002;-3.248225897550583E-003;1.448572031222284E-003;
2.411333333333334E+009;1.793019473552704E-001;9.878899902105331E-003;-3.230755915865302E-003;1.611104235053062E-003;
2.411500000000000E+009;1.787433773279190E-001;7.591617293655872E-003;-3.220351645722985E-003;1.833238755352795E-003;
2.411666666666667E+009;1.787024140357971E-001;5.101539660245180E-003;-3.241892205551267E-003;1.752439420670271E-003;
2.411833333333334E+009;1.782475560903549E-001;2.849807962775230E-003;-3.109597600996494E-003;1.854712027125061E-003;
2.412000000000000E+009;1.786086708307266E-001;9.259151556761935E-005;-3.142397617921233E-003;1.972163328900933E-003;
2.412166666666667E+009;1.786501109600067E-001;-2.279646927490830E-003;-3.219185164198279E-003;2.081221435219050E-003;
2.412333333333334E+009;1.787941008806229E-001;-4.792591556906700E-003;-3.170107956975699E-003;2.003165893256664E-003;
2.412500000000000E+009;1.792710572481155E-001;-7.180763874202967E-003;-3.277197014540434E-003;2.117868047207594E-003;
2.412666666666667E+009;1.797498613595963E-001;-9.603118523955345E-003;-3.215625416487455E-003;2.347005764022470E-003;
2.412833333333334E+009;1.804844886064529E-001;-1.225549913942814E-002;-3.145137801766396E-003;2.310185926035047E-003;
2.413000000000000E+009;1.814915090799332E-001;-1.441533677279949E-002;-3.204467240720987E-003;2.476921537891030E-003;
2.413166666666667E+009;1.818930953741074E-001;-1.668511517345905E-002;-3.258260432630777E-003;2.684517297893763E-003;
2.413333333333334E+009;1.831560730934143E-001;-1.915017701685429E-002;-3.090136218816042E-003;2.771370112895966E-003;
2.413500000000000E+009;1.840172410011292E-001;-2.140894532203674E-002;-3.044686513021588E-003;3.031251253560185E-003;
2.413666666666667E+009;1.853200793266296E-001;-2.356998622417450E-002;-2.959790173918009E-003;3.361145732924342E-003;
2.413833333333334E+009;1.862660795450211E-001;-2.571441605687141E-002;-2.820804482325912E-003;3.498312551528215E-003;
2.414000000000000E+009;1.875391155481339E-001;-2.760720625519753E-002;-2.760287141427398E-003;3.591509070247412E-003;
2.414166666666667E+009;1.888270080089569E-001;-2.941158227622509E-002;-2.550504403188825E-003;3.633519168943167E-003;
2.414333333333334E+009;1.898923665285111E-001;-3.155885636806488E-002;-2.421636134386063E-003;3.816743614152074E-003;
2.414500000000000E+009;1.911219358444214E-001;-3.291975706815720E-002;-2.200935967266560E-003;3.995687235146761E-003;
2.414666666666667E+009;1.922832131385803E-001;-3.447120264172554E-002;-1.973295817151666E-003;3.953438252210617E-003;
2.414833333333334E+009;1.935926377773285E-001;-3.595790639519692E-002;-1.798580400645733E-003;4.044424742460251E-003;
2.415000000000000E+009;1.945983767509460E-001;-3.719734027981758E-002;-1.761576160788536E-003;4.124868661165237E-003;
2.415166666666667E+009;1.958226263523102E-001;-3.829514607787132E-002;-1.609187573194504E-003;4.152946639806032E-003;
2.415333333333334E+009;1.970846503973007E-001;-3.926622122526169E-002;-1.481036073528230E-003;4.151767119765282E-003;
2.415500000000000E+009;1.980921924114227E-001;-4.007253423333168E-002;-1.358598354272544E-003;4.124062601476908E-003;
2.415666666666667E+009;1.991399526596069E-001;-4.100961610674858E-002;-1.162718632258475E-003;4.140933975577354E-003;
2.415833333333334E+009;1.999734640121460E-001;-4.146315157413483E-002;-1.147429109551013E-003;4.373747855424881E-003;
2.416000000000000E+009;2.007121741771698E-001;-4.202866554260254E-002;-1.017606002278626E-003;4.280555061995983E-003;
2.416166666666667E+009;2.015573680400848E-001;-4.270167276263237E-002;-8.789870189502835E-004;4.309056792408228E-003;
2.416333333333334E+009;2.021318823099136E-001;-4.270102456212044E-002;-6.679742946289480E-004;4.433922935277224E-003;
2.416500000000000E+009;2.024866044521332E-001;-4.325210303068161E-002;-5.929598701186478E-004;4.426105413585901E-003;
2.416666666666667E+009;2.028708457946777E-001;-4.349515959620476E-002;-4.038786573801190E-004;4.515236709266901E-003;
2.416833333333334E+009;2.030207961797714E-001;-4.350807890295982E-002;-3.622303192969412E-004;4.594772588461638E-003;
2.417000000000000E+009;2.031560540199280E-001;-4.359363019466400E-002;-7.355886191362515E-005;4.532136488705874E-003;
2.417166666666667E+009;2.028346806764603E-001;-4.358196631073952E-002;1.213978393934667E-004;4.704593215137720E-003;
2.417333333333334E+009;2.026130706071854E-001;-4.329923912882805E-002;3.599940391723067E-004;4.691670183092356E-003;
2.417500000000000E+009;2.023055255413055E-001;-4.338923841714859E-002;5.584323080256581E-004;4.601050633937120E-003;
2.417666666666667E+009;2.017613351345062E-001;-4.316937550902367E-002;6.884679896757007E-004;4.550000187009573E-003;
2.417833333333334E+009;2.012727558612824E-001;-4.292330518364906E-002;1.032216241583228E-003;4.704117309302092E-003;
2.418000000000000E+009;2.006084024906158E-001;-4.271574690937996E-002;1.231876667588949E-003;4.606587346643210E-003;
2.418166666666667E+009;1.998767256736755E-001;-4.255674406886101E-002;1.306232879869640E-003;4.489903803914785E-003;
2.418333333333334E+009;1.988778859376907E-001;-4.241925850510597E-002;1.463546766899526E-003;4.360177088528872E-003;
2.418500000000000E+009;1.979052722454071E-001;-4.241103306412697E-002;1.704601687379181E-003;4.241005517542362E-003;
2.418666666666667E+009;1.968214958906174E-001;-4.233839735388756E-002;1.867784769274294E-003;4.185119643807411E-003;
2.418833333333334E+009;1.956262290477753E-001;-4.249580949544907E-002;1.880673691630364E-003;3.901696531102061E-003;
2.419000000000000E+009;1.942407786846161E-001;-4.273733496665955E-002;1.913710264489055E-003;3.745135152712464E-003;
2.419166666666667E+009;1.930388063192368E-001;-4.297560825943947E-002;2.084688981994987E-003;3.796982811763883E-003;
2.419333333333334E+009;1.914833635091782E-001;-4.338562116026878E-002;2.083713887259364E-003;3.483505453914404E-003;
2.419500000000000E+009;1.899537593126297E-001;-4.391666129231453E-002;2.193403197452426E-003;3.422636073082686E-003;
2.419666666666667E+009;1.883400976657867E-001;-4.473512992262840E-002;2.177539281547070E-003;3.523903898894787E-003;
2.419833333333334E+009;1.867498159408569E-001;-4.537902772426605E-002;2.122545614838600E-003;3.266539191827178E-003;
2.420000000000000E+009;1.851419508457184E-001;-4.628762975335121E-002;2.140218624845147E-003;3.333166241645813E-003;
2.420166666666667E+009;1.835324168205261E-001;-4.713908582925797E-002;2.080291043967009E-003;3.294249065220356E-003;
2.420333333333334E+009;1.818157434463501E-001;-4.838613793253899E-002;2.262845169752836E-003;3.323629032820463E-003;
2.420500000000000E+009;1.801298856735230E-001;-4.970037564635277E-002;2.415985800325871E-003;3.207708708941937E-003;
2.420666666666667E+009;1.785317659378052E-001;-5.093200132250786E-002;2.251085359603167E-003;3.328910330310464E-003;
2.420833333333334E+009;1.768004000186920E-001;-5.232611298561096E-002;2.479306422173977E-003;3.301292425021529E-003;
2.421000000000000E+009;1.754034906625748E-001;-5.403009429574013E-002;2.557790372520685E-003;3.253787988796830E-003;
2.421166666666667E+009;1.738019436597824E-001;-5.559612065553665E-002;2.840793691575527E-003;3.247961634770036E-003;
2.421333333333334E+009;1.720515340566635E-001;-5.716165900230408E-002;2.842776710167527E-003;3.088438650593162E-003;
2.421500000000000E+009;1.707416176795960E-001;-5.910673737525940E-002;2.977291820570827E-003;2.965940861031413E-003;
2.421666666666667E+009;1.696019768714905E-001;-6.087361276149750E-002;3.136688144877553E-003;2.838047919794917E-003;
2.421833333333334E+009;1.685857921838760E-001;-6.282667070627213E-002;3.086676122620702E-003;2.795370295643807E-003;
2.422000000000000E+009;1.671844422817230E-001;-6.462157517671585E-002;3.344509983435273E-003;2.616205019876361E-003;
2.422166666666667E+009;1.665711551904678E-001;-6.672824919223785E-002;3.494055708870292E-003;2.456049434840679E-003;
2.422333333333334E+009;1.655254662036896E-001;-6.881780177354813E-002;3.502971725538373E-003;2.274876227602363E-003;
2.422500000000000E+009;1.646915376186371E-001;-7.065553963184357E-002;3.426639130339027E-003;1.975684193894267E-003;
2.422666666666667E+009;1.640381217002869E-001;-7.272602617740631E-002;3.536121454089880E-003;1.867350772954524E-003;
2.422833333333334E+009;1.635965704917908E-001;-7.479722797870636E-002;3.474222030490637E-003;1.823767903260887E-003;
2.423000000000000E+009;1.631959080696106E-001;-7.692743837833405E-002;3.507621586322784E-003;1.644279225729406E-003;
2.423166666666667E+009;1.626667231321335E-001;-7.874199748039246E-002;3.480314742773771E-003;1.424589194357395E-003;
2.423333333333334E+009;1.626658737659454E-001;-8.067090064287186E-002;3.499818965792656E-003;1.472050673328340E-003;
2.423500000000000E+009;1.625013500452042E-001;-8.255809545516968E-002;3.323285607621074E-003;1.277789007872343E-003;
2.423666666666667E+009;1.625639349222183E-001;-8.451561629772186E-002;3.229873953387141E-003;1.311176340095699E-003;
2.423833333333334E+009;1.623840630054474E-001;-8.625560253858566E-002;3.307006554678083E-003;1.188788213767111E-003;
2.424000000000000E+009;1.626356840133667E-001;-8.815459161996841E-002;3.313823370262981E-003;1.145527930930257E-003;
2.424166666666667E+009;1.625910699367523E-001;-8.973253518342972E-002;3.139596199616790E-003;1.235455623827875E-003;
2.424333333333334E+009;1.629847437143326E-001;-9.117679297924042E-002;3.256312804296613E-003;1.222133520059288E-003;
2.424500000000000E+009;1.632493287324905E-001;-9.289133548736572E-002;3.204531036317349E-003;1.084241084754467E-003;
2.424666666666667E+009;1.635293364524841E-001;-9.435810893774033E-002;3.239050740376115E-003;1.081398804672062E-003;
2.424833333333334E+009;1.640560925006867E-001;-9.550301730632782E-002;3.240924328565598E-003;9.026887128129602E-004;
2.425000000000000E+009;1.645527184009552E-001;-9.679498523473740E-002;3.353475593030453E-003;9.966929210349917E-004;
2.425166666666667E+009;1.648915112018585E-001;-9.778326004743576E-002;3.384858136996627E-003;1.022348995320499E-003;
2.425333333333334E+009;1.651648432016373E-001;-9.889864921569824E-002;3.523557679727674E-003;7.851878763176501E-004;
2.425500000000000E+009;1.655785143375397E-001;-9.995497763156891E-002;3.503555199131370E-003;6.444314494729042E-004;
2.425666666666667E+009;1.659790575504303E-001;-1.006068736314774E-001;3.464435925707221E-003;6.256110500544310E-004;
2.425833333333334E+009;1.663386523723602E-001;-1.012993007898331E-001;3.685255767777562E-003;6.193692097440362E-004;
2.426000000000000E+009;1.667885333299637E-001;-1.017965450882912E-001;3.667272161692381E-003;4.636033845599741E-004;
2.426166666666667E+009;1.671329885721207E-001;-1.022657230496407E-001;3.658620407804847E-003;2.601789310574532E-004;
2.426333333333334E+009;1.671854108572006E-001;-1.027422174811363E-001;3.651333041489124E-003;3.568620595615357E-004;
2.426500000000000E+009;1.676804721355438E-001;-1.031070277094841E-001;3.612005384638906E-003;2.276036830153316E-004;
2.426666666666667E+009;1.678964793682098E-001;-1.032944768667221E-001;3.822330385446549E-003;4.853312930208631E-005;
2.426833333333334E+009;1.680833995342255E-001;-1.035582497715950E-001;3.575276117771864E-003;-1.012407738016918E-004;
2.427000000000000E+009;1.680398732423782E-001;-1.037199720740318E-001;3.830900881439447E-003;-8.004553819773719E-005;
2.427166666666667E+009;1.680631935596466E-001;-1.038507521152496E-001;3.703780937939882E-003;-2.534149098210037E-004;
2.427333333333334E+009;1.679565757513046E-001;-1.041100025177002E-001;3.819158999249339E-003;-2.467701560817659E-004;
2.427500000000000E+009;1.677814126014710E-001;-1.041829735040665E-001;3.728328272700310E-003;-3.783751744776964E-004;
2.427666666666667E+009;1.673797965049744E-001;-1.040988266468048E-001;3.855902468785644E-003;-4.944720421917737E-004;
2.427833333333334E+009;1.670784652233124E-001;-1.042589396238327E-001;3.836599877104163E-003;-5.161727895028889E-004;
