# Version 1.00
#
freq[Hz];re:Trc1_S11;im:Trc1_S11;re:Trc2_S21;im:Trc2_S21;
2.400000000000000E+009;1.629302948713303E-001;5.209652334451675E-002;3.266038838773966E-003;4.469273611903191E-003;
2.400166666666667E+009;1.627969890832901E-001;5.065126344561577E-002;3.399759531021118E-003;4.454629495739937E-003;
2.400333333333334E+009;1.625353246927261E-001;4.880875721573830E-002;3.549686167389154E-003;4.335774108767510E-003;
2.400500000000000E+009;1.624048799276352E-001;4.692180827260017E-002;3.551425877958536E-003;4.273299593478441E-003;
2.400666666666667E+009;1.623732745647430E-001;4.490835219621658E-002;3.767897142097354E-003;4.329587798565626E-003;
2.400833333333334E+009;1.624604910612106E-001;4.323574900627136E-002;3.990570083260536E-003;4.078295081853867E-003;
2.401000000000000E+009;1.624526977539063E-001;4.112506657838821E-002;4.198213573545218E-003;4.107488784939051E-003;
2.401166666666667E+009;1.625290811061859E-001;3.909539803862572E-002;4.309277050197125E-003;3.998292610049248E-003;
2.401333333333334E+009;1.624915301799774E-001;3.727919980883598E-002;4.611071199178696E-003;3.917459398508072E-003;
2.401500000000000E+009;1.627131402492523E-001;3.508441895246506E-002;4.755861125886440E-003;3.823740640655160E-003;
2.401666666666667E+009;1.630961596965790E-001;3.321847692131996E-002;5.163063760846853E-003;3.697993699461222E-003;
2.401833333333334E+009;1.632264852523804E-001;3.096615336835384E-002;5.238426383584738E-003;3.574165049940348E-003;
2.402000000000000E+009;1.631951630115509E-001;2.916957251727581E-002;5.533858202397823E-003;3.359988098964095E-003;
2.402166666666667E+009;1.637271940708160E-001;2.729356661438942E-002;5.690248683094978E-003;3.281557932496071E-003;
2.402333333333334E+009;1.640284359455109E-001;2.543711848556995E-002;5.932670086622238E-003;2.997780684381723E-003;
2.402500000000000E+009;1.647097617387772E-001;2.362143807113171E-002;6.125166546553373E-003;2.779555041342974E-003;
2.402666666666667E+009;1.653124392032623E-001;2.179666049778462E-002;6.226534955203533E-003;2.701947698369622E-003;
2.402833333333334E+009;1.657561808824539E-001;2.023124136030674E-002;6.433364469558001E-003;2.326805843040347E-003;
2.403000000000000E+009;1.664304286241531E-001;1.849286258220673E-002;6.589550524950028E-003;2.094193594530225E-003;
2.403166666666667E+009;1.671707481145859E-001;1.702627725899220E-002;6.870918441563845E-003;1.857261988334358E-003;
2.403333333333334E+009;1.679021269083023E-001;1.550298649817705E-002;6.897418294101954E-003;1.487069996073842E-003;
2.403500000000000E+009;1.685174852609634E-001;1.405543554574251E-002;7.037081755697727E-003;1.210485468618572E-003;
2.403666666666667E+009;1.693612635135651E-001;1.271762512624264E-002;7.179530337452889E-003;6.697301869280636E-004;
2.403833333333334E+009;1.702453643083572E-001;1.113235391676426E-002;7.215792778879404E-003;4.734199901577085E-004;
2.404000000000000E+009;1.711155921220779E-001;1.014625281095505E-002;7.381069008260965E-003;6.419472629204392E-005;
2.404166666666667E+009;1.718280464410782E-001;8.891964331269264E-003;7.199497427791357E-003;-7.507924601668492E-005;
2.404333333333334E+009;1.726058125495911E-001;7.917102426290512E-003;7.097193505614996E-003;-4.982587997801602E-004;
2.404500000000000E+009;1.731779128313065E-001;6.816672161221504E-003;7.122786715626717E-003;-8.900871034711599E-004;
2.404666666666667E+009;1.741723865270615E-001;6.060565356165171E-003;7.113301195204258E-003;-1.156496582552791E-003;
2.404833333333334E+009;1.749343723058701E-001;5.101393442600966E-003;6.997830234467983E-003;-1.706109615042806E-003;
2.405000000000000E+009;1.757042706012726E-001;4.314843565225601E-003;6.947568152099848E-003;-1.951106009073556E-003;
2.405166666666667E+009;1.763001084327698E-001;3.709854790940881E-003;6.720417644828558E-003;-2.323437249287963E-003;
2.405333333333334E+009;1.771209388971329E-001;2.877742750570178E-003;6.646323483437300E-003;-2.622323343530297E-003;
2.405500000000000E+009;1.776312440633774E-001;2.534178085625172E-003;6.453805603086948E-003;-2.909055445343256E-003;
2.405666666666667E+009;1.783886104822159E-001;2.148474799469113E-003;6.236775778234005E-003;-2.995004644617438E-003;
2.405833333333334E+009;1.786066740751267E-001;1.637669862248004E-003;6.076527293771505E-003;-3.305772319436073E-003;
2.406000000000000E+009;1.793044954538345E-001;1.200220780447125E-003;5.790463648736477E-003;-3.634176449850202E-003;
2.406166666666667E+009;1.795996725559235E-001;9.181335917674005E-004;5.656492430716753E-003;-3.713280428200960E-003;
2.406333333333334E+009;1.801567077636719E-001;6.114055868238211E-004;5.593312904238701E-003;-3.924292977899313E-003;
2.406500000000000E+009;1.802281439304352E-001;2.112764632329345E-004;5.248747300356627E-003;-4.263093229383230E-003;
2.406666666666667E+009;1.803735494613648E-001;4.965457992511801E-005;5.015646573156118E-003;-4.421753808856010E-003;
2.406833333333334E+009;1.805465668439865E-001;-3.394937957637012E-004;4.992088302969933E-003;-4.516473971307278E-003;
2.407000000000000E+009;1.805990040302277E-001;-6.474961992353201E-004;4.586721770465374E-003;-4.549304023385048E-003;
2.407166666666667E+009;1.807254552841187E-001;-8.919739047996700E-004;4.222165793180466E-003;-4.945735912770033E-003;
2.407333333333334E+009;1.805060654878616E-001;-1.300173462368548E-003;4.053733311593533E-003;-5.005463492125273E-003;
2.407500000000000E+009;1.804303079843521E-001;-1.597994240000844E-003;3.944327589124441E-003;-5.127929616719484E-003;
2.407666666666667E+009;1.801522523164749E-001;-1.920048031024635E-003;3.613193053752184E-003;-5.230417009443045E-003;
2.407833333333334E+009;1.796994656324387E-001;-2.585243200883269E-003;3.532664850354195E-003;-5.289779044687748E-003;
2.408000000000000E+009;1.792131662368774E-001;-3.109922399744391E-003;3.377000335603952E-003;-5.314413923770189E-003;
2.408166666666667E+009;1.789339184761047E-001;-3.540125908330083E-003;3.171448595821858E-003;-5.465134512633085E-003;
2.408333333333334E+009;1.785714626312256E-001;-4.276243969798088E-003;2.939112484455109E-003;-5.366864148527384E-003;
2.408500000000000E+009;1.779431104660034E-001;-4.967559128999710E-003;2.598144346848130E-003;-5.344276316463947E-003;
2.408666666666667E+009;1.773023605346680E-001;-5.887035280466080E-003;2.379216253757477E-003;-5.564890801906586E-003;
2.408833333333334E+009;1.764739304780960E-001;-6.610136013478041E-003;2.202359260991216E-003;-5.509001668542624E-003;
2.409000000000000E+009;1.758345812559128E-001;-7.471269927918911E-003;2.062152372673154E-003;-5.747238174080849E-003;
2.409166666666667E+009;1.752422302961350E-001;-8.558648638427258E-003;1.744293374940753E-003;-5.640637595206499E-003;
2.409333333333334E+009;1.745797693729401E-001;-9.763343259692192E-003;1.634159358218312E-003;-5.486395675688982E-003;
2.409500000000000E+009;1.739289015531540E-001;-1.106679067015648E-002;1.325780409388244E-003;-5.635083653032780E-003;
2.409666666666667E+009;1.729365140199661E-001;-1.232989039272070E-002;1.288272324018180E-003;-5.480209831148386E-003;
2.409833333333334E+009;1.721374094486237E-001;-1.362854987382889E-002;1.062122406437993E-003;-5.604139063507319E-003;
2.410000000000000E+009;1.715698540210724E-001;-1.484782807528973E-002;9.654345340095460E-004;-5.688543431460857E-003;
2.410166666666667E+009;1.708661615848541E-001;-1.653617806732655E-002;7.343113538809121E-004;-5.445922724902630E-003;
2.410333333333334E+009;1.701554954051971E-001;-1.800218969583511E-002;5.195182166062295E-004;-5.444718524813652E-003;
2.410500000000000E+009;1.695137768983841E-001;-1.966245658695698E-002;2.477092493791133E-004;-5.384720396250486E-003;
2.410666666666667E+009;1.687986701726914E-001;-2.145941182971001E-002;2.747400139924139E-004;-5.481520667672157E-003;
2.410833333333334E+009;1.684074103832245E-001;-2.320293895900250E-002;3.022375130967703E-005;-5.458595696836710E-003;
2.411000000000000E+009;1.678916215896606E-001;-2.503485605120659E-002;-1.473437587264925E-004;-5.358268506824970E-003;
2.411166666666667E+009;1.673285663127899E-001;-2.692385017871857E-002;-1.628283935133368E-004;-5.439945962280035E-003;
2.411333333333334E+009;1.669840365648270E-001;-2.870144322514534E-002;-4.294975660741329E-004;-5.417535081505776E-003;
2.411500000000000E+009;1.666703820228577E-001;-3.089708089828491E-002;-6.083946791477501E-004;-5.424524191766977E-003;
2.411666666666667E+009;1.664967685937882E-001;-3.274001181125641E-002;-6.027198978699744E-004;-5.461023189127445E-003;
2.411833333333334E+009;1.661499142646790E-001;-3.457513824105263E-002;-8.395033073611558E-004;-5.316267255693674E-003;
2.412000000000000E+009;1.662252843379974E-001;-3.657145425677300E-002;-9.183005895465612E-004;-5.478166975080967E-003;
2.412166666666667E+009;1.660894900560379E-001;-3.859110176563263E-002;-1.196536934003234E-003;-5.222290754318237E-003;
2.412333333333334E+009;1.663669198751450E-001;-4.057184234261513E-002;-1.250674482434988E-003;-5.395831540226936E-003;
2.412500000000000E+009;1.661299318075180E-001;-4.221067950129509E-002;-1.629635808058083E-003;-5.325485952198505E-003;
2.412666666666667E+009;1.663033962249756E-001;-4.448543488979340E-002;-1.721670385450125E-003;-5.209963303059340E-003;
2.412833333333334E+009;1.666023880243301E-001;-4.620905593037605E-002;-1.964657334610820E-003;-5.216704681515694E-003;
2.413000000000000E+009;1.666966080665588E-001;-4.814853891730309E-002;-2.050996059551835E-003;-5.118465516716242E-003;
2.413166666666667E+009;1.668199896812439E-001;-4.992664605379105E-002;-2.323121530935168E-003;-4.912991542369127E-003;
2.413333333333334E+009;1.671923995018005E-001;-5.160648003220558E-002;-2.373209455981851E-003;-5.023744422942400E-003;
2.413500000000000E+009;1.676148921251297E-001;-5.330097302794457E-002;-2.666943008080125E-003;-4.842713009566069E-003;
2.413666666666667E+009;1.680450439453125E-001;-5.491460114717484E-002;-2.821108559146524E-003;-4.751151893287897E-003;
2.413833333333334E+009;1.684567034244537E-001;-5.653246492147446E-002;-2.936045639216900E-003;-4.573774524033070E-003;
2.414000000000000E+009;1.688345223665237E-001;-5.793330445885658E-002;-3.323325188830495E-003;-4.481473937630653E-003;
2.414166666666667E+009;1.694227010011673E-001;-5.926980450749397E-002;-3.361815121024847E-003;-4.532602615654469E-003;
2.414333333333334E+009;1.697447299957275E-001;-6.059319898486137E-002;-3.591263201087713E-003;-4.177793394774199E-003;
2.414500000000000E+009;1.705560088157654E-001;-6.187242269515991E-002;-3.612180473282933E-003;-4.008771851658821E-003;
2.414666666666667E+009;1.708053499460220E-001;-6.279739737510681E-002;-3.873244626447558E-003;-3.705437527969480E-003;
2.414833333333334E+009;1.712207496166229E-001;-6.391932070255280E-002;-3.954879473894835E-003;-3.532035741955042E-003;
2.415000000000000E+009;1.715710014104843E-001;-6.481093168258667E-002;-3.855567891150713E-003;-3.483420703560114E-003;
2.415166666666667E+009;1.720472574234009E-001;-6.560952961444855E-002;-4.292906727641821E-003;-3.145804395899177E-003;
2.415333333333334E+009;1.724977046251297E-001;-6.636429578065872E-002;-4.241054411977530E-003;-3.001256380230188E-003;
2.415500000000000E+009;1.728492230176926E-001;-6.691746413707733E-002;-4.504613112658262E-003;-2.850742544978857E-003;
2.415666666666667E+009;1.729253828525543E-001;-6.751801818609238E-002;-4.546327050775290E-003;-2.661766251549125E-003;
2.415833333333334E+009;1.733133494853973E-001;-6.808553636074066E-002;-4.629659000784159E-003;-2.485059900209308E-003;
2.416000000000000E+009;1.733615547418594E-001;-6.854054331779480E-002;-4.551106598228216E-003;-2.283568959683180E-003;
2.416166666666667E+009;1.737559288740158E-001;-6.905597448348999E-002;-4.547471180558205E-003;-2.131307730451226E-003;
2.416333333333334E+009;1.736045479774475E-001;-6.929899752140045E-002;-4.811902064830065E-003;-1.721644657664001E-003;
2.416500000000000E+009;1.735533922910690E-001;-6.954527646303177E-002;-4.682225640863180E-003;-1.597763272002339E-003;
2.416666666666667E+009;1.733903735876083E-001;-6.978438794612885E-002;-4.647780209779739E-003;-1.458482351154089E-003;
2.416833333333334E+009;1.732533872127533E-001;-7.004681974649429E-002;-4.619604442268610E-003;-1.313742832280695E-003;
2.417000000000000E+009;1.728662848472595E-001;-7.024264335632324E-002;-4.660501610487700E-003;-1.089057652279735E-003;
2.417166666666667E+009;1.724165827035904E-001;-7.036726921796799E-002;-4.707174375653267E-003;-8.534579537808895E-004;
2.417333333333334E+009;1.719187051057816E-001;-7.054926455020905E-002;-4.539745859801769E-003;-5.971546634100378E-004;
2.417500000000000E+009;1.713218688964844E-001;-7.093662023544312E-002;-4.536482971161604E-003;-4.711865913122892E-004;
2.417666666666667E+009;1.708437800407410E-001;-7.084803283214569E-002;-4.462872631847858E-003;-3.590230480767787E-004;
2.417833333333334E+009;1.699065268039703E-001;-7.102022320032120E-002;-4.344199318438768E-003;-1.526705018477514E-004;
2.418000000000000E+009;1.691207289695740E-001;-7.133517414331436E-002;-4.413757473230362E-003;-7.029986591078341E-005;
2.418166666666667E+009;1.682088822126389E-001;-7.152491062879562E-002;-4.218170884996653E-003;1.103975009755231E-004;
2.418333333333334E+009;1.674626171588898E-001;-7.188045978546143E-002;-4.287347663193941E-003;2.999212592840195E-004;
2.418500000000000E+009;1.664434373378754E-001;-7.212036848068237E-002;-4.308867733925581E-003;4.031464632134885E-004;
2.418666666666667E+009;1.652989536523819E-001;-7.264924794435501E-002;-4.186194855719805E-003;3.526084474287927E-004;
2.418833333333334E+009;1.641501784324646E-001;-7.299942523241043E-002;-4.054591059684753E-003;6.653136806562543E-004;
2.419000000000000E+009;1.628172248601914E-001;-7.347459346055985E-002;-4.050913732498884E-003;8.217241847887635E-004;
2.419166666666667E+009;1.616680473089218E-001;-7.407711446285248E-002;-4.019096493721008E-003;9.322238620370626E-004;
2.419333333333334E+009;1.603143066167831E-001;-7.441560924053192E-002;-3.980509005486965E-003;1.057903748005629E-003;
2.419500000000000E+009;1.591262668371201E-001;-7.538509368896484E-002;-3.779149614274502E-003;1.112330006435514E-003;
2.419666666666667E+009;1.579166203737259E-001;-7.627554237842560E-002;-3.789884271100164E-003;1.242344500496984E-003;
2.419833333333334E+009;1.565913707017899E-001;-7.674037665128708E-002;-3.735722741112113E-003;1.304368954151869E-003;
2.420000000000000E+009;1.555309891700745E-001;-7.765164971351624E-002;-3.702030051499605E-003;1.427773153409362E-003;
2.420166666666667E+009;1.541953980922699E-001;-7.882871478796005E-002;-3.574581118300557E-003;1.514336327090859E-003;
2.420333333333334E+009;1.531087905168533E-001;-7.997255772352219E-002;-3.591762389987707E-003;1.642997143790126E-003;
2.420500000000000E+009;1.520267575979233E-001;-8.088647574186325E-002;-3.524816595017910E-003;1.483729574829340E-003;
2.420666666666667E+009;1.506432294845581E-001;-8.219641447067261E-002;-3.408456221222878E-003;1.616481575183570E-003;
2.420833333333334E+009;1.497532129287720E-001;-8.360867202281952E-002;-3.355160122737289E-003;1.683882321231067E-003;
2.421000000000000E+009;1.485728919506073E-001;-8.490322530269623E-002;-3.234210656955838E-003;1.856710412539542E-003;
2.421166666666667E+009;1.478766053915024E-001;-8.640249073505402E-002;-3.098417539149523E-003;1.948388642631471E-003;
2.421333333333334E+009;1.468943357467651E-001;-8.792117983102799E-002;-3.146110568195581E-003;1.944647170603275E-003;
2.421500000000000E+009;1.461242735385895E-001;-8.948017656803131E-002;-2.996671712026000E-003;2.009728690609336E-003;
2.421666666666667E+009;1.453489661216736E-001;-9.101047366857529E-002;-2.690831199288368E-003;2.080528531223536E-003;
2.421833333333334E+009;1.447719186544418E-001;-9.270012378692627E-002;-2.733154455199838E-003;2.245122566819191E-003;
2.422000000000000E+009;1.442239582538605E-001;-9.444306045770645E-002;-2.660768805071712E-003;2.298033330589533E-003;
2.422166666666667E+009;1.438786536455154E-001;-9.631900489330292E-002;-2.462893957272172E-003;2.455859910696745E-003;
2.422333333333334E+009;1.433523893356323E-001;-9.802059829235077E-002;-2.456746762618423E-003;2.368364483118057E-003;
2.422500000000000E+009;1.430374234914780E-001;-9.950519353151321E-002;-2.402151236310601E-003;2.523238537833095E-003;
2.422666666666667E+009;1.426877081394196E-001;-1.013738587498665E-001;-2.234708284959197E-003;2.567266114056110E-003;
2.422833333333334E+009;1.428619772195816E-001;-1.031187698245049E-001;-2.232821192592382E-003;2.588225528597832E-003;
2.423000000000000E+009;1.428428590297699E-001;-1.048570573329926E-001;-2.004214562475681E-003;2.591991098597646E-003;
2.423166666666667E+009;1.426946073770523E-001;-1.065548360347748E-001;-1.963573042303324E-003;2.621566643938422E-003;
2.423333333333334E+009;1.429873555898666E-001;-1.081317663192749E-001;-1.825004350394011E-003;2.604232635349035E-003;
2.423500000000000E+009;1.430440694093704E-001;-1.098411232233048E-001;-1.778584555722773E-003;2.749186241999269E-003;
2.423666666666667E+009;1.431012451648712E-001;-1.114952266216278E-001;-1.647175406105816E-003;2.791771199554205E-003;
2.423833333333334E+009;1.435919702053070E-001;-1.129321679472923E-001;-1.569811138324440E-003;2.930804388597608E-003;
2.424000000000000E+009;1.438211500644684E-001;-1.143444329500198E-001;-1.541264704428613E-003;2.767026890069246E-003;
2.424166666666667E+009;1.440671533346176E-001;-1.155853047966957E-001;-1.337527064606547E-003;2.837685402482748E-003;
2.424333333333334E+009;1.446633487939835E-001;-1.170893013477325E-001;-1.236410578712821E-003;2.970270114019513E-003;
2.424500000000000E+009;1.450820118188858E-001;-1.182659417390823E-001;-1.094225328415632E-003;2.894440898671746E-003;
2.424666666666667E+009;1.454772651195526E-001;-1.193694621324539E-001;-1.129283220507205E-003;2.790567232295871E-003;
2.424833333333334E+009;1.458136290311813E-001;-1.204831972718239E-001;-9.155289153568447E-004;2.689757617190480E-003;
2.425000000000000E+009;1.462889462709427E-001;-1.215723976492882E-001;-8.440494420938194E-004;2.848017727956176E-003;
2.425166666666667E+009;1.464352607727051E-001;-1.224340274930000E-001;-6.511100218631327E-004;2.932413248345256E-003;
2.425333333333334E+009;1.469308435916901E-001;-1.231812536716461E-001;-5.660383612848818E-004;2.863371977582574E-003;
2.425500000000000E+009;1.473012715578079E-001;-1.239439547061920E-001;-4.466693499125540E-004;2.794230822473764E-003;
2.425666666666667E+009;1.474107354879379E-001;-1.245410516858101E-001;-4.026686365250498E-004;2.700384706258774E-003;
2.425833333333334E+009;1.476501077413559E-001;-1.251727938652039E-001;-1.453786680940539E-004;2.648687688633800E-003;
2.426000000000000E+009;1.479706168174744E-001;-1.256245523691177E-001;-1.582568511366844E-004;2.677090233191848E-003;
2.426166666666667E+009;1.482959091663361E-001;-1.259659528732300E-001;-4.276304389350116E-005;2.600538777187467E-003;
2.426333333333334E+009;1.482494175434113E-001;-1.262919455766678E-001;7.166444993345067E-005;2.487505320459604E-003;
2.426500000000000E+009;1.482734382152557E-001;-1.265150010585785E-001;1.278920244658366E-004;2.509362297132611E-003;
2.426666666666667E+009;1.483333557844162E-001;-1.264997720718384E-001;2.735113375820220E-004;2.419593511149287E-003;
2.426833333333334E+009;1.481233835220337E-001;-1.266581565141678E-001;1.825042272685096E-004;2.380508696660399E-003;
2.427000000000000E+009;1.479259431362152E-001;-1.268392205238342E-001;3.781161503866315E-004;2.271813573315740E-003;
2.427166666666667E+009;1.476652771234512E-001;-1.267165988683701E-001;4.387739172670990E-004;2.359915291890502E-003;
2.427333333333334E+009;1.471125036478043E-001;-1.266696453094482E-001;4.855065199080855E-004;2.075722208246589E-003;
2.427500000000000E+009;1.468133330345154E-001;-1.267152279615402E-001;5.339258350431919E-004;2.295385347679257E-003;
2.427666666666667E+009;1.460546553134918E-001;-1.267685294151306E-001;4.913109587505460E-004;2.010467695072293E-003;
