# Version 1.00
#
freq[Hz];re:Trc1_S11;im:Trc1_S11;re:Trc2_S21;im:Trc2_S21;
2.400000000000000E+009;1.629866510629654E-001;5.227519571781158E-002;3.169920295476914E-003;4.419161938130856E-003;
2.400166666666667E+009;1.625540852546692E-001;5.061611905694008E-002;3.197276964783669E-003;4.490691237151623E-003;
2.400333333333334E+009;1.624789535999298E-001;4.867957904934883E-002;3.614657092839479E-003;4.355447832494974E-003;
2.400500000000000E+009;1.624662876129150E-001;4.684359580278397E-002;3.672412596642971E-003;4.228482022881508E-003;
2.400666666666667E+009;1.622698605060577E-001;4.492624104022980E-002;3.759070299565792E-003;4.360021091997623E-003;
2.400833333333334E+009;1.624883711338043E-001;4.314574971795082E-002;4.020348656922579E-003;4.240470938384533E-003;
2.401000000000000E+009;1.624420881271362E-001;4.119876027107239E-002;4.116637632250786E-003;4.193303175270557E-003;
2.401166666666667E+009;1.625229716300964E-001;3.922462463378906E-002;4.523964598774910E-003;4.069522023200989E-003;
2.401333333333334E+009;1.623709052801132E-001;3.719301521778107E-002;4.460526630282402E-003;4.145961720496416E-003;
2.401500000000000E+009;1.626891940832138E-001;3.517890721559525E-002;4.811449907720089E-003;3.817572258412838E-003;
2.401666666666667E+009;1.629245728254318E-001;3.343537449836731E-002;4.924540407955647E-003;3.833693452179432E-003;
2.401833333333334E+009;1.631463617086411E-001;3.116001933813095E-002;5.310566164553165E-003;3.622476244345307E-003;
2.402000000000000E+009;1.633475869894028E-001;2.926404029130936E-002;5.546917673200369E-003;3.280190052464604E-003;
2.402166666666667E+009;1.637442857027054E-001;2.711692266166210E-002;5.721902940422297E-003;3.421829082071781E-003;
2.402333333333334E+009;1.639953404664993E-001;2.527128718793392E-002;5.880835000425577E-003;3.104995470494032E-003;
2.402500000000000E+009;1.646988838911057E-001;2.368480339646339E-002;6.058684084564447E-003;2.769277896732092E-003;
2.402666666666667E+009;1.652548909187317E-001;2.194169349968433E-002;6.250191945582628E-003;2.746204845607281E-003;
2.402833333333334E+009;1.657509952783585E-001;2.017608657479286E-002;6.407373584806919E-003;2.557806670665741E-003;
2.403000000000000E+009;1.664877533912659E-001;1.850120909512043E-002;6.712379865348339E-003;2.176077803596854E-003;
2.403166666666667E+009;1.671932339668274E-001;1.693794876337051E-002;6.687070708721876E-003;1.895954017527401E-003;
2.403333333333334E+009;1.678819209337235E-001;1.549106556922197E-002;6.771154701709747E-003;1.673317165113986E-003;
2.403500000000000E+009;1.684796661138535E-001;1.401186734437943E-002;6.956372875720263E-003;1.208037254400551E-003;
2.403666666666667E+009;1.695014089345932E-001;1.245185546576977E-002;7.015563547611237E-003;9.066200000233948E-004;
2.403833333333334E+009;1.703056842088699E-001;1.138854119926691E-002;7.161241956055164E-003;4.899001796729863E-004;
2.404000000000000E+009;1.710565984249115E-001;1.009199488908052E-002;7.113865576684475E-003;1.594392379047349E-004;
2.404166666666667E+009;1.717463880777359E-001;8.748454041779041E-003;7.126324344426394E-003;-1.473798038205132E-004;
2.404333333333334E+009;1.726563870906830E-001;7.875402458012104E-003;7.180568762123585E-003;-6.394557422026992E-004;
2.404500000000000E+009;1.733430922031403E-001;6.994676310569048E-003;7.174225524067879E-003;-8.271735860034823E-004;
2.404666666666667E+009;1.741947233676910E-001;5.888593383133411E-003;7.030892651528120E-003;-1.075171632692218E-003;
2.404833333333334E+009;1.748738139867783E-001;5.025438033044338E-003;7.037165109068155E-003;-1.651332946494222E-003;
2.405000000000000E+009;1.755088865756989E-001;4.256244283169508E-003;6.790837273001671E-003;-2.054159995168448E-003;
2.405166666666667E+009;1.764938980340958E-001;3.696582745760679E-003;6.802634801715612E-003;-2.183649223297834E-003;
2.405333333333334E+009;1.771101951599121E-001;2.856552600860596E-003;6.549335084855557E-003;-2.582414774224162E-003;
2.405500000000000E+009;1.778097450733185E-001;2.516832202672958E-003;6.445365026593208E-003;-2.676564035937190E-003;
2.405666666666667E+009;1.783349663019180E-001;1.963366521522403E-003;6.301976740360260E-003;-3.161057597026229E-003;
2.405833333333334E+009;1.787138879299164E-001;1.626328099519014E-003;6.043422501534224E-003;-3.383126808330417E-003;
2.406000000000000E+009;1.793610602617264E-001;1.289732404984534E-003;5.886191967874765E-003;-3.636359237134457E-003;
2.406166666666667E+009;1.796096414327622E-001;9.591502603143454E-004;5.763928871601820E-003;-3.720214590430260E-003;
2.406333333333334E+009;1.801021546125412E-001;6.342869601212442E-004;5.406899377703667E-003;-4.056357312947512E-003;
2.406500000000000E+009;1.802933067083359E-001;2.067826571874321E-004;5.341623444110155E-003;-4.246746189892292E-003;
2.406666666666667E+009;1.802593618631363E-001;-1.697982406767551E-005;5.035558249801397E-003;-4.449672065675259E-003;
2.406833333333334E+009;1.805980652570725E-001;-3.548295062500984E-004;4.885678645223379E-003;-4.556376952677965E-003;
2.407000000000000E+009;1.805937588214874E-001;-6.667635170742869E-004;4.575302358716726E-003;-4.733554087579250E-003;
2.407166666666667E+009;1.807576864957809E-001;-9.051591623574495E-004;4.408228676766157E-003;-4.766248632222414E-003;
2.407333333333334E+009;1.804614514112473E-001;-1.347223762422800E-003;4.036230966448784E-003;-4.907300230115652E-003;
2.407500000000000E+009;1.803482323884964E-001;-1.694077975116670E-003;3.913838416337967E-003;-4.989551845937967E-003;
2.407666666666667E+009;1.801696419715881E-001;-2.017828868702054E-003;3.779106540605426E-003;-5.226347595453262E-003;
2.407833333333334E+009;1.796954721212387E-001;-2.573412377387285E-003;3.558981698006392E-003;-5.213879980146885E-003;
2.408000000000000E+009;1.793387085199356E-001;-3.031339263543487E-003;3.253094851970673E-003;-5.369780119508505E-003;
2.408166666666667E+009;1.788374334573746E-001;-3.468349575996399E-003;3.132806858047843E-003;-5.500111728906632E-003;
2.408333333333334E+009;1.785518974065781E-001;-4.165895748883486E-003;2.721306402236223E-003;-5.477083381265402E-003;
2.408500000000000E+009;1.779075115919113E-001;-4.974954761564732E-003;2.625248162075877E-003;-5.551022477447987E-003;
2.408666666666667E+009;1.772755533456802E-001;-5.691314116120338E-003;2.325005130842328E-003;-5.436704959720373E-003;
2.408833333333334E+009;1.765954345464706E-001;-6.624903529882431E-003;2.223953837528825E-003;-5.522894673049450E-003;
2.409000000000000E+009;1.758941113948822E-001;-7.476576603949070E-003;1.927216653712094E-003;-5.686405114829540E-003;
2.409166666666667E+009;1.753397434949875E-001;-8.608553558588028E-003;1.693682279437780E-003;-5.587340798228979E-003;
2.409333333333334E+009;1.745131462812424E-001;-9.785380214452744E-003;1.698099425993860E-003;-5.572467111051083E-003;
2.409500000000000E+009;1.737245619297028E-001;-1.091608125716448E-002;1.350857666693628E-003;-5.576748400926590E-003;
2.409666666666667E+009;1.730336397886276E-001;-1.211223192512989E-002;1.071437029168010E-003;-5.508812610059977E-003;
2.409833333333334E+009;1.722851544618607E-001;-1.344913616776466E-002;1.028248341754079E-003;-5.517371930181980E-003;
2.410000000000000E+009;1.716818660497665E-001;-1.477694604545832E-002;7.732451776973903E-004;-5.509975831955671E-003;
2.410166666666667E+009;1.709042042493820E-001;-1.640170812606812E-002;7.685571908950806E-004;-5.352434236556292E-003;
2.410333333333334E+009;1.702056825160980E-001;-1.794357597827911E-002;4.509312566369772E-004;-5.442047957330942E-003;
2.410500000000000E+009;1.696307957172394E-001;-1.950549148023129E-002;3.278041840530932E-004;-5.397519562393427E-003;
2.410666666666667E+009;1.689358800649643E-001;-2.143729850649834E-002;2.005028218263760E-004;-5.343513563275337E-003;
2.410833333333334E+009;1.684761047363281E-001;-2.315915562212467E-002;1.758075959514827E-004;-5.490084644407034E-003;
2.411000000000000E+009;1.678670346736908E-001;-2.486946061253548E-002;-1.786007051123306E-004;-5.412080325186253E-003;
2.411166666666667E+009;1.674723923206329E-001;-2.687607146799564E-002;-1.285499311052263E-004;-5.358652677386999E-003;
2.411333333333334E+009;1.669787019491196E-001;-2.876256592571735E-002;-5.150323850102723E-004;-5.294078495353460E-003;
2.411500000000000E+009;1.666728556156158E-001;-3.060542233288288E-002;-6.165342638269067E-004;-5.330636166036129E-003;
2.411666666666667E+009;1.666796505451202E-001;-3.261990100145340E-002;-6.903036846779287E-004;-5.292833317071199E-003;
2.411833333333334E+009;1.663730889558792E-001;-3.445102274417877E-002;-8.274762658402324E-004;-5.387325771152973E-003;
2.412000000000000E+009;1.663413047790527E-001;-3.671019151806831E-002;-1.058019348420203E-003;-5.158625543117523E-003;
2.412166666666667E+009;1.662309616804123E-001;-3.846897184848785E-002;-1.278642914257944E-003;-5.267622414976358E-003;
2.412333333333334E+009;1.662212759256363E-001;-4.031702131032944E-002;-1.387962023727596E-003;-5.222746171057224E-003;
2.412500000000000E+009;1.661431789398193E-001;-4.232451692223549E-002;-1.441764994524419E-003;-5.137731321156025E-003;
2.412666666666667E+009;1.663039624691010E-001;-4.439144209027290E-002;-1.629183301702142E-003;-5.178688094019890E-003;
2.412833333333334E+009;1.665851771831513E-001;-4.627011343836784E-002;-1.829071319662035E-003;-4.976960830390453E-003;
2.413000000000000E+009;1.667899340391159E-001;-4.818525165319443E-002;-2.092055743560195E-003;-4.939736332744360E-003;
2.413166666666667E+009;1.670521199703217E-001;-4.992309585213661E-002;-2.268228912726045E-003;-4.974546842277050E-003;
2.413333333333334E+009;1.672561615705490E-001;-5.167602747678757E-002;-2.487653167918325E-003;-4.982915241271257E-003;
2.413500000000000E+009;1.676747053861618E-001;-5.355331301689148E-002;-2.689162036404014E-003;-4.852527286857367E-003;
2.413666666666667E+009;1.681520342826843E-001;-5.502263829112053E-002;-2.924077212810516E-003;-4.597695544362068E-003;
2.413833333333334E+009;1.682806313037872E-001;-5.666647851467133E-002;-3.138530300930142E-003;-4.537284374237061E-003;
2.414000000000000E+009;1.687970757484436E-001;-5.790836364030838E-002;-3.180037252604961E-003;-4.486025311052799E-003;
2.414166666666667E+009;1.692893654108048E-001;-5.930121243000031E-002;-3.564057406038046E-003;-4.225513897836208E-003;
2.414333333333334E+009;1.698033213615418E-001;-6.056938692927361E-002;-3.678251290693879E-003;-4.070525988936424E-003;
2.414500000000000E+009;1.704154461622238E-001;-6.177587062120438E-002;-3.747099079191685E-003;-3.903092816472054E-003;
2.414666666666667E+009;1.707295179367065E-001;-6.275980919599533E-002;-3.848752472549677E-003;-3.834909759461880E-003;
2.414833333333334E+009;1.711907386779785E-001;-6.394002586603165E-002;-4.059270955622196E-003;-3.505940316244960E-003;
2.415000000000000E+009;1.715788096189499E-001;-6.485087424516678E-002;-4.177720751613379E-003;-3.473530756309629E-003;
2.415166666666667E+009;1.720353662967682E-001;-6.564500927925110E-002;-4.373898264020681E-003;-3.121886402368546E-003;
2.415333333333334E+009;1.725232750177383E-001;-6.641869246959686E-002;-4.443894140422344E-003;-3.086607903242111E-003;
2.415500000000000E+009;1.727573275566101E-001;-6.698413938283920E-002;-4.367346409708262E-003;-3.020063973963261E-003;
2.415666666666667E+009;1.730213016271591E-001;-6.747904419898987E-002;-4.486250691115856E-003;-2.779916394501925E-003;
2.415833333333334E+009;1.733574569225311E-001;-6.804034113883972E-002;-4.526400007307529E-003;-2.345897257328033E-003;
2.416000000000000E+009;1.733619868755341E-001;-6.846655905246735E-002;-4.732177127152681E-003;-2.215093700215221E-003;
2.416166666666667E+009;1.737042814493179E-001;-6.888308376073837E-002;-4.695450421422720E-003;-2.034825272858143E-003;
2.416333333333334E+009;1.736810207366943E-001;-6.916546821594238E-002;-4.571336321532726E-003;-1.869156258180738E-003;
2.416500000000000E+009;1.735294461250305E-001;-6.949759274721146E-002;-4.823153372853994E-003;-1.573751447722316E-003;
2.416666666666667E+009;1.732915341854096E-001;-6.973455846309662E-002;-4.905022680759430E-003;-1.360131427645683E-003;
2.416833333333334E+009;1.731827557086945E-001;-7.002110034227371E-002;-4.705751780420542E-003;-1.184369786642492E-003;
2.417000000000000E+009;1.726901382207871E-001;-7.017036527395248E-002;-4.823132418096066E-003;-1.087646349333227E-003;
2.417166666666667E+009;1.724376529455185E-001;-7.034964859485626E-002;-4.829643294215202E-003;-7.369506056420505E-004;
2.417333333333334E+009;1.719904690980911E-001;-7.035715878009796E-002;-4.697498399764299E-003;-6.390178459696472E-004;
2.417500000000000E+009;1.713577210903168E-001;-7.087571918964386E-002;-4.799691960215569E-003;-3.851385845337063E-004;
2.417666666666667E+009;1.708046495914459E-001;-7.088077813386917E-002;-4.586239345371723E-003;-2.989507629536092E-004;
2.417833333333334E+009;1.700258851051331E-001;-7.093624025583267E-002;-4.583479836583138E-003;-1.743725588312373E-004;
2.418000000000000E+009;1.691475212574005E-001;-7.133930176496506E-002;-4.500447306782007E-003;2.662276347109582E-005;
2.418166666666667E+009;1.682459264993668E-001;-7.139004021883011E-002;-4.512810148298740E-003;6.897022103657946E-005;
2.418333333333334E+009;1.675187647342682E-001;-7.173908501863480E-002;-4.247261676937342E-003;1.458734041079879E-004;
2.418500000000000E+009;1.663716137409210E-001;-7.205950468778610E-002;-4.408449865877628E-003;4.020167980343103E-004;
2.418666666666667E+009;1.653746962547302E-001;-7.238779962062836E-002;-4.356428515166044E-003;5.548411281779409E-004;
2.418833333333334E+009;1.640310883522034E-001;-7.287787646055222E-002;-4.127551801502705E-003;5.187493516132236E-004;
2.419000000000000E+009;1.629761159420013E-001;-7.334301620721817E-002;-4.229104146361351E-003;8.463194826617837E-004;
2.419166666666667E+009;1.617017239332199E-001;-7.401307672262192E-002;-3.895308356732130E-003;9.013974340632558E-004;
2.419333333333334E+009;1.603977531194687E-001;-7.438245415687561E-002;-3.871139371767640E-003;1.073149731382728E-003;
2.419500000000000E+009;1.589744091033936E-001;-7.520210742950440E-002;-3.823952982202172E-003;1.109356526285410E-003;
2.419666666666667E+009;1.580297499895096E-001;-7.603514939546585E-002;-3.922824747860432E-003;1.219093333929777E-003;
2.419833333333334E+009;1.566514521837235E-001;-7.674340158700943E-002;-3.695704974234104E-003;1.283781835809350E-003;
2.420000000000000E+009;1.554385721683502E-001;-7.775519788265228E-002;-3.547462169080973E-003;1.291532302275300E-003;
2.420166666666667E+009;1.541713923215866E-001;-7.871983945369721E-002;-3.661663969978690E-003;1.509920228272677E-003;
2.420333333333334E+009;1.531517654657364E-001;-7.988940924406052E-002;-3.542463295161724E-003;1.687909010797739E-003;
2.420500000000000E+009;1.519892364740372E-001;-8.098091185092926E-002;-3.420424647629261E-003;1.646065036766231E-003;
2.420666666666667E+009;1.508307307958603E-001;-8.222628384828568E-002;-3.371739527210593E-003;1.737738959491253E-003;
2.420833333333334E+009;1.497518271207809E-001;-8.344784379005432E-002;-3.260837635025382E-003;1.746213762089610E-003;
2.421000000000000E+009;1.486714035272598E-001;-8.505035191774368E-002;-3.079846967011690E-003;1.869127620011568E-003;
2.421166666666667E+009;1.479203104972839E-001;-8.634475618600845E-002;-2.962893573567271E-003;1.997963758185506E-003;
2.421333333333334E+009;1.470164805650711E-001;-8.793842047452927E-002;-2.940258476883173E-003;1.992162317037582E-003;
2.421500000000000E+009;1.462338715791702E-001;-8.952228724956513E-002;-2.923813648521900E-003;2.035970101132989E-003;
2.421666666666667E+009;1.454989165067673E-001;-9.112519025802612E-002;-2.912696683779359E-003;2.087729051709175E-003;
2.421833333333334E+009;1.448771059513092E-001;-9.270797669887543E-002;-2.689949003979564E-003;2.232779981568456E-003;
2.422000000000000E+009;1.442188620567322E-001;-9.448329359292984E-002;-2.623910317197442E-003;2.336319768801332E-003;
2.422166666666667E+009;1.438220888376236E-001;-9.627554565668106E-002;-2.586694434285164E-003;2.206547418609262E-003;
2.422333333333334E+009;1.434993594884872E-001;-9.795901179313660E-002;-2.511321101337671E-003;2.305852714926004E-003;
2.422500000000000E+009;1.430459171533585E-001;-9.967765212059021E-002;-2.235471969470382E-003;2.403155667707324E-003;
2.422666666666667E+009;1.427529752254486E-001;-1.013708338141441E-001;-2.258189255371690E-003;2.590711228549480E-003;
2.422833333333334E+009;1.427323222160339E-001;-1.032458990812302E-001;-2.153972163796425E-003;2.479466143995524E-003;
2.423000000000000E+009;1.426190137863159E-001;-1.048264503479004E-001;-2.150883199647069E-003;2.582433633506298E-003;
2.423166666666667E+009;1.427002847194672E-001;-1.064926087856293E-001;-1.927866949699819E-003;2.595172263681889E-003;
2.423333333333334E+009;1.429227441549301E-001;-1.081020608544350E-001;-1.850819098763168E-003;2.716792514547706E-003;
2.423500000000000E+009;1.431863903999329E-001;-1.097827106714249E-001;-1.797552686184645E-003;2.608775626868010E-003;
2.423666666666667E+009;1.430361866950989E-001;-1.114266812801361E-001;-1.634948304854333E-003;2.701709279790521E-003;
2.423833333333334E+009;1.436176747083664E-001;-1.129138469696045E-001;-1.503894105553627E-003;2.835924969986081E-003;
2.424000000000000E+009;1.437720656394959E-001;-1.143302917480469E-001;-1.360466936603189E-003;2.675972878932953E-003;
2.424166666666667E+009;1.440079957246780E-001;-1.156566515564919E-001;-1.393272890709341E-003;2.781517338007689E-003;
2.424333333333334E+009;1.445043832063675E-001;-1.170568466186523E-001;-1.145141082815826E-003;2.806477947160602E-003;
2.424500000000000E+009;1.449077278375626E-001;-1.183277741074562E-001;-1.121666166000068E-003;2.844394883140922E-003;
2.424666666666667E+009;1.455132961273193E-001;-1.193939298391342E-001;-1.067255274392664E-003;2.853290876373649E-003;
2.424833333333334E+009;1.457562446594238E-001;-1.203369721770287E-001;-9.401687420904636E-004;2.719651209190488E-003;
2.425000000000000E+009;1.461139172315598E-001;-1.213795393705368E-001;-7.246289169415832E-004;2.763003343716264E-003;
2.425166666666667E+009;1.464775800704956E-001;-1.223384514451027E-001;-6.753510097041726E-004;2.759595867246389E-003;
2.425333333333334E+009;1.469073742628098E-001;-1.231122687458992E-001;-5.048473831266165E-004;2.780769485980272E-003;
2.425500000000000E+009;1.473144292831421E-001;-1.238394379615784E-001;-5.238336161710322E-004;2.865031361579895E-003;
2.425666666666667E+009;1.473166346549988E-001;-1.244020611047745E-001;-2.903008135035634E-004;2.736875321716070E-003;
2.425833333333334E+009;1.477571278810501E-001;-1.251022964715958E-001;-4.319063446018845E-004;2.697709249332547E-003;
2.426000000000000E+009;1.479606032371521E-001;-1.255262047052383E-001;-1.344095071544871E-004;2.560748951509595E-003;
2.426166666666667E+009;1.482200324535370E-001;-1.259260028600693E-001;-1.064904354279861E-004;2.477388130500913E-003;
2.426333333333334E+009;1.482689827680588E-001;-1.261929869651794E-001;3.761815605685115E-005;2.448692219331861E-003;
2.426500000000000E+009;1.483067274093628E-001;-1.263559609651566E-001;2.326684443687554E-005;2.574081066995859E-003;
2.426666666666667E+009;1.484966129064560E-001;-1.265226900577545E-001;8.620438893558458E-005;2.411360153928399E-003;
2.426833333333334E+009;1.482156068086624E-001;-1.266561746597290E-001;2.410502638667822E-004;2.457401016727090E-003;
2.427000000000000E+009;1.479807198047638E-001;-1.267984807491303E-001;1.917268527904525E-004;2.379609970375896E-003;
2.427166666666667E+009;1.477203518152237E-001;-1.266488432884216E-001;2.863647823687643E-004;2.384721767157316E-003;
2.427333333333334E+009;1.473542302846909E-001;-1.266965866088867E-001;4.351042734924704E-004;2.147664083167911E-003;
2.427500000000000E+009;1.468799710273743E-001;-1.266644597053528E-001;3.638999769464135E-004;2.299214014783502E-003;
2.427666666666667E+009;1.462266892194748E-001;-1.265577077865601E-001;4.247357137501240E-004;2.055873861536384E-003;
