# Version 1.00
#
freq[Hz];re:Trc1_S11;im:Trc1_S11;re:Trc2_S21;im:Trc2_S21;
2.400000000000000E+009;1.629048287868500E-001;5.207759141921997E-002;3.151386510580778E-003;4.502500407397747E-003;
2.400166666666667E+009;1.628146469593048E-001;5.051754042506218E-002;3.339655231684446E-003;4.512363579124212E-003;
2.400333333333334E+009;1.625584363937378E-001;4.879888147115707E-002;3.497391706332564E-003;4.348593298345804E-003;
2.400500000000000E+009;1.624969244003296E-001;4.695560038089752E-002;3.593157278373838E-003;4.433644935488701E-003;
2.400666666666667E+009;1.624312251806259E-001;4.483710974454880E-002;3.875443944707513E-003;4.347500856965780E-003;
2.400833333333334E+009;1.624142080545425E-001;4.311610758304596E-002;3.950722981244326E-003;4.287675488740206E-003;
2.401000000000000E+009;1.624066233634949E-001;4.112293943762779E-002;4.231418017297983E-003;4.295527935028076E-003;
2.401166666666667E+009;1.626088172197342E-001;3.914566338062286E-002;4.349735565483570E-003;3.994995728135109E-003;
2.401333333333334E+009;1.625826805830002E-001;3.693441301584244E-002;4.585408605635166E-003;4.020846914499998E-003;
2.401500000000000E+009;1.627919524908066E-001;3.513885661959648E-002;4.667984321713448E-003;4.024386871606112E-003;
2.401666666666667E+009;1.629988551139832E-001;3.311788663268089E-002;5.020690150558949E-003;3.839997341856360E-003;
2.401833333333334E+009;1.632888466119766E-001;3.122030198574066E-002;5.163011606782675E-003;3.768132533878088E-003;
2.402000000000000E+009;1.632635742425919E-001;2.933674119412899E-002;5.416101310402155E-003;3.511765273287892E-003;
2.402166666666667E+009;1.637022644281387E-001;2.712565660476685E-002;5.578170530498028E-003;3.415917279198766E-003;
2.402333333333334E+009;1.641896814107895E-001;2.541563473641872E-002;5.739572457969189E-003;3.160488791763783E-003;
2.402500000000000E+009;1.648377031087875E-001;2.374902181327343E-002;6.046344526112080E-003;3.030469641089439E-003;
2.402666666666667E+009;1.652221232652664E-001;2.195090614259243E-002;6.212110165506601E-003;2.717904048040509E-003;
2.402833333333334E+009;1.657597869634628E-001;2.043247595429421E-002;6.216848269104958E-003;2.381050959229469E-003;
2.403000000000000E+009;1.664175838232040E-001;1.850923337042332E-002;6.796695291996002E-003;2.267212606966496E-003;
2.403166666666667E+009;1.671245396137238E-001;1.691726781427860E-002;6.796311587095261E-003;1.862314180471003E-003;
2.403333333333334E+009;1.679027080535889E-001;1.565001904964447E-002;6.930981297045946E-003;1.618661335669458E-003;
2.403500000000000E+009;1.686950325965881E-001;1.415052264928818E-002;6.909843999892473E-003;1.144318026490510E-003;
2.403666666666667E+009;1.694420129060745E-001;1.257914397865534E-002;7.174522615969181E-003;8.515171357430518E-004;
2.403833333333334E+009;1.703670918941498E-001;1.122462749481201E-002;7.286329753696919E-003;5.400355439633131E-004;
2.404000000000000E+009;1.712117642164230E-001;1.017881743609905E-002;7.390584796667099E-003;2.141269942512736E-004;
2.404166666666667E+009;1.718283891677856E-001;8.969527669250965E-003;7.389871403574944E-003;-1.841578778112307E-004;
2.404333333333334E+009;1.726991236209869E-001;7.823437452316284E-003;7.372611667960882E-003;-4.310317162889987E-004;
2.404500000000000E+009;1.732915490865707E-001;6.859929300844669E-003;7.208196911960840E-003;-1.018638024106622E-003;
2.404666666666667E+009;1.740393787622452E-001;5.865776445716620E-003;7.348794490098953E-003;-1.298411632888019E-003;
2.404833333333334E+009;1.749633848667145E-001;5.047653801739216E-003;7.284048944711685E-003;-1.569307292811573E-003;
2.405000000000000E+009;1.756979972124100E-001;4.570063669234514E-003;6.864683236926794E-003;-2.099611097946763E-003;
2.405166666666667E+009;1.765311360359192E-001;3.660100745037198E-003;6.946851499378681E-003;-2.257743151858449E-003;
2.405333333333334E+009;1.773747950792313E-001;2.901108236983419E-003;6.823953241109848E-003;-2.535741543397307E-003;
2.405500000000000E+009;1.777620315551758E-001;2.553893718868494E-003;6.526491139084101E-003;-2.866184571757913E-003;
2.405666666666667E+009;1.783608794212341E-001;1.981779234483838E-003;6.369625683873892E-003;-3.097504144534469E-003;
2.405833333333334E+009;1.787710785865784E-001;1.649304758757353E-003;6.057800259441137E-003;-3.352602245286107E-003;
2.406000000000000E+009;1.793483048677445E-001;1.166589558124542E-003;5.910785403102636E-003;-3.721021814271808E-003;
2.406166666666667E+009;1.796576678752899E-001;9.706623386591673E-004;5.810602568089962E-003;-3.870539600029588E-003;
2.406333333333334E+009;1.801261156797409E-001;5.432261386886239E-004;5.422695074230433E-003;-3.915046807378531E-003;
2.406500000000000E+009;1.803992390632629E-001;2.291777927894145E-004;5.327040329575539E-003;-4.129746463149786E-003;
2.406666666666667E+009;1.803902536630631E-001;2.870430307666538E-006;5.044499412178993E-003;-4.385339096188545E-003;
2.406833333333334E+009;1.806389838457108E-001;-3.211729344911873E-004;4.785715136677027E-003;-4.630064591765404E-003;
2.407000000000000E+009;1.805878430604935E-001;-6.721465033479035E-004;4.636588972061873E-003;-4.794171545654535E-003;
2.407166666666667E+009;1.806999444961548E-001;-8.862629183568060E-004;4.525564145296812E-003;-4.837244749069214E-003;
2.407333333333334E+009;1.805651336908341E-001;-1.288614585064352E-003;4.081057850271463E-003;-4.861013032495976E-003;
2.407500000000000E+009;1.803816556930542E-001;-1.685117254965007E-003;3.986319061368704E-003;-5.104457959532738E-003;
2.407666666666667E+009;1.800804883241653E-001;-2.003015950322151E-003;3.694606479257345E-003;-5.290628876537085E-003;
2.407833333333334E+009;1.796395778656006E-001;-2.502293325960636E-003;3.547467058524489E-003;-5.244183819741011E-003;
2.408000000000000E+009;1.793747246265411E-001;-3.086833283305168E-003;3.238571574911475E-003;-5.383225623518229E-003;
2.408166666666667E+009;1.789074540138245E-001;-3.520671045407653E-003;2.875081030651927E-003;-5.411969032138586E-003;
2.408333333333334E+009;1.786468923091888E-001;-4.185399971902371E-003;2.816364867612720E-003;-5.446393974125385E-003;
2.408500000000000E+009;1.779249161481857E-001;-4.861770663410425E-003;2.669719047844410E-003;-5.488245282322168E-003;
2.408666666666667E+009;1.773768216371536E-001;-5.777466110885143E-003;2.297174185514450E-003;-5.610163323581219E-003;
2.408833333333334E+009;1.765888482332230E-001;-6.668014451861382E-003;2.200393704697490E-003;-5.527761299163103E-003;
2.409000000000000E+009;1.759251058101654E-001;-7.418678142130375E-003;1.982564572244883E-003;-5.583649966865778E-003;
2.409166666666667E+009;1.753617376089096E-001;-8.561007678508759E-003;1.772482530213893E-003;-5.642699543386698E-003;
2.409333333333334E+009;1.746647208929062E-001;-9.702959097921848E-003;1.702061039395630E-003;-5.535329692065716E-003;
2.409500000000000E+009;1.738011091947556E-001;-1.099989190697670E-002;1.286157174035907E-003;-5.625383928418160E-003;
2.409666666666667E+009;1.729722917079926E-001;-1.235350035130978E-002;1.175442826934159E-003;-5.612866021692753E-003;
2.409833333333334E+009;1.720908731222153E-001;-1.343939825892448E-002;9.298234363086522E-004;-5.560679826885462E-003;
2.410000000000000E+009;1.715909242630005E-001;-1.492816116660833E-002;7.607619045302272E-004;-5.505665671080351E-003;
2.410166666666667E+009;1.709254235029221E-001;-1.634716056287289E-002;7.577411597594619E-004;-5.521032493561506E-003;
2.410333333333334E+009;1.701593101024628E-001;-1.799607649445534E-002;2.816967898979783E-004;-5.521299783140421E-003;
2.410500000000000E+009;1.695626229047775E-001;-1.960138790309429E-002;2.658027515280992E-004;-5.453649908304215E-003;
2.410666666666667E+009;1.688876003026962E-001;-2.136651240289211E-002;2.599622821435332E-004;-5.442246794700623E-003;
2.410833333333334E+009;1.685288697481155E-001;-2.303681336343288E-002;2.142457378795371E-005;-5.494931247085333E-003;
2.411000000000000E+009;1.678947955369949E-001;-2.487234026193619E-002;-1.411265548085794E-004;-5.350432358682156E-003;
2.411166666666667E+009;1.672906875610352E-001;-2.673148177564144E-002;-1.613014464965090E-004;-5.349447485059500E-003;
2.411333333333334E+009;1.671755611896515E-001;-2.860454469919205E-002;-3.128489188384265E-004;-5.398436915129423E-003;
2.411500000000000E+009;1.666758954524994E-001;-3.076710924506187E-002;-5.676612490788102E-004;-5.315707530826330E-003;
2.411666666666667E+009;1.664473563432694E-001;-3.268236294388771E-002;-6.287382566370070E-004;-5.287382751703262E-003;
2.411833333333334E+009;1.664181649684906E-001;-3.470195829868317E-002;-8.873342303559184E-004;-5.140636116266251E-003;
2.412000000000000E+009;1.663164943456650E-001;-3.655348345637322E-002;-9.632238070480526E-004;-5.292326677590609E-003;
2.412166666666667E+009;1.660175919532776E-001;-3.851592913269997E-002;-1.112025231122971E-003;-5.149712786078453E-003;
2.412333333333334E+009;1.661424487829208E-001;-4.046723619103432E-002;-1.281322794966400E-003;-5.164477974176407E-003;
2.412500000000000E+009;1.662403047084808E-001;-4.238420724868774E-002;-1.633039559237659E-003;-5.266360472887754E-003;
2.412666666666667E+009;1.664113998413086E-001;-4.444336518645287E-002;-1.721164793707430E-003;-5.182931199669838E-003;
2.412833333333334E+009;1.665428876876831E-001;-4.635804891586304E-002;-1.930878148414195E-003;-5.129477474838495E-003;
2.413000000000000E+009;1.666671782732010E-001;-4.808722436428070E-002;-2.284104935824871E-003;-5.116388667374849E-003;
2.413166666666667E+009;1.670873463153839E-001;-5.010156705975533E-002;-2.335197757929564E-003;-4.847985226660967E-003;
2.413333333333334E+009;1.671566963195801E-001;-5.165070667862892E-002;-2.448581857606769E-003;-4.970097448676825E-003;
2.413500000000000E+009;1.676937341690064E-001;-5.330713465809822E-002;-2.610936528071761E-003;-4.889690317213535E-003;
2.413666666666667E+009;1.681062877178192E-001;-5.494591221213341E-002;-2.921394072473049E-003;-4.659439437091351E-003;
2.413833333333334E+009;1.684023141860962E-001;-5.651012808084488E-002;-2.964935498312116E-003;-4.583930131047964E-003;
2.414000000000000E+009;1.688241511583328E-001;-5.801576375961304E-002;-3.369709011167288E-003;-4.424830432981253E-003;
2.414166666666667E+009;1.694828271865845E-001;-5.929487943649292E-002;-3.502085339277983E-003;-4.260018933564425E-003;
2.414333333333334E+009;1.699136793613434E-001;-6.064851209521294E-002;-3.646328113973141E-003;-4.001308698207140E-003;
2.414500000000000E+009;1.704803407192230E-001;-6.192225590348244E-002;-3.798446850851178E-003;-3.895458299666643E-003;
2.414666666666667E+009;1.707862019538879E-001;-6.270185858011246E-002;-4.000417422503233E-003;-3.886849153786898E-003;
2.414833333333334E+009;1.711193621158600E-001;-6.393910944461823E-002;-4.023632034659386E-003;-3.478893544524908E-003;
2.415000000000000E+009;1.715811491012573E-001;-6.476022303104401E-002;-4.062383901327848E-003;-3.368296660482884E-003;
2.415166666666667E+009;1.719923615455627E-001;-6.567008048295975E-002;-4.341414198279381E-003;-3.319389419630170E-003;
2.415333333333334E+009;1.725244969129562E-001;-6.635081022977829E-002;-4.339089617133141E-003;-3.022375516593456E-003;
2.415500000000000E+009;1.728131622076035E-001;-6.697507202625275E-002;-4.630878102034330E-003;-2.822318114340305E-003;
2.415666666666667E+009;1.730695217847824E-001;-6.760589033365250E-002;-4.451829474419355E-003;-2.604739740490913E-003;
2.415833333333334E+009;1.733833253383637E-001;-6.813254207372665E-002;-4.564635921269655E-003;-2.418885705992580E-003;
2.416000000000000E+009;1.734074801206589E-001;-6.859448552131653E-002;-4.541412461549044E-003;-2.263959497213364E-003;
2.416166666666667E+009;1.736353039741516E-001;-6.897462159395218E-002;-4.749416839331389E-003;-1.912768580950797E-003;
2.416333333333334E+009;1.735205054283142E-001;-6.921085715293884E-002;-4.643165972083807E-003;-1.803968450985849E-003;
2.416500000000000E+009;1.735250353813171E-001;-6.973305344581604E-002;-4.764940124005079E-003;-1.511648646555841E-003;
2.416666666666667E+009;1.733343601226807E-001;-6.975661963224411E-002;-4.791088402271271E-003;-1.350179663859308E-003;
2.416833333333334E+009;1.732546687126160E-001;-7.016512751579285E-002;-4.681244492530823E-003;-1.182305510155857E-003;
2.417000000000000E+009;1.726539283990860E-001;-7.026813924312592E-002;-4.769430961459875E-003;-1.185850240290165E-003;
2.417166666666667E+009;1.723818480968475E-001;-7.034591585397720E-002;-4.716975614428520E-003;-8.758726180531085E-004;
2.417333333333334E+009;1.719469726085663E-001;-7.047558575868607E-002;-4.646960180252791E-003;-5.725768860429525E-004;
2.417500000000000E+009;1.712390482425690E-001;-7.082732021808624E-002;-4.663480445742607E-003;-3.987343225162476E-004;
2.417666666666667E+009;1.707650572061539E-001;-7.079256325960159E-002;-4.718866199254990E-003;-2.272822894155979E-004;
2.417833333333334E+009;1.700280308723450E-001;-7.103574275970459E-002;-4.584293346852064E-003;-1.607513841008768E-004;
2.418000000000000E+009;1.691011041402817E-001;-7.125864177942276E-002;-4.667860455811024E-003;2.431605389574543E-005;
2.418166666666667E+009;1.683230251073837E-001;-7.137733697891235E-002;-4.362902604043484E-003;2.298030594829470E-004;
2.418333333333334E+009;1.675721853971481E-001;-7.174323499202728E-002;-4.466127604246140E-003;3.559140313882381E-004;
2.418500000000000E+009;1.663212776184082E-001;-7.208706438541412E-002;-4.339374601840973E-003;3.932429826818407E-004;
2.418666666666667E+009;1.653376370668411E-001;-7.248043268918991E-002;-4.260345362126827E-003;5.293806898407638E-004;
2.418833333333334E+009;1.640707999467850E-001;-7.293827831745148E-002;-4.181056283414364E-003;5.756627069786191E-004;
2.419000000000000E+009;1.628798693418503E-001;-7.320541143417358E-002;-4.047945607453585E-003;7.434776634909213E-004;
2.419166666666667E+009;1.616652607917786E-001;-7.378049194812775E-002;-4.133913200348616E-003;8.717597811482847E-004;
2.419333333333334E+009;1.604376286268234E-001;-7.425767183303833E-002;-3.990377765148878E-003;1.005113357678056E-003;
2.419500000000000E+009;1.591798812150955E-001;-7.521501183509827E-002;-3.838073695078492E-003;1.142381341196597E-003;
2.419666666666667E+009;1.579087078571320E-001;-7.611244171857834E-002;-3.832208923995495E-003;1.279781106859446E-003;
2.419833333333334E+009;1.566924899816513E-001;-7.673912495374680E-002;-3.808414796367288E-003;1.237067161127925E-003;
2.420000000000000E+009;1.554820388555527E-001;-7.769960165023804E-002;-3.714434569701552E-003;1.419250038452447E-003;
2.420166666666667E+009;1.542567163705826E-001;-7.877434045076370E-002;-3.597759641706944E-003;1.522805425338447E-003;
2.420333333333334E+009;1.530780196189880E-001;-7.993699610233307E-002;-3.659941954538226E-003;1.680281246080995E-003;
2.420500000000000E+009;1.519851982593536E-001;-8.076129853725433E-002;-3.453281475231051E-003;1.675978302955627E-003;
2.420666666666667E+009;1.507609635591507E-001;-8.220025151968002E-002;-3.304777434095740E-003;1.649038167670369E-003;
2.420833333333334E+009;1.497772485017777E-001;-8.347333967685700E-002;-3.205474698916078E-003;1.879046205431223E-003;
2.421000000000000E+009;1.486371606588364E-001;-8.497099578380585E-002;-3.271174617111683E-003;1.951262704096735E-003;
2.421166666666667E+009;1.477784216403961E-001;-8.626880496740341E-002;-3.071282291784883E-003;1.988570904359222E-003;
2.421333333333334E+009;1.471261680126190E-001;-8.795703947544098E-002;-3.006629645824432E-003;2.046648412942886E-003;
2.421500000000000E+009;1.461545825004578E-001;-8.936817944049835E-002;-2.961435820907354E-003;2.126924693584442E-003;
2.421666666666667E+009;1.455768942832947E-001;-9.118086844682694E-002;-2.862248802557588E-003;2.322877291589975E-003;
2.421833333333334E+009;1.447887122631073E-001;-9.274047613143921E-002;-2.692466368898749E-003;2.197918016463518E-003;
2.422000000000000E+009;1.441896259784699E-001;-9.444697201251984E-002;-2.680310746654868E-003;2.311618998646736E-003;
2.422166666666667E+009;1.438459753990173E-001;-9.627146273851395E-002;-2.521278103813529E-003;2.352112904191017E-003;
2.422333333333334E+009;1.435427665710449E-001;-9.789846837520599E-002;-2.419512486085296E-003;2.334080170840025E-003;
2.422500000000000E+009;1.431021392345429E-001;-9.945595264434815E-002;-2.404617611318827E-003;2.393102971836925E-003;
2.422666666666667E+009;1.428962200880051E-001;-1.013448387384415E-001;-2.303650602698326E-003;2.474250737577677E-003;
2.422833333333334E+009;1.429192423820496E-001;-1.031751334667206E-001;-2.304599853232503E-003;2.578399144113064E-003;
2.423000000000000E+009;1.427606791257858E-001;-1.048603206872940E-001;-2.208248944953084E-003;2.602089894935489E-003;
2.423166666666667E+009;1.428896188735962E-001;-1.066933795809746E-001;-1.991659635677934E-003;2.660175785422325E-003;
2.423333333333334E+009;1.429240554571152E-001;-1.080830171704292E-001;-1.877984497696161E-003;2.802732633426786E-003;
2.423500000000000E+009;1.431348472833633E-001;-1.099062561988831E-001;-1.768362708389759E-003;2.740836702287197E-003;
2.423666666666667E+009;1.431836485862732E-001;-1.113616153597832E-001;-1.625960692763329E-003;2.750774379819632E-003;
2.423833333333334E+009;1.436012983322144E-001;-1.129464805126190E-001;-1.576109556481242E-003;2.775200875476003E-003;
2.424000000000000E+009;1.437564492225647E-001;-1.142639070749283E-001;-1.520662801340222E-003;2.719770884141326E-003;
2.424166666666667E+009;1.441097855567932E-001;-1.157505512237549E-001;-1.344344345852733E-003;2.762163057923317E-003;
2.424333333333334E+009;1.445919722318649E-001;-1.172211170196533E-001;-1.006618957035244E-003;2.836440457031131E-003;
2.424500000000000E+009;1.449038237333298E-001;-1.183201596140862E-001;-1.200576894916594E-003;2.962032100185752E-003;
2.424666666666667E+009;1.454370468854904E-001;-1.192899048328400E-001;-9.193092118948698E-004;2.809649566188455E-003;
2.424833333333334E+009;1.456810981035233E-001;-1.204769164323807E-001;-9.316403302364051E-004;2.902918262407184E-003;
2.425000000000000E+009;1.462077945470810E-001;-1.214579865336418E-001;-7.650139159522951E-004;2.957073738798499E-003;
2.425166666666667E+009;1.463570743799210E-001;-1.224380210042000E-001;-8.014703053049743E-004;2.975891809910536E-003;
2.425333333333334E+009;1.469548046588898E-001;-1.230958402156830E-001;-5.783066735602915E-004;2.772531704977155E-003;
2.425500000000000E+009;1.472586095333099E-001;-1.239729076623917E-001;-5.052502383477986E-004;2.898743376135826E-003;
2.425666666666667E+009;1.474176794290543E-001;-1.244975104928017E-001;-3.616133762989193E-004;2.654784359037876E-003;
2.425833333333334E+009;1.477366685867310E-001;-1.250645071268082E-001;-3.093783743679524E-004;2.734616631641984E-003;
2.426000000000000E+009;1.479805707931519E-001;-1.255503743886948E-001;-1.723726891214028E-004;2.691689645871520E-003;
2.426166666666667E+009;1.482064127922058E-001;-1.259210109710693E-001;-1.608313905308023E-004;2.769809681922197E-003;
2.426333333333334E+009;1.481791585683823E-001;-1.262101829051971E-001;3.100507092312910E-005;2.666150452569127E-003;
2.426500000000000E+009;1.483098268508911E-001;-1.263669580221176E-001;2.784314528980758E-005;2.470733365043998E-003;
2.426666666666667E+009;1.484413146972656E-001;-1.264641731977463E-001;4.798218651558273E-005;2.546297851949930E-003;
2.426833333333334E+009;1.482225805521011E-001;-1.266094595193863E-001;2.870713942684233E-004;2.365667140111327E-003;
2.427000000000000E+009;1.479240059852600E-001;-1.267615109682083E-001;3.368673205841333E-004;2.328081754967570E-003;
2.427166666666667E+009;1.477051079273224E-001;-1.266101598739624E-001;2.691305126063526E-004;2.287077251821756E-003;
2.427333333333334E+009;1.471549272537231E-001;-1.266737878322601E-001;3.380730340722948E-004;2.197846770286560E-003;
2.427500000000000E+009;1.468075215816498E-001;-1.265561133623123E-001;5.428291042335331E-004;2.247349126264453E-003;
2.427666666666667E+009;1.461966484785080E-001;-1.266878098249435E-001;3.574663423933089E-004;2.072627190500498E-003;
