# Version 1.00
#
freq[Hz];re:Trc1_S11;im:Trc1_S11;re:Trc2_S21;im:Trc2_S21;
2.400000000000000E+009;1.627048105001450E-001;5.218715593218803E-002;3.244479419663549E-003;4.586102906614542E-003;
2.400166666666667E+009;1.628119945526123E-001;5.072841793298721E-002;3.363887313753367E-003;4.517386201769114E-003;
2.400333333333334E+009;1.624556928873062E-001;4.872956871986389E-002;3.497653640806675E-003;4.261714871972799E-003;
2.400500000000000E+009;1.624214351177216E-001;4.701866209506989E-002;3.674497827887535E-003;4.490745719522238E-003;
2.400666666666667E+009;1.622932404279709E-001;4.502435401082039E-002;3.854309441521764E-003;4.353949334472418E-003;
2.400833333333334E+009;1.623651236295700E-001;4.307988286018372E-002;3.964252769947052E-003;4.260902758687735E-003;
2.401000000000000E+009;1.624861955642700E-001;4.127442091703415E-002;4.233248997479677E-003;4.143178928643465E-003;
2.401166666666667E+009;1.624694466590881E-001;3.923488035798073E-002;4.398587625473738E-003;4.152277018874884E-003;
2.401333333333334E+009;1.624844074249268E-001;3.717598691582680E-002;4.459864925593138E-003;4.020509775727987E-003;
2.401500000000000E+009;1.627490073442459E-001;3.510100767016411E-002;4.837035667151213E-003;3.948570694774389E-003;
2.401666666666667E+009;1.628925949335098E-001;3.322269022464752E-002;4.963659215718508E-003;3.845663275569677E-003;
2.401833333333334E+009;1.630597412586212E-001;3.131549805402756E-002;5.188359413295984E-003;3.650146769359708E-003;
2.402000000000000E+009;1.633000224828720E-001;2.921283431351185E-002;5.309797357767820E-003;3.394457278773189E-003;
2.402166666666667E+009;1.637509465217590E-001;2.715795300900936E-002;5.535198841243982E-003;3.370468271896243E-003;
2.402333333333334E+009;1.641360521316528E-001;2.538552507758141E-002;5.881362594664097E-003;3.193575190380216E-003;
2.402500000000000E+009;1.648164689540863E-001;2.366732805967331E-002;6.029978860169649E-003;2.977736061438918E-003;
2.402666666666667E+009;1.652982532978058E-001;2.205365337431431E-002;6.195270456373692E-003;2.724236343055964E-003;
2.402833333333334E+009;1.658718138933182E-001;2.024137601256371E-002;6.382611580193043E-003;2.379653276875615E-003;
2.403000000000000E+009;1.665093451738358E-001;1.850011013448238E-002;6.410572677850723E-003;2.155508846044540E-003;
2.403166666666667E+009;1.672523468732834E-001;1.705776154994965E-002;6.673404946923256E-003;1.863969489932060E-003;
2.403333333333334E+009;1.678434163331986E-001;1.565157994627953E-002;6.792597472667694E-003;1.465158304199576E-003;
2.403500000000000E+009;1.686440855264664E-001;1.400919072329998E-002;7.034653797745705E-003;1.320908311754465E-003;
2.403666666666667E+009;1.692479550838471E-001;1.259695645421743E-002;7.121914066374302E-003;9.322234545834363E-004;
2.403833333333334E+009;1.702299714088440E-001;1.128095667809248E-002;7.285891566425562E-003;5.664597847498953E-004;
2.404000000000000E+009;1.710342168807983E-001;1.014226675033569E-002;7.307662628591061E-003;1.429749536328018E-004;
2.404166666666667E+009;1.718666106462479E-001;8.898679167032242E-003;7.248298265039921E-003;-2.586837799753994E-004;
2.404333333333334E+009;1.726748347282410E-001;7.825136184692383E-003;7.288346067070961E-003;-4.327151982579380E-004;
2.404500000000000E+009;1.732442378997803E-001;6.894574500620365E-003;7.404427975416184E-003;-9.762351983226836E-004;
2.404666666666667E+009;1.742388904094696E-001;6.033460143953562E-003;7.092433515936136E-003;-1.202264684252441E-003;
2.404833333333334E+009;1.750252693891525E-001;5.088091827929020E-003;7.161741610616446E-003;-1.606990816071630E-003;
2.405000000000000E+009;1.757799685001373E-001;4.361795727163553E-003;7.041232660412788E-003;-1.976311672478914E-003;
2.405166666666667E+009;1.763254851102829E-001;3.551635891199112E-003;6.731241475790739E-003;-2.319026505574584E-003;
2.405333333333334E+009;1.771334856748581E-001;2.977856667712331E-003;6.687324028462172E-003;-2.518536290153861E-003;
2.405500000000000E+009;1.777948141098023E-001;2.477280795574188E-003;6.515395361930132E-003;-2.799700479954481E-003;
2.405666666666667E+009;1.784243285655975E-001;2.159635536372662E-003;6.219854112714529E-003;-3.305313875898719E-003;
2.405833333333334E+009;1.787645667791367E-001;1.703139278106391E-003;6.184746511280537E-003;-3.489131573587656E-003;
2.406000000000000E+009;1.793697476387024E-001;1.193780335597694E-003;5.926662590354681E-003;-3.600290510803461E-003;
2.406166666666667E+009;1.794441640377045E-001;1.110867364332080E-003;5.794209893792868E-003;-3.888977924361825E-003;
2.406333333333334E+009;1.799810975790024E-001;5.472604534588754E-004;5.684824660420418E-003;-4.128724802285433E-003;
2.406500000000000E+009;1.802492737770081E-001;3.316713846288621E-004;5.280447192490101E-003;-4.471696913242340E-003;
2.406666666666667E+009;1.803628206253052E-001;1.415847418684280E-005;5.001853220164776E-003;-4.455655347555876E-003;
2.406833333333334E+009;1.805222183465958E-001;-2.441562828607857E-004;4.932992160320282E-003;-4.557927139103413E-003;
2.407000000000000E+009;1.805988699197769E-001;-6.685338448733091E-004;4.696415737271309E-003;-4.663349129259586E-003;
2.407166666666667E+009;1.808232367038727E-001;-7.649917388334870E-004;4.327525850385428E-003;-4.804778844118118E-003;
2.407333333333334E+009;1.804791837930679E-001;-1.294571091420949E-003;4.114352632313967E-003;-4.942934028804302E-003;
2.407500000000000E+009;1.803163439035416E-001;-1.686361385509372E-003;3.915331326425076E-003;-5.111210979521275E-003;
2.407666666666667E+009;1.801673620939255E-001;-2.006811788305640E-003;3.699965775012970E-003;-5.061807110905647E-003;
2.407833333333334E+009;1.797498613595963E-001;-2.499589230865240E-003;3.394539002329111E-003;-5.315243732184172E-003;
2.408000000000000E+009;1.794196218252182E-001;-2.945502521470189E-003;3.307829611003399E-003;-5.315730348229408E-003;
2.408166666666667E+009;1.789454370737076E-001;-3.553912509232760E-003;3.027905942872167E-003;-5.474587902426720E-003;
2.408333333333334E+009;1.785792410373688E-001;-4.192861728370190E-003;2.841577166691423E-003;-5.429333541542292E-003;
2.408500000000000E+009;1.779076159000397E-001;-5.013268440961838E-003;2.665290609002113E-003;-5.568285472691059E-003;
2.408666666666667E+009;1.772341877222061E-001;-5.672631319612265E-003;2.314561745151877E-003;-5.645372904837132E-003;
2.408833333333334E+009;1.767092049121857E-001;-6.643161643296480E-003;2.161441836506128E-003;-5.515966564416885E-003;
2.409000000000000E+009;1.760078370571137E-001;-7.502874359488487E-003;1.972267869859934E-003;-5.420079454779625E-003;
2.409166666666667E+009;1.752256304025650E-001;-8.587415330111980E-003;1.814632909372449E-003;-5.703459028154612E-003;
2.409333333333334E+009;1.745964735746384E-001;-9.769720025360584E-003;1.523508806712925E-003;-5.706977099180222E-003;
2.409500000000000E+009;1.739283800125122E-001;-1.095270551741123E-002;1.289714127779007E-003;-5.612447392195463E-003;
2.409666666666667E+009;1.730504035949707E-001;-1.218099240213633E-002;1.341778668574989E-003;-5.572112742811441E-003;
2.409833333333334E+009;1.722054183483124E-001;-1.341024599969387E-002;1.045142416842282E-003;-5.675715859979391E-003;
2.410000000000000E+009;1.716756969690323E-001;-1.490691304206848E-002;8.363983361050487E-004;-5.528722889721394E-003;
2.410166666666667E+009;1.709755510091782E-001;-1.637805998325348E-002;6.831897771917284E-004;-5.583444144576788E-003;
2.410333333333334E+009;1.703071445226669E-001;-1.790332049131393E-002;3.962246992159635E-004;-5.344697274267674E-003;
2.410500000000000E+009;1.696117669343948E-001;-1.961040124297142E-002;3.080628521274775E-004;-5.551314447075129E-003;
2.410666666666667E+009;1.688680946826935E-001;-2.156900055706501E-002;1.888343686005101E-004;-5.394784733653069E-003;
2.410833333333334E+009;1.683951914310455E-001;-2.317337505519390E-002;1.565325947012752E-004;-5.567433778196573E-003;
2.411000000000000E+009;1.678208112716675E-001;-2.495043538510799E-002;-1.084584946511313E-004;-5.365701392292976E-003;
2.411166666666667E+009;1.673771291971207E-001;-2.681754156947136E-002;-1.954992767423391E-004;-5.279934499412775E-003;
2.411333333333334E+009;1.670514196157455E-001;-2.876570262014866E-002;-4.638942773453891E-004;-5.246413871645927E-003;
2.411500000000000E+009;1.667440980672836E-001;-3.087973780930042E-002;-5.902360426262021E-004;-5.336090456694365E-003;
2.411666666666667E+009;1.666404753923416E-001;-3.267378732562065E-002;-6.910859956406057E-004;-5.357584450393915E-003;
2.411833333333334E+009;1.661892831325531E-001;-3.454258292913437E-002;-8.514190558344126E-004;-5.340559408068657E-003;
2.412000000000000E+009;1.663334667682648E-001;-3.661243990063667E-002;-9.607532992959023E-004;-5.265607498586178E-003;
2.412166666666667E+009;1.660580635070801E-001;-3.863041475415230E-002;-1.119535183534026E-003;-5.226956214755774E-003;
2.412333333333334E+009;1.663279235363007E-001;-4.045865312218666E-002;-1.460349769331515E-003;-5.303809419274330E-003;
2.412500000000000E+009;1.660517454147339E-001;-4.244013875722885E-002;-1.436297199688852E-003;-5.070612765848637E-003;
2.412666666666667E+009;1.663583815097809E-001;-4.450652003288269E-002;-1.771742827259004E-003;-5.252308677881956E-003;
2.412833333333334E+009;1.666343212127686E-001;-4.634373262524605E-002;-2.003768691793084E-003;-5.246122833341360E-003;
2.413000000000000E+009;1.667909175157547E-001;-4.817442968487740E-002;-2.026966772973537E-003;-5.036683287471533E-003;
2.413166666666667E+009;1.668361574411392E-001;-4.985182359814644E-002;-2.299447078257799E-003;-4.960240330547094E-003;
2.413333333333334E+009;1.673064827919006E-001;-5.172197893261910E-002;-2.586335176602006E-003;-4.786710254848003E-003;
2.413500000000000E+009;1.675672978162766E-001;-5.332094430923462E-002;-2.675986615940929E-003;-4.820813890546560E-003;
2.413666666666667E+009;1.680070161819458E-001;-5.503449216485024E-002;-2.802006201818585E-003;-4.778018221259117E-003;
2.413833333333334E+009;1.682668179273605E-001;-5.644055083394051E-002;-3.008235944435000E-003;-4.525662399828434E-003;
2.414000000000000E+009;1.686843633651733E-001;-5.811150372028351E-002;-3.042605938389897E-003;-4.335442092269659E-003;
2.414166666666667E+009;1.693385243415833E-001;-5.932655930519104E-002;-3.400043584406376E-003;-4.235615953803062E-003;
2.414333333333334E+009;1.698196232318878E-001;-6.061913073062897E-002;-3.596763592213392E-003;-4.173295106738806E-003;
2.414500000000000E+009;1.705644428730011E-001;-6.179574504494667E-002;-3.673966042697430E-003;-4.040831234306097E-003;
2.414666666666667E+009;1.708101332187653E-001;-6.283643096685410E-002;-3.886871272698045E-003;-3.750277217477560E-003;
2.414833333333334E+009;1.711568236351013E-001;-6.385564059019089E-002;-4.106520675122738E-003;-3.605788806453347E-003;
2.415000000000000E+009;1.715146899223328E-001;-6.470398604869843E-002;-4.127516411244869E-003;-3.355371532961726E-003;
2.415166666666667E+009;1.719945669174194E-001;-6.557867676019669E-002;-4.401321522891522E-003;-3.308788640424609E-003;
2.415333333333334E+009;1.725578457117081E-001;-6.637355685234070E-002;-4.483909811824560E-003;-3.112605540081859E-003;
2.415500000000000E+009;1.726861447095871E-001;-6.692557781934738E-002;-4.432013723999262E-003;-2.894837874919176E-003;
2.415666666666667E+009;1.729913353919983E-001;-6.744828820228577E-002;-4.542967770248652E-003;-2.627573441714048E-003;
2.415833333333334E+009;1.733492761850357E-001;-6.809570640325546E-002;-4.680881742388010E-003;-2.345948712900281E-003;
2.416000000000000E+009;1.732867509126663E-001;-6.850426644086838E-002;-4.519652575254440E-003;-2.313509583473206E-003;
2.416166666666667E+009;1.736979037523270E-001;-6.881503015756607E-002;-4.700199700891972E-003;-2.018125494942069E-003;
2.416333333333334E+009;1.735500395298004E-001;-6.922023743391037E-002;-4.773396532982588E-003;-1.810421119444072E-003;
2.416500000000000E+009;1.735304594039917E-001;-6.958483904600143E-002;-4.674730356782675E-003;-1.595106907188892E-003;
2.416666666666667E+009;1.733875721693039E-001;-6.972875446081162E-002;-4.865651950240135E-003;-1.355937914922833E-003;
2.416833333333334E+009;1.732598841190338E-001;-7.007679343223572E-002;-4.925834480673075E-003;-1.312093343585730E-003;
2.417000000000000E+009;1.728032380342484E-001;-7.032249867916107E-002;-4.750796128064394E-003;-9.992594132199884E-004;
2.417166666666667E+009;1.722967326641083E-001;-7.027073949575424E-002;-4.634165205061436E-003;-9.069622028619051E-004;
2.417333333333334E+009;1.719411909580231E-001;-7.049432396888733E-002;-4.717737901955843E-003;-6.071536336094141E-004;
2.417500000000000E+009;1.714200824499130E-001;-7.079204916954041E-002;-4.693888127803803E-003;-6.150852423161268E-004;
2.417666666666667E+009;1.707763373851776E-001;-7.080285251140595E-002;-4.748831037431955E-003;-2.940341364592314E-004;
2.417833333333334E+009;1.700543910264969E-001;-7.098562270402908E-002;-4.594564903527498E-003;-5.747774412157014E-005;
2.418000000000000E+009;1.690530925989151E-001;-7.138575613498688E-002;-4.566355142742395E-003;-1.664432966208551E-005;
2.418166666666667E+009;1.682662069797516E-001;-7.137849926948547E-002;-4.348590970039368E-003;7.280052523128688E-005;
2.418333333333334E+009;1.675403416156769E-001;-7.174327224493027E-002;-4.344414453953505E-003;2.952428185380995E-004;
2.418500000000000E+009;1.662934124469757E-001;-7.202053070068359E-002;-4.356183111667633E-003;4.997322685085237E-004;
2.418666666666667E+009;1.653151214122772E-001;-7.241871207952499E-002;-4.249552264809609E-003;4.181282129138708E-004;
2.418833333333334E+009;1.640914529561997E-001;-7.282067835330963E-002;-4.227341152727604E-003;7.300479919649661E-004;
2.419000000000000E+009;1.628164649009705E-001;-7.331732660531998E-002;-4.117044620215893E-003;8.181902812793851E-004;
2.419166666666667E+009;1.616443246603012E-001;-7.393430918455124E-002;-4.005548544228077E-003;7.679087575525045E-004;
2.419333333333334E+009;1.603521406650543E-001;-7.434709370136261E-002;-4.023810848593712E-003;9.236272308044136E-004;
2.419500000000000E+009;1.590937972068787E-001;-7.524193823337555E-002;-3.929010592401028E-003;1.123265479691327E-003;
2.419666666666667E+009;1.579619348049164E-001;-7.600843906402588E-002;-3.752183634787798E-003;1.174427801743150E-003;
2.419833333333334E+009;1.566535085439682E-001;-7.671425491571426E-002;-3.787077032029629E-003;1.245523919351399E-003;
2.420000000000000E+009;1.554586291313171E-001;-7.770627737045288E-002;-3.721477696672082E-003;1.406944822520018E-003;
2.420166666666667E+009;1.540924906730652E-001;-7.878956943750382E-002;-3.546077758073807E-003;1.424131332896650E-003;
2.420333333333334E+009;1.530938446521759E-001;-7.986872643232346E-002;-3.538476303219795E-003;1.596291433088481E-003;
2.420500000000000E+009;1.518617272377014E-001;-8.089651167392731E-002;-3.236329182982445E-003;1.651768805459142E-003;
2.420666666666667E+009;1.506956517696381E-001;-8.222266286611557E-002;-3.270361339673400E-003;1.759602222591639E-003;
2.420833333333334E+009;1.498905569314957E-001;-8.344241976737976E-002;-3.239115234464407E-003;1.961000496521592E-003;
2.421000000000000E+009;1.486388891935349E-001;-8.498365432024002E-002;-3.205344779416919E-003;1.978823449462652E-003;
2.421166666666667E+009;1.477827727794647E-001;-8.634184300899506E-002;-3.139972686767578E-003;2.020418643951416E-003;
2.421333333333334E+009;1.469900906085968E-001;-8.805352449417114E-002;-3.039288567379117E-003;1.930814003571868E-003;
2.421500000000000E+009;1.460375785827637E-001;-8.955387771129608E-002;-2.997438423335552E-003;2.020074520260096E-003;
2.421666666666667E+009;1.453836113214493E-001;-9.107223898172379E-002;-2.708874875679612E-003;2.046582754701376E-003;
2.421833333333334E+009;1.447691023349762E-001;-9.280310571193695E-002;-2.755586989223957E-003;2.229920821264386E-003;
2.422000000000000E+009;1.441689282655716E-001;-9.434150904417038E-002;-2.606951398774982E-003;2.231037244200707E-003;
2.422166666666667E+009;1.436625570058823E-001;-9.628694504499435E-002;-2.546604955568910E-003;2.351417439058423E-003;
2.422333333333334E+009;1.434662640094757E-001;-9.776316583156586E-002;-2.517516724765301E-003;2.430072054266930E-003;
2.422500000000000E+009;1.431005597114563E-001;-9.953106194734573E-002;-2.387135056778789E-003;2.439081436023116E-003;
2.422666666666667E+009;1.426625698804855E-001;-1.013278365135193E-001;-2.285012742504478E-003;2.386446110904217E-003;
2.422833333333334E+009;1.428675651550293E-001;-1.031557470560074E-001;-2.148481318727136E-003;2.567994175478816E-003;
2.423000000000000E+009;1.426392197608948E-001;-1.047901138663292E-001;-2.094546565786004E-003;2.543384907767177E-003;
2.423166666666667E+009;1.428391188383102E-001;-1.065538376569748E-001;-1.916627981700003E-003;2.541593508794904E-003;
2.423333333333334E+009;1.428646147251129E-001;-1.081617102026939E-001;-1.880260300822556E-003;2.633504802361131E-003;
2.423500000000000E+009;1.430667936801910E-001;-1.097014620900154E-001;-1.734516234137118E-003;2.723675221204758E-003;
2.423666666666667E+009;1.431010812520981E-001;-1.113701388239861E-001;-1.759052160196006E-003;2.752682659775019E-003;
2.423833333333334E+009;1.436512917280197E-001;-1.130378097295761E-001;-1.605553785338998E-003;2.666583750396967E-003;
2.424000000000000E+009;1.438373625278473E-001;-1.143106073141098E-001;-1.358591136522591E-003;2.864880487322807E-003;
2.424166666666667E+009;1.440647393465042E-001;-1.158597394824028E-001;-1.188142574392259E-003;2.740189200267196E-003;
2.424333333333334E+009;1.445943415164948E-001;-1.170868575572968E-001;-1.154884230345488E-003;2.778511261567473E-003;
2.424500000000000E+009;1.450026482343674E-001;-1.183143928647041E-001;-1.180302002467215E-003;2.844884758815169E-003;
2.424666666666667E+009;1.454175412654877E-001;-1.192294061183929E-001;-9.390285704284906E-004;2.868375042453408E-003;
2.424833333333334E+009;1.457084268331528E-001;-1.203505396842957E-001;-9.717541979625821E-004;2.802786650136113E-003;
2.425000000000000E+009;1.462380439043045E-001;-1.213888376951218E-001;-7.377078291028738E-004;3.014008980244398E-003;
2.425166666666667E+009;1.465320587158203E-001;-1.223325431346893E-001;-6.970803951844573E-004;2.809713827446103E-003;
2.425333333333334E+009;1.468937098979950E-001;-1.231081113219261E-001;-7.040594355203211E-004;2.689952496439219E-003;
2.425500000000000E+009;1.472766846418381E-001;-1.237201616168022E-001;-5.378916976042092E-004;2.895220415666699E-003;
2.425666666666667E+009;1.474099010229111E-001;-1.245027109980583E-001;-4.811197868548334E-004;2.655656309798360E-003;
2.425833333333334E+009;1.477459222078323E-001;-1.250447183847427E-001;-2.798736677505076E-004;2.716994378715754E-003;
2.426000000000000E+009;1.480151116847992E-001;-1.255436390638351E-001;-2.471950137987733E-004;2.841866109520197E-003;
2.426166666666667E+009;1.483060270547867E-001;-1.259374320507050E-001;-8.543762669432908E-005;2.553239464759827E-003;
2.426333333333334E+009;1.482401937246323E-001;-1.261978000402451E-001;2.186416713811923E-005;2.542052883654833E-003;
2.426500000000000E+009;1.483523398637772E-001;-1.263090670108795E-001;1.055306711350568E-004;2.495095366612077E-003;
2.426666666666667E+009;1.484367102384567E-001;-1.265167146921158E-001;1.462054351577535E-004;2.651879796758294E-003;
2.426833333333334E+009;1.482370644807816E-001;-1.265816241502762E-001;1.967012649402022E-004;2.403725171461701E-003;
2.427000000000000E+009;1.480450630187988E-001;-1.267128586769104E-001;2.656201540958136E-004;2.289223251864314E-003;
2.427166666666667E+009;1.476828008890152E-001;-1.266642361879349E-001;2.803335955832154E-004;2.308863447979093E-003;
2.427333333333334E+009;1.472022831439972E-001;-1.266898512840271E-001;3.278783697169274E-004;2.275374252349138E-003;
2.427500000000000E+009;1.469339579343796E-001;-1.266858130693436E-001;4.007723473478109E-004;2.140081953257322E-003;
2.427666666666667E+009;1.462188810110092E-001;-1.267143487930298E-001;6.499032024294138E-004;2.145938808098435E-003;
