# Version 1.00
#
freq[Hz];re:Trc1_S11;im:Trc1_S11;re:Trc2_S21;im:Trc2_S21;
2.400000000000000E+009;1.549760550260544E-001;1.064449623227119E-001;-3.824698273092508E-003;-1.400617766194046E-003;
2.400166666666667E+009;1.547149270772934E-001;1.040723919868469E-001;-3.662842325866222E-003;-1.144768088124692E-003;
2.400333333333334E+009;1.547573059797287E-001;1.018447205424309E-001;-3.595551708713174E-003;-8.854650659486651E-004;
2.400500000000000E+009;1.547956466674805E-001;9.911161661148071E-002;-3.503936808556318E-003;-1.000332878902555E-003;
2.400666666666667E+009;1.547992676496506E-001;9.655570983886719E-002;-3.555353498086333E-003;-1.001727650873363E-003;
2.400833333333334E+009;1.550565063953400E-001;9.366726875305176E-002;-3.459890373051167E-003;-6.750958273187280E-004;
2.401000000000000E+009;1.551523953676224E-001;9.105940908193588E-002;-3.428411670029163E-003;-6.944987690076232E-004;
2.401166666666667E+009;1.553306281566620E-001;8.820566534996033E-002;-3.413148224353790E-003;-6.829191115684807E-004;
2.401333333333334E+009;1.556447446346283E-001;8.540941774845123E-002;-3.454825375229120E-003;-6.368187605403364E-004;
2.401500000000000E+009;1.564095616340637E-001;8.252897113561630E-002;-3.554795868694782E-003;-5.982801085337997E-004;
2.401666666666667E+009;1.566670536994934E-001;7.977963238954544E-002;-3.371563507243991E-003;-5.464300629682839E-004;
2.401833333333334E+009;1.571902781724930E-001;7.708345353603363E-002;-3.493716241791844E-003;-4.988088621757925E-004;
2.402000000000000E+009;1.582342535257340E-001;7.433348894119263E-002;-3.576796036213636E-003;-4.124221450183541E-004;
2.402166666666667E+009;1.589377522468567E-001;7.189175486564636E-002;-3.526879008859396E-003;-2.522139402572066E-004;
2.402333333333334E+009;1.598461568355560E-001;6.928423792123795E-002;-3.694261657074094E-003;-1.184954962809570E-004;
2.402500000000000E+009;1.611189991235733E-001;6.669487804174423E-002;-3.821587655693293E-003;-1.507031120127067E-004;
2.402666666666667E+009;1.621956080198288E-001;6.430143117904663E-002;-3.435677615925670E-003;-7.383855700027198E-005;
2.402833333333334E+009;1.636790186166763E-001;6.177242845296860E-002;-3.574769245460630E-003;8.206256461562589E-005;
2.403000000000000E+009;1.651043295860291E-001;5.966542661190033E-002;-3.613266162574291E-003;2.576988663349766E-005;
2.403166666666667E+009;1.668831408023834E-001;5.753837153315544E-002;-3.875676309689879E-003;2.362968371016905E-004;
2.403333333333334E+009;1.681926846504211E-001;5.515250191092491E-002;-3.871245309710503E-003;4.220622649881989E-004;
2.403500000000000E+009;1.700194627046585E-001;5.323070660233498E-002;-3.829943481832743E-003;5.804885877296329E-004;
2.403666666666667E+009;1.718647629022598E-001;5.120699480175972E-002;-3.735790494829416E-003;8.629182120785117E-004;
2.403833333333334E+009;1.734162569046021E-001;4.957570880651474E-002;-3.716514911502600E-003;8.491536718793213E-004;
2.404000000000000E+009;1.747638136148453E-001;4.774012044072151E-002;-3.779842285439372E-003;1.110126613639295E-003;
2.404166666666667E+009;1.766336709260941E-001;4.625544324517250E-002;-3.917613066732884E-003;1.180845894850791E-003;
2.404333333333334E+009;1.780990213155747E-001;4.467663913965225E-002;-3.818189492449164E-003;1.337988651357591E-003;
2.404500000000000E+009;1.798177510499954E-001;4.341436177492142E-002;-3.796233795583248E-003;1.526546780951321E-003;
2.404666666666667E+009;1.813688576221466E-001;4.235125705599785E-002;-3.443682799115777E-003;1.651930855587125E-003;
2.404833333333334E+009;1.829303354024887E-001;4.122037068009377E-002;-3.489979775622487E-003;1.737822778522968E-003;
2.405000000000000E+009;1.844068169593811E-001;4.063924029469490E-002;-3.236015094444156E-003;2.050178358331323E-003;
2.405166666666667E+009;1.856457591056824E-001;3.985888510942459E-002;-3.204623702913523E-003;1.972625730559230E-003;
2.405333333333334E+009;1.871649175882340E-001;3.940379992127419E-002;-2.989595755934715E-003;1.984138507395983E-003;
2.405500000000000E+009;1.886696964502335E-001;3.894386440515518E-002;-2.938782796263695E-003;2.110013505443931E-003;
2.405666666666667E+009;1.896270811557770E-001;3.846339508891106E-002;-2.832827623933554E-003;1.919290749356151E-003;
2.405833333333334E+009;1.908377408981323E-001;3.824851289391518E-002;-2.811367157846689E-003;2.093862276524305E-003;
2.406000000000000E+009;1.917340755462647E-001;3.781760111451149E-002;-2.660867292433977E-003;1.936215907335281E-003;
2.406166666666667E+009;1.926413476467133E-001;3.783260658383369E-002;-2.634878735989332E-003;2.160426462069154E-003;
2.406333333333334E+009;1.936744749546051E-001;3.805701807141304E-002;-2.519054803997278E-003;2.179943025112152E-003;
2.406500000000000E+009;1.942854672670364E-001;3.806599602103233E-002;-2.394677605479956E-003;2.233296632766724E-003;
2.406666666666667E+009;1.948852539062500E-001;3.788790106773377E-002;-2.478968119248748E-003;2.175059169530869E-003;
2.406833333333334E+009;1.953796893358231E-001;3.780375421047211E-002;-2.425536047667265E-003;2.126444131135941E-003;
2.407000000000000E+009;1.958130300045013E-001;3.812443837523460E-002;-2.297942526638508E-003;2.345500746741891E-003;
2.407166666666667E+009;1.961146891117096E-001;3.781241923570633E-002;-2.307845745235682E-003;2.182129072025418E-003;
2.407333333333334E+009;1.960894912481308E-001;3.799305111169815E-002;-2.383502433076501E-003;2.238758839666843E-003;
2.407500000000000E+009;1.959555447101593E-001;3.810529038310051E-002;-2.410025335848332E-003;2.331829164177179E-003;
2.407666666666667E+009;1.959503144025803E-001;3.800079226493835E-002;-2.175425644963980E-003;2.284345915541053E-003;
2.407833333333334E+009;1.954696327447891E-001;3.773247450590134E-002;-2.191859763115645E-003;2.461933298036456E-003;
2.408000000000000E+009;1.953814476728439E-001;3.749168664216995E-002;-2.256648615002632E-003;2.492788247764111E-003;
2.408166666666667E+009;1.949001997709274E-001;3.731545433402062E-002;-2.194562926888466E-003;2.733891364187002E-003;
2.408333333333334E+009;1.941439211368561E-001;3.684470057487488E-002;-2.346164546906948E-003;2.461930271238089E-003;
2.408500000000000E+009;1.938018947839737E-001;3.656991943717003E-002;-2.275547245517373E-003;2.651331247761846E-003;
2.408666666666667E+009;1.929600238800049E-001;3.575228899717331E-002;-2.164217410609126E-003;2.758598653599620E-003;
2.408833333333334E+009;1.921800374984741E-001;3.486383706331253E-002;-2.044596942141652E-003;2.808646531775594E-003;
2.409000000000000E+009;1.913999021053314E-001;3.391801565885544E-002;-2.195775508880615E-003;3.067066892981529E-003;
2.409166666666667E+009;1.905129849910736E-001;3.322063758969307E-002;-2.236319007351995E-003;2.985049039125443E-003;
2.409333333333334E+009;1.893350183963776E-001;3.197571635246277E-002;-2.034138655290008E-003;3.263083985075355E-003;
2.409500000000000E+009;1.884262859821320E-001;3.051882795989513E-002;-1.984967617318034E-003;3.363190684467554E-003;
2.409666666666667E+009;1.872991621494293E-001;2.917124703526497E-002;-2.109513850882649E-003;3.294242778792977E-003;
2.409833333333334E+009;1.865035444498062E-001;2.767243795096874E-002;-2.079509198665619E-003;3.673305734992027E-003;
2.410000000000000E+009;1.855343133211136E-001;2.599805593490601E-002;-2.021411433815956E-003;3.732790937647224E-003;
2.410166666666667E+009;1.844725310802460E-001;2.417065203189850E-002;-1.899976050481200E-003;3.745961701497436E-003;
2.410333333333334E+009;1.836103349924088E-001;2.238246798515320E-002;-1.669108169153333E-003;3.986697643995285E-003;
2.410500000000000E+009;1.826363354921341E-001;2.040109410881996E-002;-1.578241703100503E-003;4.090932197868824E-003;
2.410666666666667E+009;1.817548424005508E-001;1.821087300777435E-002;-1.277204137295485E-003;4.216436296701431E-003;
2.410833333333334E+009;1.811508834362030E-001;1.588616892695427E-002;-1.146113616414368E-003;4.395726602524519E-003;
2.411000000000000E+009;1.804829984903336E-001;1.376910507678986E-002;-8.605170878581703E-004;4.432925954461098E-003;
2.411166666666667E+009;1.796950399875641E-001;1.163236051797867E-002;-7.695056847296655E-004;4.442609380930662E-003;
2.411333333333334E+009;1.793435066938400E-001;9.128785692155361E-003;-6.529157399199903E-004;4.524652380496264E-003;
2.411500000000000E+009;1.789051890373230E-001;6.763346027582884E-003;-4.394911520648748E-004;4.509015940129757E-003;
2.411666666666667E+009;1.786990761756897E-001;4.383048042654991E-003;-1.782860199455172E-004;4.526001401245594E-003;
2.411833333333334E+009;1.783811450004578E-001;2.001275541260839E-003;7.363820714090252E-006;4.555633291602135E-003;
2.412000000000000E+009;1.784967929124832E-001;-5.860633100382984E-004;1.086519550881349E-004;4.457456525415182E-003;
2.412166666666667E+009;1.787162572145462E-001;-2.839630702510476E-003;2.052684139925987E-004;4.453747998923063E-003;
2.412333333333334E+009;1.788872331380844E-001;-5.312818102538586E-003;6.480756564997137E-004;4.465603735297918E-003;
2.412500000000000E+009;1.793089061975479E-001;-7.863854058086872E-003;7.441036286763847E-004;4.518179222941399E-003;
2.412666666666667E+009;1.797866374254227E-001;-1.015682145953178E-002;8.162845624610782E-004;4.321685992181301E-003;
2.412833333333334E+009;1.804353147745132E-001;-1.249155588448048E-002;9.700783411972225E-004;4.223392345011234E-003;
2.413000000000000E+009;1.810569912195206E-001;-1.480461284518242E-002;1.106006209738553E-003;4.218184389173985E-003;
2.413166666666667E+009;1.820464283227921E-001;-1.718628220260143E-002;1.099538407288492E-003;3.999935928732157E-003;
2.413333333333334E+009;1.829750835895538E-001;-1.934787444770336E-002;1.309256884269416E-003;4.068272188305855E-003;
2.413500000000000E+009;1.838035136461258E-001;-2.179156988859177E-002;1.503382576629520E-003;3.952139522880316E-003;
2.413666666666667E+009;1.849651038646698E-001;-2.386117354035378E-002;1.479407423175871E-003;3.947800491005182E-003;
2.413833333333334E+009;1.860547810792923E-001;-2.556511573493481E-002;1.483745407313108E-003;3.898291382938623E-003;
2.414000000000000E+009;1.870862990617752E-001;-2.769447490572929E-002;1.735806814394891E-003;3.773631062358618E-003;
2.414166666666667E+009;1.883072406053543E-001;-2.935931459069252E-002;1.829929882660508E-003;3.743235254660249E-003;
2.414333333333334E+009;1.893434226512909E-001;-3.136067837476730E-002;1.914569991640747E-003;3.752163145691156E-003;
2.414500000000000E+009;1.905530840158463E-001;-3.278212249279022E-002;2.046588575467467E-003;3.776778932660818E-003;
2.414666666666667E+009;1.919080018997192E-001;-3.423202410340309E-002;2.174606546759605E-003;3.620586823672056E-003;
2.414833333333334E+009;1.929504573345184E-001;-3.570976108312607E-002;2.272175159305334E-003;3.434382379055023E-003;
2.415000000000000E+009;1.939519643783569E-001;-3.681321069598198E-002;2.583291148766875E-003;3.558703931048513E-003;
2.415166666666667E+009;1.952758282423019E-001;-3.770930320024490E-002;2.630065660923719E-003;3.513673320412636E-003;
2.415333333333334E+009;1.963454186916351E-001;-3.875615447759628E-002;2.688515698537231E-003;3.455689875409007E-003;
2.415500000000000E+009;1.973977535963059E-001;-3.948248550295830E-002;2.838428132236004E-003;3.221424063667655E-003;
2.415666666666667E+009;1.984689086675644E-001;-4.029112309217453E-002;2.939282450824976E-003;3.012312809005380E-003;
2.415833333333334E+009;1.990929841995239E-001;-4.071275517344475E-002;2.942146733403206E-003;2.970765577629209E-003;
2.416000000000000E+009;1.999565660953522E-001;-4.147496074438095E-002;2.979216165840626E-003;2.695178613066673E-003;
2.416166666666667E+009;2.005266845226288E-001;-4.191646352410317E-002;2.971080830320716E-003;2.673355396836996E-003;
2.416333333333334E+009;2.012091726064682E-001;-4.222315549850464E-002;3.240554360672832E-003;2.591748023405671E-003;
2.416500000000000E+009;2.014678716659546E-001;-4.243556782603264E-002;3.185440087690949E-003;2.627263078466058E-003;
2.416666666666667E+009;2.018663436174393E-001;-4.283940792083740E-002;3.311119042336941E-003;2.474120119586587E-003;
2.416833333333334E+009;2.019351124763489E-001;-4.274019226431847E-002;3.453771816566587E-003;2.487055957317352E-003;
2.417000000000000E+009;2.020227462053299E-001;-4.290506616234779E-002;3.449794836342335E-003;2.198499860242009E-003;
2.417166666666667E+009;2.017459571361542E-001;-4.281832277774811E-002;3.632568987086415E-003;2.186469733715057E-003;
2.417333333333334E+009;2.014598548412323E-001;-4.255453869700432E-002;3.513406496495009E-003;2.145915757864714E-003;
2.417500000000000E+009;2.011433690786362E-001;-4.261538758873940E-002;3.893310902640224E-003;2.046667039394379E-003;
2.417666666666667E+009;2.005041986703873E-001;-4.236507043242455E-002;4.025195259600878E-003;2.038599923253059E-003;
2.417833333333334E+009;2.001106739044190E-001;-4.229882732033730E-002;4.078550264239311E-003;1.605637255124748E-003;
2.418000000000000E+009;1.994282901287079E-001;-4.207842051982880E-002;4.107366781681776E-003;1.685076393187046E-003;
2.418166666666667E+009;1.986553519964218E-001;-4.200107231736183E-002;4.133905749768019E-003;1.580625539645553E-003;
2.418333333333334E+009;1.976564675569534E-001;-4.183186590671539E-002;4.234906751662493E-003;1.132948673330247E-003;
2.418500000000000E+009;1.967200636863709E-001;-4.190321266651154E-002;4.359925165772438E-003;1.159450039267540E-003;
2.418666666666667E+009;1.957862228155136E-001;-4.180886223912239E-002;4.480939358472824E-003;8.366253459826112E-004;
2.418833333333334E+009;1.945169717073441E-001;-4.198640212416649E-002;4.489886574447155E-003;6.371376803144813E-004;
2.419000000000000E+009;1.932203173637390E-001;-4.213949665427208E-002;4.348603077232838E-003;4.539582005236298E-004;
2.419166666666667E+009;1.920551359653473E-001;-4.234943166375160E-002;4.400650970637798E-003;2.684221544768661E-004;
2.419333333333334E+009;1.905480176210403E-001;-4.303015768527985E-002;4.225174896419048E-003;3.493836629786529E-005;
2.419500000000000E+009;1.891739666461945E-001;-4.342642053961754E-002;4.090683069080114E-003;-1.131861863541417E-004;
2.419666666666667E+009;1.875554472208023E-001;-4.408812522888184E-002;3.985638264566660E-003;-3.137616440653801E-004;
2.419833333333334E+009;1.859988272190094E-001;-4.491419717669487E-002;4.052950534969568E-003;-3.279296506661922E-004;
2.420000000000000E+009;1.845271289348602E-001;-4.574522376060486E-002;3.875453257933259E-003;-4.384855274111033E-004;
2.420166666666667E+009;1.829653829336166E-001;-4.665362462401390E-002;3.813931485638022E-003;-4.315887345001102E-004;
2.420333333333334E+009;1.812761873006821E-001;-4.787687584757805E-002;3.809458343312144E-003;-6.548930541612208E-004;
2.420500000000000E+009;1.796775907278061E-001;-4.918656125664711E-002;3.747184528037906E-003;-5.929433973506093E-004;
2.420666666666667E+009;1.782060265541077E-001;-5.025741085410118E-002;3.566330065950751E-003;-6.275064079090953E-004;
2.420833333333334E+009;1.765659302473068E-001;-5.178301408886910E-002;3.763482207432389E-003;-7.232430507428944E-004;
2.421000000000000E+009;1.751157343387604E-001;-5.331913009285927E-002;3.666029544547200E-003;-8.192854002118111E-004;
2.421166666666667E+009;1.738130748271942E-001;-5.515344440937042E-002;3.618178423494101E-003;-7.143683033064008E-004;
2.421333333333334E+009;1.722154170274735E-001;-5.660340934991837E-002;3.621200798079372E-003;-1.053058658726513E-003;
2.421500000000000E+009;1.708924472332001E-001;-5.856182053685188E-002;3.666565287858248E-003;-1.011324464343488E-003;
2.421666666666667E+009;1.696881353855133E-001;-6.036165729165077E-002;3.660592017695308E-003;-1.045441487804055E-003;
2.421833333333334E+009;1.685820370912552E-001;-6.220644339919090E-002;3.522492712363601E-003;-1.265825587324798E-003;
2.422000000000000E+009;1.674825698137283E-001;-6.407301872968674E-002;3.554295282810926E-003;-1.341908005997539E-003;
2.422166666666667E+009;1.667600274085999E-001;-6.604757159948349E-002;3.471783595159650E-003;-1.589894760400057E-003;
2.422333333333334E+009;1.655691862106323E-001;-6.821294128894806E-002;3.384607378393412E-003;-1.606765319593251E-003;
2.422500000000000E+009;1.650174856185913E-001;-7.019225507974625E-002;3.381221322342753E-003;-1.767278416082263E-003;
2.422666666666667E+009;1.642699688673019E-001;-7.196111232042313E-002;3.286411752924323E-003;-1.891118823550642E-003;
2.422833333333334E+009;1.639232635498047E-001;-7.425252348184586E-002;3.246277570724487E-003;-2.232927596196532E-003;
2.423000000000000E+009;1.633908003568649E-001;-7.614076137542725E-002;3.266975982114673E-003;-2.199671231210232E-003;
2.423166666666667E+009;1.630344688892365E-001;-7.790549099445343E-002;2.992380410432816E-003;-2.255992032587528E-003;
2.423333333333334E+009;1.627973467111588E-001;-8.006691932678223E-002;2.979649230837822E-003;-2.351527102291584E-003;
2.423500000000000E+009;1.629366576671600E-001;-8.155764639377594E-002;2.872973214834929E-003;-2.527670236304402E-003;
2.423666666666667E+009;1.628190129995346E-001;-8.349628746509552E-002;2.561833942309022E-003;-2.524198032915592E-003;
2.423833333333334E+009;1.626785844564438E-001;-8.515639603137970E-002;2.631060313433409E-003;-2.641755156219006E-003;
2.424000000000000E+009;1.628853380680084E-001;-8.715254068374634E-002;2.429603133350611E-003;-2.574485726654530E-003;
2.424166666666667E+009;1.630558818578720E-001;-8.855253458023071E-002;2.202191390097141E-003;-2.615898847579956E-003;
2.424333333333334E+009;1.631553918123245E-001;-9.012535214424133E-002;2.165415557101369E-003;-2.610121620818973E-003;
2.424500000000000E+009;1.636072546243668E-001;-9.142908453941345E-002;2.169869141653180E-003;-2.776229754090309E-003;
2.424666666666667E+009;1.639166623353958E-001;-9.288886189460754E-002;2.049206756055355E-003;-2.671891357749701E-003;
2.424833333333334E+009;1.645100116729736E-001;-9.424516558647156E-002;2.094344468787313E-003;-2.653267467394471E-003;
2.425000000000000E+009;1.648386120796204E-001;-9.537047892808914E-002;1.787547487765551E-003;-2.757450100034475E-003;
2.425166666666667E+009;1.651989668607712E-001;-9.641094505786896E-002;1.641991548240185E-003;-2.725123194977641E-003;
2.425333333333334E+009;1.654283851385117E-001;-9.737724810838699E-002;1.645220676437020E-003;-2.808158751577139E-003;
2.425500000000000E+009;1.659580320119858E-001;-9.840638935565949E-002;1.631219172850251E-003;-2.737031551077962E-003;
2.425666666666667E+009;1.663791388273239E-001;-9.886548668146133E-002;1.409042393788695E-003;-2.781864255666733E-003;
2.425833333333334E+009;1.665894687175751E-001;-9.981374442577362E-002;1.449175062589347E-003;-2.754006534814835E-003;
2.426000000000000E+009;1.670739799737930E-001;-1.002124249935150E-001;1.537240692414343E-003;-2.667786320671439E-003;
2.426166666666667E+009;1.673810333013535E-001;-1.007568612694740E-001;1.297915237955749E-003;-2.763378666713834E-003;
2.426333333333334E+009;1.675662398338318E-001;-1.011815965175629E-001;1.210743910633028E-003;-2.746751299127936E-003;
2.426500000000000E+009;1.679392904043198E-001;-1.014864072203636E-001;1.026185578666627E-003;-2.720443764701486E-003;
2.426666666666667E+009;1.681279689073563E-001;-1.018445715308189E-001;1.143446657806635E-003;-2.860970562323928E-003;
2.426833333333334E+009;1.684219837188721E-001;-1.021291837096214E-001;1.128633623011410E-003;-2.948252018541098E-003;
2.427000000000000E+009;1.684047430753708E-001;-1.023629680275917E-001;8.663772023282945E-004;-2.823942806571722E-003;
2.427166666666667E+009;1.684574335813522E-001;-1.025040298700333E-001;7.994510815478861E-004;-2.740702359005809E-003;
2.427333333333334E+009;1.683638840913773E-001;-1.026909127831459E-001;8.959223050624132E-004;-2.996364375576377E-003;
2.427500000000000E+009;1.679334640502930E-001;-1.029090657830238E-001;8.572431397624314E-004;-2.921058330684900E-003;
2.427666666666667E+009;1.675809472799301E-001;-1.029939949512482E-001;7.103686803020537E-004;-3.012506524100900E-003;
2.427833333333334E+009;1.672545671463013E-001;-1.031842827796936E-001;6.861097645014525E-004;-3.030985128134489E-003;
