# Version 1.00
#
freq[Hz];re:Trc1_S11;im:Trc1_S11;re:Trc2_S21;im:Trc2_S21;
2.400000000000000E+009;1.547957807779312E-001;1.065517738461494E-001;-3.769573988392949E-003;-1.133589423261583E-003;
2.400166666666667E+009;1.546372622251511E-001;1.041525080800057E-001;-3.586587263271213E-003;-1.014973619021475E-003;
2.400333333333334E+009;1.547214835882187E-001;1.019482612609863E-001;-3.644175129011273E-003;-8.944624569267035E-004;
2.400500000000000E+009;1.546221375465393E-001;9.923028200864792E-002;-3.540190402418375E-003;-9.398094261996448E-004;
2.400666666666667E+009;1.547245085239410E-001;9.678614139556885E-002;-3.561471123248339E-003;-8.972414070740342E-004;
2.400833333333334E+009;1.548029929399490E-001;9.382210671901703E-002;-3.534913994371891E-003;-7.251842762343586E-004;
2.401000000000000E+009;1.551812738180161E-001;9.114377200603485E-002;-3.344982862472534E-003;-6.079761660657823E-004;
2.401166666666667E+009;1.551348268985748E-001;8.831404149532318E-002;-3.223747480660677E-003;-7.113426108844578E-004;
2.401333333333334E+009;1.557150930166245E-001;8.553329855203629E-002;-3.248626831918955E-003;-6.076166173443198E-004;
2.401500000000000E+009;1.560444533824921E-001;8.265318721532822E-002;-3.424420254305005E-003;-4.836985026486218E-004;
2.401666666666667E+009;1.565180420875549E-001;7.993040233850479E-002;-3.359432797878981E-003;-5.249136011116207E-004;
2.401833333333334E+009;1.569527536630631E-001;7.716836035251617E-002;-3.266721265390515E-003;-5.542481667362154E-004;
2.402000000000000E+009;1.579095870256424E-001;7.440873980522156E-002;-3.438468324020505E-003;-3.829691268038005E-004;
2.402166666666667E+009;1.588813811540604E-001;7.186275720596314E-002;-3.415265353396535E-003;-3.157083701808006E-004;
2.402333333333334E+009;1.597542613744736E-001;6.949874013662338E-002;-3.527065971866250E-003;-2.500515256542713E-004;
2.402500000000000E+009;1.608029305934906E-001;6.690418720245361E-002;-3.482805564999580E-003;-1.164697532658465E-004;
2.402666666666667E+009;1.621736884117127E-001;6.448327004909515E-002;-3.644779790192843E-003;-1.032710351864807E-004;
2.402833333333334E+009;1.635193377733231E-001;6.198091804981232E-002;-3.504564752802253E-003;-9.930947271641344E-006;
2.403000000000000E+009;1.649287641048431E-001;5.975272133946419E-002;-3.633521497249603E-003;6.113907147664577E-005;
2.403166666666667E+009;1.665383875370026E-001;5.764262750744820E-002;-3.730524796992540E-003;2.974254020955414E-004;
2.403333333333334E+009;1.682436764240265E-001;5.531531199812889E-002;-3.681469010189176E-003;3.516952274367213E-004;
2.403500000000000E+009;1.698677688837051E-001;5.335518717765808E-002;-3.715962870046496E-003;4.394330608192831E-004;
2.403666666666667E+009;1.716116517782211E-001;5.150966718792915E-002;-3.745219670236111E-003;5.686179501935840E-004;
2.403833333333334E+009;1.731969565153122E-001;4.969144240021706E-002;-3.721549641340971E-003;7.144851260818541E-004;
2.404000000000000E+009;1.746258735656738E-001;4.793780297040939E-002;-3.852586494758725E-003;1.043430995196104E-003;
2.404166666666667E+009;1.764172315597534E-001;4.632436111569405E-002;-3.741799155250192E-003;1.021550036966801E-003;
2.404333333333334E+009;1.781517714262009E-001;4.476476460695267E-002;-3.687263932079077E-003;1.369440928101540E-003;
2.404500000000000E+009;1.796661019325256E-001;4.359493032097817E-002;-3.496516495943070E-003;1.470571500249207E-003;
2.404666666666667E+009;1.812656968832016E-001;4.236491769552231E-002;-3.532125847414136E-003;1.489596674218774E-003;
2.404833333333334E+009;1.830977499485016E-001;4.133280366659164E-002;-3.399300854653120E-003;1.784291816875339E-003;
2.405000000000000E+009;1.843497455120087E-001;4.074797034263611E-002;-3.423942252993584E-003;1.800492056645453E-003;
2.405166666666667E+009;1.856939792633057E-001;3.991173207759857E-002;-3.248672233894467E-003;1.845495076850057E-003;
2.405333333333334E+009;1.872071921825409E-001;3.956625983119011E-002;-2.994567388668656E-003;1.923131174407899E-003;
2.405500000000000E+009;1.885681003332138E-001;3.896323963999748E-002;-2.795419422909617E-003;1.996443374082446E-003;
2.405666666666667E+009;1.898755580186844E-001;3.879505023360252E-002;-2.914656652137637E-003;2.181292045861483E-003;
2.405833333333334E+009;1.909873336553574E-001;3.842349722981453E-002;-2.683043247088790E-003;2.205893862992525E-003;
2.406000000000000E+009;1.919849663972855E-001;3.824113309383392E-002;-2.655292162671685E-003;2.132845809683204E-003;
2.406166666666667E+009;1.929132640361786E-001;3.789808973670006E-002;-2.621168503537774E-003;2.275048289448023E-003;
2.406333333333334E+009;1.938507556915283E-001;3.803509101271629E-002;-2.381998579949141E-003;2.225002972409129E-003;
2.406500000000000E+009;1.945453584194183E-001;3.799072280526161E-002;-2.595621859654784E-003;2.239198423922062E-003;
2.406666666666667E+009;1.950681358575821E-001;3.793613240122795E-002;-2.481745555996895E-003;2.313541481271386E-003;
2.406833333333334E+009;1.956637799739838E-001;3.802135959267616E-002;-2.475016750395298E-003;2.306440379470587E-003;
2.407000000000000E+009;1.957421302795410E-001;3.817316889762878E-002;-2.515588887035847E-003;2.320666797459126E-003;
2.407166666666667E+009;1.962494552135468E-001;3.798227012157440E-002;-2.303340006619692E-003;2.150851069018245E-003;
2.407333333333334E+009;1.961058825254440E-001;3.798255324363709E-002;-2.300071297213435E-003;2.324080793187022E-003;
2.407500000000000E+009;1.960411518812180E-001;3.818779438734055E-002;-2.365174703299999E-003;2.323304302990437E-003;
2.407666666666667E+009;1.960810422897339E-001;3.796281293034554E-002;-2.291561337187886E-003;2.456120448186994E-003;
2.407833333333334E+009;1.955906897783279E-001;3.788031637668610E-002;-2.236428670585156E-003;2.401170320808888E-003;
2.408000000000000E+009;1.954007297754288E-001;3.765140473842621E-002;-2.320475876331329E-003;2.551391022279859E-003;
2.408166666666667E+009;1.949597150087357E-001;3.729888796806335E-002;-2.293921075761318E-003;2.600381383672357E-003;
2.408333333333334E+009;1.943966597318649E-001;3.688781335949898E-002;-2.196414396166802E-003;2.629301510751247E-003;
2.408500000000000E+009;1.936668902635574E-001;3.644522279500961E-002;-2.269363263621926E-003;2.610981930047274E-003;
2.408666666666667E+009;1.930918991565704E-001;3.586968779563904E-002;-2.173198852688074E-003;2.739217597991228E-003;
2.408833333333334E+009;1.923883259296417E-001;3.514915704727173E-002;-2.144584432244301E-003;2.721916884183884E-003;
2.409000000000000E+009;1.913573741912842E-001;3.415286168456078E-002;-2.140298252925277E-003;2.917283913120627E-003;
2.409166666666667E+009;1.904684156179428E-001;3.306340053677559E-002;-2.180106239393354E-003;3.050013678148389E-003;
2.409333333333334E+009;1.895359903573990E-001;3.204854577779770E-002;-2.093337476253510E-003;3.135429928079248E-003;
2.409500000000000E+009;1.885464042425156E-001;3.076796792447567E-002;-2.139488467946649E-003;3.115707775577903E-003;
2.409666666666667E+009;1.875135600566864E-001;2.932403422892094E-002;-2.098146826028824E-003;3.299617907032371E-003;
2.409833333333334E+009;1.865090727806091E-001;2.776370011270046E-002;-2.024397719651461E-003;3.491283394396305E-003;
2.410000000000000E+009;1.856976896524429E-001;2.616301923990250E-002;-1.839908421970904E-003;3.614836605265737E-003;
2.410166666666667E+009;1.845991164445877E-001;2.430176176130772E-002;-1.923963194712997E-003;3.759619314223528E-003;
2.410333333333334E+009;1.836667507886887E-001;2.250630408525467E-002;-1.714180223643780E-003;4.002105444669724E-003;
2.410500000000000E+009;1.827669441699982E-001;2.050121501088142E-002;-1.492152223363519E-003;4.104305058717728E-003;
2.410666666666667E+009;1.818767338991165E-001;1.835519820451737E-002;-1.381942420266569E-003;4.141146317124367E-003;
2.410833333333334E+009;1.812632828950882E-001;1.618192344903946E-002;-1.027773134410381E-003;4.308959469199181E-003;
2.411000000000000E+009;1.805962771177292E-001;1.389915309846401E-002;-9.989389218389988E-004;4.402110353112221E-003;
2.411166666666667E+009;1.799967736005783E-001;1.155364606529474E-002;-8.042720728553832E-004;4.352127201855183E-003;
2.411333333333334E+009;1.794064790010452E-001;9.125163778662682E-003;-6.589350523427129E-004;4.501469433307648E-003;
2.411500000000000E+009;1.790541410446167E-001;6.869352888315916E-003;-4.602699482347816E-004;4.455550108104944E-003;
2.411666666666667E+009;1.786212772130966E-001;4.455453250557184E-003;-3.356928355060518E-004;4.457244183868170E-003;
2.411833333333334E+009;1.786053031682968E-001;1.923178089782596E-003;8.156021067406982E-005;4.466670099645853E-003;
2.412000000000000E+009;1.786952018737793E-001;-7.717990665696561E-004;1.788966619642451E-004;4.521018825471401E-003;
2.412166666666667E+009;1.786969006061554E-001;-2.808235120028257E-003;3.059344599023461E-004;4.460363183170557E-003;
2.412333333333334E+009;1.790492683649063E-001;-5.463324952870607E-003;5.676496657542884E-004;4.414465278387070E-003;
2.412500000000000E+009;1.793477237224579E-001;-7.685888558626175E-003;6.646520923823118E-004;4.351160954684019E-003;
2.412666666666667E+009;1.798429191112518E-001;-1.018417533487082E-002;8.825526456348598E-004;4.262676462531090E-003;
2.412833333333334E+009;1.806276142597199E-001;-1.258121989667416E-002;1.144605339504778E-003;4.126944113522768E-003;
2.413000000000000E+009;1.813019365072250E-001;-1.497016102075577E-002;9.592408896423876E-004;4.009109456092119E-003;
2.413166666666667E+009;1.821007132530212E-001;-1.711954176425934E-002;1.360720954835415E-003;4.030705895274878E-003;
2.413333333333334E+009;1.830647736787796E-001;-1.947577111423016E-002;1.425245078280568E-003;4.074172116816044E-003;
2.413500000000000E+009;1.840097457170487E-001;-2.144900336861610E-002;1.466115470975637E-003;3.811677685007453E-003;
2.413666666666667E+009;1.852394342422485E-001;-2.379870787262917E-002;1.476708217523992E-003;3.876653267070651E-003;
2.413833333333334E+009;1.861775666475296E-001;-2.572754584252834E-002;1.638729125261307E-003;3.792985342442989E-003;
2.414000000000000E+009;1.872130781412125E-001;-2.762457542121410E-002;1.733489567413926E-003;3.718249266967177E-003;
2.414166666666667E+009;1.883973926305771E-001;-2.936740219593048E-002;1.811705064028502E-003;3.780521918088198E-003;
2.414333333333334E+009;1.894527375698090E-001;-3.121398948132992E-002;1.840263954363763E-003;3.621776355430484E-003;
2.414500000000000E+009;1.907923668622971E-001;-3.271666914224625E-002;2.110107569023967E-003;3.592991735786200E-003;
2.414666666666667E+009;1.918232589960098E-001;-3.419220820069313E-002;2.213404513895512E-003;3.564628073945642E-003;
2.414833333333334E+009;1.929946988821030E-001;-3.553246706724167E-002;2.382825827226043E-003;3.572999965399504E-003;
2.415000000000000E+009;1.942323148250580E-001;-3.674327209591866E-002;2.498247427865863E-003;3.564578481018543E-003;
2.415166666666667E+009;1.951727718114853E-001;-3.783287480473518E-002;2.572306897491217E-003;3.462187480181456E-003;
2.415333333333334E+009;1.964655220508575E-001;-3.872130811214447E-002;2.708315383642912E-003;3.240347839891911E-003;
2.415500000000000E+009;1.974247246980667E-001;-3.943739831447601E-002;2.859608503058553E-003;3.244856372475624E-003;
2.415666666666667E+009;1.984139382839203E-001;-4.022753238677979E-002;3.002216340973973E-003;3.134184749796987E-003;
2.415833333333334E+009;1.992711275815964E-001;-4.082195833325386E-002;3.023882862180471E-003;2.905194880440831E-003;
2.416000000000000E+009;1.999977231025696E-001;-4.139767214655876E-002;3.128462703898549E-003;2.841710811480880E-003;
2.416166666666667E+009;2.006876021623612E-001;-4.188137501478195E-002;3.089047735556960E-003;2.660157391801477E-003;
2.416333333333334E+009;2.013370841741562E-001;-4.223747178912163E-002;3.220951417461038E-003;2.666651969775558E-003;
2.416500000000000E+009;2.017780393362045E-001;-4.236967489123344E-002;3.243245417252183E-003;2.699409844353795E-003;
2.416666666666667E+009;2.019255310297012E-001;-4.283171147108078E-002;3.174054902046919E-003;2.535666804760695E-003;
2.416833333333334E+009;2.020630836486816E-001;-4.281851649284363E-002;3.274656366556883E-003;2.421070123091340E-003;
2.417000000000000E+009;2.021748423576355E-001;-4.300029575824738E-002;3.408110234886408E-003;2.336286706849933E-003;
2.417166666666667E+009;2.018574178218842E-001;-4.284416884183884E-002;3.624246222898364E-003;2.118703676387668E-003;
2.417333333333334E+009;2.016257047653198E-001;-4.260695725679398E-002;3.636215580627322E-003;2.218327485024929E-003;
2.417500000000000E+009;2.013043165206909E-001;-4.269505292177200E-002;3.782070241868496E-003;2.166084013879299E-003;
2.417666666666667E+009;2.007911652326584E-001;-4.248802736401558E-002;4.049158655107021E-003;1.921221963129938E-003;
2.417833333333334E+009;2.003018558025360E-001;-4.240828379988670E-002;3.963026683777571E-003;1.858973060734570E-003;
2.418000000000000E+009;1.996626406908035E-001;-4.202640429139137E-002;4.051533993333578E-003;1.699863700196147E-003;
2.418166666666667E+009;1.987574845552445E-001;-4.203701391816139E-002;4.039908293634653E-003;1.421376946382225E-003;
2.418333333333334E+009;1.977706849575043E-001;-4.182043299078941E-002;4.247404634952545E-003;1.419548992998898E-003;
2.418500000000000E+009;1.967253983020783E-001;-4.191919043660164E-002;4.348317161202431E-003;1.045924378558993E-003;
2.418666666666667E+009;1.958320289850235E-001;-4.178123548626900E-002;4.359304439276457E-003;8.941908599808812E-004;
2.418833333333334E+009;1.947208642959595E-001;-4.198121652007103E-002;4.294460173696280E-003;6.400013808161020E-004;
2.419000000000000E+009;1.932601779699326E-001;-4.226954653859139E-002;4.338577855378389E-003;6.097627920098603E-004;
2.419166666666667E+009;1.920505166053772E-001;-4.262866452336311E-002;4.195791669189930E-003;2.070318005280569E-004;
2.419333333333334E+009;1.907294243574143E-001;-4.303580150008202E-002;4.257504828274250E-003;2.039825812971685E-005;
2.419500000000000E+009;1.891974210739136E-001;-4.355289041996002E-002;4.183768294751644E-003;4.665950109483674E-005;
2.419666666666667E+009;1.876347810029984E-001;-4.424588754773140E-002;4.119151737540960E-003;-3.062327159568667E-004;
2.419833333333334E+009;1.860639899969101E-001;-4.491892829537392E-002;3.919980954378843E-003;-2.875190402846783E-004;
2.420000000000000E+009;1.845152676105499E-001;-4.587819054722786E-002;3.817026969045401E-003;-4.048684204462916E-004;
2.420166666666667E+009;1.830438822507858E-001;-4.682515934109688E-002;3.804666223004460E-003;-6.251766462810338E-004;
2.420333333333334E+009;1.815295070409775E-001;-4.796962067484856E-002;3.739810315892100E-003;-5.503335269168019E-004;
2.420500000000000E+009;1.799251586198807E-001;-4.927637055516243E-002;3.854678943753243E-003;-4.855166189372540E-004;
2.420666666666667E+009;1.782545000314713E-001;-5.042122676968575E-002;3.700537141412497E-003;-7.099044159986079E-004;
2.420833333333334E+009;1.767293959856033E-001;-5.198629945516586E-002;3.640301758423448E-003;-7.345357444137335E-004;
2.421000000000000E+009;1.751668453216553E-001;-5.346250161528587E-002;3.700709668919444E-003;-8.054961217567325E-004;
2.421166666666667E+009;1.738884598016739E-001;-5.518366768956184E-002;3.645689226686955E-003;-8.782563381828368E-004;
2.421333333333334E+009;1.722466498613358E-001;-5.666133016347885E-002;3.719475585967302E-003;-1.023770775645971E-003;
2.421500000000000E+009;1.710107773542404E-001;-5.866063386201859E-002;3.697243053466082E-003;-1.143801258876920E-003;
2.421666666666667E+009;1.698955446481705E-001;-6.038579717278481E-002;3.614999121055007E-003;-1.229177578352392E-003;
2.421833333333334E+009;1.687237769365311E-001;-6.228991970419884E-002;3.625612705945969E-003;-1.188834314234555E-003;
2.422000000000000E+009;1.676889508962631E-001;-6.414252519607544E-002;3.663941519334912E-003;-1.440130872651935E-003;
2.422166666666667E+009;1.669498085975647E-001;-6.620285660028458E-002;3.506426466628909E-003;-1.465241657570005E-003;
2.422333333333334E+009;1.656686514616013E-001;-6.829831004142761E-002;3.482908708974719E-003;-1.664940151385963E-003;
2.422500000000000E+009;1.651228517293930E-001;-7.023138552904129E-002;3.244168357923627E-003;-1.726403366774321E-003;
2.422666666666667E+009;1.643882840871811E-001;-7.221941649913788E-002;3.253311151638627E-003;-1.965183764696121E-003;
2.422833333333334E+009;1.639799624681473E-001;-7.412908971309662E-002;3.203090745955706E-003;-2.024515299126506E-003;
2.423000000000000E+009;1.634943187236786E-001;-7.624765485525131E-002;3.192052477970719E-003;-2.210407983511686E-003;
2.423166666666667E+009;1.631293296813965E-001;-7.813483476638794E-002;3.112498903647065E-003;-2.231459366157651E-003;
2.423333333333334E+009;1.628829091787338E-001;-8.004589378833771E-002;2.925644861534238E-003;-2.360123209655285E-003;
2.423500000000000E+009;1.628360152244568E-001;-8.168970048427582E-002;2.822951646521688E-003;-2.387163694947958E-003;
2.423666666666667E+009;1.628878563642502E-001;-8.372149616479874E-002;2.764530247077346E-003;-2.560789929702878E-003;
2.423833333333334E+009;1.628952622413635E-001;-8.543267101049423E-002;2.654134528711438E-003;-2.570327604189515E-003;
2.424000000000000E+009;1.629275232553482E-001;-8.716980367898941E-002;2.516052918508649E-003;-2.740188967436552E-003;
2.424166666666667E+009;1.631380766630173E-001;-8.852692693471909E-002;2.388739958405495E-003;-2.609346760436893E-003;
2.424333333333334E+009;1.632787138223648E-001;-9.009618312120438E-002;2.263362985104322E-003;-2.792502520605922E-003;
2.424500000000000E+009;1.635262221097946E-001;-9.190579503774643E-002;2.139825373888016E-003;-2.716937335208058E-003;
2.424666666666667E+009;1.637903004884720E-001;-9.313841164112091E-002;2.056814031675458E-003;-2.756960690021515E-003;
2.424833333333334E+009;1.645737737417221E-001;-9.426999837160111E-002;2.001712331548333E-003;-2.680521691218019E-003;
2.425000000000000E+009;1.647855788469315E-001;-9.543994814157486E-002;1.921839662827551E-003;-2.672805916517973E-003;
2.425166666666667E+009;1.651496142148972E-001;-9.657867997884750E-002;1.907731173560023E-003;-2.728386083617806E-003;
2.425333333333334E+009;1.655922383069992E-001;-9.747446328401566E-002;1.573895220644772E-003;-2.823824062943459E-003;
2.425500000000000E+009;1.659172326326370E-001;-9.854992479085922E-002;1.512037008069456E-003;-2.744183875620365E-003;
2.425666666666667E+009;1.663503050804138E-001;-9.913042932748795E-002;1.516985124908388E-003;-2.672999631613493E-003;
2.425833333333334E+009;1.666290014982224E-001;-9.995438903570175E-002;1.496861921623349E-003;-2.798094879835844E-003;
2.426000000000000E+009;1.670253872871399E-001;-1.004231944680214E-001;1.251199049875140E-003;-2.823055256158114E-003;
2.426166666666667E+009;1.674791276454926E-001;-1.008631289005280E-001;1.294804620556533E-003;-2.814543433487415E-003;
2.426333333333334E+009;1.675113886594772E-001;-1.013170778751373E-001;1.318929484114051E-003;-2.860800828784704E-003;
2.426500000000000E+009;1.678565591573715E-001;-1.016547232866287E-001;1.138857449404895E-003;-2.886535599827766E-003;
2.426666666666667E+009;1.680862754583359E-001;-1.019010394811630E-001;1.057259971275926E-003;-2.862659282982349E-003;
2.426833333333334E+009;1.682689785957336E-001;-1.021846532821655E-001;1.135443104431033E-003;-2.822053153067827E-003;
2.427000000000000E+009;1.682697832584381E-001;-1.024941876530647E-001;8.669642847962678E-004;-2.916456898674369E-003;
2.427166666666667E+009;1.683275699615479E-001;-1.025548502802849E-001;1.003007753752172E-003;-2.847498981282115E-003;
2.427333333333334E+009;1.681690067052841E-001;-1.028690040111542E-001;7.808267837390304E-004;-2.886100672185421E-003;
2.427500000000000E+009;1.679935157299042E-001;-1.031457930803299E-001;8.236181456595659E-004;-2.900168066844344E-003;
2.427666666666667E+009;1.675779223442078E-001;-1.030715778470039E-001;8.518509566783905E-004;-3.019016701728106E-003;
2.427833333333334E+009;1.672454923391342E-001;-1.032522693276405E-001;6.487239152193070E-004;-2.946732565760613E-003;
