# Version 1.00
#
freq[Hz];re:Trc1_S11;im:Trc1_S11;re:Trc2_S21;im:Trc2_S21;
2.400000000000000E+009;1.563056409358978E-001;1.061128675937653E-001;2.381542464718223E-003;4.828356206417084E-003;
2.400166666666667E+009;1.562693566083908E-001;1.038202196359634E-001;2.427892526611686E-003;4.505906254053116E-003;
2.400333333333334E+009;1.565045118331909E-001;1.015298739075661E-001;2.546818926930428E-003;4.395710770040751E-003;
2.400500000000000E+009;1.567300856113434E-001;9.918507933616638E-002;2.477981615811586E-003;4.049725830554962E-003;
2.400666666666667E+009;1.570091396570206E-001;9.681031852960587E-002;2.247165655717254E-003;3.753872821107507E-003;
2.400833333333334E+009;1.572494059801102E-001;9.414362162351608E-002;2.217008965089917E-003;3.543319879099727E-003;
2.401000000000000E+009;1.576918214559555E-001;9.148204326629639E-002;2.159236464649439E-003;3.416365012526512E-003;
2.401166666666667E+009;1.579304635524750E-001;8.900823444128037E-002;2.095727249979973E-003;3.294620197266340E-003;
2.401333333333334E+009;1.585083603858948E-001;8.630400896072388E-002;1.741030369885266E-003;3.222485771402717E-003;
2.401500000000000E+009;1.590083390474320E-001;8.356348425149918E-002;1.658472348935902E-003;3.209469839930534E-003;
2.401666666666667E+009;1.595464646816254E-001;8.122773468494415E-002;1.503868494182825E-003;3.215324832126498E-003;
2.401833333333334E+009;1.601125895977020E-001;7.841575890779495E-002;1.393381506204605E-003;3.425826551392674E-003;
2.402000000000000E+009;1.610864400863648E-001;7.596833258867264E-002;1.360552036203444E-003;3.376954235136509E-003;
2.402166666666667E+009;1.618956327438355E-001;7.354465872049332E-002;1.429709722287953E-003;3.601160133257508E-003;
2.402333333333334E+009;1.627883464097977E-001;7.128775864839554E-002;1.461101113818586E-003;3.618763294070959E-003;
2.402500000000000E+009;1.639853864908218E-001;6.880395859479904E-002;1.432259567081928E-003;3.838109085336328E-003;
2.402666666666667E+009;1.649174392223358E-001;6.669538468122482E-002;1.682572066783905E-003;3.960654139518738E-003;
2.402833333333334E+009;1.661330163478851E-001;6.437683850526810E-002;1.762896310538054E-003;4.053315147757530E-003;
2.403000000000000E+009;1.675352156162262E-001;6.220671162009239E-002;1.911085331812501E-003;4.048974253237248E-003;
2.403166666666667E+009;1.692615598440170E-001;6.016267463564873E-002;2.135797636583448E-003;3.987813834100962E-003;
2.403333333333334E+009;1.704217493534088E-001;5.815331637859345E-002;2.406216459348798E-003;4.106193780899048E-003;
2.403500000000000E+009;1.720816642045975E-001;5.611100420355797E-002;2.656866796314716E-003;3.906812518835068E-003;
2.403666666666667E+009;1.735404431819916E-001;5.429457873106003E-002;2.776447916403413E-003;3.797653829678893E-003;
2.403833333333334E+009;1.750985234975815E-001;5.250909551978111E-002;3.036990296095610E-003;3.755733836442232E-003;
2.404000000000000E+009;1.763358116149902E-001;5.077593773603439E-002;3.029015380889177E-003;3.582784207537770E-003;
2.404166666666667E+009;1.779457926750183E-001;4.934345558285713E-002;3.081965958699584E-003;3.378735855221748E-003;
2.404333333333334E+009;1.792973577976227E-001;4.771830886602402E-002;3.150811418890953E-003;3.407838754355907E-003;
2.404500000000000E+009;1.806678771972656E-001;4.613010585308075E-002;3.348774276673794E-003;3.142545931041241E-003;
2.404666666666667E+009;1.822136640548706E-001;4.526218399405479E-002;3.275941591709852E-003;3.142264904454351E-003;
2.404833333333334E+009;1.834675371646881E-001;4.420657083392143E-002;3.281915094703436E-003;2.884731860831380E-003;
2.405000000000000E+009;1.845882087945938E-001;4.338771104812622E-002;3.358775982633233E-003;3.004804486408830E-003;
2.405166666666667E+009;1.858368813991547E-001;4.253739491105080E-002;3.512948518618941E-003;2.737630158662796E-003;
2.405333333333334E+009;1.869719028472900E-001;4.181999713182449E-002;3.446409245952964E-003;2.697740681469441E-003;
2.405500000000000E+009;1.882196366786957E-001;4.146467894315720E-002;3.539680270478129E-003;2.769054612144828E-003;
2.405666666666667E+009;1.892001479864121E-001;4.085985943675041E-002;3.673184895887971E-003;2.717190189287067E-003;
2.405833333333334E+009;1.902697831392288E-001;4.039347916841507E-002;3.851752961054444E-003;2.631072187796235E-003;
2.406000000000000E+009;1.910951435565949E-001;4.002422094345093E-002;3.792783711105585E-003;2.451633568853140E-003;
2.406166666666667E+009;1.917401701211929E-001;3.973636776208878E-002;4.037417937070131E-003;2.403222722932696E-003;
2.406333333333334E+009;1.926077604293823E-001;3.957666829228401E-002;4.081815946847200E-003;2.238708781078458E-003;
2.406500000000000E+009;1.932443380355835E-001;3.941393271088600E-002;4.057833924889565E-003;2.238217275589705E-003;
2.406666666666667E+009;1.936680078506470E-001;3.929508104920387E-002;4.208575934171677E-003;1.960154157131910E-003;
2.406833333333334E+009;1.941063404083252E-001;3.901676461100578E-002;4.302943591028452E-003;1.825842307880521E-003;
2.407000000000000E+009;1.944277882575989E-001;3.907199203968048E-002;4.460444208234549E-003;1.757456688210368E-003;
2.407166666666667E+009;1.946884393692017E-001;3.861063346266747E-002;4.521324299275875E-003;1.643996103666723E-003;
2.407333333333334E+009;1.946450471878052E-001;3.861105069518089E-002;4.516286309808493E-003;1.660046400502324E-003;
2.407500000000000E+009;1.946570873260498E-001;3.848090395331383E-002;4.455547314137220E-003;1.252467511221767E-003;
2.407666666666667E+009;1.945593804121018E-001;3.819568827748299E-002;4.604032728821039E-003;1.188357477076352E-003;
2.407833333333334E+009;1.942491233348846E-001;3.784855827689171E-002;4.517347086220980E-003;9.202137589454651E-004;
2.408000000000000E+009;1.942075341939926E-001;3.749350085854530E-002;4.361278843134642E-003;1.007734448648989E-003;
2.408166666666667E+009;1.937023550271988E-001;3.698597848415375E-002;4.508492536842823E-003;8.318607578985393E-004;
2.408333333333334E+009;1.934905499219894E-001;3.621678799390793E-002;4.398088902235031E-003;8.688112138770521E-004;
2.408500000000000E+009;1.927997022867203E-001;3.583162277936935E-002;4.461705219000578E-003;6.343332934193313E-004;
2.408666666666667E+009;1.924283802509308E-001;3.526049852371216E-002;4.410185851156712E-003;6.343779969029129E-004;
2.408833333333334E+009;1.918585002422333E-001;3.425772488117218E-002;4.423493985086680E-003;2.945976739283651E-004;
2.409000000000000E+009;1.910838782787323E-001;3.327680379152298E-002;4.508147481828928E-003;2.731884305831045E-004;
2.409166666666667E+009;1.904144287109375E-001;3.239893913269043E-002;4.343298729509115E-003;1.162296903203242E-004;
2.409333333333334E+009;1.896829605102539E-001;3.123045526444912E-002;4.613019060343504E-003;1.921637303894386E-004;
2.409500000000000E+009;1.887960433959961E-001;2.993670850992203E-002;4.501415416598320E-003;1.955018342414405E-005;
2.409666666666667E+009;1.879302710294724E-001;2.848258428275585E-002;4.552102647721767E-003;-1.325724497291958E-006;
2.409833333333334E+009;1.871299594640732E-001;2.715100347995758E-002;4.498678725212812E-003;-2.395920164417476E-004;
2.410000000000000E+009;1.864906698465347E-001;2.553324587643147E-002;4.619338549673557E-003;-3.018918505404145E-004;
2.410166666666667E+009;1.854758262634277E-001;2.366126887500286E-002;4.659180063754320E-003;-4.086742410436273E-004;
2.410333333333334E+009;1.848376989364624E-001;2.206712961196899E-002;4.444625228643417E-003;-6.289040320552886E-004;
2.410500000000000E+009;1.839794367551804E-001;2.026297710835934E-002;4.503762349486351E-003;-6.769185420125723E-004;
2.410666666666667E+009;1.832588165998459E-001;1.815247535705566E-002;4.504725337028503E-003;-8.307276293635368E-004;
2.410833333333334E+009;1.829424649477005E-001;1.608748361468315E-002;4.484092351049185E-003;-1.135809114202857E-003;
2.411000000000000E+009;1.823375672101975E-001;1.398087292909622E-002;4.528026562184095E-003;-1.101917470805347E-003;
2.411166666666667E+009;1.817860901355743E-001;1.209014188498259E-002;4.476634785532951E-003;-1.286193029955030E-003;
2.411333333333334E+009;1.814594864845276E-001;9.618887677788734E-003;4.303815308958292E-003;-1.173677388578653E-003;
2.411500000000000E+009;1.811331063508987E-001;7.640636060386896E-003;4.404520615935326E-003;-1.387043157592416E-003;
2.411666666666667E+009;1.810619384050369E-001;5.613288842141628E-003;4.303485620766878E-003;-1.522763515822589E-003;
2.411833333333334E+009;1.805793493986130E-001;3.504530526697636E-003;4.407485481351614E-003;-1.541442703455687E-003;
2.412000000000000E+009;1.808578819036484E-001;1.119279535487294E-003;4.184603691101074E-003;-1.527279964648187E-003;
2.412166666666667E+009;1.809510141611099E-001;-9.313366026617587E-004;4.166981671005487E-003;-1.738276216201484E-003;
2.412333333333334E+009;1.813175827264786E-001;-3.196388715878129E-003;4.222450777888298E-003;-1.815439085476100E-003;
2.412500000000000E+009;1.816869378089905E-001;-5.473358090966940E-003;4.255962092429400E-003;-1.837993855588138E-003;
2.412666666666667E+009;1.819542050361633E-001;-7.609985303133726E-003;4.102993290871382E-003;-2.027900191023946E-003;
2.412833333333334E+009;1.827636361122131E-001;-9.715437889099121E-003;4.332493524998426E-003;-2.164330566301942E-003;
2.413000000000000E+009;1.834714263677597E-001;-1.171219442039728E-002;4.172637593001127E-003;-2.287729410454631E-003;
2.413166666666667E+009;1.841200888156891E-001;-1.385975163429976E-002;4.325518384575844E-003;-2.404264640063047E-003;
2.413333333333334E+009;1.851788014173508E-001;-1.590948365628719E-002;4.251558333635330E-003;-2.562918234616518E-003;
2.413500000000000E+009;1.860033273696899E-001;-1.810917071998119E-002;4.180346149951220E-003;-2.563515910878778E-003;
2.413666666666667E+009;1.868946850299835E-001;-2.009363099932671E-002;4.122290760278702E-003;-2.953306073322892E-003;
2.413833333333334E+009;1.879104822874069E-001;-2.175314538180828E-002;4.136668052524328E-003;-3.283471800386906E-003;
2.414000000000000E+009;1.888839900493622E-001;-2.361517399549484E-002;3.941696602851152E-003;-3.435092745348811E-003;
2.414166666666667E+009;1.900370866060257E-001;-2.532335557043552E-002;3.788732923567295E-003;-3.616358619183302E-003;
2.414333333333334E+009;1.910296976566315E-001;-2.708254009485245E-002;3.584016114473343E-003;-3.886099671944976E-003;
2.414500000000000E+009;1.922402828931809E-001;-2.844070456922054E-002;3.536261850968003E-003;-4.112791735678911E-003;
2.414666666666667E+009;1.930832862854004E-001;-2.978869900107384E-002;3.304762765765190E-003;-4.128486383706331E-003;
2.414833333333334E+009;1.940156668424606E-001;-3.123890794813633E-002;2.977218944579363E-003;-4.324452951550484E-003;
2.415000000000000E+009;1.949382275342941E-001;-3.243044391274452E-002;2.875417936593294E-003;-4.458456765860319E-003;
2.415166666666667E+009;1.960099190473557E-001;-3.355470672249794E-002;2.670021029189229E-003;-4.689618479460478E-003;
2.415333333333334E+009;1.970172673463821E-001;-3.459753468632698E-002;2.540834015235305E-003;-4.743325524032116E-003;
2.415500000000000E+009;1.978851854801178E-001;-3.537970036268234E-002;2.224176190793514E-003;-4.709815140813589E-003;
2.415666666666667E+009;1.987196058034897E-001;-3.622618690133095E-002;2.056296681985259E-003;-4.707349464297295E-003;
2.415833333333334E+009;1.994362026453018E-001;-3.698337823152542E-002;1.820422010496259E-003;-4.815789405256510E-003;
2.416000000000000E+009;2.001257985830307E-001;-3.771180659532547E-002;1.649716054089367E-003;-4.781189374625683E-003;
2.416166666666667E+009;2.006783336400986E-001;-3.835108503699303E-002;1.414186903275549E-003;-4.866175353527069E-003;
2.416333333333334E+009;2.010678052902222E-001;-3.878342732787132E-002;1.204787520691752E-003;-4.759070929139853E-003;
2.416500000000000E+009;2.014594376087189E-001;-3.916952386498451E-002;1.025836332701147E-003;-4.705158993601799E-003;
2.416666666666667E+009;2.016750276088715E-001;-3.975143283605576E-002;8.831325685605407E-004;-4.685288760811091E-003;
2.416833333333334E+009;2.017056941986084E-001;-3.999318554997444E-002;6.427550106309354E-004;-4.609031602740288E-003;
2.417000000000000E+009;2.016717195510864E-001;-4.024681448936462E-002;5.501841660588980E-004;-4.549945238977671E-003;
2.417166666666667E+009;2.014930993318558E-001;-4.030292481184006E-002;5.165319889783859E-004;-4.651683382689953E-003;
2.417333333333334E+009;2.011341750621796E-001;-4.044873267412186E-002;1.575885544298217E-004;-4.462358076125383E-003;
2.417500000000000E+009;2.007756382226944E-001;-4.059517756104469E-002;2.736558963079006E-004;-4.398073069751263E-003;
2.417666666666667E+009;2.003508806228638E-001;-4.066787287592888E-002;4.729217471322045E-005;-4.440237302333117E-003;
2.417833333333334E+009;1.998730599880219E-001;-4.069552198052406E-002;-1.069000572897494E-004;-4.487204365432262E-003;
2.418000000000000E+009;1.992623507976532E-001;-4.051961377263069E-002;-2.106751489918679E-004;-4.380806349217892E-003;
2.418166666666667E+009;1.985801458358765E-001;-4.078290238976479E-002;-2.998401760123670E-004;-4.402708262205124E-003;
2.418333333333334E+009;1.977443099021912E-001;-4.075865447521210E-002;-5.112153012305498E-004;-4.490390885621309E-003;
2.418500000000000E+009;1.967152804136276E-001;-4.101970791816711E-002;-5.666256765834987E-004;-4.335001576691866E-003;
2.418666666666667E+009;1.960840523242950E-001;-4.117115586996079E-002;-7.511461735703051E-004;-4.085410386323929E-003;
2.418833333333334E+009;1.949204057455063E-001;-4.154360666871071E-002;-1.010046806186438E-003;-3.995425067842007E-003;
2.419000000000000E+009;1.937690973281860E-001;-4.175232350826263E-002;-1.061835675500333E-003;-3.961175214499235E-003;
2.419166666666667E+009;1.927025467157364E-001;-4.226053133606911E-002;-1.211750088259578E-003;-3.705500392243266E-003;
2.419333333333334E+009;1.915079206228256E-001;-4.296691715717316E-002;-1.228877343237400E-003;-3.514167619869113E-003;
2.419500000000000E+009;1.901998221874237E-001;-4.349915310740471E-002;-1.453417353332043E-003;-3.364903619512916E-003;
2.419666666666667E+009;1.887186020612717E-001;-4.439394548535347E-002;-1.345429569482803E-003;-3.358524059876800E-003;
2.419833333333334E+009;1.874021291732788E-001;-4.507121443748474E-002;-1.404494978487492E-003;-3.194394288584590E-003;
2.420000000000000E+009;1.861207187175751E-001;-4.599581658840179E-002;-1.204415573738515E-003;-2.995664021000266E-003;
2.420166666666667E+009;1.845802962779999E-001;-4.700182378292084E-002;-1.161893946118653E-003;-2.805319847539067E-003;
2.420333333333334E+009;1.833556443452835E-001;-4.814216122031212E-002;-9.011393995024264E-004;-2.891552168875933E-003;
2.420500000000000E+009;1.817583441734314E-001;-4.947539418935776E-002;-9.770138422027230E-004;-2.792781218886375E-003;
2.420666666666667E+009;1.803593039512634E-001;-5.044040083885193E-002;-6.683645769953728E-004;-2.857191255316138E-003;
2.420833333333334E+009;1.790330857038498E-001;-5.205199494957924E-002;-7.449577678926289E-004;-2.935336437076330E-003;
2.421000000000000E+009;1.777679175138474E-001;-5.351568758487701E-002;-5.995694082230330E-004;-3.163329092785716E-003;
2.421166666666667E+009;1.766705513000488E-001;-5.516893416643143E-002;-6.599480402655900E-004;-2.881290856748819E-003;
2.421333333333334E+009;1.750226765871048E-001;-5.647139623761177E-002;-5.649991799145937E-004;-3.400193527340889E-003;
2.421500000000000E+009;1.739437133073807E-001;-5.832254514098167E-002;-4.597297811415047E-004;-3.380015492439270E-003;
2.421666666666667E+009;1.727645248174667E-001;-6.013488024473190E-002;-5.610824446193874E-004;-3.597115864977241E-003;
2.421833333333334E+009;1.718415915966034E-001;-6.169702857732773E-002;-6.514617707580328E-004;-3.710480406880379E-003;
2.422000000000000E+009;1.707603335380554E-001;-6.339228153228760E-002;-8.898976375348866E-004;-3.768232651054859E-003;
2.422166666666667E+009;1.700538992881775E-001;-6.535554677248001E-002;-9.138539899140596E-004;-4.041041247546673E-003;
2.422333333333334E+009;1.691240519285202E-001;-6.700932979583740E-002;-1.106658368371427E-003;-4.087748937308788E-003;
2.422500000000000E+009;1.684132665395737E-001;-6.888876110315323E-002;-1.200135680846870E-003;-4.214373417198658E-003;
2.422666666666667E+009;1.677729785442352E-001;-7.082118839025497E-002;-1.396731124259532E-003;-4.219428170472384E-003;
2.422833333333334E+009;1.674440205097199E-001;-7.262182235717773E-002;-1.625483389943838E-003;-4.199825692921877E-003;
2.423000000000000E+009;1.669103950262070E-001;-7.447178661823273E-002;-1.725262147374451E-003;-4.213023465126753E-003;
2.423166666666667E+009;1.665100306272507E-001;-7.623217999935150E-002;-1.971451099961996E-003;-4.220436327159405E-003;
2.423333333333334E+009;1.663056164979935E-001;-7.803478091955185E-002;-2.187597798183560E-003;-4.277797415852547E-003;
2.423500000000000E+009;1.662085652351379E-001;-7.975115627050400E-002;-2.287118695676327E-003;-4.164472222328186E-003;
2.423666666666667E+009;1.661215871572495E-001;-8.160104602575302E-002;-2.614147262647748E-003;-4.275624174624682E-003;
2.423833333333334E+009;1.659067124128342E-001;-8.315176516771317E-002;-2.766194753348827E-003;-4.124877043068409E-003;
2.424000000000000E+009;1.660201251506805E-001;-8.483412116765976E-002;-3.091949969530106E-003;-4.208830650895834E-003;
2.424166666666667E+009;1.660017073154450E-001;-8.633121848106384E-002;-3.202509600669146E-003;-4.113258793950081E-003;
2.424333333333334E+009;1.661219745874405E-001;-8.781329542398453E-002;-3.425816772505641E-003;-3.969627898186445E-003;
2.424500000000000E+009;1.663932949304581E-001;-8.947837352752686E-002;-3.574897069483995E-003;-3.941915463656187E-003;
2.424666666666667E+009;1.663805246353149E-001;-9.081720560789108E-002;-3.876851173117757E-003;-3.671728773042560E-003;
2.424833333333334E+009;1.668281555175781E-001;-9.208764135837555E-002;-4.127263557165861E-003;-3.447958501055837E-003;
2.425000000000000E+009;1.671639978885651E-001;-9.328436851501465E-002;-4.364285152405500E-003;-3.506586421281099E-003;
2.425166666666667E+009;1.671321839094162E-001;-9.433896094560623E-002;-4.396163858473301E-003;-3.153435653075576E-003;
2.425333333333334E+009;1.674189120531082E-001;-9.540280699729919E-002;-4.678533878177404E-003;-3.073283238336444E-003;
2.425500000000000E+009;1.676895916461945E-001;-9.639497846364975E-002;-4.792143125087023E-003;-2.957573859021068E-003;
2.425666666666667E+009;1.679300963878632E-001;-9.704809635877609E-002;-4.974643234163523E-003;-2.737846691161394E-003;
2.425833333333334E+009;1.680122464895248E-001;-9.804569184780121E-002;-5.156433675438166E-003;-2.381780417636037E-003;
2.426000000000000E+009;1.682838648557663E-001;-9.851157665252686E-002;-5.207257345318794E-003;-2.266662893816829E-003;
2.426166666666667E+009;1.685012727975845E-001;-9.914488345384598E-002;-5.332459229975939E-003;-1.939503708854318E-003;
2.426333333333334E+009;1.686175912618637E-001;-9.972760826349258E-002;-5.479242186993361E-003;-1.669234945438802E-003;
2.426500000000000E+009;1.687677502632141E-001;-1.001285910606384E-001;-5.599998869001865E-003;-1.477063517086208E-003;
2.426666666666667E+009;1.689699739217758E-001;-1.006870865821838E-001;-5.486627575010061E-003;-1.116120140068233E-003;
2.426833333333334E+009;1.690978109836578E-001;-1.010327264666557E-001;-5.437220912426710E-003;-9.885261533781886E-004;
2.427000000000000E+009;1.690303385257721E-001;-1.013802066445351E-001;-5.522353574633598E-003;-5.911319749429822E-004;
2.427166666666667E+009;1.690336763858795E-001;-1.016490310430527E-001;-5.430095829069614E-003;-3.500100283417851E-004;
2.427333333333334E+009;1.689085066318512E-001;-1.021892800927162E-001;-5.462049040943384E-003;-1.581351534696296E-004;
2.427500000000000E+009;1.686751544475555E-001;-1.024028137326241E-001;-5.341413896530867E-003;-4.077616904396564E-005;
2.427666666666667E+009;1.683075129985809E-001;-1.027181744575501E-001;-5.293048918247223E-003;7.892420399002731E-005;
2.427833333333334E+009;1.679368615150452E-001;-1.032173559069634E-001;-5.309216212481260E-003;4.951867740601301E-004;
