# Version 1.00
#
freq[Hz];re:Trc1_S11;im:Trc1_S11;re:Trc2_S21;im:Trc2_S21;
2.400000000000000E+009;1.564659625291824E-001;1.059586703777313E-001;2.424250356853008E-003;4.930146504193544E-003;
2.400166666666667E+009;1.563187837600708E-001;1.036494821310043E-001;2.366943052038550E-003;4.665150772780180E-003;
2.400333333333334E+009;1.566755622625351E-001;1.015570834279060E-001;2.344581065699458E-003;4.336242564022541E-003;
2.400500000000000E+009;1.568261981010437E-001;9.915250539779663E-002;2.275118837133050E-003;4.069128073751926E-003;
2.400666666666667E+009;1.570914685726166E-001;9.673866629600525E-002;2.092769369482994E-003;3.866516519337893E-003;
2.400833333333334E+009;1.573050767183304E-001;9.400617331266403E-002;2.077041892334819E-003;3.654201049357653E-003;
2.401000000000000E+009;1.578313857316971E-001;9.132756292819977E-002;2.043470274657011E-003;3.469737945124507E-003;
2.401166666666667E+009;1.579471975564957E-001;8.881670236587524E-002;1.944791409187019E-003;3.398683620616794E-003;
2.401333333333334E+009;1.583823412656784E-001;8.627516031265259E-002;1.629753853194416E-003;3.260677214711905E-003;
2.401500000000000E+009;1.591263562440872E-001;8.369237184524536E-002;1.681124209426343E-003;3.203053958714008E-003;
2.401666666666667E+009;1.595313698053360E-001;8.097321540117264E-002;1.519185840152204E-003;3.375170985236764E-003;
2.401833333333334E+009;1.600719839334488E-001;7.842012494802475E-002;1.364308525808156E-003;3.450685413554311E-003;
2.402000000000000E+009;1.610888689756393E-001;7.597538828849793E-002;1.429205411113799E-003;3.429668257012963E-003;
2.402166666666667E+009;1.618191152811050E-001;7.364638894796372E-002;1.499596168287098E-003;3.634121734648943E-003;
2.402333333333334E+009;1.627227365970612E-001;7.103838026523590E-002;1.439703046344221E-003;3.704761620610952E-003;
2.402500000000000E+009;1.636712551116943E-001;6.874293088912964E-002;1.462652115151286E-003;3.835223382338882E-003;
2.402666666666667E+009;1.648726165294647E-001;6.663458049297333E-002;1.479286234825850E-003;3.936144988983870E-003;
2.402833333333334E+009;1.661929786205292E-001;6.417697668075562E-002;1.865081023424864E-003;4.125482868403196E-003;
2.403000000000000E+009;1.675253957509995E-001;6.212670728564262E-002;1.938259229063988E-003;4.101347178220749E-003;
2.403166666666667E+009;1.689880341291428E-001;6.013290584087372E-002;2.020008862018585E-003;4.097699653357267E-003;
2.403333333333334E+009;1.702329069375992E-001;5.798713862895966E-002;2.537367399781942E-003;4.169567488133907E-003;
2.403500000000000E+009;1.718884557485580E-001;5.617342516779900E-002;2.379898214712739E-003;3.939188551157713E-003;
2.403666666666667E+009;1.735724657773972E-001;5.431138724088669E-002;2.733495552092791E-003;3.840209916234016E-003;
2.403833333333334E+009;1.749080866575241E-001;5.251147970557213E-002;2.821758855134249E-003;3.727954812347889E-003;
2.404000000000000E+009;1.762335300445557E-001;5.080281570553780E-002;3.105002455413342E-003;3.578420029953122E-003;
2.404166666666667E+009;1.779047250747681E-001;4.931592941284180E-002;3.096193540841341E-003;3.300713840872049E-003;
2.404333333333334E+009;1.791923195123673E-001;4.772957786917687E-002;3.190062008798122E-003;3.322716103866696E-003;
2.404500000000000E+009;1.807617545127869E-001;4.632127657532692E-002;3.255772637203336E-003;3.224303945899010E-003;
2.404666666666667E+009;1.819961220026016E-001;4.533034935593605E-002;3.301074961200357E-003;3.078848822042346E-003;
2.404833333333334E+009;1.835552603006363E-001;4.411271959543228E-002;3.397466847673059E-003;3.100139321759343E-003;
2.405000000000000E+009;1.845511943101883E-001;4.324256256222725E-002;3.347683930769563E-003;3.112633479759097E-003;
2.405166666666667E+009;1.859151721000671E-001;4.247993975877762E-002;3.486021189019084E-003;2.932761330157518E-003;
2.405333333333334E+009;1.868215501308441E-001;4.190808534622192E-002;3.559712320566177E-003;2.783897798508406E-003;
2.405500000000000E+009;1.880647540092468E-001;4.124467819929123E-002;3.606284735724330E-003;2.760497387498617E-003;
2.405666666666667E+009;1.890876293182373E-001;4.065942019224167E-002;3.654820611700416E-003;2.698723692446947E-003;
2.405833333333334E+009;1.902073621749878E-001;4.033852368593216E-002;4.015737678855658E-003;2.678309101611376E-003;
2.406000000000000E+009;1.910324245691299E-001;4.003804549574852E-002;3.940130583941937E-003;2.585064386948943E-003;
2.406166666666667E+009;1.918696314096451E-001;3.949924185872078E-002;3.864718833938241E-003;2.509923418983817E-003;
2.406333333333334E+009;1.926164627075195E-001;3.944831341505051E-002;4.025335889309645E-003;2.363241743296385E-003;
2.406500000000000E+009;1.932291686534882E-001;3.930880874395371E-002;4.262096714228392E-003;2.213910687714815E-003;
2.406666666666667E+009;1.937232464551926E-001;3.908131644129753E-002;4.421675112098455E-003;2.088651992380619E-003;
2.406833333333334E+009;1.941782385110855E-001;3.898077830672264E-002;4.423990845680237E-003;1.789437490515411E-003;
2.407000000000000E+009;1.943921297788620E-001;3.896014392375946E-002;4.296644125133753E-003;1.819856697693467E-003;
2.407166666666667E+009;1.947948038578033E-001;3.860432654619217E-002;4.447553306818008E-003;1.706398557871580E-003;
2.407333333333334E+009;1.946157515048981E-001;3.852964565157890E-002;4.393618088215590E-003;1.483420375734568E-003;
2.407500000000000E+009;1.945827901363373E-001;3.841624036431313E-002;4.438563715666533E-003;1.437035854905844E-003;
2.407666666666667E+009;1.946057528257370E-001;3.806062042713165E-002;4.401355516165495E-003;1.371617428958416E-003;
2.407833333333334E+009;1.942930966615677E-001;3.780936822295189E-002;4.381328821182251E-003;1.134820515289903E-003;
2.408000000000000E+009;1.942267268896103E-001;3.743756189942360E-002;4.536170046776533E-003;9.448997443541884E-004;
2.408166666666667E+009;1.936463564634323E-001;3.704963997006416E-002;4.523335956037045E-003;8.309991098940373E-004;
2.408333333333334E+009;1.934274733066559E-001;3.627747297286987E-002;4.522642586380243E-003;6.741790566593409E-004;
2.408500000000000E+009;1.929770261049271E-001;3.579628095030785E-002;4.587166476994753E-003;7.212387281470001E-004;
2.408666666666667E+009;1.923699975013733E-001;3.503716737031937E-002;4.554505925625563E-003;5.690676625818014E-004;
2.408833333333334E+009;1.918961554765701E-001;3.425860032439232E-002;4.499100148677826E-003;5.973873194307089E-004;
2.409000000000000E+009;1.910153180360794E-001;3.332316875457764E-002;4.521014634519815E-003;3.054045082535595E-004;
2.409166666666667E+009;1.902864277362824E-001;3.218801319599152E-002;4.444682039320469E-003;1.682496222201735E-004;
2.409333333333334E+009;1.896615326404572E-001;3.112897835671902E-002;4.500245209783316E-003;3.191356663592160E-004;
2.409500000000000E+009;1.887905299663544E-001;2.985160239040852E-002;4.347204230725765E-003;-2.996591501869261E-005;
2.409666666666667E+009;1.879927963018417E-001;2.846083790063858E-002;4.654522985219955E-003;-7.472860306734219E-005;
2.409833333333334E+009;1.871700584888458E-001;2.716475538909435E-002;4.674557130783796E-003;-1.879463816294447E-004;
2.410000000000000E+009;1.863752156496048E-001;2.545513585209847E-002;4.464122466742992E-003;-3.571176202967763E-004;
2.410166666666667E+009;1.856112927198410E-001;2.375792898237705E-002;4.571887198835611E-003;-3.453074023127556E-004;
2.410333333333334E+009;1.849729567766190E-001;2.210716344416142E-002;4.598075989633799E-003;-6.079007871448994E-004;
2.410500000000000E+009;1.840079128742218E-001;2.031642571091652E-002;4.511396400630474E-003;-7.225680164992809E-004;
2.410666666666667E+009;1.834558695554733E-001;1.813019625842571E-002;4.567734897136688E-003;-7.620903197675943E-004;
2.410833333333334E+009;1.828362047672272E-001;1.603900268673897E-002;4.498191643506289E-003;-8.108005858957768E-004;
2.411000000000000E+009;1.824211925268173E-001;1.404390484094620E-002;4.422573372721672E-003;-1.115625374950469E-003;
2.411166666666667E+009;1.818985044956207E-001;1.217884011566639E-002;4.533939994871616E-003;-1.140819396823645E-003;
2.411333333333334E+009;1.812319159507752E-001;9.814107790589333E-003;4.468855448067188E-003;-1.184207503683865E-003;
2.411500000000000E+009;1.810236126184464E-001;7.600975688546896E-003;4.438688978552818E-003;-1.348706078715622E-003;
2.411666666666667E+009;1.809606254100800E-001;5.478627048432827E-003;4.305943846702576E-003;-1.343982759863138E-003;
2.411833333333334E+009;1.806746572256088E-001;3.476409474387765E-003;4.396259319037199E-003;-1.481949817389250E-003;
2.412000000000000E+009;1.810551881790161E-001;1.022447599098086E-003;4.262971691787243E-003;-1.550697255879641E-003;
2.412166666666667E+009;1.810360699892044E-001;-1.102096866816282E-003;4.320268984884024E-003;-1.739785773679614E-003;
2.412333333333334E+009;1.811765432357788E-001;-3.338632406666875E-003;4.254970699548721E-003;-1.625176751986146E-003;
2.412500000000000E+009;1.816851198673248E-001;-5.531356669962406E-003;4.207876045256853E-003;-1.755529199726880E-003;
2.412666666666667E+009;1.822514683008194E-001;-7.624153979122639E-003;4.307394381612539E-003;-1.930393744260073E-003;
2.412833333333334E+009;1.828222125768662E-001;-9.875997900962830E-003;4.389756824821234E-003;-2.020305488258600E-003;
2.413000000000000E+009;1.836341023445129E-001;-1.189397089183331E-002;4.343528766185045E-003;-2.231844700872898E-003;
2.413166666666667E+009;1.841223239898682E-001;-1.383771747350693E-002;4.411756526678801E-003;-2.435865579172969E-003;
2.413333333333334E+009;1.850117594003677E-001;-1.600819639861584E-002;4.436131566762924E-003;-2.720386022701860E-003;
2.413500000000000E+009;1.857757270336151E-001;-1.792508922517300E-002;4.333387129008770E-003;-2.701407065615058E-003;
2.413666666666667E+009;1.869423091411591E-001;-1.993419602513313E-002;4.229974467307329E-003;-3.029240760952234E-003;
2.413833333333334E+009;1.877656728029251E-001;-2.164850942790508E-002;4.195711575448513E-003;-3.218205412849784E-003;
2.414000000000000E+009;1.887755095958710E-001;-2.363323979079723E-002;4.063090775161982E-003;-3.503887215629220E-003;
2.414166666666667E+009;1.897190362215042E-001;-2.522578462958336E-002;4.029904957860708E-003;-3.579932264983654E-003;
2.414333333333334E+009;1.908967643976212E-001;-2.708838693797588E-002;3.775847377255559E-003;-3.947874996811152E-003;
2.414500000000000E+009;1.919627040624619E-001;-2.839376777410507E-002;3.777977079153061E-003;-4.177234135568142E-003;
2.414666666666667E+009;1.930602490901947E-001;-2.989405207335949E-002;3.478296799585223E-003;-4.293716978281736E-003;
2.414833333333334E+009;1.939100176095963E-001;-3.131383284926415E-002;3.183116670697928E-003;-4.310412332415581E-003;
2.415000000000000E+009;1.948645412921906E-001;-3.245956078171730E-002;3.006794257089496E-003;-4.508752375841141E-003;
2.415166666666667E+009;1.959473043680191E-001;-3.354710713028908E-002;2.854770980775356E-003;-4.619087092578411E-003;
2.415333333333334E+009;1.968692094087601E-001;-3.448919579386711E-002;2.561514498665929E-003;-4.819643683731556E-003;
2.415500000000000E+009;1.977530121803284E-001;-3.539601340889931E-002;2.367681358009577E-003;-4.750194493681192E-003;
2.415666666666667E+009;1.986998021602631E-001;-3.622874245047569E-002;2.202631440013647E-003;-4.908354021608830E-003;
2.415833333333334E+009;1.993572115898132E-001;-3.700056299567223E-002;1.895992550998926E-003;-4.912923555821180E-003;
2.416000000000000E+009;1.999817192554474E-001;-3.759825974702835E-002;1.718481071293354E-003;-4.910818301141262E-003;
2.416166666666667E+009;2.005010694265366E-001;-3.828524798154831E-002;1.560019911266863E-003;-4.814512562006712E-003;
2.416333333333334E+009;2.010508775711060E-001;-3.875734284520149E-002;1.306548714637756E-003;-4.907354712486267E-003;
2.416500000000000E+009;2.013815194368362E-001;-3.914643451571465E-002;1.032866304740310E-003;-4.803284071385860E-003;
2.416666666666667E+009;2.015808373689652E-001;-3.964246064424515E-002;8.412834140472114E-004;-4.737291950732470E-003;
2.416833333333334E+009;2.016589939594269E-001;-3.990594297647476E-002;8.017789805307984E-004;-4.753517918288708E-003;
2.417000000000000E+009;2.017466425895691E-001;-4.022039100527763E-002;4.975644988007844E-004;-4.796247463673353E-003;
2.417166666666667E+009;2.012602835893631E-001;-4.042007029056549E-002;5.636172718368471E-004;-4.521350841969252E-003;
2.417333333333334E+009;2.010777145624161E-001;-4.037825763225555E-002;1.979654480237514E-004;-4.643415566533804E-003;
2.417500000000000E+009;2.007523924112320E-001;-4.056072980165482E-002;3.078661684412509E-004;-4.427933599799871E-003;
2.417666666666667E+009;2.002544999122620E-001;-4.062058776617050E-002;8.334300946444273E-005;-4.484352190047503E-003;
2.417833333333334E+009;1.998857855796814E-001;-4.065401479601860E-002;1.812888658605516E-004;-4.480037372559309E-003;
2.418000000000000E+009;1.992671936750412E-001;-4.060355201363564E-002;-1.832960697356612E-004;-4.651650786399841E-003;
2.418166666666667E+009;1.985159963369370E-001;-4.064448550343514E-002;-3.420007124077529E-004;-4.477266222238541E-003;
2.418333333333334E+009;1.976938545703888E-001;-4.081591963768005E-002;-5.271618720144033E-004;-4.331526812165976E-003;
2.418500000000000E+009;1.967408359050751E-001;-4.110247269272804E-002;-5.631772801280022E-004;-4.319936037063599E-003;
2.418666666666667E+009;1.960220187902451E-001;-4.108437150716782E-002;-7.162493420764804E-004;-4.376596771180630E-003;
2.418833333333334E+009;1.949365139007568E-001;-4.145355895161629E-002;-8.070183685049415E-004;-4.034601151943207E-003;
2.419000000000000E+009;1.937032490968704E-001;-4.183961451053619E-002;-1.061410643160343E-003;-4.135852679610252E-003;
2.419166666666667E+009;1.926807165145874E-001;-4.230114072561264E-002;-1.132706296630204E-003;-3.776646219193935E-003;
2.419333333333334E+009;1.913352012634277E-001;-4.302128031849861E-002;-1.174572622403503E-003;-3.818650729954243E-003;
2.419500000000000E+009;1.901831030845642E-001;-4.349859058856964E-002;-1.222548657096922E-003;-3.583079902455211E-003;
2.419666666666667E+009;1.886743903160095E-001;-4.436576738953590E-002;-1.298163668252528E-003;-3.260870929807425E-003;
2.419833333333334E+009;1.873540878295898E-001;-4.502128064632416E-002;-1.242914237082005E-003;-3.253457834944129E-003;
2.420000000000000E+009;1.858296245336533E-001;-4.599915817379952E-002;-1.122403307817876E-003;-3.117615357041359E-003;
2.420166666666667E+009;1.845744848251343E-001;-4.693134874105454E-002;-1.079924870282412E-003;-2.919685328379273E-003;
2.420333333333334E+009;1.832083016633987E-001;-4.810124263167381E-002;-9.325644350610673E-004;-3.072502091526985E-003;
2.420500000000000E+009;1.818168461322784E-001;-4.948906973004341E-002;-8.855527848936617E-004;-2.956682583317161E-003;
2.420666666666667E+009;1.804506182670593E-001;-5.050845816731453E-002;-6.977975135669112E-004;-3.037420101463795E-003;
2.420833333333334E+009;1.790184974670410E-001;-5.199765786528587E-002;-7.063894881866872E-004;-3.083554562181234E-003;
2.421000000000000E+009;1.777727007865906E-001;-5.360863730311394E-002;-6.213590386323631E-004;-3.065638244152069E-003;
2.421166666666667E+009;1.765349954366684E-001;-5.504657700657845E-002;-5.401756498031318E-004;-3.218763275071979E-003;
2.421333333333334E+009;1.749764531850815E-001;-5.655453354120255E-002;-4.883371875621378E-004;-3.278648015111685E-003;
2.421500000000000E+009;1.739785075187683E-001;-5.833496153354645E-002;-5.900334217585623E-004;-3.571241162717342E-003;
2.421666666666667E+009;1.727039664983749E-001;-5.983816459774971E-002;-5.964705487713218E-004;-3.628337522968650E-003;
2.421833333333334E+009;1.718972474336624E-001;-6.170513853430748E-002;-6.631641299463809E-004;-3.720980370417237E-003;
2.422000000000000E+009;1.708125174045563E-001;-6.327039003372192E-002;-8.846399141475558E-004;-3.879720577970147E-003;
2.422166666666667E+009;1.700529605150223E-001;-6.545543670654297E-002;-9.099841117858887E-004;-4.057603888213635E-003;
2.422333333333334E+009;1.690875738859177E-001;-6.705673038959503E-002;-1.041577197611332E-003;-4.083691630512476E-003;
2.422500000000000E+009;1.685937941074371E-001;-6.877865642309189E-002;-1.197666744701564E-003;-4.239262081682682E-003;
2.422666666666667E+009;1.677523553371429E-001;-7.072119414806366E-002;-1.541697070933878E-003;-4.194893408566713E-003;
2.422833333333334E+009;1.674996018409729E-001;-7.248597592115402E-002;-1.755987177602947E-003;-4.414130933582783E-003;
2.423000000000000E+009;1.669847965240479E-001;-7.462809979915619E-002;-1.869465340860188E-003;-4.198262467980385E-003;
2.423166666666667E+009;1.666077226400375E-001;-7.607069611549377E-002;-2.052691066637635E-003;-4.264912102371454E-003;
2.423333333333334E+009;1.663729995489121E-001;-7.814811170101166E-002;-2.283220179378986E-003;-4.327535163611174E-003;
2.423500000000000E+009;1.661326885223389E-001;-7.970054447650909E-002;-2.587271155789495E-003;-4.314855672419071E-003;
2.423666666666667E+009;1.662785559892654E-001;-8.150881528854370E-002;-2.822975860908628E-003;-4.248620942234993E-003;
2.423833333333334E+009;1.659618467092514E-001;-8.321692794561386E-002;-2.895756391808391E-003;-4.196991212666035E-003;
2.424000000000000E+009;1.659566015005112E-001;-8.473591506481171E-002;-3.040631301701069E-003;-4.210590850561857E-003;
2.424166666666667E+009;1.662093698978424E-001;-8.622886240482330E-002;-3.382656257599592E-003;-4.213454667478800E-003;
2.424333333333334E+009;1.661481410264969E-001;-8.787566423416138E-002;-3.406167030334473E-003;-3.924194257706404E-003;
2.424500000000000E+009;1.663451194763184E-001;-8.964832127094269E-002;-3.895708126947284E-003;-3.856330411508679E-003;
2.424666666666667E+009;1.665037125349045E-001;-9.090851992368698E-002;-3.949157427996397E-003;-3.817915217950940E-003;
2.424833333333334E+009;1.668354868888855E-001;-9.201527386903763E-002;-4.043405409902334E-003;-3.631812054663897E-003;
2.425000000000000E+009;1.671769618988037E-001;-9.323372691869736E-002;-4.425194580107927E-003;-3.521030768752098E-003;
2.425166666666667E+009;1.672816425561905E-001;-9.440922737121582E-002;-4.575249273329973E-003;-3.380057169124484E-003;
2.425333333333334E+009;1.674304604530335E-001;-9.533338248729706E-002;-4.686771892011166E-003;-3.164843888953328E-003;
2.425500000000000E+009;1.676825881004334E-001;-9.645534306764603E-002;-4.799027927219868E-003;-3.011893946677446E-003;
2.425666666666667E+009;1.679750382900238E-001;-9.708373993635178E-002;-5.144445691257715E-003;-2.634478500112891E-003;
2.425833333333334E+009;1.681063920259476E-001;-9.818072617053986E-002;-5.064769648015499E-003;-2.466676523908973E-003;
2.426000000000000E+009;1.683024317026138E-001;-9.854660183191299E-002;-5.326416809111834E-003;-2.200384158641100E-003;
2.426166666666667E+009;1.685998290777206E-001;-9.912732243537903E-002;-5.344938021153212E-003;-1.972144469618797E-003;
2.426333333333334E+009;1.686065793037415E-001;-9.981353580951691E-002;-5.546511150896549E-003;-1.840557320974767E-003;
2.426500000000000E+009;1.688787490129471E-001;-1.002952381968498E-001;-5.463339388370514E-003;-1.448173657990992E-003;
2.426666666666667E+009;1.689655482769013E-001;-1.006867811083794E-001;-5.714950151741505E-003;-1.218069577589631E-003;
2.426833333333334E+009;1.691365242004395E-001;-1.010571494698525E-001;-5.529615096747875E-003;-1.018405193462968E-003;
2.427000000000000E+009;1.690271794795990E-001;-1.014692038297653E-001;-5.650945939123631E-003;-5.350887076929212E-004;
2.427166666666667E+009;1.690803766250610E-001;-1.017092540860176E-001;-5.518196616321802E-003;-5.422835238277912E-004;
2.427333333333334E+009;1.689439862966538E-001;-1.022341325879097E-001;-5.599861498922110E-003;-2.046005974989384E-004;
2.427500000000000E+009;1.686566323041916E-001;-1.026485934853554E-001;-5.496824625879526E-003;-9.190176933770999E-005;
2.427666666666667E+009;1.683552563190460E-001;-1.027341410517693E-001;-5.469614639878273E-003;1.691693614702672E-004;
2.427833333333334E+009;1.680427640676498E-001;-1.031278148293495E-001;-5.504097323864698E-003;4.690164932981134E-004;
