# Version 1.00
#
freq[Hz];re:Trc1_S11;im:Trc1_S11;re:Trc2_S21;im:Trc2_S21;
2.400000000000000E+009;1.563962101936340E-001;1.060924679040909E-001;2.517519984394312E-003;4.855202976614237E-003;
2.400166666666667E+009;1.562176793813705E-001;1.037128195166588E-001;2.528325188905001E-003;4.444360733032227E-003;
2.400333333333334E+009;1.566166430711746E-001;1.014652028679848E-001;2.394597744569182E-003;4.335284233093262E-003;
2.400500000000000E+009;1.566254496574402E-001;9.902724623680115E-002;2.359940670430660E-003;3.985731396824122E-003;
2.400666666666667E+009;1.570557206869125E-001;9.671436250209808E-002;2.418404445052147E-003;3.750717034563422E-003;
2.400833333333334E+009;1.572948247194290E-001;9.404042363166809E-002;2.207039855420589E-003;3.607761813327670E-003;
2.401000000000000E+009;1.576876193284988E-001;9.155278652906418E-002;2.139276126399636E-003;3.355221822857857E-003;
2.401166666666667E+009;1.579264700412750E-001;8.889808505773544E-002;1.972405472770333E-003;3.221858059987426E-003;
2.401333333333334E+009;1.584873944520950E-001;8.630879223346710E-002;1.883086981251836E-003;3.188182134181261E-003;
2.401500000000000E+009;1.591522246599197E-001;8.361954241991043E-002;1.702593523077667E-003;3.166927257552743E-003;
2.401666666666667E+009;1.595382243394852E-001;8.090273290872574E-002;1.668897923082113E-003;3.290261374786496E-003;
2.401833333333334E+009;1.601046174764633E-001;7.856186479330063E-002;1.430575852282345E-003;3.405570751056075E-003;
2.402000000000000E+009;1.611835360527039E-001;7.596185803413391E-002;1.357536413706839E-003;3.446746850386262E-003;
2.402166666666667E+009;1.617629975080490E-001;7.362473011016846E-002;1.467596157453954E-003;3.559831995517016E-003;
2.402333333333334E+009;1.628709286451340E-001;7.111342996358872E-002;1.534482929855585E-003;3.736786078661680E-003;
2.402500000000000E+009;1.638308912515640E-001;6.889171153306961E-002;1.673325197771192E-003;3.799288766458631E-003;
2.402666666666667E+009;1.649263352155685E-001;6.662012636661530E-002;1.841438817791641E-003;3.939456772059202E-003;
2.402833333333334E+009;1.664197742938995E-001;6.445381045341492E-002;1.835325150750577E-003;3.990365192294121E-003;
2.403000000000000E+009;1.675563603639603E-001;6.216587126255035E-002;2.118109958246350E-003;4.180476535111666E-003;
2.403166666666667E+009;1.691219955682755E-001;6.020118668675423E-002;2.357509685680270E-003;4.036048427224159E-003;
2.403333333333334E+009;1.704653799533844E-001;5.781570076942444E-002;2.197516616433859E-003;4.399211145937443E-003;
2.403500000000000E+009;1.716203838586807E-001;5.634885653853416E-002;3.264663740992546E-003;3.686317708343267E-003;
2.403666666666667E+009;1.730133891105652E-001;5.447788536548615E-002;3.707684809342027E-003;3.705852199345827E-003;
2.403833333333334E+009;1.749140918254852E-001;5.231597647070885E-002;2.994066802784801E-003;3.622534917667508E-003;
2.404000000000000E+009;1.760167777538300E-001;5.071586742997170E-002;3.041733754798770E-003;3.485985798761249E-003;
2.404166666666667E+009;1.774125844240189E-001;4.931602999567986E-002;3.203609026968479E-003;4.172672517597675E-003;
2.404333333333334E+009;1.796360611915588E-001;4.824810475111008E-002;3.403218695893884E-003;2.333025913685560E-003;
2.404500000000000E+009;1.808716058731079E-001;4.660792276263237E-002;2.698703669011593E-003;2.853529760614038E-003;
2.404666666666667E+009;1.812998056411743E-001;4.582029581069946E-002;4.200316499918699E-003;3.351612482219935E-003;
2.404833333333334E+009;1.832978576421738E-001;4.395425319671631E-002;3.176801605150104E-003;3.491700161248446E-003;
2.405000000000000E+009;1.847536414861679E-001;4.393642768263817E-002;3.350743791088462E-003;2.175895962864161E-003;
2.405166666666667E+009;1.857578754425049E-001;4.289361461997032E-002;3.842158941552043E-003;2.303204964846373E-003;
2.405333333333334E+009;1.868965923786163E-001;4.196957871317864E-002;3.393478924408555E-003;2.659152029082179E-003;
2.405500000000000E+009;1.880450546741486E-001;4.141597077250481E-002;3.507316578179598E-003;2.615080215036869E-003;
2.405666666666667E+009;1.890675425529480E-001;4.083069041371346E-002;3.727535484358668E-003;2.668945584446192E-003;
2.405833333333334E+009;1.901433914899826E-001;4.046151414513588E-002;3.670080564916134E-003;2.660428406670690E-003;
2.406000000000000E+009;1.911075562238693E-001;4.005233943462372E-002;3.893773304298520E-003;2.413192065432668E-003;
2.406166666666667E+009;1.917962580919266E-001;3.969997167587280E-002;4.081975203007460E-003;2.382931765168905E-003;
2.406333333333334E+009;1.925911307334900E-001;3.963831812143326E-002;4.009294323623180E-003;2.073440002277494E-003;
2.406500000000000E+009;1.932046711444855E-001;3.942003101110458E-002;4.091667011380196E-003;2.231445396319032E-003;
2.406666666666667E+009;1.936194300651550E-001;3.929088637232781E-002;4.108852706849575E-003;1.882050884887576E-003;
2.406833333333334E+009;1.941579282283783E-001;3.899894282221794E-002;4.336875863373280E-003;1.812266302295029E-003;
2.407000000000000E+009;1.943268477916718E-001;3.901793807744980E-002;4.200471565127373E-003;1.849962514825165E-003;
2.407166666666667E+009;1.946351528167725E-001;3.852163255214691E-002;4.318344406783581E-003;1.631851308047772E-003;
2.407333333333334E+009;1.947006434202194E-001;3.857296332716942E-002;4.446044564247131E-003;1.445007510483265E-003;
2.407500000000000E+009;1.945586502552033E-001;3.844279423356056E-002;4.410861991345882E-003;1.459313672967255E-003;
2.407666666666667E+009;1.945673674345017E-001;3.816289454698563E-002;4.389635287225246E-003;1.137691549956799E-003;
2.407833333333334E+009;1.941725015640259E-001;3.773400560021401E-002;4.533218685537577E-003;1.113570644520223E-003;
2.408000000000000E+009;1.942038387060165E-001;3.740283101797104E-002;4.479749593883753E-003;1.057013170793653E-003;
2.408166666666667E+009;1.937002241611481E-001;3.705210238695145E-002;4.422883503139019E-003;7.970518199726939E-004;
2.408333333333334E+009;1.933064907789230E-001;3.637498989701271E-002;4.368903581053019E-003;7.208143360912800E-004;
2.408500000000000E+009;1.927306801080704E-001;3.574544936418533E-002;4.473719280213118E-003;5.207627546042204E-004;
2.408666666666667E+009;1.923416554927826E-001;3.502421826124191E-002;4.469545092433691E-003;4.496889596339315E-004;
2.408833333333334E+009;1.917403787374497E-001;3.434751927852631E-002;4.524360876530409E-003;4.414782742969692E-004;
2.409000000000000E+009;1.910947114229202E-001;3.319701552391052E-002;4.454649984836578E-003;1.742874592309818E-004;
2.409166666666667E+009;1.902797967195511E-001;3.208902105689049E-002;4.389553330838680E-003;3.422617446631193E-004;
2.409333333333334E+009;1.897023916244507E-001;3.123613819479942E-002;4.404861945658922E-003;2.424349077045918E-005;
2.409500000000000E+009;1.886418312788010E-001;2.983183600008488E-002;4.508969839662314E-003;3.766047666431405E-005;
2.409666666666667E+009;1.877824664115906E-001;2.843907289206982E-002;4.534686915576458E-003;-1.130557939177379E-004;
2.409833333333334E+009;1.871590465307236E-001;2.706582657992840E-002;4.420103505253792E-003;-2.046083536697552E-004;
2.410000000000000E+009;1.862612962722778E-001;2.542392164468765E-002;4.645778331905603E-003;-2.759849885478616E-004;
2.410166666666667E+009;1.855440586805344E-001;2.373100258409977E-002;4.601291846483946E-003;-4.677610122598708E-004;
2.410333333333334E+009;1.846913695335388E-001;2.200912684202194E-002;4.547345452010632E-003;-6.540494505316019E-004;
2.410500000000000E+009;1.838729530572891E-001;2.008873969316483E-002;4.495191387832165E-003;-7.725212490186095E-004;
2.410666666666667E+009;1.831765323877335E-001;1.818617805838585E-002;4.523847717791796E-003;-8.537524263374507E-004;
2.410833333333334E+009;1.827939450740814E-001;1.598171144723892E-002;4.443420097231865E-003;-8.232535910792649E-004;
2.411000000000000E+009;1.822397708892822E-001;1.415552664548159E-002;4.376030061393976E-003;-1.042626565322280E-003;
2.411166666666667E+009;1.817542463541031E-001;1.207760255783796E-002;4.444924183189869E-003;-1.042292336933315E-003;
2.411333333333334E+009;1.814298331737518E-001;9.797990322113037E-003;4.434084985405207E-003;-1.284985686652362E-003;
2.411500000000000E+009;1.809397041797638E-001;7.620138116180897E-003;4.322151187807322E-003;-1.384641858749092E-003;
2.411666666666667E+009;1.808512508869171E-001;5.545860156416893E-003;4.147929605096579E-003;-1.526914187707007E-003;
2.411833333333334E+009;1.805744022130966E-001;3.383067669346929E-003;4.352525807917118E-003;-1.397373271174729E-003;
2.412000000000000E+009;1.809511035680771E-001;1.085159252397716E-003;4.144252743571997E-003;-1.706328126601875E-003;
2.412166666666667E+009;1.809790730476379E-001;-1.041682669892907E-003;4.241758491843939E-003;-1.566371996887028E-003;
2.412333333333334E+009;1.811627000570297E-001;-3.161634318530560E-003;4.093570634722710E-003;-1.568980282172561E-003;
2.412500000000000E+009;1.815975457429886E-001;-5.308888852596283E-003;4.091537091881037E-003;-1.831445377320051E-003;
2.412666666666667E+009;1.819470673799515E-001;-7.644712459295988E-003;4.177489317953587E-003;-1.985365990549326E-003;
2.412833333333334E+009;1.826527863740921E-001;-9.562821127474308E-003;4.308719187974930E-003;-2.058460609987378E-003;
2.413000000000000E+009;1.834173649549484E-001;-1.180264819413424E-002;4.257947206497192E-003;-2.121204044669867E-003;
2.413166666666667E+009;1.841372996568680E-001;-1.376511529088020E-002;4.231109283864498E-003;-2.282510278746486E-003;
2.413333333333334E+009;1.851394921541214E-001;-1.579879783093929E-002;4.281074274331331E-003;-2.612563781440258E-003;
2.413500000000000E+009;1.858970075845718E-001;-1.782435737550259E-002;4.293305799365044E-003;-2.707367995753884E-003;
2.413666666666667E+009;1.869745254516602E-001;-1.991068199276924E-002;4.182037431746721E-003;-3.019520081579685E-003;
2.413833333333334E+009;1.879426538944244E-001;-2.171177044510841E-002;4.038192797452211E-003;-3.117250977084041E-003;
2.414000000000000E+009;1.887546628713608E-001;-2.347950823605061E-002;4.131957888603210E-003;-3.188788192346692E-003;
2.414166666666667E+009;1.899646073579788E-001;-2.513473480939865E-002;3.839427838101983E-003;-3.526336746290326E-003;
2.414333333333334E+009;1.908930093050003E-001;-2.690208889544010E-002;3.702928079292178E-003;-3.745184047147632E-003;
2.414500000000000E+009;1.920513808727264E-001;-2.828982844948769E-002;3.636175300925970E-003;-3.941634669899941E-003;
2.414666666666667E+009;1.929282695055008E-001;-2.969625219702721E-002;3.385232063010335E-003;-4.056426696479321E-003;
2.414833333333334E+009;1.938529312610626E-001;-3.111713938415051E-002;3.210957627743483E-003;-4.378255922347307E-003;
2.415000000000000E+009;1.948882639408112E-001;-3.233445808291435E-002;2.982929581776261E-003;-4.395749885588884E-003;
2.415166666666667E+009;1.960115283727646E-001;-3.336220607161522E-002;2.696638228371739E-003;-4.580433946102858E-003;
2.415333333333334E+009;1.970315724611282E-001;-3.445178642868996E-002;2.632515970617533E-003;-4.572542849928141E-003;
2.415500000000000E+009;1.979614943265915E-001;-3.520863875746727E-002;2.395325573161244E-003;-4.747378639876843E-003;
2.415666666666667E+009;1.986802816390991E-001;-3.612436354160309E-002;2.048015361651778E-003;-4.674829076975584E-003;
2.415833333333334E+009;1.994201838970184E-001;-3.691757842898369E-002;1.895751571282744E-003;-4.691060166805983E-003;
2.416000000000000E+009;2.000288218259811E-001;-3.756153583526611E-002;1.566792954690754E-003;-4.873593803495169E-003;
2.416166666666667E+009;2.006016224622726E-001;-3.819579258561134E-002;1.377401058562100E-003;-4.926503635942936E-003;
2.416333333333334E+009;2.010728865861893E-001;-3.879277035593987E-002;1.286865328438580E-003;-4.812007304280996E-003;
2.416500000000000E+009;2.013384699821472E-001;-3.904562816023827E-002;1.042496995069087E-003;-4.850073717534542E-003;
2.416666666666667E+009;2.016298770904541E-001;-3.948483988642693E-002;9.233671589754522E-004;-4.643925465643406E-003;
2.416833333333334E+009;2.017250806093216E-001;-3.973554447293282E-002;5.799448117613792E-004;-4.739237949252129E-003;
2.417000000000000E+009;2.016558349132538E-001;-4.005847498774529E-002;4.499749920796603E-004;-4.643110558390617E-003;
2.417166666666667E+009;2.014282494783402E-001;-4.027524590492249E-002;2.615396224427968E-004;-4.568360745906830E-003;
2.417333333333334E+009;2.011254578828812E-001;-4.022461920976639E-002;2.879645035136491E-004;-4.498341586440802E-003;
2.417500000000000E+009;2.008831948041916E-001;-4.040925577282906E-002;1.922449300764129E-004;-4.490916617214680E-003;
2.417666666666667E+009;2.002613991498947E-001;-4.041391611099243E-002;1.026693789754063E-004;-4.449416417628527E-003;
2.417833333333334E+009;1.999560743570328E-001;-4.044812172651291E-002;-1.703706948319450E-004;-4.520927090197802E-003;
2.418000000000000E+009;1.993445605039597E-001;-4.047450050711632E-002;-2.532504149712622E-004;-4.502361174672842E-003;
2.418166666666667E+009;1.985868215560913E-001;-4.051231592893601E-002;-2.116331452270970E-004;-4.546653944998980E-003;
2.418333333333334E+009;1.977635920047760E-001;-4.072660580277443E-002;-4.818165616597980E-004;-4.249141085892916E-003;
2.418500000000000E+009;1.969844102859497E-001;-4.085333272814751E-002;-6.517381407320499E-004;-4.339134786278009E-003;
2.418666666666667E+009;1.960709095001221E-001;-4.088068008422852E-002;-6.334336940199137E-004;-4.322001244872809E-003;
2.418833333333334E+009;1.949069648981094E-001;-4.138573631644249E-002;-9.262114181183279E-004;-4.147370345890522E-003;
2.419000000000000E+009;1.937936842441559E-001;-4.180930927395821E-002;-9.903784375637770E-004;-3.959253430366516E-003;
2.419166666666667E+009;1.927658468484879E-001;-4.229417070746422E-002;-1.208304427564144E-003;-3.900520736351609E-003;
2.419333333333334E+009;1.915624439716339E-001;-4.280337691307068E-002;-1.337302266620100E-003;-3.586480161175132E-003;
2.419500000000000E+009;1.902013421058655E-001;-4.338099807500839E-002;-1.350195612758398E-003;-3.425359958782792E-003;
2.419666666666667E+009;1.887747049331665E-001;-4.418132454156876E-002;-1.245532883331180E-003;-3.401199122890830E-003;
2.419833333333334E+009;1.874226629734039E-001;-4.496217146515846E-002;-1.247851294465363E-003;-3.245451487600803E-003;
2.420000000000000E+009;1.860623657703400E-001;-4.582902789115906E-002;-1.210607588291168E-003;-3.066371660679579E-003;
2.420166666666667E+009;1.846784055233002E-001;-4.677122831344605E-002;-1.035352470353246E-003;-3.089831210672855E-003;
2.420333333333334E+009;1.833139508962631E-001;-4.809281975030899E-002;-1.057564630173147E-003;-2.933135489001870E-003;
2.420500000000000E+009;1.817533969879150E-001;-4.927110671997070E-002;-8.083466091193259E-004;-2.926731016486883E-003;
2.420666666666667E+009;1.806880235671997E-001;-5.031709745526314E-002;-8.963315631262958E-004;-2.935724565759301E-003;
2.420833333333334E+009;1.790167689323425E-001;-5.184781178832054E-002;-7.661996642127633E-004;-3.005967941135168E-003;
2.421000000000000E+009;1.777762174606323E-001;-5.318009853363037E-002;-6.321031833067536E-004;-3.081900998950005E-003;
2.421166666666667E+009;1.765432655811310E-001;-5.504496023058891E-002;-5.021372926421464E-004;-3.101106733083725E-003;
2.421333333333334E+009;1.750929653644562E-001;-5.645481124520302E-002;-5.039406823925674E-004;-3.149399766698480E-003;
2.421500000000000E+009;1.739972233772278E-001;-5.817151069641113E-002;-6.007500924170017E-004;-3.377477172762156E-003;
2.421666666666667E+009;1.730080991983414E-001;-5.988739058375359E-002;-7.630655309185386E-004;-3.527072025462985E-003;
2.421833333333334E+009;1.718910485506058E-001;-6.165438145399094E-002;-7.743942551314831E-004;-3.720197360962629E-003;
2.422000000000000E+009;1.710125058889389E-001;-6.335487216711044E-002;-8.055118960328400E-004;-3.779868362471461E-003;
2.422166666666667E+009;1.700617372989655E-001;-6.535986810922623E-002;-9.744234848767519E-004;-3.916861489415169E-003;
2.422333333333334E+009;1.691825538873673E-001;-6.702668964862824E-002;-1.056059496477246E-003;-4.069093614816666E-003;
2.422500000000000E+009;1.686198264360428E-001;-6.869978457689285E-002;-1.251264242455363E-003;-4.260693676769733E-003;
2.422666666666667E+009;1.680031269788742E-001;-7.061385363340378E-002;-1.430768403224647E-003;-4.218488465994597E-003;
2.422833333333334E+009;1.676113456487656E-001;-7.242615520954132E-002;-1.729519572108984E-003;-4.138630349189043E-003;
2.423000000000000E+009;1.670774221420288E-001;-7.440897077322006E-002;-1.961369067430496E-003;-4.258551169186831E-003;
2.423166666666667E+009;1.666208058595657E-001;-7.615689933300018E-002;-2.142774639651179E-003;-4.215453285723925E-003;
2.423333333333334E+009;1.664823144674301E-001;-7.813927531242371E-002;-2.353606512770057E-003;-4.328458104282618E-003;
2.423500000000000E+009;1.662250608205795E-001;-7.965749502182007E-002;-2.400277880951762E-003;-4.047476220875979E-003;
2.423666666666667E+009;1.662355214357376E-001;-8.152658492326737E-002;-2.748399041593075E-003;-4.204515367746353E-003;
2.423833333333334E+009;1.661543101072311E-001;-8.328423649072647E-002;-2.933634910732508E-003;-4.137496463954449E-003;
2.424000000000000E+009;1.659693121910095E-001;-8.478290587663651E-002;-3.038734663277865E-003;-4.011914599686861E-003;
2.424166666666667E+009;1.661608070135117E-001;-8.625201135873795E-002;-3.263610647991300E-003;-3.945909440517426E-003;
2.424333333333334E+009;1.663074046373367E-001;-8.775276690721512E-002;-3.528191242367029E-003;-3.892858745530248E-003;
2.424500000000000E+009;1.664385199546814E-001;-8.951979875564575E-002;-3.755835583433509E-003;-3.692640457302332E-003;
2.424666666666667E+009;1.664717495441437E-001;-9.071799367666245E-002;-3.927669953554869E-003;-3.525940235704184E-003;
2.424833333333334E+009;1.668737828731537E-001;-9.203372895717621E-002;-4.188259597867727E-003;-3.638125956058502E-003;
2.425000000000000E+009;1.670476794242859E-001;-9.312783926725388E-002;-4.285292234271765E-003;-3.448528004810214E-003;
2.425166666666667E+009;1.672863662242889E-001;-9.427798539400101E-002;-4.364519845694304E-003;-3.158689243718982E-003;
2.425333333333334E+009;1.675114780664444E-001;-9.537791460752487E-002;-4.606908187270165E-003;-3.058138303458691E-003;
2.425500000000000E+009;1.677532196044922E-001;-9.638148546218872E-002;-4.790101666003466E-003;-2.806415315717459E-003;
2.425666666666667E+009;1.681612581014633E-001;-9.702522307634354E-002;-4.944468382745981E-003;-2.683907747268677E-003;
2.425833333333334E+009;1.681838780641556E-001;-9.797329455614090E-002;-5.074321292340756E-003;-2.412868896499276E-003;
2.426000000000000E+009;1.683640778064728E-001;-9.849254041910172E-002;-5.142983980476856E-003;-2.130373148247600E-003;
2.426166666666667E+009;1.686561554670334E-001;-9.910154342651367E-002;-5.310739390552044E-003;-1.936875865794718E-003;
2.426333333333334E+009;1.685330420732498E-001;-9.986782819032669E-002;-5.410159006714821E-003;-1.673464896157384E-003;
2.426500000000000E+009;1.689261645078659E-001;-1.002133041620255E-001;-5.416147876530886E-003;-1.396201434545219E-003;
2.426666666666667E+009;1.690695285797119E-001;-1.006600335240364E-001;-5.458001978695393E-003;-1.162668922916055E-003;
2.426833333333334E+009;1.692532449960709E-001;-1.011384800076485E-001;-5.401041358709335E-003;-9.142642375081778E-004;
2.427000000000000E+009;1.691376715898514E-001;-1.014395579695702E-001;-5.542884115129709E-003;-5.936764646321535E-004;
2.427166666666667E+009;1.690528839826584E-001;-1.017115786671639E-001;-5.445635877549648E-003;-4.623224958777428E-004;
2.427333333333334E+009;1.690306961536408E-001;-1.021888479590416E-001;-5.306429229676724E-003;-1.991377939702943E-004;
2.427500000000000E+009;1.688602715730667E-001;-1.026182696223259E-001;-5.464713089168072E-003;2.039326864178293E-005;
2.427666666666667E+009;1.684502363204956E-001;-1.028087213635445E-001;-5.403717979788780E-003;2.324952511116862E-004;
2.427833333333334E+009;1.680345535278320E-001;-1.031401082873344E-001;-5.311089567840099E-003;4.750473308376968E-004;
