# Version 1.00
#
freq[Hz];re:Trc1_S11;im:Trc1_S11;re:Trc2_S21;im:Trc2_S21;
2.400000000000000E+009;1.565412431955338E-001;1.060390174388886E-001;2.516861073672772E-003;4.895499441772699E-003;
2.400166666666667E+009;1.564350277185440E-001;1.038884297013283E-001;2.408452564850450E-003;4.480139352381229E-003;
2.400333333333334E+009;1.567539721727371E-001;1.015542894601822E-001;2.529849996790290E-003;4.296489991247654E-003;
2.400500000000000E+009;1.570127755403519E-001;9.899575263261795E-002;2.437189687043428E-003;3.894056426361203E-003;
2.400666666666667E+009;1.572463810443878E-001;9.670424461364746E-002;2.460590330883861E-003;3.846774110570550E-003;
2.400833333333334E+009;1.573270708322525E-001;9.409540891647339E-002;2.314585726708174E-003;3.604863537475467E-003;
2.401000000000000E+009;1.576889306306839E-001;9.153407812118530E-002;2.112155547365546E-003;3.410342847928405E-003;
2.401166666666667E+009;1.581712663173676E-001;8.889623731374741E-002;1.962415408343077E-003;3.180645406246185E-003;
2.401333333333334E+009;1.585891246795654E-001;8.636174350976944E-002;1.788811408914626E-003;3.254791256040335E-003;
2.401500000000000E+009;1.592775285243988E-001;8.374647051095963E-002;1.613798551261425E-003;3.243478015065193E-003;
2.401666666666667E+009;1.596532166004181E-001;8.090792596340179E-002;1.552009256556630E-003;3.239403711631894E-003;
2.401833333333334E+009;1.603201776742935E-001;7.856609672307968E-002;1.534341718070209E-003;3.344544675201178E-003;
2.402000000000000E+009;1.610544174909592E-001;7.598946988582611E-002;1.507709734141827E-003;3.421960398554802E-003;
2.402166666666667E+009;1.618820279836655E-001;7.366553694009781E-002;1.496320823207498E-003;3.552326466888189E-003;
2.402333333333334E+009;1.628341823816299E-001;7.097107917070389E-002;1.328578568063676E-003;3.644601907581091E-003;
2.402500000000000E+009;1.639733612537384E-001;6.878481805324554E-002;1.627231016755104E-003;3.743268549442291E-003;
2.402666666666667E+009;1.650090515613556E-001;6.654337793588638E-002;1.667147851549089E-003;3.777076024562120E-003;
2.402833333333334E+009;1.664490848779678E-001;6.429857760667801E-002;1.881598494946957E-003;3.784595290198922E-003;
2.403000000000000E+009;1.676490902900696E-001;6.215042248368263E-002;1.989348093047738E-003;3.932906780391932E-003;
2.403166666666667E+009;1.693605333566666E-001;6.007200479507446E-002;2.260425826534629E-003;3.992863465100527E-003;
2.403333333333334E+009;1.706622242927551E-001;5.802102386951447E-002;2.363425679504871E-003;3.835301147773862E-003;
2.403500000000000E+009;1.721130162477493E-001;5.613477528095245E-002;2.620825543999672E-003;3.921769093722105E-003;
2.403666666666667E+009;1.736426949501038E-001;5.428587272763252E-002;2.780769020318985E-003;3.991025499999523E-003;
2.403833333333334E+009;1.750321537256241E-001;5.236721783876419E-002;2.830501180142164E-003;3.485371125862002E-003;
2.404000000000000E+009;1.763255000114441E-001;5.071423575282097E-002;2.985562896355987E-003;3.428266150876880E-003;
2.404166666666667E+009;1.780598461627960E-001;4.927389323711395E-002;2.964841434732080E-003;3.304013982415199E-003;
2.404333333333334E+009;1.793256551027298E-001;4.771356284618378E-002;3.104045288637281E-003;3.203641390427947E-003;
2.404500000000000E+009;1.807750761508942E-001;4.634081572294235E-002;3.254594746977091E-003;3.138356376439333E-003;
2.404666666666667E+009;1.821486502885819E-001;4.518509656190872E-002;3.173015546053648E-003;3.034288529306650E-003;
2.404833333333334E+009;1.837442368268967E-001;4.391816258430481E-002;3.314845729619265E-003;2.919329795986414E-003;
2.405000000000000E+009;1.847025752067566E-001;4.322942718863487E-002;3.394726198166609E-003;2.820794936269522E-003;
2.405166666666667E+009;1.858709156513214E-001;4.243670776486397E-002;3.501893952488899E-003;2.864008303731680E-003;
2.405333333333334E+009;1.870575398206711E-001;4.185881093144417E-002;3.510255133733153E-003;2.829350065439940E-003;
2.405500000000000E+009;1.881925165653229E-001;4.112390056252480E-002;3.582498989999294E-003;2.783523639664054E-003;
2.405666666666667E+009;1.892477273941040E-001;4.053851962089539E-002;3.711426164954901E-003;2.743822755292058E-003;
2.405833333333334E+009;1.902808696031570E-001;4.023553058505058E-002;3.774900687858462E-003;2.738966373726726E-003;
2.406000000000000E+009;1.910789310932159E-001;3.990237787365913E-002;3.798734396696091E-003;2.501233713701367E-003;
2.406166666666667E+009;1.918978393077850E-001;3.954820334911346E-002;3.996258601546288E-003;2.236107829958201E-003;
2.406333333333334E+009;1.926715075969696E-001;3.926200419664383E-002;4.074746277183294E-003;2.196773188188672E-003;
2.406500000000000E+009;1.932630985975266E-001;3.914127126336098E-002;4.215133842080832E-003;2.150195883587003E-003;
2.406666666666667E+009;1.938188970088959E-001;3.898204863071442E-002;4.294713959097862E-003;2.081600017845631E-003;
2.406833333333334E+009;1.942648142576218E-001;3.880018740892410E-002;4.380061291158199E-003;1.727550989016891E-003;
2.407000000000000E+009;1.943788826465607E-001;3.868324309587479E-002;4.334822297096252E-003;1.656986074522138E-003;
2.407166666666667E+009;1.948131918907166E-001;3.837958350777626E-002;4.350179340690374E-003;1.723286579363048E-003;
2.407333333333334E+009;1.948046982288361E-001;3.822292387485504E-002;4.431432578712702E-003;1.532400376163423E-003;
2.407500000000000E+009;1.947526633739471E-001;3.828631341457367E-002;4.355053417384625E-003;1.317146350629628E-003;
2.407666666666667E+009;1.946671456098557E-001;3.776640817523003E-002;4.230057355016470E-003;1.229042885825038E-003;
2.407833333333334E+009;1.943211406469345E-001;3.758846595883369E-002;4.496949724853039E-003;1.122404122725129E-003;
2.408000000000000E+009;1.941451728343964E-001;3.690001741051674E-002;4.094317555427551E-003;1.069568097591400E-003;
2.408166666666667E+009;1.934633255004883E-001;3.673065081238747E-002;4.169955849647522E-003;1.167396316304803E-003;
2.408333333333334E+009;1.935100555419922E-001;3.610877692699432E-002;4.444519989192486E-003;4.150673048570752E-004;
2.408500000000000E+009;1.932050287723541E-001;3.578042611479759E-002;4.676353186368942E-003;5.306486855261028E-005;
2.408666666666667E+009;1.927527487277985E-001;3.509647399187088E-002;4.355845041573048E-003;-1.136940481956117E-004;
2.408833333333334E+009;1.917419284582138E-001;3.382875025272369E-002;4.172047134488821E-003;4.383086634334177E-004;
2.409000000000000E+009;1.912927180528641E-001;3.302092477679253E-002;4.399390891194344E-003;1.360044116154313E-004;
2.409166666666667E+009;1.904632896184921E-001;3.192621469497681E-002;4.367928020656109E-003;3.959619498346001E-004;
2.409333333333334E+009;1.897131651639938E-001;3.091630898416042E-002;4.479230381548405E-003;-7.935692701721564E-005;
2.409500000000000E+009;1.887218654155731E-001;2.956118248403072E-002;4.442501347512007E-003;-7.374130655080080E-005;
2.409666666666667E+009;1.879744529724121E-001;2.833120897412300E-002;4.368555732071400E-003;-1.189195463666692E-004;
2.409833333333334E+009;1.871323734521866E-001;2.700275182723999E-002;4.623215179890394E-003;-1.271210785489529E-004;
2.410000000000000E+009;1.863256692886353E-001;2.525314688682556E-002;4.470915999263525E-003;-3.391301142983139E-004;
2.410166666666667E+009;1.855086684226990E-001;2.353521063923836E-002;4.592424258589745E-003;-5.169313517399132E-004;
2.410333333333334E+009;1.846949756145477E-001;2.191848121583462E-002;4.479496739804745E-003;-5.496764206327498E-004;
2.410500000000000E+009;1.839635521173477E-001;1.994209550321102E-002;4.539187066257000E-003;-7.335384143516421E-004;
2.410666666666667E+009;1.834901571273804E-001;1.787329092621803E-002;4.587769042700529E-003;-8.022424881346524E-004;
2.410833333333334E+009;1.828316748142242E-001;1.600614190101624E-002;4.369831178337336E-003;-9.493706747889519E-004;
2.411000000000000E+009;1.821703612804413E-001;1.405466068536043E-002;4.356541205197573E-003;-9.318634402006865E-004;
2.411166666666667E+009;1.817566752433777E-001;1.201797090470791E-002;4.468790255486965E-003;-1.068495446816087E-003;
2.411333333333334E+009;1.813875883817673E-001;9.564374573528767E-003;4.375609569251537E-003;-1.294397865422070E-003;
2.411500000000000E+009;1.809565126895905E-001;7.527512963861227E-003;4.151570610702038E-003;-1.476271892897785E-003;
2.411666666666667E+009;1.808903366327286E-001;5.392490420490503E-003;4.234401974827051E-003;-1.446148613467813E-003;
2.411833333333334E+009;1.805816441774368E-001;3.348407568410039E-003;4.159767180681229E-003;-1.466118264943361E-003;
2.412000000000000E+009;1.807806938886643E-001;9.044916369020939E-004;4.367297980934382E-003;-1.662243739701808E-003;
2.412166666666667E+009;1.809563189744949E-001;-1.134435413405299E-003;4.110067151486874E-003;-1.632982282899320E-003;
2.412333333333334E+009;1.811031401157379E-001;-3.368177218362689E-003;4.163097124546766E-003;-1.715726917609572E-003;
2.412500000000000E+009;1.815828382968903E-001;-5.449005402624607E-003;4.191579297184944E-003;-1.907398924231529E-003;
2.412666666666667E+009;1.819324493408203E-001;-7.617815397679806E-003;4.113307688385248E-003;-2.035883022472262E-003;
2.412833333333334E+009;1.826874017715454E-001;-9.886890649795532E-003;4.101794213056564E-003;-2.057592384517193E-003;
2.413000000000000E+009;1.832982599735260E-001;-1.195491384714842E-002;4.306484013795853E-003;-2.257312182337046E-003;
2.413166666666667E+009;1.839770227670670E-001;-1.402566116303206E-002;4.166773054748774E-003;-2.465027151629329E-003;
2.413333333333334E+009;1.850221157073975E-001;-1.596168428659439E-002;4.157854244112968E-003;-2.486472483724356E-003;
2.413500000000000E+009;1.857390552759171E-001;-1.789320632815361E-002;4.419439472258091E-003;-2.836007624864578E-003;
2.413666666666667E+009;1.868556290864945E-001;-1.986286416649818E-002;4.264900460839272E-003;-2.922628773376346E-003;
2.413833333333334E+009;1.877858191728592E-001;-2.163399197161198E-002;4.092766437679529E-003;-3.108558477833867E-003;
2.414000000000000E+009;1.886725872755051E-001;-2.354005165398121E-002;3.895604982972145E-003;-3.362787887454033E-003;
2.414166666666667E+009;1.899078041315079E-001;-2.531198225915432E-002;3.834578441455960E-003;-3.609353909268975E-003;
2.414333333333334E+009;1.907558292150497E-001;-2.694900520145893E-002;3.784172469750047E-003;-3.839760785922408E-003;
2.414500000000000E+009;1.918878108263016E-001;-2.839551307260990E-002;3.563314676284790E-003;-3.917274065315723E-003;
2.414666666666667E+009;1.929047405719757E-001;-2.996303513646126E-002;3.398674773052335E-003;-3.957735840231180E-003;
2.414833333333334E+009;1.938442140817642E-001;-3.119926899671555E-002;3.147589508444071E-003;-4.414763301610947E-003;
2.415000000000000E+009;1.948273330926895E-001;-3.251355886459351E-002;2.959049772471190E-003;-4.527203273028135E-003;
2.415166666666667E+009;1.958810836076737E-001;-3.364688903093338E-002;2.839029068127275E-003;-4.539313260465860E-003;
2.415333333333334E+009;1.968431770801544E-001;-3.444285318255425E-002;2.499953610822558E-003;-4.763774573802948E-003;
2.415500000000000E+009;1.977788954973221E-001;-3.522315248847008E-002;2.443345030769706E-003;-4.662861116230488E-003;
2.415666666666667E+009;1.985243856906891E-001;-3.625686094164848E-002;1.965927192941308E-003;-4.709182772785425E-003;
2.415833333333334E+009;1.992956995964050E-001;-3.688283637166023E-002;1.802507089450955E-003;-4.746650811284781E-003;
2.416000000000000E+009;2.000638842582703E-001;-3.765551373362541E-002;1.673060469329357E-003;-4.947359673678875E-003;
2.416166666666667E+009;2.004975974559784E-001;-3.827658295631409E-002;1.553708803839982E-003;-4.943398293107748E-003;
2.416333333333334E+009;2.009246647357941E-001;-3.865896537899971E-002;1.376606640405953E-003;-4.753419198095799E-003;
2.416500000000000E+009;2.012666761875153E-001;-3.907960653305054E-002;1.008273917250335E-003;-4.702972713857889E-003;
2.416666666666667E+009;2.014412283897400E-001;-3.964146226644516E-002;8.158562122844160E-004;-4.748186096549034E-003;
2.416833333333334E+009;2.015025615692139E-001;-3.993054479360580E-002;6.735776551067829E-004;-4.653499461710453E-003;
2.417000000000000E+009;2.016079276800156E-001;-4.023453220725060E-002;6.036419072188437E-004;-4.557570908218622E-003;
2.417166666666667E+009;2.013011872768402E-001;-4.017880186438561E-002;4.038043553009629E-004;-4.587949719280005E-003;
2.417333333333334E+009;2.009782791137695E-001;-4.030939936637878E-002;4.122822429053485E-004;-4.577326122671366E-003;
2.417500000000000E+009;2.007939517498016E-001;-4.049575701355934E-002;2.125095488736406E-004;-4.444547463208437E-003;
2.417666666666667E+009;2.001482993364334E-001;-4.046857357025147E-002;9.710086487757508E-006;-4.541914444416761E-003;
2.417833333333334E+009;1.998353451490402E-001;-4.057022184133530E-002;-3.965862561017275E-005;-4.489764105528593E-003;
2.418000000000000E+009;1.992005407810211E-001;-4.043721035122871E-002;-1.360402966383845E-004;-4.289576318114996E-003;
2.418166666666667E+009;1.984444558620453E-001;-4.061549901962280E-002;-2.103671140503138E-004;-4.294721875339747E-003;
2.418333333333334E+009;1.976652294397354E-001;-4.074444994330406E-002;-5.315528251230717E-004;-4.344296175986528E-003;
2.418500000000000E+009;1.967630535364151E-001;-4.091212525963783E-002;-6.350037874653935E-004;-4.362219013273716E-003;
2.418666666666667E+009;1.959261298179627E-001;-4.110403731465340E-002;-6.711664609611034E-004;-4.166943486779928E-003;
2.418833333333334E+009;1.949274539947510E-001;-4.142168164253235E-002;-8.956643869169056E-004;-4.100325983017683E-003;
2.419000000000000E+009;1.936223506927490E-001;-4.180704802274704E-002;-9.747673175297678E-004;-4.133222624659538E-003;
2.419166666666667E+009;1.926709264516830E-001;-4.224075004458427E-002;-1.102852402254939E-003;-3.952785860747099E-003;
2.419333333333334E+009;1.913253068923950E-001;-4.279684647917748E-002;-1.080671441741288E-003;-3.667358541861177E-003;
2.419500000000000E+009;1.901183128356934E-001;-4.332212731242180E-002;-1.193827833048999E-003;-3.490328788757324E-003;
2.419666666666667E+009;1.887831985950470E-001;-4.422507435083389E-002;-1.206952612847090E-003;-3.368863603100181E-003;
2.419833333333334E+009;1.872930228710175E-001;-4.498692601919174E-002;-1.245287479832768E-003;-3.261673729866743E-003;
2.420000000000000E+009;1.860752999782562E-001;-4.584734886884689E-002;-1.133409794420004E-003;-3.109393175691366E-003;
2.420166666666667E+009;1.846282780170441E-001;-4.682104662060738E-002;-1.133017358370125E-003;-2.951054600998759E-003;
2.420333333333334E+009;1.832717508077622E-001;-4.805697873234749E-002;-1.012169173918665E-003;-2.955643227323890E-003;
2.420500000000000E+009;1.819268912076950E-001;-4.927236586809158E-002;-9.158788598142564E-004;-2.848229138180614E-003;
2.420666666666667E+009;1.803017109632492E-001;-5.047933757305145E-002;-8.011558093130589E-004;-3.040341660380364E-003;
2.420833333333334E+009;1.790788620710373E-001;-5.177973583340645E-002;-6.880120490677655E-004;-2.961487509310246E-003;
2.421000000000000E+009;1.777263432741165E-001;-5.337024852633476E-002;-6.726623978465796E-004;-3.180549247190356E-003;
2.421166666666667E+009;1.765596717596054E-001;-5.495224148035049E-002;-6.744142738170922E-004;-3.222414990887046E-003;
2.421333333333334E+009;1.750825941562653E-001;-5.632745474576950E-002;-7.552930619567633E-004;-3.184907836839557E-003;
2.421500000000000E+009;1.739814579486847E-001;-5.818975716829300E-002;-7.003164500929415E-004;-3.573005087673664E-003;
2.421666666666667E+009;1.729772239923477E-001;-5.987901613116264E-002;-7.121472735889256E-004;-3.555991686880589E-003;
2.421833333333334E+009;1.717070788145065E-001;-6.157867610454559E-002;-6.665076944045723E-004;-3.621972631663084E-003;
2.422000000000000E+009;1.708545833826065E-001;-6.338268518447876E-002;-9.047935018315911E-004;-3.855767659842968E-003;
2.422166666666667E+009;1.701813936233521E-001;-6.520771235227585E-002;-1.014846842736006E-003;-3.885057754814625E-003;
2.422333333333334E+009;1.693059802055359E-001;-6.706568598747253E-002;-1.158249797299504E-003;-3.985120914876461E-003;
2.422500000000000E+009;1.683831959962845E-001;-6.885416805744171E-002;-1.263065147213638E-003;-4.085435997694731E-003;
2.422666666666667E+009;1.679667532444000E-001;-7.060527801513672E-002;-1.564745442010462E-003;-4.072178620845079E-003;
2.422833333333334E+009;1.673620343208313E-001;-7.240147888660431E-002;-1.595295267179608E-003;-4.268938675522804E-003;
2.423000000000000E+009;1.669597178697586E-001;-7.443691790103912E-002;-1.999811502173543E-003;-4.274530801922083E-003;
2.423166666666667E+009;1.664666682481766E-001;-7.610526680946350E-002;-2.071550581604242E-003;-4.249914549291134E-003;
2.423333333333334E+009;1.664477586746216E-001;-7.791532576084137E-002;-2.218030160292983E-003;-4.292185883969069E-003;
2.423500000000000E+009;1.661782264709473E-001;-7.971323281526566E-002;-2.561038825660944E-003;-4.113383125513792E-003;
2.423666666666667E+009;1.661764681339264E-001;-8.157858997583389E-002;-2.741400152444840E-003;-4.132100380957127E-003;
2.423833333333334E+009;1.660123765468597E-001;-8.305639028549194E-002;-2.877715276554227E-003;-4.181349184364080E-003;
2.424000000000000E+009;1.660926192998886E-001;-8.473891764879227E-002;-3.043819917365909E-003;-4.058451391756535E-003;
2.424166666666667E+009;1.660259366035461E-001;-8.620765805244446E-002;-3.278416814282537E-003;-3.928119782358408E-003;
2.424333333333334E+009;1.662940531969070E-001;-8.766437321901321E-002;-3.600873285904527E-003;-3.827941371127963E-003;
2.424500000000000E+009;1.664547771215439E-001;-8.937086164951325E-002;-3.791933646425605E-003;-3.697216045111418E-003;
2.424666666666667E+009;1.665191501379013E-001;-9.070150554180145E-002;-4.067964386194944E-003;-3.765762085095048E-003;
2.424833333333334E+009;1.668930500745773E-001;-9.208426624536514E-002;-4.217851441353560E-003;-3.483911510556936E-003;
2.425000000000000E+009;1.670306622982025E-001;-9.317030757665634E-002;-4.283692687749863E-003;-3.413563361391425E-003;
2.425166666666667E+009;1.672776788473129E-001;-9.427743405103684E-002;-4.438072443008423E-003;-3.174216020852327E-003;
2.425333333333334E+009;1.674982309341431E-001;-9.532853960990906E-002;-4.585024435073137E-003;-3.022725228220224E-003;
2.425500000000000E+009;1.678125858306885E-001;-9.632080793380737E-002;-4.837696440517902E-003;-2.794150495901704E-003;
2.425666666666667E+009;1.680151224136353E-001;-9.697154909372330E-002;-5.174660589545965E-003;-2.670925809070468E-003;
2.425833333333334E+009;1.681201010942459E-001;-9.797801077365875E-002;-5.107217468321323E-003;-2.455932553857565E-003;
2.426000000000000E+009;1.684441268444061E-001;-9.843444079160690E-002;-5.119518842548132E-003;-2.171718282625079E-003;
2.426166666666667E+009;1.686840653419495E-001;-9.907756000757217E-002;-5.341229028999806E-003;-1.998438499867916E-003;
2.426333333333334E+009;1.686552017927170E-001;-9.976638108491898E-002;-5.300522316247225E-003;-1.810977468267083E-003;
2.426500000000000E+009;1.690242141485214E-001;-1.000981479883194E-001;-5.558370612561703E-003;-1.447664224542677E-003;
2.426666666666667E+009;1.691146194934845E-001;-1.005483493208885E-001;-5.489072296768427E-003;-1.245925901457667E-003;
2.426833333333334E+009;1.691921949386597E-001;-1.010441854596138E-001;-5.539718084037304E-003;-8.562606526538730E-004;
2.427000000000000E+009;1.691870242357254E-001;-1.013652607798576E-001;-5.443864502012730E-003;-5.105657037347555E-004;
2.427166666666667E+009;1.692214757204056E-001;-1.016141176223755E-001;-5.665164440870285E-003;-2.976757532451302E-004;
2.427333333333334E+009;1.690543293952942E-001;-1.020959615707398E-001;-5.523617845028639E-003;-2.243504422949627E-004;
2.427500000000000E+009;1.687783151865006E-001;-1.025671511888504E-001;-5.387651268392801E-003;-1.059185087797232E-004;
2.427666666666667E+009;1.684706658124924E-001;-1.028295159339905E-001;-5.399430170655251E-003;1.838411408243701E-004;
