# Version 1.00
#
freq[Hz];re:Trc1_S11;im:Trc1_S11;re:Trc2_S21;im:Trc2_S21;
2.400000000000000E+009;1.604885905981064E-001;5.729379877448082E-002;4.749699961394072E-003;1.899525523185730E-003;
2.400166666666667E+009;1.606678217649460E-001;5.577569454908371E-002;4.783145617693663E-003;1.757911173626781E-003;
2.400333333333334E+009;1.607117056846619E-001;5.401271581649780E-002;4.772956948727369E-003;1.719593768939376E-003;
2.400500000000000E+009;1.608662009239197E-001;5.216918885707855E-002;4.965653643012047E-003;1.376694533973932E-003;
2.400666666666667E+009;1.608762443065643E-001;5.039050057530403E-002;4.869134165346623E-003;1.295338850468397E-003;
2.400833333333334E+009;1.613241732120514E-001;4.862744733691216E-002;4.880394786596298E-003;1.024908619001508E-003;
2.401000000000000E+009;1.614814549684525E-001;4.660833999514580E-002;5.108891054987907E-003;9.344872669316828E-004;
2.401166666666667E+009;1.616382300853729E-001;4.460618272423744E-002;4.945077002048492E-003;4.419956821948290E-004;
2.401333333333334E+009;1.619233936071396E-001;4.276464879512787E-002;4.910354036837816E-003;4.969819565303624E-004;
2.401500000000000E+009;1.625952422618866E-001;4.087174683809280E-002;4.821792710572481E-003;2.237853623228148E-004;
2.401666666666667E+009;1.628341078758240E-001;3.911070525646210E-002;4.872060380876064E-003;9.863298328127712E-005;
2.401833333333334E+009;1.633097380399704E-001;3.718343004584312E-002;4.757319577038288E-003;-2.473064232617617E-004;
2.402000000000000E+009;1.636831760406494E-001;3.539671748876572E-002;4.757510963827372E-003;-2.543943119235337E-004;
2.402166666666667E+009;1.641779392957687E-001;3.356768563389778E-002;4.680859856307507E-003;-6.504243356175721E-004;
2.402333333333334E+009;1.646939218044281E-001;3.185173124074936E-002;4.583665635436773E-003;-7.600237149745226E-004;
2.402500000000000E+009;1.654322892427445E-001;3.029132820665836E-002;4.347850568592548E-003;-8.007778669707477E-004;
2.402666666666667E+009;1.658834815025330E-001;2.870437502861023E-002;4.315429832786322E-003;-9.228991693817079E-004;
2.402833333333334E+009;1.665048748254776E-001;2.709987387061119E-002;4.176679998636246E-003;-1.110293087549508E-003;
2.403000000000000E+009;1.674735099077225E-001;2.570995502173901E-002;3.942073788493872E-003;-1.331863808445633E-003;
2.403166666666667E+009;1.681068986654282E-001;2.426743134856224E-002;3.946931567043066E-003;-1.289257896132767E-003;
2.403333333333334E+009;1.687930971384049E-001;2.290931902825832E-002;3.679925575852394E-003;-1.510487403720617E-003;
2.403500000000000E+009;1.694967001676559E-001;2.166470512747765E-002;3.535522613674402E-003;-1.608194666914642E-003;
2.403666666666667E+009;1.701665371656418E-001;2.025817334651947E-002;3.355839056894183E-003;-1.513393246568739E-003;
2.403833333333334E+009;1.710226386785507E-001;1.906114816665649E-002;3.345759585499764E-003;-1.715588616207242E-003;
2.404000000000000E+009;1.718043237924576E-001;1.812139526009560E-002;3.219892969354987E-003;-1.681895228102803E-003;
2.404166666666667E+009;1.724327653646469E-001;1.695732213556767E-002;3.154777223244309E-003;-1.647558296099305E-003;
2.404333333333334E+009;1.731784343719482E-001;1.624175161123276E-002;2.899616258218885E-003;-1.715707010589540E-003;
2.404500000000000E+009;1.736731827259064E-001;1.511474046856165E-002;2.701494377106428E-003;-1.799360732547939E-003;
2.404666666666667E+009;1.744890660047531E-001;1.444842480123043E-002;2.636395860463381E-003;-1.760344719514251E-003;
2.404833333333334E+009;1.751015186309815E-001;1.365846209228039E-002;2.522539813071489E-003;-1.807477208785713E-003;
2.405000000000000E+009;1.756593137979507E-001;1.293198391795158E-002;2.403848804533482E-003;-1.792184077203274E-003;
2.405166666666667E+009;1.760797947645187E-001;1.225311588495970E-002;2.298631472513080E-003;-1.532586407847703E-003;
2.405333333333334E+009;1.767236441373825E-001;1.163918524980545E-002;2.171664265915752E-003;-1.566473045386374E-003;
2.405500000000000E+009;1.771217733621597E-001;1.117007061839104E-002;2.204052638262510E-003;-1.602320116944611E-003;
2.405666666666667E+009;1.776484996080399E-001;1.075479108840227E-002;2.140804426744580E-003;-1.632167375646532E-003;
2.405833333333334E+009;1.778438240289688E-001;1.019299961626530E-002;2.070087241008878E-003;-1.445422880351543E-003;
2.406000000000000E+009;1.782097220420837E-001;9.765413589775562E-003;1.899207476526499E-003;-1.416921615600586E-003;
2.406166666666667E+009;1.782715171575546E-001;9.498322382569313E-003;1.980475848540664E-003;-1.291248481720686E-003;
2.406333333333334E+009;1.785616427659988E-001;9.018032811582089E-003;1.934828120283783E-003;-1.317736576311290E-003;
2.406500000000000E+009;1.787647604942322E-001;8.572809398174286E-003;2.101487712934613E-003;-1.374067622236908E-003;
2.406666666666667E+009;1.786070168018341E-001;8.293205872178078E-003;1.927203265950084E-003;-1.289542764425278E-003;
2.406833333333334E+009;1.786576062440872E-001;7.859809324145317E-003;2.149398904293776E-003;-1.319319126196206E-003;
2.407000000000000E+009;1.786515861749649E-001;7.351177278906107E-003;2.022804692387581E-003;-1.200381899252534E-003;
2.407166666666667E+009;1.785323321819305E-001;6.838306318968535E-003;2.205706201493740E-003;-1.413481193594635E-003;
2.407333333333334E+009;1.781882196664810E-001;6.328738294541836E-003;2.154756803065538E-003;-1.404169597662985E-003;
2.407500000000000E+009;1.780080348253250E-001;5.791370291262865E-003;2.299289684742689E-003;-1.393033657222986E-003;
2.407666666666667E+009;1.776882559061050E-001;5.222723819315434E-003;2.090290421620011E-003;-1.496596029028297E-003;
2.407833333333334E+009;1.772320866584778E-001;4.448350053280592E-003;2.228657715022564E-003;-1.255296752788127E-003;
2.408000000000000E+009;1.768658757209778E-001;3.738060127943754E-003;2.178684109821916E-003;-1.362242153845727E-003;
2.408166666666667E+009;1.763234585523605E-001;3.030311083421111E-003;2.361581195145845E-003;-1.292399130761623E-003;
2.408333333333334E+009;1.760849952697754E-001;2.133547328412533E-003;2.169161103665829E-003;-1.418218831531704E-003;
2.408500000000000E+009;1.754372268915176E-001;1.250472734682262E-003;2.209185156971216E-003;-1.448190188966692E-003;
2.408666666666667E+009;1.748869866132736E-001;2.700119221117348E-004;2.214378910139203E-003;-1.496787182986736E-003;
2.408833333333334E+009;1.742378026247025E-001;-8.050681790336967E-004;2.357828198000789E-003;-1.450742711313069E-003;
2.409000000000000E+009;1.736127734184265E-001;-2.043832791969180E-003;2.249284414574504E-003;-1.671980950050056E-003;
2.409166666666667E+009;1.731385886669159E-001;-3.194303251802921E-003;2.256552455946803E-003;-1.822025398723781E-003;
2.409333333333334E+009;1.726014912128449E-001;-4.626906011253595E-003;2.372102113440633E-003;-1.642755465582013E-003;
2.409500000000000E+009;1.719656139612198E-001;-6.024131551384926E-003;2.343143802136183E-003;-1.829992514103651E-003;
2.409666666666667E+009;1.713818758726120E-001;-7.486658170819283E-003;2.214412204921246E-003;-1.713448436930776E-003;
2.409833333333334E+009;1.707025021314621E-001;-8.673978969454765E-003;2.377805300056934E-003;-1.996614271774888E-003;
2.410000000000000E+009;1.703476458787918E-001;-1.022482663393021E-002;2.256691223010421E-003;-1.923328032717109E-003;
2.410166666666667E+009;1.697922796010971E-001;-1.190802641212940E-002;2.079447731375694E-003;-2.039632759988308E-003;
2.410333333333334E+009;1.692874729633331E-001;-1.362381875514984E-002;2.126068109646440E-003;-2.000580308958888E-003;
2.410500000000000E+009;1.689759641885757E-001;-1.525744143873453E-002;2.081633778288961E-003;-1.961958361789584E-003;
2.410666666666667E+009;1.685981005430222E-001;-1.726444065570831E-002;2.147988649085164E-003;-2.230247948318720E-003;
2.410833333333334E+009;1.683004945516586E-001;-1.883968524634838E-002;2.101841615512967E-003;-2.203501062467694E-003;
2.411000000000000E+009;1.679764688014984E-001;-2.071722969412804E-002;2.081453567370772E-003;-2.176015172153711E-003;
2.411166666666667E+009;1.679401993751526E-001;-2.251460961997509E-002;2.070277463644743E-003;-2.340052742511034E-003;
2.411333333333334E+009;1.677960455417633E-001;-2.432071417570114E-002;1.969968900084496E-003;-2.570464741438627E-003;
2.411500000000000E+009;1.674943417310715E-001;-2.627265639603138E-002;2.038662554696202E-003;-2.440312877297401E-003;
2.411666666666667E+009;1.677120327949524E-001;-2.811459451913834E-002;2.038462320342660E-003;-2.614328404888511E-003;
2.411833333333334E+009;1.678311079740524E-001;-3.006798960268498E-002;1.775701064616442E-003;-2.616282086819410E-003;
2.412000000000000E+009;1.679311990737915E-001;-3.194330632686615E-002;2.014928497374058E-003;-2.842028159648180E-003;
2.412166666666667E+009;1.679190099239349E-001;-3.375642374157906E-002;1.809334498830140E-003;-2.756401430815458E-003;
2.412333333333334E+009;1.684740036725998E-001;-3.557458519935608E-002;1.782215200364590E-003;-2.960547106340528E-003;
2.412500000000000E+009;1.686422824859619E-001;-3.725688904523850E-002;1.736387843266130E-003;-3.059551818296313E-003;
2.412666666666667E+009;1.688219904899597E-001;-3.915551304817200E-002;1.536868279799819E-003;-3.144177142530680E-003;
2.412833333333334E+009;1.694600433111191E-001;-4.101014509797096E-002;1.602708478458226E-003;-3.003696445375681E-003;
2.413000000000000E+009;1.696746051311493E-001;-4.252106696367264E-002;1.353945466689766E-003;-3.263331018388271E-003;
2.413166666666667E+009;1.700525879859924E-001;-4.397003352642059E-002;1.207596971653402E-003;-3.285827348008752E-003;
2.413333333333334E+009;1.705786436796188E-001;-4.572129249572754E-002;1.241875928826630E-003;-3.222342580556870E-003;
2.413500000000000E+009;1.711062192916870E-001;-4.719363898038864E-002;9.752794867381454E-004;-3.432660829275847E-003;
2.413666666666667E+009;1.716120690107346E-001;-4.867468401789665E-002;7.817316218279302E-004;-3.334203269332647E-003;
2.413833333333334E+009;1.720526069402695E-001;-4.996350780129433E-002;9.011017973534763E-004;-3.435176331549883E-003;
2.414000000000000E+009;1.725503355264664E-001;-5.127938464283943E-002;6.301768589764834E-004;-3.398054046556354E-003;
2.414166666666667E+009;1.731960624456406E-001;-5.241514369845390E-002;6.792022031731904E-004;-3.450070740655065E-003;
2.414333333333334E+009;1.736778616905212E-001;-5.353952199220657E-002;5.640109884552658E-004;-3.425163216888905E-003;
2.414500000000000E+009;1.742519736289978E-001;-5.441333726048470E-002;3.571152046788484E-004;-3.446493763476610E-003;
2.414666666666667E+009;1.746730655431747E-001;-5.535625293850899E-002;3.198537742719054E-004;-3.425148781388998E-003;
2.414833333333334E+009;1.749972105026245E-001;-5.642484128475189E-002;1.920742943184450E-004;-3.362740622833371E-003;
2.415000000000000E+009;1.754215806722641E-001;-5.699978023767471E-002;1.938156347023323E-004;-3.301654243841767E-003;
2.415166666666667E+009;1.757002472877502E-001;-5.782305076718330E-002;1.110867306124419E-004;-3.247460350394249E-003;
2.415333333333334E+009;1.762705147266388E-001;-5.851944908499718E-002;2.786052937153727E-005;-3.185144625604153E-003;
2.415500000000000E+009;1.763603836297989E-001;-5.892208591103554E-002;-8.801773219602183E-006;-3.251255489885807E-003;
2.415666666666667E+009;1.764299422502518E-001;-5.930379778146744E-002;-2.421937097096816E-004;-3.270266111940146E-003;
2.415833333333334E+009;1.767601817846298E-001;-5.991673097014427E-002;-3.169155970681459E-004;-3.274413524195552E-003;
2.416000000000000E+009;1.766471713781357E-001;-6.034240871667862E-002;-2.373785100644454E-004;-3.164118621498346E-003;
2.416166666666667E+009;1.768513172864914E-001;-6.052758544683456E-002;-4.365383356343955E-004;-3.465982154011726E-003;
2.416333333333334E+009;1.766905188560486E-001;-6.080084666609764E-002;-2.819104411173612E-004;-3.287306288257241E-003;
2.416500000000000E+009;1.764567345380783E-001;-6.118660792708397E-002;-5.352704320102930E-004;-3.247007261961699E-003;
2.416666666666667E+009;1.761611998081207E-001;-6.138826161623001E-002;-5.912281339988112E-004;-3.267469815909863E-003;
2.416833333333334E+009;1.759383082389832E-001;-6.171235442161560E-002;-6.579887121915817E-004;-3.266494255512953E-003;
2.417000000000000E+009;1.753394901752472E-001;-6.199195608496666E-002;-7.384634809568524E-004;-3.360997186973691E-003;
2.417166666666667E+009;1.748430877923966E-001;-6.200766190886498E-002;-8.784741512499750E-004;-3.303067060187459E-003;
2.417333333333334E+009;1.742887049913406E-001;-6.222489476203919E-002;-9.388303151354194E-004;-3.175847930833697E-003;
2.417500000000000E+009;1.735331416130066E-001;-6.260046362876892E-002;-1.024875673465431E-003;-3.273437963798642E-003;
2.417666666666667E+009;1.728875637054443E-001;-6.266131252050400E-002;-1.058181049302220E-003;-3.277609823271632E-003;
2.417833333333334E+009;1.720470339059830E-001;-6.313222646713257E-002;-1.116143772378564E-003;-3.177332459017634E-003;
2.418000000000000E+009;1.711221933364868E-001;-6.353927403688431E-002;-1.175523851998150E-003;-3.294268622994423E-003;
2.418166666666667E+009;1.701127439737320E-001;-6.370095908641815E-002;-1.206319895572960E-003;-3.230336122214794E-003;
2.418333333333334E+009;1.693222820758820E-001;-6.411819905042648E-002;-1.307206228375435E-003;-3.204686101526022E-003;
2.418500000000000E+009;1.681101322174072E-001;-6.455106288194656E-002;-1.496382872574031E-003;-3.110897261649370E-003;
2.418666666666667E+009;1.671706736087799E-001;-6.508123874664307E-002;-1.413736725226045E-003;-3.208554582670331E-003;
2.418833333333334E+009;1.657018065452576E-001;-6.567868590354919E-002;-1.521294470876455E-003;-3.214999567717314E-003;
2.419000000000000E+009;1.644817143678665E-001;-6.636069715023041E-002;-1.585882389917970E-003;-3.065533703193069E-003;
2.419166666666667E+009;1.634150743484497E-001;-6.710788607597351E-002;-1.745744957588613E-003;-3.040070412680507E-003;
2.419333333333334E+009;1.619896292686462E-001;-6.762049347162247E-002;-1.837165560573340E-003;-2.868664916604757E-003;
2.419500000000000E+009;1.609765738248825E-001;-6.872673332691193E-002;-2.045789966359735E-003;-2.869833959266543E-003;
2.419666666666667E+009;1.597825735807419E-001;-6.956577301025391E-002;-2.109305234625936E-003;-2.922820160165429E-003;
2.419833333333334E+009;1.584711968898773E-001;-7.037675380706787E-002;-2.107421867549419E-003;-2.721501281484962E-003;
2.420000000000000E+009;1.573358774185181E-001;-7.143752276897430E-002;-2.144664293155074E-003;-2.906761365011334E-003;
2.420166666666667E+009;1.562400460243225E-001;-7.259414345026016E-002;-2.199589740484953E-003;-2.821511821821332E-003;
2.420333333333334E+009;1.551908701658249E-001;-7.392035424709320E-002;-2.403407124802470E-003;-2.699806122109294E-003;
2.420500000000000E+009;1.543278396129608E-001;-7.514569163322449E-002;-2.324931789189577E-003;-2.582397079095244E-003;
2.420666666666667E+009;1.531581878662109E-001;-7.636220753192902E-002;-2.330059651285410E-003;-2.576451050117612E-003;
2.420833333333334E+009;1.522420495748520E-001;-7.787084579467773E-002;-2.364059444516897E-003;-2.292989986017346E-003;
2.421000000000000E+009;1.512714624404907E-001;-7.927160710096359E-002;-2.618527738377452E-003;-2.313880948349834E-003;
2.421166666666667E+009;1.505835801362991E-001;-8.076123893260956E-002;-2.440459327772260E-003;-2.262935042381287E-003;
2.421333333333334E+009;1.498780399560928E-001;-8.243195712566376E-002;-2.484510187059641E-003;-2.106848172843456E-003;
2.421500000000000E+009;1.490966528654099E-001;-8.398713171482086E-002;-2.583089750260115E-003;-2.143696416169405E-003;
2.421666666666667E+009;1.485460698604584E-001;-8.560765534639359E-002;-2.581234788522124E-003;-1.999181229621172E-003;
2.421833333333334E+009;1.481326073408127E-001;-8.719263970851898E-002;-2.690271241590381E-003;-2.014925936236978E-003;
2.422000000000000E+009;1.476443707942963E-001;-8.891173452138901E-002;-2.500343602150679E-003;-1.964214490726590E-003;
2.422166666666667E+009;1.473924219608307E-001;-9.079382568597794E-002;-2.624654676765204E-003;-1.781252562068403E-003;
2.422333333333334E+009;1.471921056509018E-001;-9.233552217483521E-002;-2.648017834872007E-003;-1.689319615252316E-003;
2.422500000000000E+009;1.468157321214676E-001;-9.407229721546173E-002;-2.549136057496071E-003;-1.734333462081850E-003;
2.422666666666667E+009;1.466759741306305E-001;-9.589778631925583E-002;-2.610262949019671E-003;-1.718311104923487E-003;
2.422833333333334E+009;1.466661542654038E-001;-9.755887091159821E-002;-2.722840989008546E-003;-1.584151876159012E-003;
2.423000000000000E+009;1.467695236206055E-001;-9.913732111454010E-002;-2.718494972214103E-003;-1.610596198588610E-003;
2.423166666666667E+009;1.468247324228287E-001;-1.006902083754540E-001;-2.620451152324677E-003;-1.600030809640884E-003;
2.423333333333334E+009;1.471752524375916E-001;-1.021270453929901E-001;-2.945288084447384E-003;-1.724358997307718E-003;
2.423500000000000E+009;1.472657918930054E-001;-1.037999093532562E-001;-2.907024929299951E-003;-1.516064163297415E-003;
2.423666666666667E+009;1.473419070243835E-001;-1.054835468530655E-001;-2.964694052934647E-003;-1.656616339460015E-003;
2.423833333333334E+009;1.478575170040131E-001;-1.068039685487747E-001;-3.054825123399496E-003;-1.613811706192792E-003;
2.424000000000000E+009;1.480431556701660E-001;-1.081621795892716E-001;-3.157700411975384E-003;-1.583886449225247E-003;
2.424166666666667E+009;1.484137326478958E-001;-1.094528585672379E-001;-3.169284434989095E-003;-1.454672310501337E-003;
2.424333333333334E+009;1.489072144031525E-001;-1.106433868408203E-001;-3.289276035502553E-003;-1.327947946265340E-003;
2.424500000000000E+009;1.490896940231323E-001;-1.118318587541580E-001;-3.214820986613631E-003;-1.344030490145087E-003;
2.424666666666667E+009;1.497306227684021E-001;-1.127684414386749E-001;-3.270536661148071E-003;-1.411135308444500E-003;
2.424833333333334E+009;1.498876810073853E-001;-1.139671951532364E-001;-3.381868125870824E-003;-1.276552444323897E-003;
2.425000000000000E+009;1.503307968378067E-001;-1.149152591824532E-001;-3.527987282723188E-003;-1.049769925884903E-003;
2.425166666666667E+009;1.504476964473724E-001;-1.157862544059753E-001;-3.441892564296722E-003;-9.115767315961421E-004;
2.425333333333334E+009;1.509953588247299E-001;-1.165869012475014E-001;-3.387778066098690E-003;-9.480949956923723E-004;
2.425500000000000E+009;1.512556523084641E-001;-1.172424927353859E-001;-3.699761815369129E-003;-9.620980126783252E-004;
2.425666666666667E+009;1.513992249965668E-001;-1.180100888013840E-001;-3.554339753463864E-003;-8.402231615036726E-004;
2.425833333333334E+009;1.515534818172455E-001;-1.184589192271233E-001;-3.674398176372051E-003;-5.129703786224127E-004;
2.426000000000000E+009;1.517814546823502E-001;-1.189958527684212E-001;-3.807385219261050E-003;-5.011701723560691E-004;
2.426166666666667E+009;1.520126610994339E-001;-1.194869801402092E-001;-3.658356843516231E-003;-4.819027672056109E-004;
2.426333333333334E+009;1.518588811159134E-001;-1.198146268725395E-001;-3.710823832079768E-003;-2.724252699408680E-004;
2.426500000000000E+009;1.519325673580170E-001;-1.201295554637909E-001;-3.904429730027914E-003;-1.953887258423492E-004;
2.426666666666667E+009;1.518332064151764E-001;-1.203152909874916E-001;-3.856188384816051E-003;-1.294990215683356E-004;
2.426833333333334E+009;1.516476720571518E-001;-1.205221340060234E-001;-3.933175001293421E-003;3.992011261289008E-005;
2.427000000000000E+009;1.513652950525284E-001;-1.208265870809555E-001;-3.918448463082314E-003;1.791834220057353E-004;
2.427166666666667E+009;1.510327309370041E-001;-1.208929121494293E-001;-4.044436383992434E-003;1.349250815110281E-004;
2.427333333333334E+009;1.505036205053330E-001;-1.210611984133720E-001;-3.869723528623581E-003;3.779125981964171E-004;
2.427500000000000E+009;1.500482410192490E-001;-1.211182028055191E-001;-3.774543991312385E-003;4.658301768358797E-004;
2.427666666666667E+009;1.493503302335739E-001;-1.213104650378227E-001;-3.951267804950476E-003;4.518083587754518E-004;
