# Version 1.00
#
freq[Hz];re:Trc1_S11;im:Trc1_S11;re:Trc2_S21;im:Trc2_S21;
2.400000000000000E+009;1.605813056230545E-001;5.719925463199616E-002;4.858791828155518E-003;1.968164695426822E-003;
2.400166666666667E+009;1.608022153377533E-001;5.567022413015366E-002;4.888640251010656E-003;1.701383502222598E-003;
2.400333333333334E+009;1.606983691453934E-001;5.397006496787071E-002;4.993764683604240E-003;1.682469388470054E-003;
2.400500000000000E+009;1.609286218881607E-001;5.206436663866043E-002;5.006119608879089E-003;1.512105576694012E-003;
2.400666666666667E+009;1.611003279685974E-001;5.019429326057434E-002;5.122195463627577E-003;1.233308808878064E-003;
2.400833333333334E+009;1.614149063825607E-001;4.852903634309769E-002;4.993804264813662E-003;1.060128211975098E-003;
2.401000000000000E+009;1.614939421415329E-001;4.658370837569237E-002;5.047828890383244E-003;9.747765725478530E-004;
2.401166666666667E+009;1.619204729795456E-001;4.472878202795982E-002;4.930828232318163E-003;7.451940909959376E-004;
2.401333333333334E+009;1.620113998651505E-001;4.271119832992554E-002;4.947934765368700E-003;3.933559928555042E-004;
2.401500000000000E+009;1.625897884368897E-001;4.091089963912964E-002;5.049087572842836E-003;2.445495338179171E-004;
2.401666666666667E+009;1.629543155431747E-001;3.905459865927696E-002;4.963757470250130E-003;9.263893298339099E-005;
2.401833333333334E+009;1.633264869451523E-001;3.722857311367989E-002;4.987991880625486E-003;-1.272675144718960E-004;
2.402000000000000E+009;1.635228246450424E-001;3.527037799358368E-002;4.897044040262699E-003;-3.334925568196923E-004;
2.402166666666667E+009;1.643072813749313E-001;3.354391083121300E-002;4.771030507981777E-003;-4.398416494950652E-004;
2.402333333333334E+009;1.647153347730637E-001;3.195098042488098E-002;4.623298067599535E-003;-6.545288488268852E-004;
2.402500000000000E+009;1.653821766376495E-001;3.019350953400135E-002;4.518238827586174E-003;-8.792321896180511E-004;
2.402666666666667E+009;1.659651696681976E-001;2.881021425127983E-002;4.420208744704723E-003;-8.486331789754331E-004;
2.402833333333334E+009;1.666072905063629E-001;2.724887989461422E-002;4.150450229644775E-003;-1.252954243682325E-003;
2.403000000000000E+009;1.673124134540558E-001;2.571322396397591E-002;4.167733248323202E-003;-1.214114017784596E-003;
2.403166666666667E+009;1.680081784725189E-001;2.431750297546387E-002;4.041018430143595E-003;-1.338204136118293E-003;
2.403333333333334E+009;1.688471436500549E-001;2.287496998906136E-002;3.739490639418364E-003;-1.439312822185457E-003;
2.403500000000000E+009;1.695138365030289E-001;2.163288369774818E-002;3.746550064533949E-003;-1.483590225689113E-003;
2.403666666666667E+009;1.699803024530411E-001;2.036056295037270E-002;3.596167545765638E-003;-1.527343760244548E-003;
2.403833333333334E+009;1.710472702980042E-001;1.903617754578590E-002;3.370064310729504E-003;-1.686357310973108E-003;
2.404000000000000E+009;1.716782152652741E-001;1.799655519425869E-002;3.213575808331370E-003;-1.700242282822728E-003;
2.404166666666667E+009;1.724668741226196E-001;1.716336421668530E-002;3.022848395630717E-003;-1.650500111281872E-003;
2.404333333333334E+009;1.732302010059357E-001;1.615747436881065E-002;2.881241263821721E-003;-1.794530078768730E-003;
2.404500000000000E+009;1.736212819814682E-001;1.508356165140867E-002;2.859439933672547E-003;-1.871768734417856E-003;
2.404666666666667E+009;1.744336485862732E-001;1.435518171638250E-002;2.652721246704459E-003;-1.877720933407545E-003;
2.404833333333334E+009;1.751138716936112E-001;1.352550555020571E-002;2.674394287168980E-003;-1.785175409168005E-003;
2.405000000000000E+009;1.756861358880997E-001;1.292725186794996E-002;2.408578759059310E-003;-1.666110707446933E-003;
2.405166666666667E+009;1.761678904294968E-001;1.227283105254173E-002;2.356485696509481E-003;-1.687888638116419E-003;
2.405333333333334E+009;1.767171621322632E-001;1.160995196551085E-002;2.222186652943492E-003;-1.701847184449434E-003;
2.405500000000000E+009;1.771740764379501E-001;1.114765647798777E-002;2.170773455873132E-003;-1.535632996819913E-003;
2.405666666666667E+009;1.775919049978256E-001;1.060261949896812E-002;2.219934249296784E-003;-1.486152294091880E-003;
2.405833333333334E+009;1.778324544429779E-001;1.028724294155836E-002;2.157450653612614E-003;-1.592197455465794E-003;
2.406000000000000E+009;1.781847327947617E-001;9.690129198133946E-003;2.101114019751549E-003;-1.423275214619935E-003;
2.406166666666667E+009;1.783042848110199E-001;9.501642547547817E-003;1.869892119430006E-003;-1.297003705985844E-003;
2.406333333333334E+009;1.785754114389420E-001;8.989756926894188E-003;2.173639135435224E-003;-1.223176135681570E-003;
2.406500000000000E+009;1.786999702453613E-001;8.686159737408161E-003;2.048805123195052E-003;-1.178673817776144E-003;
2.406666666666667E+009;1.785923689603806E-001;8.319232612848282E-003;1.997990766540170E-003;-1.266639563255012E-003;
2.406833333333334E+009;1.786552816629410E-001;7.774195633828640E-003;2.204740187153220E-003;-1.217660726979375E-003;
2.407000000000000E+009;1.785119175910950E-001;7.427479606121779E-003;2.052410738542676E-003;-1.190621405839920E-003;
2.407166666666667E+009;1.786022484302521E-001;7.012363523244858E-003;2.209720900282264E-003;-1.187287736684084E-003;
2.407333333333334E+009;1.781353205442429E-001;6.355993449687958E-003;2.100891899317503E-003;-1.329953316599131E-003;
2.407500000000000E+009;1.779930442571640E-001;5.805100314319134E-003;2.196607179939747E-003;-1.137693296186626E-003;
2.407666666666667E+009;1.776472032070160E-001;5.276952870190144E-003;2.089488087221980E-003;-1.265546074137092E-003;
2.407833333333334E+009;1.771100163459778E-001;4.484839271754026E-003;2.210210077464581E-003;-1.311386702582240E-003;
2.408000000000000E+009;1.767286956310272E-001;3.720775712281466E-003;2.250902354717255E-003;-1.443414483219385E-003;
2.408166666666667E+009;1.763229370117188E-001;3.140711691230536E-003;2.396693686023355E-003;-1.403113594278693E-003;
2.408333333333334E+009;1.759974807500839E-001;2.261439338326454E-003;2.328633097931743E-003;-1.357133733108640E-003;
2.408500000000000E+009;1.754905432462692E-001;1.183552783913910E-003;2.170325256884098E-003;-1.464349916204810E-003;
2.408666666666667E+009;1.748794466257095E-001;2.072722709272057E-004;2.240118337795138E-003;-1.483552972786129E-003;
2.408833333333334E+009;1.741687059402466E-001;-8.863999973982573E-004;2.311791991814971E-003;-1.551071531139314E-003;
2.409000000000000E+009;1.736091673374176E-001;-1.962349284440279E-003;2.317296108230948E-003;-1.666005817241967E-003;
2.409166666666667E+009;1.730338782072067E-001;-3.112475620582700E-003;2.282448112964630E-003;-1.800967962481082E-003;
2.409333333333334E+009;1.725539863109589E-001;-4.628693219274283E-003;2.377299824729562E-003;-1.709103817120194E-003;
2.409500000000000E+009;1.717400550842285E-001;-6.051762495189905E-003;2.359789330512285E-003;-1.933989697135985E-003;
2.409666666666667E+009;1.711816340684891E-001;-7.334721740335226E-003;2.298152074217796E-003;-1.862665871158242E-003;
2.409833333333334E+009;1.704867780208588E-001;-8.810186758637428E-003;2.319642342627049E-003;-1.761033898219466E-003;
2.410000000000000E+009;1.702081859111786E-001;-1.025880314409733E-002;2.244719071313739E-003;-2.044064691290259E-003;
2.410166666666667E+009;1.697211563587189E-001;-1.191381737589836E-002;2.250846475362778E-003;-2.143753459677100E-003;
2.410333333333334E+009;1.693744659423828E-001;-1.351757254451513E-002;2.174704568460584E-003;-2.168960636481643E-003;
2.410500000000000E+009;1.688409298658371E-001;-1.537292823195458E-002;2.218333072960377E-003;-2.041267463937402E-003;
2.410666666666667E+009;1.684350222349167E-001;-1.718083582818508E-002;2.089253161102533E-003;-2.217149361968041E-003;
2.410833333333334E+009;1.682300269603729E-001;-1.884567923843861E-002;2.033701865002513E-003;-2.327456139028072E-003;
2.411000000000000E+009;1.679173856973648E-001;-2.065520361065865E-002;2.118763513863087E-003;-2.386815147474408E-003;
2.411166666666667E+009;1.677115261554718E-001;-2.273160405457020E-002;2.114728325977922E-003;-2.350235590711236E-003;
2.411333333333334E+009;1.676035821437836E-001;-2.442990615963936E-002;2.000703709200025E-003;-2.498738933354616E-003;
2.411500000000000E+009;1.675288528203964E-001;-2.630365826189518E-002;1.989898271858692E-003;-2.601251006126404E-003;
2.411666666666667E+009;1.676403433084488E-001;-2.816990949213505E-002;1.849752501584590E-003;-2.693891525268555E-003;
2.411833333333334E+009;1.678006798028946E-001;-2.999143488705158E-002;1.864223391748965E-003;-2.719254465773702E-003;
2.412000000000000E+009;1.677714139223099E-001;-3.183816745877266E-002;1.888490165583789E-003;-2.909577451646328E-003;
2.412166666666667E+009;1.679521650075913E-001;-3.378477692604065E-002;1.859492622315884E-003;-2.953398972749710E-003;
2.412333333333334E+009;1.683847606182098E-001;-3.554040193557739E-002;1.701503060758114E-003;-3.040572628378868E-003;
2.412500000000000E+009;1.685983687639237E-001;-3.732290863990784E-002;1.421274733729661E-003;-3.079393645748496E-003;
2.412666666666667E+009;1.688734889030457E-001;-3.927323967218399E-002;1.337154419161379E-003;-3.140657907351852E-003;
2.412833333333334E+009;1.691908985376358E-001;-4.096361622214317E-002;1.545918639749289E-003;-3.272074740380049E-003;
2.413000000000000E+009;1.697032451629639E-001;-4.256290942430496E-002;1.308014965616167E-003;-3.159844083711505E-003;
2.413166666666667E+009;1.701806336641312E-001;-4.401724785566330E-002;1.098831300623715E-003;-3.216884797438979E-003;
2.413333333333334E+009;1.706787496805191E-001;-4.582184553146362E-002;1.254234579391778E-003;-3.303037490695715E-003;
2.413500000000000E+009;1.710731834173203E-001;-4.725468158721924E-002;9.916528360918164E-004;-3.333810018375516E-003;
2.413666666666667E+009;1.716648787260056E-001;-4.866886883974075E-002;8.243497577495873E-004;-3.424890572205186E-003;
2.413833333333334E+009;1.721015274524689E-001;-4.991966485977173E-002;7.341700838878751E-004;-3.365791635587812E-003;
2.414000000000000E+009;1.724546253681183E-001;-5.144444108009338E-002;8.431383175775409E-004;-3.348352620378137E-003;
2.414166666666667E+009;1.732608377933502E-001;-5.243027582764626E-002;5.862569087184966E-004;-3.359250724315643E-003;
2.414333333333334E+009;1.736046671867371E-001;-5.338399112224579E-002;4.027029790449888E-004;-3.385422518476844E-003;
2.414500000000000E+009;1.743473708629608E-001;-5.451649427413940E-002;3.978890599682927E-004;-3.543080529198051E-003;
2.414666666666667E+009;1.746803671121597E-001;-5.547422170639038E-002;3.627504047472030E-004;-3.553074784576893E-003;
2.414833333333334E+009;1.750668883323669E-001;-5.640028789639473E-002;2.949966001324356E-004;-3.396710613742471E-003;
2.415000000000000E+009;1.754602640867233E-001;-5.711367353796959E-002;8.359491039300337E-005;-3.443984547629952E-003;
2.415166666666667E+009;1.757478415966034E-001;-5.792417377233505E-002;2.930220216512680E-004;-3.389566671103239E-003;
2.415333333333334E+009;1.761973500251770E-001;-5.857253447175026E-002;-1.234851661138237E-004;-3.607033984735608E-003;
2.415500000000000E+009;1.763994246721268E-001;-5.904382467269898E-002;-1.043031152221374E-004;-3.421080065891147E-003;
2.415666666666667E+009;1.765941083431244E-001;-5.937692150473595E-002;-2.067730383714661E-004;-3.433715784922242E-003;
2.415833333333334E+009;1.769468784332275E-001;-5.983094871044159E-002;-3.097782318945974E-004;-3.350769169628620E-003;
2.416000000000000E+009;1.767427027225494E-001;-6.039595231413841E-002;-3.303500998299569E-004;-3.497618017718196E-003;
2.416166666666667E+009;1.768632829189301E-001;-6.063551455736160E-002;-3.851880901493132E-004;-3.572615096345544E-003;
2.416333333333334E+009;1.766481101512909E-001;-6.089385226368904E-002;-5.247322842478752E-004;-3.323987824842334E-003;
2.416500000000000E+009;1.765841543674469E-001;-6.125720217823982E-002;-5.974179948680103E-004;-3.417502157390118E-003;
2.416666666666667E+009;1.761965751647949E-001;-6.140699237585068E-002;-5.525244050659239E-004;-3.276998642832041E-003;
2.416833333333334E+009;1.759775727987289E-001;-6.172068044543266E-002;-6.444067112170160E-004;-3.492707386612892E-003;
2.417000000000000E+009;1.754099279642105E-001;-6.193325296044350E-002;-8.454103954136372E-004;-3.363769268617034E-003;
2.417166666666667E+009;1.749519407749176E-001;-6.217078119516373E-002;-8.366053807549179E-004;-3.297003451734781E-003;
2.417333333333334E+009;1.742945462465286E-001;-6.232135370373726E-002;-1.042710617184639E-003;-3.140833228826523E-003;
2.417500000000000E+009;1.735893785953522E-001;-6.266648322343826E-002;-9.067833889275789E-004;-3.279212862253189E-003;
2.417666666666667E+009;1.729951351881027E-001;-6.285854429006577E-002;-1.031760009936988E-003;-3.215890843421221E-003;
2.417833333333334E+009;1.720647066831589E-001;-6.317565590143204E-002;-1.260154414921999E-003;-3.357711015269160E-003;
2.418000000000000E+009;1.710636466741562E-001;-6.360190361738205E-002;-1.024971716105938E-003;-3.128747455775738E-003;
2.418166666666667E+009;1.700552105903626E-001;-6.367948651313782E-002;-1.455597463063896E-003;-3.162792418152094E-003;
2.418333333333334E+009;1.693039983510971E-001;-6.420218944549561E-002;-1.301462296396494E-003;-3.114087972790003E-003;
2.418500000000000E+009;1.681391149759293E-001;-6.459263712167740E-002;-1.437352853827179E-003;-3.216711338609457E-003;
2.418666666666667E+009;1.670308411121368E-001;-6.521175801753998E-002;-1.611551619134843E-003;-3.122246824204922E-003;
2.418833333333334E+009;1.657936871051788E-001;-6.578952074050903E-002;-1.554984832182527E-003;-3.050760598853231E-003;
2.419000000000000E+009;1.645959317684174E-001;-6.633889675140381E-002;-1.819588243961334E-003;-2.986729843541980E-003;
2.419166666666667E+009;1.634434610605240E-001;-6.715533882379532E-002;-1.698287902399898E-003;-2.990817418321967E-003;
2.419333333333334E+009;1.621240377426148E-001;-6.761962175369263E-002;-1.825130893848836E-003;-2.977430121973157E-003;
2.419500000000000E+009;1.608693450689316E-001;-6.873469799757004E-002;-1.876711146906018E-003;-2.813430735841394E-003;
2.419666666666667E+009;1.597548276185989E-001;-6.969069689512253E-002;-2.046089852228761E-003;-2.762840362265706E-003;
2.419833333333334E+009;1.586317867040634E-001;-7.046222686767578E-002;-2.034531906247139E-003;-2.836507046595216E-003;
2.420000000000000E+009;1.573378145694733E-001;-7.153064757585526E-002;-2.193937776610255E-003;-2.722038421779871E-003;
2.420166666666667E+009;1.564014852046967E-001;-7.274115085601807E-002;-2.245376585051417E-003;-2.749390667304397E-003;
2.420333333333334E+009;1.551997959613800E-001;-7.396634668111801E-002;-2.244473900645971E-003;-2.572189318016172E-003;
2.420500000000000E+009;1.540889590978622E-001;-7.510442286729813E-002;-2.381185768172145E-003;-2.563231624662876E-003;
2.420666666666667E+009;1.530255824327469E-001;-7.627785950899124E-002;-2.434853930026293E-003;-2.554573817178607E-003;
2.420833333333334E+009;1.522764712572098E-001;-7.781559228897095E-002;-2.354098018258810E-003;-2.435129135847092E-003;
2.421000000000000E+009;1.512552946805954E-001;-7.946552336215973E-002;-2.716223709285259E-003;-2.494342392310500E-003;
2.421166666666667E+009;1.506305783987045E-001;-8.098923414945602E-002;-2.554141450673342E-003;-2.130317268893123E-003;
2.421333333333334E+009;1.499533802270889E-001;-8.238690346479416E-002;-2.741733333095908E-003;-2.217826666310430E-003;
2.421500000000000E+009;1.490353792905808E-001;-8.387058973312378E-002;-2.499775495380163E-003;-2.081834478303790E-003;
2.421666666666667E+009;1.486535072326660E-001;-8.555718511343002E-002;-2.490706043317914E-003;-1.971678575500846E-003;
2.421833333333334E+009;1.482309401035309E-001;-8.736290782690048E-002;-2.564161317422986E-003;-1.870941836386919E-003;
2.422000000000000E+009;1.476744711399078E-001;-8.884912729263306E-002;-2.615879988297820E-003;-1.931379199959338E-003;
2.422166666666667E+009;1.473878473043442E-001;-9.081884473562241E-002;-2.719541313126683E-003;-1.888292725197971E-003;
2.422333333333334E+009;1.471929252147675E-001;-9.240378439426422E-002;-2.641113474965096E-003;-1.937074470333755E-003;
2.422500000000000E+009;1.467878669500351E-001;-9.394358843564987E-002;-2.733733505010605E-003;-1.666641212068498E-003;
2.422666666666667E+009;1.466258764266968E-001;-9.572146087884903E-002;-2.866208553314209E-003;-1.692329766228795E-003;
2.422833333333334E+009;1.467176228761673E-001;-9.755028784275055E-002;-2.660454018041492E-003;-1.691200886853039E-003;
2.423000000000000E+009;1.466911584138870E-001;-9.912980347871780E-002;-2.742103999480605E-003;-1.539921504445374E-003;
2.423166666666667E+009;1.468775123357773E-001;-1.006338447332382E-001;-2.575495745986700E-003;-1.589144463650882E-003;
2.423333333333334E+009;1.472132205963135E-001;-1.022103056311607E-001;-2.714569214731455E-003;-1.707783318124712E-003;
2.423500000000000E+009;1.472183465957642E-001;-1.039088442921639E-001;-2.815027022734284E-003;-1.516626682132483E-003;
2.423666666666667E+009;1.471288055181503E-001;-1.054211631417275E-001;-2.892134012654424E-003;-1.737780869007111E-003;
2.423833333333334E+009;1.479695737361908E-001;-1.069982349872589E-001;-2.936401870101690E-003;-1.565524842590094E-003;
2.424000000000000E+009;1.480923593044281E-001;-1.080240458250046E-001;-3.091642633080483E-003;-1.568566076457501E-003;
2.424166666666667E+009;1.482974439859390E-001;-1.095667555928230E-001;-2.941071521490812E-003;-1.406619208864868E-003;
2.424333333333334E+009;1.489724069833756E-001;-1.108093932271004E-001;-3.034943947568536E-003;-1.514585455879569E-003;
2.424500000000000E+009;1.492487788200378E-001;-1.120501160621643E-001;-3.355794353410602E-003;-1.204167492687702E-003;
2.424666666666667E+009;1.497249901294708E-001;-1.129709631204605E-001;-3.282697638496757E-003;-1.347897690720856E-003;
2.424833333333334E+009;1.499227881431580E-001;-1.139857694506645E-001;-3.452788805589080E-003;-1.236929441802204E-003;
2.425000000000000E+009;1.503830105066299E-001;-1.151111647486687E-001;-3.424273338168860E-003;-1.326178200542927E-003;
2.425166666666667E+009;1.505126953125000E-001;-1.157919466495514E-001;-3.644227515906096E-003;-1.131704775616527E-003;
2.425333333333334E+009;1.508647948503494E-001;-1.165827810764313E-001;-3.574620001018047E-003;-1.061185728758574E-003;
2.425500000000000E+009;1.512135267257690E-001;-1.174358874559403E-001;-3.811396192759275E-003;-9.454931132495403E-004;
2.425666666666667E+009;1.513145267963409E-001;-1.180331408977509E-001;-3.867682302370668E-003;-7.924110977910459E-004;
2.425833333333334E+009;1.514761447906494E-001;-1.185282543301582E-001;-3.751435317099094E-003;-6.669721333310008E-004;
2.426000000000000E+009;1.517119109630585E-001;-1.192302331328392E-001;-3.839139360934496E-003;-6.625701789744198E-004;
2.426166666666667E+009;1.518961936235428E-001;-1.195343136787415E-001;-3.832257119938731E-003;-4.967408021911979E-004;
2.426333333333334E+009;1.518993824720383E-001;-1.199197843670845E-001;-3.880392760038376E-003;-3.829690976999700E-004;
2.426500000000000E+009;1.518788486719132E-001;-1.202631071209908E-001;-3.965013194829226E-003;-3.420212306082249E-004;
2.426666666666667E+009;1.517982333898544E-001;-1.202476993203163E-001;-4.053063690662384E-003;-1.557172217871994E-004;
2.426833333333334E+009;1.516275703907013E-001;-1.206100359559059E-001;-3.987525589764118E-003;6.907137139933184E-005;
2.427000000000000E+009;1.513163149356842E-001;-1.207891106605530E-001;-3.965309821069241E-003;2.147036502719857E-005;
2.427166666666667E+009;1.509260088205338E-001;-1.209117546677589E-001;-3.906692378222942E-003;-2.528541472202051E-006;
2.427333333333334E+009;1.504628509283066E-001;-1.211126893758774E-001;-3.858754178509116E-003;1.708009804133326E-004;
2.427500000000000E+009;1.500774919986725E-001;-1.211860701441765E-001;-3.978089429438114E-003;4.286995390430093E-004;
2.427666666666667E+009;1.493224054574966E-001;-1.213423982262611E-001;-4.015530459582806E-003;4.915255121886730E-004;
