# Version 1.00
#
freq[Hz];re:Trc1_S11;im:Trc1_S11;re:Trc2_S21;im:Trc2_S21;
2.400000000000000E+009;1.550975739955902E-001;1.065892204642296E-001;-7.910698652267456E-003;-6.962473038583994E-003;
2.400166666666667E+009;1.548729538917542E-001;1.043323650956154E-001;-8.032896555960178E-003;-6.567433010786772E-003;
2.400333333333334E+009;1.548554748296738E-001;1.018788218498230E-001;-8.271858096122742E-003;-6.227598991245031E-003;
2.400500000000000E+009;1.546828895807266E-001;9.934315085411072E-002;-8.454974740743637E-003;-5.778899881988764E-003;
2.400666666666667E+009;1.546076387166977E-001;9.680572152137756E-002;-8.781488053500652E-003;-5.940452683717012E-003;
2.400833333333334E+009;1.547579914331436E-001;9.375280886888504E-002;-7.844243198633194E-003;-5.829459521919489E-003;
2.401000000000000E+009;1.549473404884338E-001;9.102874994277954E-002;-8.324454538524151E-003;-5.282752681523562E-003;
2.401166666666667E+009;1.552724689245224E-001;8.821929991245270E-002;-7.498927414417267E-003;-3.619106253609061E-003;
2.401333333333334E+009;1.555210053920746E-001;8.530676364898682E-002;-8.359937928617001E-003;-3.986371681094170E-003;
2.401500000000000E+009;1.556739956140518E-001;8.295153826475143E-002;-9.780321270227432E-003;-4.093063995242119E-003;
2.401666666666667E+009;1.563860476016998E-001;7.963929325342178E-002;-7.954241707921028E-003;-3.166529815644026E-003;
2.401833333333334E+009;1.568679958581924E-001;7.690846174955368E-002;-8.054410107433796E-003;-2.853171899914742E-003;
2.402000000000000E+009;1.577236354351044E-001;7.434503734111786E-002;-9.193378500640392E-003;-2.666714834049344E-003;
2.402166666666667E+009;1.585832834243774E-001;7.176205515861511E-002;-8.627953007817268E-003;-2.170127350836992E-003;
2.402333333333334E+009;1.594629585742950E-001;6.905982643365860E-002;-8.955610916018486E-003;-1.797299366444349E-003;
2.402500000000000E+009;1.605260521173477E-001;6.660811603069305E-002;-8.921207860112190E-003;-1.591865671798587E-003;
2.402666666666667E+009;1.618001759052277E-001;6.398567557334900E-002;-9.148078970611095E-003;-1.179962768219411E-003;
2.402833333333334E+009;1.630612462759018E-001;6.171436607837677E-002;-9.069929830729961E-003;-1.039065769873560E-003;
2.403000000000000E+009;1.646846979856491E-001;5.921218916773796E-002;-9.065049700438976E-003;-6.704172119498253E-004;
2.403166666666667E+009;1.662428081035614E-001;5.717850849032402E-002;-9.149211458861828E-003;-4.692282527685165E-004;
2.403333333333334E+009;1.677016615867615E-001;5.497706308960915E-002;-9.136814624071121E-003;-1.069755453499965E-004;
2.403500000000000E+009;1.695047020912170E-001;5.269251763820648E-002;-8.993263356387615E-003;1.772782852640376E-004;
2.403666666666667E+009;1.713367402553558E-001;5.085100978612900E-002;-9.110828861594200E-003;5.242009647190571E-004;
2.403833333333334E+009;1.728757023811340E-001;4.894332587718964E-002;-9.158708155155182E-003;1.022636657580733E-003;
2.404000000000000E+009;1.744469255208969E-001;4.719513282179833E-002;-8.985080756247044E-003;1.390487072058022E-003;
2.404166666666667E+009;1.762968152761459E-001;4.571786150336266E-002;-8.839294314384460E-003;1.626854296773672E-003;
2.404333333333334E+009;1.780337244272232E-001;4.424133524298668E-002;-8.719942532479763E-003;2.009168965741992E-003;
2.404500000000000E+009;1.796597540378571E-001;4.281319305300713E-002;-8.528409525752068E-003;2.396784489974380E-003;
2.404666666666667E+009;1.811980158090591E-001;4.175299778580666E-002;-8.163989521563053E-003;2.626476343721151E-003;
2.404833333333334E+009;1.830246746540070E-001;4.064229503273964E-002;-7.942146621644497E-003;3.090228419750929E-003;
2.405000000000000E+009;1.842394769191742E-001;3.995136544108391E-002;-7.628959603607655E-003;3.203801112249494E-003;
2.405166666666667E+009;1.859921962022781E-001;3.918537124991417E-002;-7.498684804886580E-003;3.432525089010596E-003;
2.405333333333334E+009;1.873589456081390E-001;3.887091204524040E-002;-7.184696383774281E-003;3.537526121363044E-003;
2.405500000000000E+009;1.888036280870438E-001;3.824436292052269E-002;-6.979812867939472E-003;3.766234498471022E-003;
2.405666666666667E+009;1.899660974740982E-001;3.789119049906731E-002;-6.705873180180788E-003;3.866246202960610E-003;
2.405833333333334E+009;1.912733018398285E-001;3.776187822222710E-002;-6.457317154854536E-003;4.037036560475826E-003;
2.406000000000000E+009;1.922424435615540E-001;3.753732517361641E-002;-6.290131714195013E-003;4.224274773150682E-003;
2.406166666666667E+009;1.932964771986008E-001;3.722054511308670E-002;-6.179181858897209E-003;4.358209203928709E-003;
2.406333333333334E+009;1.942661851644516E-001;3.733970597386360E-002;-5.754316691309214E-003;4.359863698482513E-003;
2.406500000000000E+009;1.949495226144791E-001;3.738666698336601E-002;-5.698179360479116E-003;4.607476759701967E-003;
2.406666666666667E+009;1.956832557916641E-001;3.741159662604332E-002;-5.470735020935535E-003;4.604474641382694E-003;
2.406833333333334E+009;1.961071044206619E-001;3.751705959439278E-002;-5.367797799408436E-003;4.598716739565134E-003;
2.407000000000000E+009;1.964684426784515E-001;3.763213753700256E-002;-5.103693343698978E-003;4.647629801183939E-003;
2.407166666666667E+009;1.968479007482529E-001;3.749850392341614E-002;-4.754713736474514E-003;4.610003903508186E-003;
2.407333333333334E+009;1.968187838792801E-001;3.765638545155525E-002;-4.734876565635204E-003;4.766376223415136E-003;
2.407500000000000E+009;1.966058909893036E-001;3.774741664528847E-002;-4.447577986866236E-003;4.747156519442797E-003;
2.407666666666667E+009;1.967326849699020E-001;3.762918338179588E-002;-4.385139327496290E-003;4.691731184720993E-003;
2.407833333333334E+009;1.960831135511398E-001;3.762070834636688E-002;-4.169755149632692E-003;4.761907737702131E-003;
2.408000000000000E+009;1.960339248180389E-001;3.751773759722710E-002;-3.967421595007181E-003;4.611338023096323E-003;
2.408166666666667E+009;1.954116523265839E-001;3.716852888464928E-002;-3.944836091250181E-003;4.519545007497072E-003;
2.408333333333334E+009;1.948871910572052E-001;3.668121248483658E-002;-3.750166855752468E-003;4.629954695701599E-003;
2.408500000000000E+009;1.940937787294388E-001;3.641077503561974E-002;-3.563207108527422E-003;4.476347472518683E-003;
2.408666666666667E+009;1.934988945722580E-001;3.589789941906929E-002;-3.518268233165145E-003;4.519465845078230E-003;
2.408833333333334E+009;1.926337629556656E-001;3.520793467760086E-002;-3.704670350998640E-003;4.448494408279657E-003;
2.409000000000000E+009;1.917277276515961E-001;3.406854346394539E-002;-3.547507338225842E-003;4.426976665854454E-003;
2.409166666666667E+009;1.906407475471497E-001;3.320504352450371E-002;-3.709038486704230E-003;4.367135465145111E-003;
2.409333333333334E+009;1.897657364606857E-001;3.231953084468842E-002;-3.641021437942982E-003;4.460899624973536E-003;
2.409500000000000E+009;1.886239200830460E-001;3.091637603938580E-002;-3.625831333920360E-003;4.392319358885288E-003;
2.409666666666667E+009;1.875927895307541E-001;2.957648411393166E-002;-3.803607542067766E-003;4.528698045760393E-003;
2.409833333333334E+009;1.865723580121994E-001;2.820862457156181E-002;-3.738406812772155E-003;4.495258908718824E-003;
2.410000000000000E+009;1.854460984468460E-001;2.649334631860256E-002;-3.618693677708507E-003;4.709163215011358E-003;
2.410166666666667E+009;1.845067143440247E-001;2.457425184547901E-002;-3.751721465960145E-003;4.658192396163940E-003;
2.410333333333334E+009;1.836267411708832E-001;2.298736199736595E-002;-3.760711755603552E-003;5.021738354116678E-003;
2.410500000000000E+009;1.824801564216614E-001;2.096771635115147E-002;-3.587200073525310E-003;5.161637905985117E-003;
2.410666666666667E+009;1.815836280584335E-001;1.878535374999046E-002;-3.382368711754680E-003;5.342828575521708E-003;
2.410833333333334E+009;1.810551136732101E-001;1.651367172598839E-002;-3.446883754804730E-003;5.454386584460735E-003;
2.411000000000000E+009;1.800766140222549E-001;1.419486291706562E-002;-3.248908556997776E-003;5.544244311749935E-003;
2.411166666666667E+009;1.793494075536728E-001;1.207595318555832E-002;-3.116541774943471E-003;5.719210486859083E-003;
2.411333333333334E+009;1.789431720972061E-001;9.507683105766773E-003;-2.987157087773085E-003;5.716720595955849E-003;
2.411500000000000E+009;1.784051805734634E-001;7.222814019769430E-003;-2.766898833215237E-003;5.840580910444260E-003;
2.411666666666667E+009;1.783604472875595E-001;4.778507631272078E-003;-2.626688219606876E-003;5.750698968768120E-003;
2.411833333333334E+009;1.779059171676636E-001;2.341410145163536E-003;-2.631280804052949E-003;5.948823411017656E-003;
2.412000000000000E+009;1.780620217323303E-001;-2.167223719879985E-004;-2.506950870156288E-003;5.979613866657019E-003;
2.412166666666667E+009;1.781785041093826E-001;-2.489025704562664E-003;-2.402780810371041E-003;6.024185102432966E-003;
2.412333333333334E+009;1.781692057847977E-001;-5.090757738798857E-003;-2.283354056999087E-003;6.089827511459589E-003;
2.412500000000000E+009;1.787687540054321E-001;-7.444171700626612E-003;-2.295043785125017E-003;6.204911973327398E-003;
2.412666666666667E+009;1.792747527360916E-001;-9.941413067281246E-003;-2.080660080537200E-003;6.109214387834072E-003;
2.412833333333334E+009;1.799242496490479E-001;-1.239458099007607E-002;-1.968987053260207E-003;6.279027089476585E-003;
2.413000000000000E+009;1.805344521999359E-001;-1.474920939654112E-002;-2.082893159240484E-003;6.357185542583466E-003;
2.413166666666667E+009;1.813157200813294E-001;-1.699380017817020E-002;-2.172581851482391E-003;6.463360507041216E-003;
2.413333333333334E+009;1.824712902307510E-001;-1.924089156091213E-002;-2.004717476665974E-003;6.710354238748550E-003;
2.413500000000000E+009;1.833170801401138E-001;-2.156019583344460E-002;-1.906010787934065E-003;6.927693728357554E-003;
2.413666666666667E+009;1.847461909055710E-001;-2.374289743602276E-002;-1.867688144557178E-003;7.192760240286589E-003;
2.413833333333334E+009;1.858028471469879E-001;-2.571116015315056E-002;-1.597291440702975E-003;7.255343720316887E-003;
2.414000000000000E+009;1.869034171104431E-001;-2.771956846117973E-002;-1.490391208790243E-003;7.425738498568535E-003;
2.414166666666667E+009;1.881553381681442E-001;-2.943582832813263E-002;-1.170099596492946E-003;8.114966563880444E-003;
2.414333333333334E+009;1.891645491123200E-001;-3.139475733041763E-002;-8.483355632051826E-004;8.336054161190987E-003;
2.414500000000000E+009;1.904700398445129E-001;-3.287113830447197E-002;-3.565303923096508E-004;8.271981030702591E-003;
2.414666666666667E+009;1.916743963956833E-001;-3.429486602544785E-002;-8.057300874497742E-005;8.650249801576138E-003;
2.414833333333334E+009;1.928050816059113E-001;-3.570214286446571E-002;2.336432808078826E-004;8.660167455673218E-003;
2.415000000000000E+009;1.939435750246048E-001;-3.708332777023315E-002;7.915214519016445E-004;8.763772435486317E-003;
2.415166666666667E+009;1.953127831220627E-001;-3.813502192497253E-002;1.271628541871905E-003;8.820016868412495E-003;
2.415333333333334E+009;1.964441537857056E-001;-3.909485787153244E-002;1.718036248348653E-003;8.804754354059696E-003;
2.415500000000000E+009;1.974408775568008E-001;-3.971529006958008E-002;2.183437580242753E-003;8.604187518358231E-003;
2.415666666666667E+009;1.985853463411331E-001;-4.054123535752296E-002;2.549071330577135E-003;8.719188161194325E-003;
2.415833333333334E+009;1.993535906076431E-001;-4.114956036210060E-002;3.038559574633837E-003;8.560919202864170E-003;
2.416000000000000E+009;2.001717239618301E-001;-4.184733331203461E-002;3.415609477087855E-003;8.466525934636593E-003;
2.416166666666667E+009;2.008472681045532E-001;-4.228700324892998E-002;3.763376269489527E-003;8.216109126806259E-003;
2.416333333333334E+009;2.015937715768814E-001;-4.249814897775650E-002;4.145923070609570E-003;8.128813467919827E-003;
2.416500000000000E+009;2.020839452743530E-001;-4.285394027829170E-002;4.481202457100153E-003;7.724199909716845E-003;
2.416666666666667E+009;2.022135108709335E-001;-4.311095550656319E-002;4.768892191350460E-003;7.535148411989212E-003;
2.416833333333334E+009;2.025116533041000E-001;-4.302531108260155E-002;5.246873944997788E-003;7.437689695507288E-003;
2.417000000000000E+009;2.026232779026032E-001;-4.307017475366592E-002;5.316189955919981E-003;7.049057167023420E-003;
2.417166666666667E+009;2.023740708827972E-001;-4.302262887358666E-002;5.760009866207838E-003;6.912318058311939E-003;
2.417333333333334E+009;2.021426111459732E-001;-4.281267896294594E-002;5.882815923541784E-003;6.583902053534985E-003;
2.417500000000000E+009;2.016887515783310E-001;-4.281188175082207E-002;6.114691961556673E-003;6.392934359610081E-003;
2.417666666666667E+009;2.011916190385819E-001;-4.249377176165581E-002;6.306634284555912E-003;6.029837299138308E-003;
2.417833333333334E+009;2.008543312549591E-001;-4.234867542982101E-002;6.642027758061886E-003;5.645991303026676E-003;
2.418000000000000E+009;2.001097798347473E-001;-4.210978746414185E-002;6.728227715939283E-003;5.341534502804279E-003;
2.418166666666667E+009;1.993399858474731E-001;-4.204409196972847E-002;6.949764210730791E-003;5.144312046468258E-003;
2.418333333333334E+009;1.983865201473236E-001;-4.183632507920265E-002;7.190012838691473E-003;4.809699952602387E-003;
2.418500000000000E+009;1.974019259214401E-001;-4.179431125521660E-002;7.131034974008799E-003;4.402135498821735E-003;
2.418666666666667E+009;1.964334547519684E-001;-4.165139421820641E-002;7.230571005493403E-003;4.028533585369587E-003;
2.418833333333334E+009;1.951332837343216E-001;-4.181255400180817E-002;7.342828437685967E-003;3.776742378249764E-003;
2.419000000000000E+009;1.936900764703751E-001;-4.195179045200348E-002;7.417962886393070E-003;3.512042574584484E-003;
2.419166666666667E+009;1.925625503063202E-001;-4.220415279269218E-002;7.377566769719124E-003;3.163879737257958E-003;
2.419333333333334E+009;1.911272704601288E-001;-4.271635413169861E-002;7.604612968862057E-003;2.702707191929221E-003;
2.419500000000000E+009;1.896122545003891E-001;-4.319953918457031E-002;7.521941792219877E-003;2.547123003751040E-003;
2.419666666666667E+009;1.880631446838379E-001;-4.388139024376869E-002;7.307589519768953E-003;2.282215049490333E-003;
2.419833333333334E+009;1.864512562751770E-001;-4.446861892938614E-002;7.266137748956680E-003;1.896903617307544E-003;
2.420000000000000E+009;1.849135160446167E-001;-4.538835212588310E-002;7.262949831783772E-003;1.508521847426891E-003;
2.420166666666667E+009;1.831846535205841E-001;-4.625625908374786E-002;7.217585574835539E-003;1.266328385099769E-003;
2.420333333333334E+009;1.816709190607071E-001;-4.753640666604042E-002;7.114695850759745E-003;9.569969261065126E-004;
2.420500000000000E+009;1.799575835466385E-001;-4.880809411406517E-002;6.960560102015734E-003;7.606363506056368E-004;
2.420666666666667E+009;1.782775670289993E-001;-4.999987408518791E-002;6.881776265799999E-003;5.932175554335117E-004;
2.420833333333334E+009;1.766930073499680E-001;-5.138159915804863E-002;6.751236040145159E-003;3.974461578764021E-004;
2.421000000000000E+009;1.753734648227692E-001;-5.297348275780678E-002;6.504290271550417E-003;1.943268289323896E-004;
2.421166666666667E+009;1.739972084760666E-001;-5.469564348459244E-002;6.275592837482691E-003;1.706778675725218E-005;
2.421333333333334E+009;1.723265945911408E-001;-5.616255849599838E-002;6.235826294869185E-003;-1.902879885165021E-004;
2.421500000000000E+009;1.710009425878525E-001;-5.813138559460640E-002;6.052901037037373E-003;-2.375626645516604E-004;
2.421666666666667E+009;1.696952879428864E-001;-6.007741019129753E-002;5.850425455719233E-003;-3.232249582652003E-004;
2.421833333333334E+009;1.687487065792084E-001;-6.201905757188797E-002;5.792947020381689E-003;-3.115309227723628E-004;
2.422000000000000E+009;1.675725728273392E-001;-6.380481272935867E-002;5.491236690431833E-003;-3.415899409446865E-004;
2.422166666666667E+009;1.666884273290634E-001;-6.611292809247971E-002;5.388541147112846E-003;-3.698025830090046E-004;
2.422333333333334E+009;1.656260341405869E-001;-6.801696121692658E-002;5.459809675812721E-003;-4.250013444107026E-004;
2.422500000000000E+009;1.650383025407791E-001;-7.016237080097199E-002;5.448041483759880E-003;-4.927305853925645E-004;
2.422666666666667E+009;1.642394661903381E-001;-7.199932634830475E-002;5.333972163498402E-003;-4.394719435367733E-004;
2.422833333333334E+009;1.637675911188126E-001;-7.421835511922836E-002;5.267075262963772E-003;-2.759187191259116E-004;
2.423000000000000E+009;1.631337106227875E-001;-7.622759044170380E-002;5.285118240863085E-003;-4.916064790450037E-004;
2.423166666666667E+009;1.629224270582199E-001;-7.834220677614212E-002;5.120598711073399E-003;-6.499836454167962E-004;
2.423333333333334E+009;1.626542955636978E-001;-8.020032197237015E-002;5.295203067362309E-003;-5.866984720341861E-004;
2.423500000000000E+009;1.627419292926788E-001;-8.203696459531784E-002;5.277566611766815E-003;-6.383525324054062E-004;
2.423666666666667E+009;1.625774651765823E-001;-8.399994671344757E-002;5.158958490937948E-003;-7.715228712186217E-004;
2.423833333333334E+009;1.626941412687302E-001;-8.573500812053680E-002;5.229517817497253E-003;-8.171172230504453E-004;
2.424000000000000E+009;1.626461148262024E-001;-8.753799647092819E-002;5.227796267718077E-003;-8.985289605334401E-004;
2.424166666666667E+009;1.626406162977219E-001;-8.916152268648148E-002;5.177909974008799E-003;-8.372575393877924E-004;
2.424333333333334E+009;1.630694121122360E-001;-9.059073030948639E-002;5.222176667302847E-003;-8.088058093562722E-004;
2.424500000000000E+009;1.632915586233139E-001;-9.243348240852356E-002;5.173298995941877E-003;-9.410191560164094E-004;
2.424666666666667E+009;1.636237204074860E-001;-9.362401068210602E-002;5.152317695319653E-003;-9.735100320540369E-004;
2.424833333333334E+009;1.641772836446762E-001;-9.495796263217926E-002;5.201775114983320E-003;-1.041191979311407E-003;
2.425000000000000E+009;1.645806878805161E-001;-9.616211801767349E-002;5.329155828803778E-003;-1.080432208254933E-003;
2.425166666666667E+009;1.648758649826050E-001;-9.722177684307098E-002;5.472212098538876E-003;-1.080156769603491E-003;
2.425333333333334E+009;1.652093082666397E-001;-9.820631146430969E-002;5.608515813946724E-003;-1.200962928123772E-003;
2.425500000000000E+009;1.657306253910065E-001;-9.915276616811752E-002;5.703765433281660E-003;-1.401433604769409E-003;
2.425666666666667E+009;1.661634892225266E-001;-9.984224289655685E-002;5.869554355740547E-003;-1.584587851539254E-003;
2.425833333333334E+009;1.665141284465790E-001;-1.006035730242729E-001;5.903178825974464E-003;-1.668661832809448E-003;
2.426000000000000E+009;1.668463349342346E-001;-1.009902954101563E-001;6.009659729897976E-003;-1.889189938083291E-003;
2.426166666666667E+009;1.673956811428070E-001;-1.014669984579086E-001;5.947938188910484E-003;-1.981076318770647E-003;
2.426333333333334E+009;1.674786806106567E-001;-1.019925773143768E-001;5.983124021440744E-003;-2.341471379622817E-003;
2.426500000000000E+009;1.679356545209885E-001;-1.021956652402878E-001;5.900150630623102E-003;-2.639334416016936E-003;
2.426666666666667E+009;1.680976450443268E-001;-1.024800464510918E-001;6.003232672810555E-003;-2.768480451777577E-003;
2.426833333333334E+009;1.683658659458160E-001;-1.027917787432671E-001;5.991159472614527E-003;-3.085708478465676E-003;
2.427000000000000E+009;1.683398485183716E-001;-1.030033379793167E-001;5.799640435725451E-003;-3.181322012096643E-003;
2.427166666666667E+009;1.683625280857086E-001;-1.029464676976204E-001;5.806760396808386E-003;-3.521063365042210E-003;
2.427333333333334E+009;1.682783514261246E-001;-1.032468080520630E-001;5.880669225007296E-003;-3.594892565160990E-003;
2.427500000000000E+009;1.680222898721695E-001;-1.033188104629517E-001;5.665502510964871E-003;-3.874181536957622E-003;
2.427666666666667E+009;1.676950901746750E-001;-1.034132391214371E-001;5.730221047997475E-003;-4.162166733294725E-003;
2.427833333333334E+009;1.673759967088699E-001;-1.034993231296539E-001;5.456464365124703E-003;-4.364520777016878E-003;
