# Version 1.00
#
freq[Hz];re:Trc1_S11;im:Trc1_S11;re:Trc2_S21;im:Trc2_S21;
2.400000000000000E+009;1.552750319242477E-001;1.065499857068062E-001;-7.713123224675655E-003;-7.016862276941538E-003;
2.400166666666667E+009;1.550047844648361E-001;1.041786447167397E-001;-8.180276490747929E-003;-6.657469552010298E-003;
2.400333333333334E+009;1.548846364021301E-001;1.018746495246887E-001;-8.294927887618542E-003;-6.226076744496822E-003;
2.400500000000000E+009;1.548326015472412E-001;9.925860911607742E-002;-8.455542847514153E-003;-5.779828410595655E-003;
2.400666666666667E+009;1.549131572246552E-001;9.673546999692917E-002;-8.578457869589329E-003;-5.285365041345358E-003;
2.400833333333334E+009;1.549134403467178E-001;9.395578503608704E-002;-8.542804047465324E-003;-4.933999851346016E-003;
2.401000000000000E+009;1.551543027162552E-001;9.110945463180542E-002;-8.891450241208077E-003;-4.403698258101940E-003;
2.401166666666667E+009;1.553203314542770E-001;8.834917098283768E-002;-8.912961930036545E-003;-4.131120163947344E-003;
2.401333333333334E+009;1.556143015623093E-001;8.545602113008499E-002;-8.834277279675007E-003;-3.868909087032080E-003;
2.401500000000000E+009;1.560739278793335E-001;8.265405893325806E-002;-8.851093240082264E-003;-3.407284617424011E-003;
2.401666666666667E+009;1.564316749572754E-001;7.978306710720062E-002;-8.874526247382164E-003;-3.061964176595211E-003;
2.401833333333334E+009;1.568432003259659E-001;7.686715573072434E-002;-8.939157240092754E-003;-2.749441657215357E-003;
2.402000000000000E+009;1.578048914670944E-001;7.414879649877548E-002;-9.021455422043800E-003;-2.527527045458555E-003;
2.402166666666667E+009;1.584361046552658E-001;7.172877341508865E-002;-8.987091481685638E-003;-2.109685679897666E-003;
2.402333333333334E+009;1.595566421747208E-001;6.878196448087692E-002;-8.929695002734661E-003;-1.856357790529728E-003;
2.402500000000000E+009;1.607746332883835E-001;6.627441942691803E-002;-8.901610970497131E-003;-1.694723963737488E-003;
2.402666666666667E+009;1.618589609861374E-001;6.400068849325180E-002;-8.808767423033714E-003;-1.393181271851063E-003;
2.402833333333334E+009;1.632352471351624E-001;6.153796985745430E-002;-8.904938586056233E-003;-1.093603554181755E-003;
2.403000000000000E+009;1.645394116640091E-001;5.907911434769630E-002;-8.920385502278805E-003;-9.944217745214701E-004;
2.403166666666667E+009;1.664408445358276E-001;5.694198608398438E-002;-9.031151421368122E-003;-5.423009279184043E-004;
2.403333333333334E+009;1.677188128232956E-001;5.468280240893364E-002;-9.063201025128365E-003;-3.088192606810480E-004;
2.403500000000000E+009;1.696241348981857E-001;5.264490842819214E-002;-8.898398838937283E-003;1.568441803101450E-004;
2.403666666666667E+009;1.712871491909027E-001;5.077353119850159E-002;-9.117404930293560E-003;4.431446432135999E-004;
2.403833333333334E+009;1.731465011835098E-001;4.894450306892395E-002;-8.975006639957428E-003;8.457902586087585E-004;
2.404000000000000E+009;1.746004223823547E-001;4.703546687960625E-002;-9.126282297074795E-003;1.209152396768332E-003;
2.404166666666667E+009;1.765119582414627E-001;4.559758305549622E-002;-8.919412270188332E-003;1.622900017537177E-003;
2.404333333333334E+009;1.780040413141251E-001;4.398147761821747E-002;-8.648926392197609E-003;2.069490263238549E-003;
2.404500000000000E+009;1.795761585235596E-001;4.270475357770920E-002;-8.468080312013626E-003;2.388758352026343E-003;
2.404666666666667E+009;1.813246160745621E-001;4.169608280062676E-002;-8.264447562396526E-003;2.774202963337302E-003;
2.404833333333334E+009;1.830801516771317E-001;4.049822688102722E-002;-7.969900034368038E-003;2.964002778753638E-003;
2.405000000000000E+009;1.844124794006348E-001;3.990648314356804E-002;-7.859386503696442E-003;3.192287404090166E-003;
2.405166666666667E+009;1.859684884548187E-001;3.925674036145210E-002;-7.316748611629009E-003;3.359956666827202E-003;
2.405333333333334E+009;1.873463988304138E-001;3.880441188812256E-002;-7.233809214085341E-003;3.615440567955375E-003;
2.405500000000000E+009;1.888109892606735E-001;3.821412101387978E-002;-7.112219464033842E-003;3.700518514961004E-003;
2.405666666666667E+009;1.900495141744614E-001;3.779031708836556E-002;-6.843055598437786E-003;3.752502612769604E-003;
2.405833333333334E+009;1.913393288850784E-001;3.765895590186119E-002;-6.600344553589821E-003;4.042955115437508E-003;
2.406000000000000E+009;1.923544406890869E-001;3.741651400923729E-002;-6.355070509016514E-003;4.110155161470175E-003;
2.406166666666667E+009;1.932604163885117E-001;3.724771365523338E-002;-6.212550215423107E-003;4.331734031438828E-003;
2.406333333333334E+009;1.942434012889862E-001;3.718964383006096E-002;-5.920108873397112E-003;4.253132734447718E-003;
2.406500000000000E+009;1.950294524431229E-001;3.725582733750343E-002;-5.620403215289116E-003;4.430015105754137E-003;
2.406666666666667E+009;1.956677138805389E-001;3.737751394510269E-002;-5.497776903212071E-003;4.639407154172659E-003;
2.406833333333334E+009;1.960725188255310E-001;3.731151670217514E-002;-5.430865567177534E-003;4.625294357538223E-003;
2.407000000000000E+009;1.964182555675507E-001;3.761338442564011E-002;-4.938556347042322E-003;4.735773429274559E-003;
2.407166666666667E+009;1.967352032661438E-001;3.738743439316750E-002;-5.051644518971443E-003;4.564453382045031E-003;
2.407333333333334E+009;1.967439055442810E-001;3.750729188323021E-002;-4.519907291978598E-003;4.791071638464928E-003;
2.407500000000000E+009;1.965310126543045E-001;3.762274980545044E-002;-4.506731405854225E-003;4.616710823029280E-003;
2.407666666666667E+009;1.965925544500351E-001;3.747729584574699E-002;-4.349619615823031E-003;4.759638570249081E-003;
2.407833333333334E+009;1.960301995277405E-001;3.747310116887093E-002;-4.163552541285753E-003;4.670009948313236E-003;
2.408000000000000E+009;1.958524584770203E-001;3.723857179284096E-002;-4.200116731226444E-003;4.607822280377150E-003;
2.408166666666667E+009;1.953051686286926E-001;3.712377697229385E-002;-4.000850021839142E-003;4.541317466646433E-003;
2.408333333333334E+009;1.948564499616623E-001;3.658571839332581E-002;-3.787516150623560E-003;4.575949627906084E-003;
2.408500000000000E+009;1.941025704145432E-001;3.622420504689217E-002;-3.836206626147032E-003;4.373125266283751E-003;
2.408666666666667E+009;1.933752298355103E-001;3.572972118854523E-002;-3.695341525599361E-003;4.439754411578178E-003;
2.408833333333334E+009;1.926079690456390E-001;3.500848636031151E-002;-3.674187231808901E-003;4.235184285789728E-003;
2.409000000000000E+009;1.915853023529053E-001;3.402993455529213E-002;-3.611486172303557E-003;4.403298255056143E-003;
2.409166666666667E+009;1.908109784126282E-001;3.314443305134773E-002;-3.713270882144570E-003;4.256722982972860E-003;
2.409333333333334E+009;1.897090673446655E-001;3.218811005353928E-002;-3.752353135496378E-003;4.401239100843668E-003;
2.409500000000000E+009;1.885064542293549E-001;3.083749674260616E-002;-3.784089582040906E-003;4.435615614056587E-003;
2.409666666666667E+009;1.875308007001877E-001;2.959864027798176E-002;-3.714685095474124E-003;4.521404393017292E-003;
2.409833333333334E+009;1.865078508853912E-001;2.802069112658501E-002;-3.746860893443227E-003;4.641126841306686E-003;
2.410000000000000E+009;1.855401247739792E-001;2.626630105078220E-002;-3.754981094971299E-003;4.795615095645189E-003;
2.410166666666667E+009;1.845221519470215E-001;2.467854879796505E-002;-3.670339472591877E-003;4.802497103810310E-003;
2.410333333333334E+009;1.833996176719666E-001;2.277732267975807E-002;-3.760437713935971E-003;5.080697592347860E-003;
2.410500000000000E+009;1.824874728918076E-001;2.085500583052635E-002;-3.666941542178392E-003;5.266980268061161E-003;
2.410666666666667E+009;1.815936416387558E-001;1.866780407726765E-002;-3.562018508091569E-003;5.294660106301308E-003;
2.410833333333334E+009;1.808439940214157E-001;1.664344221353531E-002;-3.449526149779558E-003;5.518908146768808E-003;
2.411000000000000E+009;1.802283227443695E-001;1.420851703733206E-002;-3.278627991676331E-003;5.444564390927553E-003;
2.411166666666667E+009;1.795475482940674E-001;1.209149416536093E-002;-3.247602609917522E-003;5.736903753131628E-003;
2.411333333333334E+009;1.789219975471497E-001;9.477528743445873E-003;-3.061815164983273E-003;5.742617882788181E-003;
2.411500000000000E+009;1.783776581287384E-001;7.102478761225939E-003;-2.868733834475279E-003;5.846960470080376E-003;
2.411666666666667E+009;1.781377941370010E-001;4.840797744691372E-003;-2.671021269634366E-003;5.891781300306320E-003;
2.411833333333334E+009;1.777904629707336E-001;2.391834743320942E-003;-2.529536606743932E-003;5.860371515154839E-003;
2.412000000000000E+009;1.779935061931610E-001;-3.501161700114608E-004;-2.592928009107709E-003;5.932666826993227E-003;
2.412166666666667E+009;1.780380308628082E-001;-2.446350641548634E-003;-2.342506079003215E-003;6.022508256137371E-003;
2.412333333333334E+009;1.781396716833115E-001;-5.005477927625179E-003;-2.359890146180987E-003;6.035285070538521E-003;
2.412500000000000E+009;1.786623001098633E-001;-7.500499486923218E-003;-2.344527281820774E-003;6.001125555485487E-003;
2.412666666666667E+009;1.791790872812271E-001;-9.911944158375263E-003;-2.135342219844461E-003;6.276747211813927E-003;
2.412833333333334E+009;1.797845810651779E-001;-1.243055891245604E-002;-2.181405900046229E-003;6.201800424605608E-003;
2.413000000000000E+009;1.804718524217606E-001;-1.484066154807806E-002;-2.077706623822451E-003;6.362756248563528E-003;
2.413166666666667E+009;1.812905967235565E-001;-1.693027652800083E-002;-2.018567873165011E-003;6.552301347255707E-003;
2.413333333333334E+009;1.823734343051910E-001;-1.934368349611759E-002;-1.944021554663777E-003;6.604498252272606E-003;
2.413500000000000E+009;1.833177208900452E-001;-2.150297909975052E-002;-1.979540800675750E-003;6.942141335457563E-003;
2.413666666666667E+009;1.846491992473602E-001;-2.370157092809677E-002;-1.802182057872415E-003;7.117193192243576E-003;
2.413833333333334E+009;1.856672763824463E-001;-2.574140764772892E-002;-1.652128179557622E-003;7.473885081708431E-003;
2.414000000000000E+009;1.866055876016617E-001;-2.763438411056995E-002;-1.518337288871408E-003;7.759399712085724E-003;
2.414166666666667E+009;1.880831569433212E-001;-2.944095991551876E-002;-1.142828725278378E-003;7.929718121886253E-003;
2.414333333333334E+009;1.892801225185394E-001;-3.156849369406700E-002;-7.818654994480312E-004;8.181741461157799E-003;
2.414500000000000E+009;1.904259473085403E-001;-3.291554749011993E-002;-4.425744409672916E-004;8.339199237525463E-003;
2.414666666666667E+009;1.915918886661530E-001;-3.439218923449516E-002;-9.100964962271974E-005;8.679430931806564E-003;
2.414833333333334E+009;1.928201913833618E-001;-3.575201332569122E-002;2.935768861789256E-004;8.801531046628952E-003;
2.415000000000000E+009;1.939257085323334E-001;-3.709614649415016E-002;7.885199156589806E-004;8.883149363100529E-003;
2.415166666666667E+009;1.950906813144684E-001;-3.827549144625664E-002;1.222294871695340E-003;8.922212757170200E-003;
2.415333333333334E+009;1.963161826133728E-001;-3.901374340057373E-002;1.745473942719400E-003;8.882671594619751E-003;
2.415500000000000E+009;1.975082606077194E-001;-3.983829542994499E-002;2.044948516413570E-003;8.826801553368568E-003;
2.415666666666667E+009;1.985593438148499E-001;-4.059620574116707E-002;2.541015623137355E-003;8.693459443747997E-003;
2.415833333333334E+009;1.992763429880142E-001;-4.111718758940697E-002;3.049239050596952E-003;8.554177358746529E-003;
2.416000000000000E+009;2.001460343599320E-001;-4.178728535771370E-002;3.423506161198020E-003;8.464770391583443E-003;
2.416166666666667E+009;2.009310275316238E-001;-4.233030974864960E-002;3.737413324415684E-003;8.167433552443981E-003;
2.416333333333334E+009;2.015993595123291E-001;-4.259645938873291E-002;4.153631161898375E-003;8.109224960207939E-003;
2.416500000000000E+009;2.018878757953644E-001;-4.279919713735580E-002;4.457049537450075E-003;7.949933409690857E-003;
2.416666666666667E+009;2.020846009254456E-001;-4.308434203267098E-002;4.772480577230454E-003;7.556192111223936E-003;
2.416833333333334E+009;2.024295628070831E-001;-4.303948208689690E-002;5.253824871033430E-003;7.287350948899984E-003;
2.417000000000000E+009;2.024675756692886E-001;-4.317207261919975E-002;5.504173692315817E-003;7.054362446069717E-003;
2.417166666666667E+009;2.022702693939209E-001;-4.310102388262749E-002;5.718927830457687E-003;6.798002868890762E-003;
2.417333333333334E+009;2.019820809364319E-001;-4.288451373577118E-002;5.873927380889654E-003;6.585352588444948E-003;
2.417500000000000E+009;2.017137259244919E-001;-4.284911602735519E-002;6.233779713511467E-003;6.296083331108093E-003;
2.417666666666667E+009;2.011846601963043E-001;-4.260744154453278E-002;6.447548512369394E-003;6.008335389196873E-003;
2.417833333333334E+009;2.007569670677185E-001;-4.234324768185616E-002;6.678062491118908E-003;5.772867705672979E-003;
2.418000000000000E+009;2.000690996646881E-001;-4.213455691933632E-002;6.870972458273172E-003;5.311992019414902E-003;
2.418166666666667E+009;1.991694122552872E-001;-4.198572039604187E-002;7.060824427753687E-003;5.154373124241829E-003;
2.418333333333334E+009;1.982516050338745E-001;-4.177224636077881E-002;7.121560629457235E-003;4.808810073882341E-003;
2.418500000000000E+009;1.971831917762756E-001;-4.183610156178474E-002;7.324130274355412E-003;4.415849223732948E-003;
2.418666666666667E+009;1.963329613208771E-001;-4.176153242588043E-002;7.243993692100048E-003;4.235948901623488E-003;
2.418833333333334E+009;1.949979066848755E-001;-4.180677235126495E-002;7.366150151938200E-003;3.774327691644430E-003;
2.419000000000000E+009;1.936072856187820E-001;-4.195284098386765E-002;7.392374332994223E-003;3.457198152318597E-003;
2.419166666666667E+009;1.924448013305664E-001;-4.227834194898605E-002;7.376262452453375E-003;2.971884561702609E-003;
2.419333333333334E+009;1.909293383359909E-001;-4.262281581759453E-002;7.408172357827425E-003;2.586585003882647E-003;
2.419500000000000E+009;1.894778758287430E-001;-4.310606792569161E-002;7.449331693351269E-003;2.447689417749643E-003;
2.419666666666667E+009;1.879124939441681E-001;-4.388308152556419E-002;7.462954148650169E-003;2.116667339578271E-003;
2.419833333333334E+009;1.863057464361191E-001;-4.452010244131088E-002;7.526378612965345E-003;1.866979175247252E-003;
2.420000000000000E+009;1.847981810569763E-001;-4.523267969489098E-002;7.183947134763002E-003;1.576177659444511E-003;
2.420166666666667E+009;1.831753849983215E-001;-4.628600552678108E-002;7.323295809328556E-003;1.223311992362142E-003;
2.420333333333334E+009;1.815137267112732E-001;-4.737597703933716E-002;7.156373001635075E-003;1.072629238478839E-003;
2.420500000000000E+009;1.798529624938965E-001;-4.884500056505203E-002;7.002675440162420E-003;8.006128482520580E-004;
2.420666666666667E+009;1.782708615064621E-001;-4.980679228901863E-002;6.866291165351868E-003;6.189018604345620E-004;
2.420833333333334E+009;1.766957640647888E-001;-5.139785632491112E-002;6.781396456062794E-003;3.048786311410368E-004;
2.421000000000000E+009;1.751118451356888E-001;-5.292597785592079E-002;6.723208818584681E-003;3.040856099687517E-004;
2.421166666666667E+009;1.739232093095779E-001;-5.466704815626144E-002;6.417608819901943E-003;7.520832150476053E-005;
2.421333333333334E+009;1.720800548791885E-001;-5.619957298040390E-002;6.370023358613253E-003;-1.037371621350758E-004;
2.421500000000000E+009;1.709244400262833E-001;-5.817535519599915E-002;6.068104878067970E-003;-3.050243249163032E-004;
2.421666666666667E+009;1.697564274072647E-001;-5.998201668262482E-002;6.023732014000416E-003;-4.138509102631360E-004;
2.421833333333334E+009;1.684597134590149E-001;-6.196271628141403E-002;5.635599140077829E-003;-3.596204915083945E-004;
2.422000000000000E+009;1.674835085868835E-001;-6.391724944114685E-002;5.626748781651259E-003;-4.095578042324632E-004;
2.422166666666667E+009;1.666590869426727E-001;-6.588102132081986E-002;5.614838097244501E-003;-4.652908537536860E-004;
2.422333333333334E+009;1.655248254537582E-001;-6.791433691978455E-002;5.404867231845856E-003;-4.696695541497320E-004;
2.422500000000000E+009;1.648163646459580E-001;-6.999275833368301E-002;5.325676407665014E-003;-5.379780777730048E-004;
2.422666666666667E+009;1.641964465379715E-001;-7.211187481880188E-002;5.157348234206438E-003;-4.271485959179699E-004;
2.422833333333334E+009;1.636122912168503E-001;-7.416202127933502E-002;5.308930762112141E-003;-4.962570965290070E-004;
2.423000000000000E+009;1.631997674703598E-001;-7.641436904668808E-002;5.193783435970545E-003;-5.161177250556648E-004;
2.423166666666667E+009;1.629625260829926E-001;-7.824046164751053E-002;5.205914843827486E-003;-5.581818404607475E-004;
2.423333333333334E+009;1.625407338142395E-001;-8.036547154188156E-002;5.063852760940790E-003;-6.815090891905129E-004;
2.423500000000000E+009;1.626161187887192E-001;-8.183512836694717E-002;5.269420798867941E-003;-7.278313860297203E-004;
2.423666666666667E+009;1.625661998987198E-001;-8.391014486551285E-002;5.089155863970518E-003;-7.779595325700939E-004;
2.423833333333334E+009;1.625180095434189E-001;-8.558500558137894E-002;5.126388743519783E-003;-8.985257591120899E-004;
2.424000000000000E+009;1.626196056604385E-001;-8.757650107145309E-002;5.098747555166483E-003;-8.571282960474491E-004;
2.424166666666667E+009;1.625547111034393E-001;-8.906900137662888E-002;5.074316170066595E-003;-8.631439995951951E-004;
2.424333333333334E+009;1.628806442022324E-001;-9.054213017225266E-002;5.161101464182138E-003;-8.595138788223267E-004;
2.424500000000000E+009;1.633325517177582E-001;-9.233911335468292E-002;5.256334785372019E-003;-1.016419730149210E-003;
2.424666666666667E+009;1.635581851005554E-001;-9.360437840223312E-002;5.198885221034288E-003;-9.561259066686034E-004;
2.424833333333334E+009;1.642067581415176E-001;-9.492028504610062E-002;5.362546537071466E-003;-9.993620915338397E-004;
2.425000000000000E+009;1.645483225584030E-001;-9.624043852090836E-002;5.292999092489481E-003;-1.055990811437368E-003;
2.425166666666667E+009;1.648840457201004E-001;-9.706941246986389E-002;5.388491321355104E-003;-1.103835762478411E-003;
2.425333333333334E+009;1.652255803346634E-001;-9.808807820081711E-002;5.616239737719297E-003;-1.166412839666009E-003;
2.425500000000000E+009;1.657646894454956E-001;-9.906157851219177E-002;5.526155233383179E-003;-1.597515540197492E-003;
2.425666666666667E+009;1.661095321178436E-001;-9.969180077314377E-002;5.731109529733658E-003;-1.475594355724752E-003;
2.425833333333334E+009;1.663336306810379E-001;-1.005466878414154E-001;5.765595939010382E-003;-1.567534869536758E-003;
2.426000000000000E+009;1.668656319379807E-001;-1.009431481361389E-001;5.844203755259514E-003;-1.981614157557488E-003;
2.426166666666667E+009;1.673172563314438E-001;-1.013634279370308E-001;5.866737104952335E-003;-2.291792305186391E-003;
2.426333333333334E+009;1.674288511276245E-001;-1.019705310463905E-001;5.895853508263826E-003;-2.306008012965322E-003;
2.426500000000000E+009;1.678324192762375E-001;-1.021950170397759E-001;5.997426807880402E-003;-2.520580310374498E-003;
2.426666666666667E+009;1.680922210216522E-001;-1.023912578821182E-001;5.960993003100157E-003;-2.755670808255673E-003;
2.426833333333334E+009;1.682541519403458E-001;-1.027742698788643E-001;5.899208597838879E-003;-3.189731622114778E-003;
2.427000000000000E+009;1.682506799697876E-001;-1.028794646263123E-001;5.892574787139893E-003;-3.108190372586250E-003;
2.427166666666667E+009;1.683285534381867E-001;-1.029502227902412E-001;5.804168060421944E-003;-3.346183104440570E-003;
2.427333333333334E+009;1.682740896940231E-001;-1.031044274568558E-001;5.845194216817617E-003;-3.821129444986582E-003;
2.427500000000000E+009;1.680682301521301E-001;-1.033554896712303E-001;5.485099740326405E-003;-3.881767159327865E-003;
2.427666666666667E+009;1.676014661788940E-001;-1.032673045992851E-001;5.586650222539902E-003;-4.137636628001928E-003;
2.427833333333334E+009;1.672345697879791E-001;-1.033346578478813E-001;5.549130495637655E-003;-4.451273009181023E-003;
