# Version 1.00
#
freq[Hz];re:Trc1_S11;im:Trc1_S11;re:Trc2_S21;im:Trc2_S21;
2.400000000000000E+009;1.552242040634155E-001;1.066434159874916E-001;-7.821979932487011E-003;-6.927000824362040E-003;
2.400166666666667E+009;1.548848748207092E-001;1.041830927133560E-001;-8.137343451380730E-003;-6.626795511692762E-003;
2.400333333333334E+009;1.549412161111832E-001;1.018196046352387E-001;-8.293301798403263E-003;-6.443546153604984E-003;
2.400500000000000E+009;1.548441648483276E-001;9.919398277997971E-002;-8.461707271635532E-003;-6.058002356439829E-003;
2.400666666666667E+009;1.548386514186859E-001;9.672933071851730E-002;-8.524158038198948E-003;-5.451555363833904E-003;
2.400833333333334E+009;1.548288464546204E-001;9.400811046361923E-002;-8.784738369286060E-003;-5.090016871690750E-003;
2.401000000000000E+009;1.550586372613907E-001;9.099090844392777E-002;-8.819554932415485E-003;-4.535712767392397E-003;
2.401166666666667E+009;1.550664305686951E-001;8.826837688684464E-002;-8.973879739642143E-003;-4.181404598057270E-003;
2.401333333333334E+009;1.554380506277084E-001;8.540749549865723E-002;-9.065207093954086E-003;-3.896489972248673E-003;
2.401500000000000E+009;1.559680104255676E-001;8.259584009647369E-002;-8.955334313213825E-003;-3.374996129423380E-003;
2.401666666666667E+009;1.563282012939453E-001;7.967556267976761E-002;-8.914400823414326E-003;-3.083940129727125E-003;
2.401833333333334E+009;1.567906439304352E-001;7.708203792572022E-002;-9.051050990819931E-003;-2.728951396420598E-003;
2.402000000000000E+009;1.577494293451309E-001;7.426420599222183E-002;-8.997331373393536E-003;-2.405097708106041E-003;
2.402166666666667E+009;1.587034463882446E-001;7.167492806911469E-002;-8.973378688097000E-003;-2.235644496977329E-003;
2.402333333333334E+009;1.596626192331314E-001;6.900552660226822E-002;-9.001812897622585E-003;-1.923357485793531E-003;
2.402500000000000E+009;1.607320606708527E-001;6.630171090364456E-002;-8.882516995072365E-003;-1.764122163876891E-003;
2.402666666666667E+009;1.616698503494263E-001;6.407433003187180E-002;-8.924541063606739E-003;-1.402353751473129E-003;
2.402833333333334E+009;1.632406413555145E-001;6.156426668167114E-002;-8.956870064139366E-003;-1.146386144682765E-003;
2.403000000000000E+009;1.646027565002441E-001;5.916223302483559E-002;-9.015068411827087E-003;-9.258980280719698E-004;
2.403166666666667E+009;1.664077490568161E-001;5.694323778152466E-002;-9.101744741201401E-003;-5.103112198412418E-004;
2.403333333333334E+009;1.675931662321091E-001;5.478552728891373E-002;-9.071105159819126E-003;-2.106817992171273E-004;
2.403500000000000E+009;1.693692356348038E-001;5.269243195652962E-002;-9.228005073964596E-003;8.619434083811939E-005;
2.403666666666667E+009;1.713200509548187E-001;5.077543109655380E-002;-9.106402285397053E-003;4.745247424580157E-004;
2.403833333333334E+009;1.728790402412415E-001;4.885885864496231E-002;-9.074580855667591E-003;8.769226260483265E-004;
2.404000000000000E+009;1.744661331176758E-001;4.717678576707840E-002;-9.023076854646206E-003;1.290855230763555E-003;
2.404166666666667E+009;1.763229966163635E-001;4.570844024419785E-002;-8.888167329132557E-003;1.676624757237732E-003;
2.404333333333334E+009;1.779060661792755E-001;4.423398151993752E-002;-8.758028037846088E-003;1.926319440826774E-003;
2.404500000000000E+009;1.794525682926178E-001;4.277816414833069E-002;-8.421579375863075E-003;2.401642268523574E-003;
2.404666666666667E+009;1.811799705028534E-001;4.176274687051773E-002;-8.369653485715389E-003;2.718257950618863E-003;
2.404833333333334E+009;1.829359084367752E-001;4.069123044610024E-002;-7.972727529704571E-003;2.869714982807636E-003;
2.405000000000000E+009;1.842324584722519E-001;4.002460092306137E-002;-7.815010845661163E-003;3.150361822918057E-003;
2.405166666666667E+009;1.857837587594986E-001;3.940589353442192E-002;-7.455449551343918E-003;3.323309356346726E-003;
2.405333333333334E+009;1.871711462736130E-001;3.877105936408043E-002;-7.273144088685513E-003;3.641483373939991E-003;
2.405500000000000E+009;1.885640919208527E-001;3.833474963903427E-002;-7.218932732939720E-003;3.694393439218402E-003;
2.405666666666667E+009;1.899067014455795E-001;3.789456933736801E-002;-6.859438959509134E-003;3.815059782937169E-003;
2.405833333333334E+009;1.912329047918320E-001;3.771744295954704E-002;-6.608617492020130E-003;3.908012062311173E-003;
2.406000000000000E+009;1.921312361955643E-001;3.750132024288178E-002;-6.348029244691134E-003;4.085110034793615E-003;
2.406166666666667E+009;1.932425498962402E-001;3.734178841114044E-002;-6.178876850754023E-003;4.342192783951759E-003;
2.406333333333334E+009;1.940392404794693E-001;3.722617030143738E-002;-5.974176805466414E-003;4.366101697087288E-003;
2.406500000000000E+009;1.948993504047394E-001;3.744265064597130E-002;-5.712817888706923E-003;4.519673995673657E-003;
2.406666666666667E+009;1.955917775630951E-001;3.749018535017967E-002;-5.495104938745499E-003;4.535122308880091E-003;
2.406833333333334E+009;1.961251497268677E-001;3.746537864208221E-002;-5.375646986067295E-003;4.711068700999022E-003;
2.407000000000000E+009;1.962866038084030E-001;3.762655705213547E-002;-5.248152650892735E-003;4.574548453092575E-003;
2.407166666666667E+009;1.966571658849716E-001;3.744399175047875E-002;-4.866810515522957E-003;4.796753637492657E-003;
2.407333333333334E+009;1.966238617897034E-001;3.767498955130577E-002;-4.782538395375013E-003;4.825050942599773E-003;
2.407500000000000E+009;1.964862644672394E-001;3.780066967010498E-002;-4.473305772989988E-003;4.741525743156672E-003;
2.407666666666667E+009;1.965345144271851E-001;3.767075389623642E-002;-4.499955568462610E-003;4.640192724764347E-003;
2.407833333333334E+009;1.960473060607910E-001;3.763054683804512E-002;-4.210186656564474E-003;4.786568228155375E-003;
2.408000000000000E+009;1.958881169557571E-001;3.747050836682320E-002;-4.055244848132134E-003;4.687484353780747E-003;
2.408166666666667E+009;1.951283365488052E-001;3.706517070531845E-002;-3.876060247421265E-003;4.615559708327055E-003;
2.408333333333334E+009;1.947440207004547E-001;3.669840097427368E-002;-3.870844375342131E-003;4.512737970799208E-003;
2.408500000000000E+009;1.939622014760971E-001;3.638032451272011E-002;-3.761192550882697E-003;4.525381606072187E-003;
2.408666666666667E+009;1.933431327342987E-001;3.585317358374596E-002;-3.828102722764015E-003;4.452575463801622E-003;
2.408833333333334E+009;1.925588548183441E-001;3.498102352023125E-002;-3.693453036248684E-003;4.398898687213659E-003;
2.409000000000000E+009;1.915153414011002E-001;3.421190753579140E-002;-3.561683930456638E-003;4.393081646412611E-003;
2.409166666666667E+009;1.906366348266602E-001;3.315731137990952E-002;-3.744617104530335E-003;4.378505051136017E-003;
2.409333333333334E+009;1.897263079881668E-001;3.232774883508682E-002;-3.678807290270925E-003;4.454352892935276E-003;
2.409500000000000E+009;1.884777694940567E-001;3.090383298695087E-002;-3.768932772800326E-003;4.568638745695353E-003;
2.409666666666667E+009;1.874039471149445E-001;2.944285236299038E-002;-3.630323102697730E-003;4.596270155161619E-003;
2.409833333333334E+009;1.863562464714050E-001;2.806020155549049E-002;-3.764695953577757E-003;4.718261305242777E-003;
2.410000000000000E+009;1.854504793882370E-001;2.644262835383415E-002;-3.748355200514197E-003;4.854953847825527E-003;
2.410166666666667E+009;1.844574958086014E-001;2.466414496302605E-002;-3.634104970842600E-003;4.953953903168440E-003;
2.410333333333334E+009;1.833957582712174E-001;2.291580662131310E-002;-3.620749805122614E-003;5.022420547902584E-003;
2.410500000000000E+009;1.824062764644623E-001;2.099054493010044E-002;-3.642912488430738E-003;5.184801295399666E-003;
2.410666666666667E+009;1.815273016691208E-001;1.856231875717640E-002;-3.598070237785578E-003;5.455322563648224E-003;
2.410833333333334E+009;1.808959841728210E-001;1.661984436213970E-002;-3.491349285468459E-003;5.422191228717566E-003;
2.411000000000000E+009;1.800421625375748E-001;1.426274888217449E-002;-3.225924447178841E-003;5.608428735285997E-003;
2.411166666666667E+009;1.795608103275299E-001;1.205582171678543E-002;-3.063290147110820E-003;5.689908284693956E-003;
2.411333333333334E+009;1.788532137870789E-001;9.686050936579704E-003;-2.997447038069367E-003;5.810362752526999E-003;
2.411500000000000E+009;1.785560697317123E-001;7.263706065714359E-003;-2.815399318933487E-003;6.007727701216936E-003;
2.411666666666667E+009;1.782061159610748E-001;4.904899746179581E-003;-2.610004274174571E-003;5.955028813332319E-003;
2.411833333333334E+009;1.778389811515808E-001;2.579147927463055E-003;-2.537182532250881E-003;6.010788492858410E-003;
2.412000000000000E+009;1.781418174505234E-001;-6.702782411593944E-005;-2.473102649673820E-003;5.986441392451525E-003;
2.412166666666667E+009;1.782818287611008E-001;-2.537272637709975E-003;-2.269032178446651E-003;6.076924037188292E-003;
2.412333333333334E+009;1.783228516578674E-001;-4.965575411915779E-003;-2.427136525511742E-003;6.144342012703419E-003;
2.412500000000000E+009;1.787810176610947E-001;-7.467958144843578E-003;-2.083302242681384E-003;6.077739875763655E-003;
2.412666666666667E+009;1.793078631162643E-001;-9.877249598503113E-003;-2.031775889918208E-003;6.288331001996994E-003;
2.412833333333334E+009;1.800590008497238E-001;-1.241302303969860E-002;-2.148175379261375E-003;6.343906745314598E-003;
2.413000000000000E+009;1.806612312793732E-001;-1.456829532980919E-002;-2.134195528924465E-003;6.509680300951004E-003;
2.413166666666667E+009;1.814358830451965E-001;-1.687654666602612E-002;-2.009758492931724E-003;6.584031041711569E-003;
2.413333333333334E+009;1.827179789543152E-001;-1.920461468398571E-002;-1.930387225002050E-003;6.636399310082197E-003;
2.413500000000000E+009;1.834244281053543E-001;-2.153060585260391E-002;-1.849280204623938E-003;6.889562588185072E-003;
2.413666666666667E+009;1.845766305923462E-001;-2.362197637557983E-002;-1.641546841710806E-003;7.316130679100752E-003;
2.413833333333334E+009;1.856429874897003E-001;-2.567479386925697E-002;-1.554730813950300E-003;7.386388257145882E-003;
2.414000000000000E+009;1.867988258600235E-001;-2.755541726946831E-002;-1.334089087322354E-003;7.770230527967215E-003;
2.414166666666667E+009;1.882255822420120E-001;-2.949854359030724E-002;-1.152026001363993E-003;7.866284810006619E-003;
2.414333333333334E+009;1.891982704401016E-001;-3.135222569108009E-002;-9.045178885571659E-004;8.190087042748928E-003;
2.414500000000000E+009;1.904973387718201E-001;-3.294292464852333E-002;-3.878157585859299E-004;8.491494692862034E-003;
2.414666666666667E+009;1.917123794555664E-001;-3.435739874839783E-002;-2.107603620515874E-007;8.588382974267006E-003;
2.414833333333334E+009;1.928526461124420E-001;-3.573939576745033E-002;5.369328428059816E-004;8.747304789721966E-003;
2.415000000000000E+009;1.941774934530258E-001;-3.695440664887428E-002;8.118012920022011E-004;8.845615200698376E-003;
2.415166666666667E+009;1.954481899738312E-001;-3.804622590541840E-002;1.438264502212405E-003;8.730853907763958E-003;
2.415333333333334E+009;1.964918673038483E-001;-3.907286375761032E-002;1.807887223549187E-003;8.939567953348160E-003;
2.415500000000000E+009;1.975256204605103E-001;-3.963149338960648E-002;2.172878012061119E-003;8.791563101112843E-003;
2.415666666666667E+009;1.985515803098679E-001;-4.057075083255768E-002;2.620846265926957E-003;8.743125945329666E-003;
2.415833333333334E+009;1.995409429073334E-001;-4.122009500861168E-002;3.075137967243791E-003;8.568932302296162E-003;
2.416000000000000E+009;2.002949118614197E-001;-4.182194918394089E-002;3.540911013260484E-003;8.519358932971954E-003;
2.416166666666667E+009;2.008997499942780E-001;-4.227316752076149E-002;3.816779702901840E-003;8.146324194967747E-003;
2.416333333333334E+009;2.016010731458664E-001;-4.260832816362381E-002;4.186408128589392E-003;8.102160878479481E-003;
2.416500000000000E+009;2.020197957754135E-001;-4.275754839181900E-002;4.518195055425167E-003;7.857100106775761E-003;
2.416666666666667E+009;2.023013234138489E-001;-4.300487414002419E-002;4.876423627138138E-003;7.635331712663174E-003;
2.416833333333334E+009;2.024600654840469E-001;-4.303134232759476E-002;5.236925091594458E-003;7.410898804664612E-003;
2.417000000000000E+009;2.027226835489273E-001;-4.308863356709480E-002;5.387727636843920E-003;7.142137270420790E-003;
2.417166666666667E+009;2.022814750671387E-001;-4.310105368494988E-002;5.792849697172642E-003;6.790301296859980E-003;
2.417333333333334E+009;2.021437138319016E-001;-4.291806370019913E-002;6.118535064160824E-003;6.554777733981609E-003;
2.417500000000000E+009;2.018047869205475E-001;-4.283788427710533E-002;6.254747975617647E-003;6.365599110722542E-003;
2.417666666666667E+009;2.012567967176437E-001;-4.254552349448204E-002;6.501245312392712E-003;6.041476037353277E-003;
2.417833333333334E+009;2.007018178701401E-001;-4.240714013576508E-002;6.757083814591169E-003;5.646090488880873E-003;
2.418000000000000E+009;2.001557052135468E-001;-4.204646497964859E-002;6.791701074689627E-003;5.274903960525990E-003;
2.418166666666667E+009;1.991861909627914E-001;-4.206148162484169E-002;7.056087255477905E-003;4.993246402591467E-003;
2.418333333333334E+009;1.983537971973419E-001;-4.178700223565102E-002;7.187333889305592E-003;4.679790697991848E-003;
2.418500000000000E+009;1.973078250885010E-001;-4.185132682323456E-002;7.258312776684761E-003;4.365009721368551E-003;
2.418666666666667E+009;1.964023858308792E-001;-4.170884937047958E-002;7.369890809059143E-003;4.128109198063612E-003;
2.418833333333334E+009;1.950702518224716E-001;-4.181893169879913E-002;7.416244130581617E-003;3.597437171265483E-003;
2.419000000000000E+009;1.937969177961350E-001;-4.204891622066498E-002;7.349891122430563E-003;3.322717268019915E-003;
2.419166666666667E+009;1.924645304679871E-001;-4.225274175405502E-002;7.581805810332298E-003;2.983763581141830E-003;
2.419333333333334E+009;1.910983324050903E-001;-4.274957999587059E-002;7.553972769528627E-003;2.745007863268256E-003;
2.419500000000000E+009;1.895804554224014E-001;-4.310500249266625E-002;7.405951619148254E-003;2.404938917607069E-003;
2.419666666666667E+009;1.879499852657318E-001;-4.407253116369247E-002;7.454602979123592E-003;2.064606407657266E-003;
2.419833333333334E+009;1.864361464977264E-001;-4.449500143527985E-002;7.365741301327944E-003;1.685893628746271E-003;
2.420000000000000E+009;1.847613453865051E-001;-4.548742622137070E-002;7.382184267044067E-003;1.446633017621934E-003;
2.420166666666667E+009;1.833193451166153E-001;-4.631499201059341E-002;7.230489049106836E-003;1.264748047105968E-003;
2.420333333333334E+009;1.815634816884995E-001;-4.747653007507324E-002;7.087151985615492E-003;9.754519560374320E-004;
2.420500000000000E+009;1.798181831836700E-001;-4.870823025703430E-002;7.018442731350660E-003;7.083290838636458E-004;
2.420666666666667E+009;1.784789860248566E-001;-4.988615214824677E-002;6.767848972231150E-003;5.710607510991395E-004;
2.420833333333334E+009;1.768196672201157E-001;-5.142330378293991E-002;6.713441573083401E-003;2.196814311901107E-004;
2.421000000000000E+009;1.753974258899689E-001;-5.301968008279800E-002;6.681142840534449E-003;6.314042548183352E-005;
2.421166666666667E+009;1.738717705011368E-001;-5.470999330282211E-002;6.408428773283958E-003;3.150839256704785E-005;
2.421333333333334E+009;1.723203510046005E-001;-5.623413622379303E-002;6.230985745787621E-003;-1.428189279977232E-004;
2.421500000000000E+009;1.709731072187424E-001;-5.836944282054901E-002;5.969979334622622E-003;-2.240448520751670E-004;
2.421666666666667E+009;1.696711033582687E-001;-6.007754057645798E-002;5.914103239774704E-003;-4.878350009676069E-004;
2.421833333333334E+009;1.686997711658478E-001;-6.188612431287766E-002;5.730359815061092E-003;-3.211581497453153E-004;
2.422000000000000E+009;1.675020605325699E-001;-6.383013725280762E-002;5.579615477472544E-003;-4.275988321751356E-004;
2.422166666666667E+009;1.666082143783569E-001;-6.591433286666870E-002;5.472273100167513E-003;-4.659299156628549E-004;
2.422333333333334E+009;1.657725721597672E-001;-6.815367192029953E-002;5.500431638211012E-003;-5.229155067354441E-004;
2.422500000000000E+009;1.649118512868881E-001;-7.001294940710068E-002;5.365959368646145E-003;-5.699510220438242E-004;
2.422666666666667E+009;1.643044650554657E-001;-7.208528369665146E-002;5.290558561682701E-003;-4.866566741839051E-004;
2.422833333333334E+009;1.637402176856995E-001;-7.422441989183426E-002;5.353307351469994E-003;-6.311098113656044E-004;
2.423000000000000E+009;1.634243726730347E-001;-7.611926645040512E-002;5.205234978348017E-003;-5.196965648792684E-004;
2.423166666666667E+009;1.628366708755493E-001;-7.840809971094132E-002;5.214267875999212E-003;-6.080786697566509E-004;
2.423333333333334E+009;1.627024710178375E-001;-8.019302785396576E-002;5.171509459614754E-003;-6.813983782194555E-004;
2.423500000000000E+009;1.625726819038391E-001;-8.209510147571564E-002;5.313333589583635E-003;-6.281176465563476E-004;
2.423666666666667E+009;1.625608205795288E-001;-8.397156745195389E-002;5.184362176805735E-003;-8.388658752664924E-004;
2.423833333333334E+009;1.625153422355652E-001;-8.571480214595795E-002;5.239828024059534E-003;-7.692514918744564E-004;
2.424000000000000E+009;1.626615971326828E-001;-8.747210353612900E-002;5.099521018564701E-003;-9.482073946855962E-004;
2.424166666666667E+009;1.627902537584305E-001;-8.915752917528153E-002;5.124521441757679E-003;-8.681617327965796E-004;
2.424333333333334E+009;1.630408465862274E-001;-9.073694050312042E-002;5.207802169024944E-003;-9.312651236541569E-004;
2.424500000000000E+009;1.633970588445664E-001;-9.238395094871521E-002;5.195704754441977E-003;-9.011790389195085E-004;
2.424666666666667E+009;1.635985821485519E-001;-9.369142353534699E-002;5.086007993668318E-003;-1.080469693988562E-003;
2.424833333333334E+009;1.642264276742935E-001;-9.497809410095215E-002;5.276821088045836E-003;-1.109101227484644E-003;
2.425000000000000E+009;1.645293831825256E-001;-9.610982239246368E-002;5.312799010425806E-003;-1.044195843860507E-003;
2.425166666666667E+009;1.649127155542374E-001;-9.716281294822693E-002;5.402701441198587E-003;-1.282722107134759E-003;
2.425333333333334E+009;1.653226613998413E-001;-9.808333963155747E-002;5.403559189289808E-003;-1.187215442769229E-003;
2.425500000000000E+009;1.657386422157288E-001;-9.907143563032150E-002;5.591618362814188E-003;-1.483905129134655E-003;
2.425666666666667E+009;1.661076098680496E-001;-9.969168901443481E-002;5.790911149233580E-003;-1.554907532408834E-003;
2.425833333333334E+009;1.664625704288483E-001;-1.005784347653389E-001;5.639772862195969E-003;-1.793919946067035E-003;
2.426000000000000E+009;1.667160540819168E-001;-1.009548753499985E-001;5.787122994661331E-003;-1.926280558109283E-003;
2.426166666666667E+009;1.673102229833603E-001;-1.015436053276062E-001;6.015277467668057E-003;-2.227870048955083E-003;
2.426333333333334E+009;1.673794686794281E-001;-1.019521281123161E-001;5.929989740252495E-003;-2.205025637522340E-003;
2.426500000000000E+009;1.677237451076508E-001;-1.021842584013939E-001;5.773923359811306E-003;-2.445072634145618E-003;
2.426666666666667E+009;1.680948138237000E-001;-1.024267598986626E-001;5.893777124583721E-003;-2.844860777258873E-003;
2.426833333333334E+009;1.683328300714493E-001;-1.027657315135002E-001;5.889059044420719E-003;-3.032950684428215E-003;
2.427000000000000E+009;1.682521253824234E-001;-1.029353067278862E-001;5.743403919041157E-003;-3.152230987325311E-003;
2.427166666666667E+009;1.683393567800522E-001;-1.029537469148636E-001;5.775394849479199E-003;-3.529225243255496E-003;
2.427333333333334E+009;1.682559847831726E-001;-1.032027825713158E-001;5.690657999366522E-003;-3.657189197838306E-003;
2.427500000000000E+009;1.679614931344986E-001;-1.033455431461334E-001;5.596048198640347E-003;-3.989832941442728E-003;
2.427666666666667E+009;1.677220165729523E-001;-1.034097522497177E-001;5.592651199549437E-003;-4.002425353974104E-003;
2.427833333333334E+009;1.673559844493866E-001;-1.034547910094261E-001;5.431510042399168E-003;-4.201288335025311E-003;
