# Version 1.00
#
freq[Hz];re:Trc1_S11;im:Trc1_S11;re:Trc2_S21;im:Trc2_S21;
2.400000000000000E+009;1.553018540143967E-001;1.065824404358864E-001;-7.823676802217960E-003;-7.060109172016382E-003;
2.400166666666667E+009;1.549495607614517E-001;1.043351441621780E-001;-8.024790324270725E-003;-6.704318802803755E-003;
2.400333333333334E+009;1.548614948987961E-001;1.020320206880570E-001;-8.393849246203899E-003;-6.205047480762005E-003;
2.400500000000000E+009;1.547538787126541E-001;9.926555305719376E-002;-8.569096215069294E-003;-5.881397053599358E-003;
2.400666666666667E+009;1.547355949878693E-001;9.689968824386597E-002;-8.700399659574032E-003;-5.250408779829741E-003;
2.400833333333334E+009;1.548098921775818E-001;9.405104070901871E-002;-8.752063848078251E-003;-4.934134427458048E-003;
2.401000000000000E+009;1.551202982664108E-001;9.123034775257111E-002;-8.872324600815773E-003;-4.577790852636099E-003;
2.401166666666667E+009;1.549472212791443E-001;8.836722373962402E-002;-8.875922299921513E-003;-4.092890769243240E-003;
2.401333333333334E+009;1.554062366485596E-001;8.548481762409210E-002;-8.820303715765476E-003;-3.833615919575095E-003;
2.401500000000000E+009;1.558944880962372E-001;8.260846138000488E-002;-8.886919356882572E-003;-3.435874823480845E-003;
2.401666666666667E+009;1.563112884759903E-001;7.985019683837891E-002;-8.913928642868996E-003;-3.206382738426328E-003;
2.401833333333334E+009;1.567229926586151E-001;7.691717892885208E-002;-8.896865881979466E-003;-2.783805597573519E-003;
2.402000000000000E+009;1.576932370662689E-001;7.417499274015427E-002;-8.834687061607838E-003;-2.445246558636427E-003;
2.402166666666667E+009;1.584620028734207E-001;7.176582515239716E-002;-8.990381844341755E-003;-2.079417696222663E-003;
2.402333333333334E+009;1.594197899103165E-001;6.891316175460815E-002;-8.994838222861290E-003;-1.876759692095220E-003;
2.402500000000000E+009;1.606001555919647E-001;6.634602695703507E-002;-8.908289484679699E-003;-1.664546085521579E-003;
2.402666666666667E+009;1.616336554288864E-001;6.397793442010880E-002;-8.926788344979286E-003;-1.459930441342294E-003;
2.402833333333334E+009;1.630461215972900E-001;6.157467514276505E-002;-8.886765688657761E-003;-1.066704746335745E-003;
2.403000000000000E+009;1.645488590002060E-001;5.928270146250725E-002;-8.977481164038181E-003;-7.101069786585867E-004;
2.403166666666667E+009;1.663039177656174E-001;5.710474401712418E-002;-9.093842469155788E-003;-5.289461696520448E-004;
2.403333333333334E+009;1.675592213869095E-001;5.466284602880478E-002;-9.078725241124630E-003;-1.205304797622375E-004;
2.403500000000000E+009;1.693774610757828E-001;5.275479331612587E-002;-9.264835156500340E-003;2.808565041050315E-004;
2.403666666666667E+009;1.712306290864945E-001;5.093345791101456E-002;-9.035163559019566E-003;5.335591267794371E-004;
2.403833333333334E+009;1.729662120342255E-001;4.887836799025536E-002;-9.042776189744473E-003;1.007426879368722E-003;
2.404000000000000E+009;1.744197458028793E-001;4.702497646212578E-002;-9.019740857183933E-003;1.360892318189144E-003;
2.404166666666667E+009;1.761957406997681E-001;4.565437883138657E-002;-8.821940049529076E-003;1.714993966743350E-003;
2.404333333333334E+009;1.777831315994263E-001;4.428638145327568E-002;-8.610916323959827E-003;2.050474518910050E-003;
2.404500000000000E+009;1.793985068798065E-001;4.271879047155380E-002;-8.421681821346283E-003;2.399835269898176E-003;
2.404666666666667E+009;1.814071983098984E-001;4.180967435240746E-002;-8.271351456642151E-003;2.682232763618231E-003;
2.404833333333334E+009;1.829593479633331E-001;4.076765105128288E-002;-7.927525788545609E-003;3.062162082642317E-003;
2.405000000000000E+009;1.842313259840012E-001;3.994696587324143E-002;-7.627823855727911E-003;3.019303316250444E-003;
2.405166666666667E+009;1.858002394437790E-001;3.924631699919701E-002;-7.447298616170883E-003;3.467787755653262E-003;
2.405333333333334E+009;1.872061640024185E-001;3.879440575838089E-002;-7.043882738798857E-003;3.547544591128826E-003;
2.405500000000000E+009;1.886817663908005E-001;3.831630572676659E-002;-6.874230690300465E-003;3.770483192056418E-003;
2.405666666666667E+009;1.899371594190598E-001;3.790203109383583E-002;-6.808659993112087E-003;3.980644978582859E-003;
2.405833333333334E+009;1.911723762750626E-001;3.776411712169647E-002;-6.456868257373571E-003;3.941252361983061E-003;
2.406000000000000E+009;1.922251731157303E-001;3.759698942303658E-002;-6.319123320281506E-003;4.027526360005140E-003;
2.406166666666667E+009;1.932246834039688E-001;3.720115125179291E-002;-6.184433121234179E-003;4.201153293251991E-003;
2.406333333333334E+009;1.940968483686447E-001;3.738250210881233E-002;-6.001781672239304E-003;4.228788893669844E-003;
2.406500000000000E+009;1.948830038309097E-001;3.724967688322067E-002;-5.616645794361830E-003;4.270986653864384E-003;
2.406666666666667E+009;1.956669241189957E-001;3.744911029934883E-002;-5.516812205314636E-003;4.525194410234690E-003;
2.406833333333334E+009;1.960570812225342E-001;3.733598068356514E-002;-5.283232312649488E-003;4.709280561655760E-003;
2.407000000000000E+009;1.964018195867539E-001;3.767202422022820E-002;-5.117750726640225E-003;4.788551479578018E-003;
2.407166666666667E+009;1.966383755207062E-001;3.755234181880951E-002;-4.635257646441460E-003;4.701258614659309E-003;
2.407333333333334E+009;1.966416090726852E-001;3.763063997030258E-002;-4.685243591666222E-003;4.694391973316670E-003;
2.407500000000000E+009;1.965559720993042E-001;3.769468143582344E-002;-4.456310067325831E-003;4.706298001110554E-003;
2.407666666666667E+009;1.964271217584610E-001;3.761597722768784E-002;-4.271109588444233E-003;4.748756997287273E-003;
2.407833333333334E+009;1.960508078336716E-001;3.749763965606690E-002;-4.114694427698851E-003;4.640908911824226E-003;
2.408000000000000E+009;1.958448141813278E-001;3.746322542428970E-002;-3.979759290814400E-003;4.701292607933283E-003;
2.408166666666667E+009;1.952378451824188E-001;3.722959011793137E-002;-3.999221604317427E-003;4.604561254382134E-003;
2.408333333333334E+009;1.947717964649200E-001;3.672959282994270E-002;-3.784335218369961E-003;4.607528448104858E-003;
2.408500000000000E+009;1.940236538648605E-001;3.630925714969635E-002;-3.777781967073679E-003;4.402250051498413E-003;
2.408666666666667E+009;1.933814287185669E-001;3.592614829540253E-002;-3.560715122148395E-003;4.419598262757063E-003;
2.408833333333334E+009;1.926637738943100E-001;3.511793166399002E-002;-3.704472910612822E-003;4.322759341448546E-003;
2.409000000000000E+009;1.915373951196671E-001;3.432827070355415E-002;-3.694636747241020E-003;4.364961758255959E-003;
2.409166666666667E+009;1.906766742467880E-001;3.325619548559189E-002;-3.711705328896642E-003;4.280209075659514E-003;
2.409333333333334E+009;1.897892802953720E-001;3.240844607353210E-002;-3.552042180672288E-003;4.455937538295984E-003;
2.409500000000000E+009;1.885663866996765E-001;3.105738945305347E-002;-3.743165871128440E-003;4.527125041931868E-003;
2.409666666666667E+009;1.874630451202393E-001;2.960754930973053E-002;-3.676556749269366E-003;4.457493312656879E-003;
2.409833333333334E+009;1.864386647939682E-001;2.826210483908653E-002;-3.774987300857902E-003;4.526967648416758E-003;
2.410000000000000E+009;1.854762136936188E-001;2.662165462970734E-002;-3.740631975233555E-003;4.727670457214117E-003;
2.410166666666667E+009;1.844138056039810E-001;2.480844222009182E-002;-3.726166673004627E-003;4.917442332953215E-003;
2.410333333333334E+009;1.834673136472702E-001;2.304249256849289E-002;-3.741978667676449E-003;5.043652839958668E-003;
2.410500000000000E+009;1.824903339147568E-001;2.109638787806034E-002;-3.631828352808952E-003;5.230019800364971E-003;
2.410666666666667E+009;1.815392971038818E-001;1.872891746461391E-002;-3.488352987915278E-003;5.300141870975494E-003;
2.410833333333334E+009;1.808454394340515E-001;1.646669395267963E-002;-3.452211851254106E-003;5.343133118003607E-003;
2.411000000000000E+009;1.801142096519470E-001;1.429039612412453E-002;-3.262669313699007E-003;5.475759971886873E-003;
2.411166666666667E+009;1.796039193868637E-001;1.229237206280232E-002;-3.106083488091826E-003;5.626984406262636E-003;
2.411333333333334E+009;1.789794266223908E-001;9.726789779961109E-003;-3.028944367542863E-003;5.736725404858589E-003;
2.411500000000000E+009;1.785258948802948E-001;7.276969496160746E-003;-2.847722964361310E-003;5.671991501003504E-003;
2.411666666666667E+009;1.782708913087845E-001;4.863244015723467E-003;-2.638854086399078E-003;5.903217475861311E-003;
2.411833333333334E+009;1.779863983392716E-001;2.472830237820745E-003;-2.379880286753178E-003;5.946946330368519E-003;
2.412000000000000E+009;1.779643595218658E-001;-1.164651403087191E-004;-2.378682373091579E-003;5.962342955172062E-003;
2.412166666666667E+009;1.781144291162491E-001;-2.498002490028739E-003;-2.367432229220867E-003;6.011351943016052E-003;
2.412333333333334E+009;1.782680451869965E-001;-4.955432843416929E-003;-2.273357007652521E-003;6.041365209966898E-003;
2.412500000000000E+009;1.787432879209518E-001;-7.438777014613152E-003;-2.274051541462541E-003;6.207463797181845E-003;
2.412666666666667E+009;1.791767477989197E-001;-9.835754521191120E-003;-2.020787214860320E-003;6.206433288753033E-003;
2.412833333333334E+009;1.799452155828476E-001;-1.224850118160248E-002;-2.029987517744303E-003;6.407811772078276E-003;
2.413000000000000E+009;1.806684583425522E-001;-1.462075021117926E-002;-2.084567910060287E-003;6.397337652742863E-003;
2.413166666666667E+009;1.815569251775742E-001;-1.686819829046726E-002;-2.153531182557344E-003;6.468117702752352E-003;
2.413333333333334E+009;1.825154870748520E-001;-1.901892013847828E-002;-2.046310342848301E-003;6.671291776001453E-003;
2.413500000000000E+009;1.833500117063522E-001;-2.145211771130562E-002;-1.974062761291862E-003;6.967414170503616E-003;
2.413666666666667E+009;1.845525354146957E-001;-2.365683205425739E-002;-1.744726905599237E-003;7.179957348853350E-003;
2.413833333333334E+009;1.857582032680512E-001;-2.550475485622883E-002;-1.690660370513797E-003;7.424659561365843E-003;
2.414000000000000E+009;1.870189309120178E-001;-2.761171199381352E-002;-1.412432757206261E-003;7.707355078309774E-003;
2.414166666666667E+009;1.881165504455566E-001;-2.930679731070995E-002;-1.209244132041931E-003;7.961866445839405E-003;
2.414333333333334E+009;1.891225576400757E-001;-3.130597621202469E-002;-9.548821253702045E-004;8.146965876221657E-003;
2.414500000000000E+009;1.906521916389465E-001;-3.278267756104469E-002;-4.023343790322542E-004;8.508333936333656E-003;
2.414666666666667E+009;1.916152983903885E-001;-3.437015786767006E-002;-2.837898136931472E-005;8.669476956129074E-003;
2.414833333333334E+009;1.929614841938019E-001;-3.566166386008263E-002;1.937976485351101E-004;8.669271133840084E-003;
2.415000000000000E+009;1.939848661422730E-001;-3.700650110840797E-002;7.604993297718465E-004;8.804823271930218E-003;
2.415166666666667E+009;1.952639669179916E-001;-3.802348673343658E-002;1.247055595740676E-003;8.896724320948124E-003;
2.415333333333334E+009;1.963828653097153E-001;-3.891230002045631E-002;1.745217829011381E-003;8.714777417480946E-003;
2.415500000000000E+009;1.975982636213303E-001;-3.969754278659821E-002;2.164121484383941E-003;8.721194230020046E-003;
2.415666666666667E+009;1.987261772155762E-001;-4.051147773861885E-002;2.630366245284677E-003;8.790393359959126E-003;
2.415833333333334E+009;1.994381994009018E-001;-4.109845310449600E-002;3.026327118277550E-003;8.540147915482521E-003;
2.416000000000000E+009;2.002316564321518E-001;-4.166426882147789E-002;3.252915805205703E-003;8.593508973717690E-003;
2.416166666666667E+009;2.010614573955536E-001;-4.221495985984802E-002;3.781123086810112E-003;8.134461008012295E-003;
2.416333333333334E+009;2.016833126544952E-001;-4.249126091599464E-002;4.258012399077416E-003;8.082200773060322E-003;
2.416500000000000E+009;2.021225690841675E-001;-4.269093275070190E-002;4.517557099461556E-003;7.830609567463398E-003;
2.416666666666667E+009;2.023685574531555E-001;-4.301836714148521E-002;4.900513682514429E-003;7.620478048920631E-003;
2.416833333333334E+009;2.025713026523590E-001;-4.302527755498886E-002;5.047784652560949E-003;7.461758330464363E-003;
2.417000000000000E+009;2.026884257793427E-001;-4.314693808555603E-002;5.424242001026869E-003;7.103149313479662E-003;
2.417166666666667E+009;2.024888247251511E-001;-4.297216981649399E-002;5.788440350443125E-003;6.966349203139544E-003;
2.417333333333334E+009;2.022126913070679E-001;-4.286709427833557E-002;5.828692577779293E-003;6.648942362517119E-003;
2.417500000000000E+009;2.019310295581818E-001;-4.291557520627976E-002;6.241568364202976E-003;6.310068536549807E-003;
2.417666666666667E+009;2.012374550104141E-001;-4.259236529469490E-002;6.452749483287334E-003;5.986812990158796E-003;
2.417833333333334E+009;2.009441107511520E-001;-4.232596233487129E-002;6.711026653647423E-003;5.650257226079702E-003;
2.418000000000000E+009;2.001621723175049E-001;-4.205145314335823E-002;6.862908136099577E-003;5.451160948723555E-003;
2.418166666666667E+009;1.993657946586609E-001;-4.202011227607727E-002;6.996758747845888E-003;5.078772082924843E-003;
2.418333333333334E+009;1.984509378671646E-001;-4.189312830567360E-002;7.050480227917433E-003;4.760351497679949E-003;
2.418500000000000E+009;1.973947435617447E-001;-4.185223579406738E-002;7.112050428986549E-003;4.428097978234291E-003;
2.418666666666667E+009;1.964752823114395E-001;-4.168741032481194E-002;7.323830388486385E-003;4.048866219818592E-003;
2.418833333333334E+009;1.951391547918320E-001;-4.185319319367409E-002;7.378876209259033E-003;3.710668068379164E-003;
2.419000000000000E+009;1.938370466232300E-001;-4.200450703501701E-002;7.542236708104610E-003;3.418407402932644E-003;
2.419166666666667E+009;1.926592886447907E-001;-4.226392135024071E-002;7.434199564158917E-003;3.069937927648425E-003;
2.419333333333334E+009;1.912270486354828E-001;-4.274737089872360E-002;7.502504158765078E-003;2.752625383436680E-003;
2.419500000000000E+009;1.896189898252487E-001;-4.317477345466614E-002;7.556542754173279E-003;2.421307610347867E-003;
2.419666666666667E+009;1.880220770835877E-001;-4.385855421423912E-002;7.386292330920696E-003;2.024705987423658E-003;
2.419833333333334E+009;1.864589899778366E-001;-4.444992542266846E-002;7.337477058172226E-003;1.896073692478240E-003;
2.420000000000000E+009;1.847648918628693E-001;-4.540244489908218E-002;7.373465225100517E-003;1.616361201740801E-003;
2.420166666666667E+009;1.831868737936020E-001;-4.635266587138176E-002;7.180284708738327E-003;1.340993214398623E-003;
2.420333333333334E+009;1.817201972007752E-001;-4.746620357036591E-002;7.146057207137346E-003;9.963179472833872E-004;
2.420500000000000E+009;1.799403131008148E-001;-4.880628734827042E-002;6.996558513492346E-003;7.853065035305917E-004;
2.420666666666667E+009;1.784687042236328E-001;-5.003141239285469E-002;6.891832221299410E-003;4.274801467545331E-004;
2.420833333333334E+009;1.766665279865265E-001;-5.153876170516014E-002;6.631487049162388E-003;3.115974250249565E-004;
2.421000000000000E+009;1.752621233463287E-001;-5.310097709298134E-002;6.444384343922138E-003;2.427129220450297E-004;
2.421166666666667E+009;1.738734990358353E-001;-5.487104132771492E-002;6.409844383597374E-003;6.052994285710156E-005;
2.421333333333334E+009;1.722996383905411E-001;-5.645442754030228E-002;6.271269638091326E-003;-1.590991450939328E-004;
2.421500000000000E+009;1.710162311792374E-001;-5.836739018559456E-002;6.045637186616659E-003;-2.592781384009868E-004;
2.421666666666667E+009;1.698439419269562E-001;-6.010952964425087E-002;5.881766788661480E-003;-2.657224831636995E-004;
2.421833333333334E+009;1.687117218971252E-001;-6.195919960737228E-002;5.771110765635967E-003;-3.604830417316407E-004;
2.422000000000000E+009;1.675568968057632E-001;-6.383012980222702E-002;5.677163135260344E-003;-3.637175832409412E-004;
2.422166666666667E+009;1.666732132434845E-001;-6.619621068239212E-002;5.503134336322546E-003;-3.896534035447985E-004;
2.422333333333334E+009;1.656800508499146E-001;-6.801264733076096E-002;5.342376418411732E-003;-3.744053828995675E-004;
2.422500000000000E+009;1.648747026920319E-001;-7.001271843910217E-002;5.440728273242712E-003;-4.414846480358392E-004;
2.422666666666667E+009;1.643146127462387E-001;-7.221005111932755E-002;5.320534575730562E-003;-4.636424419004470E-004;
2.422833333333334E+009;1.639075726270676E-001;-7.427941262722015E-002;5.361541174352169E-003;-3.781974082812667E-004;
2.423000000000000E+009;1.631515175104141E-001;-7.627407461404800E-002;5.239814985543490E-003;-4.416442243382335E-004;
2.423166666666667E+009;1.628037691116333E-001;-7.831046730279923E-002;5.281011108309031E-003;-4.668218025472015E-004;
2.423333333333334E+009;1.626834869384766E-001;-8.017608523368835E-002;5.185366608202457E-003;-6.172021967358887E-004;
2.423500000000000E+009;1.624995172023773E-001;-8.220676332712174E-002;5.188186652958393E-003;-7.094957982189953E-004;
2.423666666666667E+009;1.626944541931152E-001;-8.410693705081940E-002;5.197331774979830E-003;-6.344848661683500E-004;
2.423833333333334E+009;1.624806225299835E-001;-8.573202043771744E-002;5.260678008198738E-003;-7.128183497115970E-004;
2.424000000000000E+009;1.625839471817017E-001;-8.757751435041428E-002;5.165835376828909E-003;-8.182542514987290E-004;
2.424166666666667E+009;1.628087460994721E-001;-8.909173309803009E-002;5.130809731781483E-003;-8.705669897608459E-004;
2.424333333333334E+009;1.629909276962280E-001;-9.062661230564117E-002;5.201382562518120E-003;-8.248221129179001E-004;
2.424500000000000E+009;1.633489429950714E-001;-9.247598797082901E-002;5.196444690227509E-003;-8.967239409685135E-004;
2.424666666666667E+009;1.636221259832382E-001;-9.368802607059479E-002;5.204494576901197E-003;-1.011660904623568E-003;
2.424833333333334E+009;1.641575098037720E-001;-9.501438587903976E-002;5.203051026910543E-003;-1.082737115211785E-003;
2.425000000000000E+009;1.645779758691788E-001;-9.604854881763458E-002;5.245951004326344E-003;-9.988270467147231E-004;
2.425166666666667E+009;1.648533344268799E-001;-9.722363203763962E-002;5.480297375470400E-003;-1.187263173051179E-003;
2.425333333333334E+009;1.650989651679993E-001;-9.815019369125366E-002;5.562263075262308E-003;-1.175908837467432E-003;
2.425500000000000E+009;1.657001525163651E-001;-9.913910180330277E-002;5.740028340369463E-003;-1.448942814022303E-003;
2.425666666666667E+009;1.660831868648529E-001;-9.974109381437302E-002;5.748203489929438E-003;-1.550156623125076E-003;
2.425833333333334E+009;1.664174795150757E-001;-1.006890684366226E-001;5.618406459689140E-003;-1.674289931543171E-003;
2.426000000000000E+009;1.670435965061188E-001;-1.010770499706268E-001;5.771929863840342E-003;-1.888601342216134E-003;
2.426166666666667E+009;1.672491878271103E-001;-1.015325710177422E-001;5.924955941736698E-003;-2.205303171649575E-003;
2.426333333333334E+009;1.674109846353531E-001;-1.020338088274002E-001;5.929141771048307E-003;-2.445418620482087E-003;
2.426500000000000E+009;1.678101569414139E-001;-1.022373437881470E-001;5.941756069660187E-003;-2.617622260004282E-003;
2.426666666666667E+009;1.679760664701462E-001;-1.025135815143585E-001;6.007182411849499E-003;-2.784813055768609E-003;
2.426833333333334E+009;1.683411896228790E-001;-1.027680784463882E-001;5.822450388222933E-003;-3.004024736583233E-003;
2.427000000000000E+009;1.682835221290588E-001;-1.028298735618591E-001;5.971008911728859E-003;-3.285713028162718E-003;
2.427166666666667E+009;1.683990955352783E-001;-1.030250117182732E-001;5.977523513138294E-003;-3.584328340366483E-003;
2.427333333333334E+009;1.682455688714981E-001;-1.032555475831032E-001;5.719497334212065E-003;-3.688673488795757E-003;
2.427500000000000E+009;1.679012179374695E-001;-1.033735945820808E-001;5.675661843270063E-003;-4.026284907013178E-003;
2.427666666666667E+009;1.676398962736130E-001;-1.032975539565086E-001;5.633800756186247E-003;-4.131201654672623E-003;
2.427833333333334E+009;1.672963052988052E-001;-1.033880263566971E-001;5.439018830657005E-003;-4.403939470648766E-003;
