# Version 1.00
#
freq[Hz];re:Trc1_S11;im:Trc1_S11;re:Trc2_S21;im:Trc2_S21;
2.400000000000000E+009;1.567297428846359E-001;1.056683361530304E-001;3.124420298263431E-003;-9.859123965725303E-004;
2.400166666666667E+009;1.565444171428680E-001;1.034971997141838E-001;3.236094722524285E-003;-1.114382641389966E-003;
2.400333333333334E+009;1.569771915674210E-001;1.012342199683189E-001;3.241763450205326E-003;-1.480237930081785E-003;
2.400500000000000E+009;1.571136564016342E-001;9.858907759189606E-002;3.175685647875071E-003;-1.872733933851123E-003;
2.400666666666667E+009;1.573618054389954E-001;9.631204605102539E-002;3.065863624215126E-003;-2.126783831045032E-003;
2.400833333333334E+009;1.576629728078842E-001;9.355970472097397E-002;2.863150322809815E-003;-2.523321658372879E-003;
2.401000000000000E+009;1.581085324287415E-001;9.103129059076309E-002;2.873081713914871E-003;-2.835199935361743E-003;
2.401166666666667E+009;1.582901328802109E-001;8.839404582977295E-002;2.525314921513200E-003;-3.055251436308026E-003;
2.401333333333334E+009;1.587812155485153E-001;8.583255112171173E-002;2.353430492803454E-003;-3.307666163891554E-003;
2.401500000000000E+009;1.593222171068192E-001;8.300396800041199E-002;1.894371234811842E-003;-3.581173717975617E-003;
2.401666666666667E+009;1.597020924091339E-001;8.032993972301483E-002;1.717387698590756E-003;-3.599719377234578E-003;
2.401833333333334E+009;1.603556126356125E-001;7.789246737957001E-002;1.387264113873243E-003;-3.651624778285623E-003;
2.402000000000000E+009;1.611517816781998E-001;7.538267225027084E-002;1.022602315060794E-003;-3.819845849648118E-003;
2.402166666666667E+009;1.619443446397781E-001;7.297010719776154E-002;8.264959906227887E-004;-3.926391713321209E-003;
2.402333333333334E+009;1.628437936306000E-001;7.031735777854919E-002;5.718806060031056E-004;-3.675171174108982E-003;
2.402500000000000E+009;1.638904213905335E-001;6.803429126739502E-002;3.164167574141175E-004;-3.738444764167070E-003;
2.402666666666667E+009;1.650149822235107E-001;6.588429212570190E-002;6.669879076071084E-005;-3.641826100647450E-003;
2.402833333333334E+009;1.660962998867035E-001;6.360806524753571E-002;-1.901980285765603E-004;-3.483921522274613E-003;
2.403000000000000E+009;1.676854789257050E-001;6.147016957402229E-002;-3.821597492787987E-004;-3.416696330532432E-003;
2.403166666666667E+009;1.692329049110413E-001;5.941349640488625E-002;-6.532796542160213E-004;-3.317634109407663E-003;
2.403333333333334E+009;1.702769249677658E-001;5.730620026588440E-002;-7.106762495823205E-004;-3.207377390936017E-003;
2.403500000000000E+009;1.717672049999237E-001;5.539502203464508E-002;-8.885834831744432E-004;-3.245487576350570E-003;
2.403666666666667E+009;1.733194738626480E-001;5.356844887137413E-002;-9.294883348047733E-004;-3.030508058145642E-003;
2.403833333333334E+009;1.747818589210510E-001;5.197519436478615E-002;-1.002861070446670E-003;-2.957364311441779E-003;
2.404000000000000E+009;1.760788410902023E-001;5.008509010076523E-002;-1.232316833920777E-003;-2.837030682712793E-003;
2.404166666666667E+009;1.776600778102875E-001;4.876861348748207E-002;-1.312133856117725E-003;-2.887428272515535E-003;
2.404333333333334E+009;1.789276003837585E-001;4.732411727309227E-002;-1.473790616728365E-003;-2.733043860644102E-003;
2.404500000000000E+009;1.802272051572800E-001;4.574424028396606E-002;-1.734245568513870E-003;-2.578086685389280E-003;
2.404666666666667E+009;1.816053986549377E-001;4.475550353527069E-002;-1.811124035157263E-003;-2.489019883796573E-003;
2.404833333333334E+009;1.829984933137894E-001;4.368118196725845E-002;-1.913489075377584E-003;-2.372315619140863E-003;
2.405000000000000E+009;1.838435381650925E-001;4.254183545708656E-002;-9.195430902764201E-004;-9.775627404451370E-004;
2.405166666666667E+009;1.853343993425369E-001;4.234872385859489E-002;-1.845290535129607E-003;-2.748346421867609E-003;
2.405333333333334E+009;1.865997016429901E-001;4.204994440078735E-002;-2.564426278695464E-003;-2.927667926996946E-003;
2.405500000000000E+009;1.880462914705277E-001;4.139968380331993E-002;-3.282062243670225E-003;-2.691112691536546E-003;
2.405666666666667E+009;1.887263208627701E-001;4.003980755805969E-002;-1.950621022842825E-003;-8.741698547964916E-005;
2.405833333333334E+009;1.901697665452957E-001;3.989377245306969E-002;-3.673129482194781E-003;-8.821421070024371E-004;
2.406000000000000E+009;1.904158741235733E-001;3.982934728264809E-002;-2.482021693140268E-003;-8.538942784070969E-004;
2.406166666666667E+009;1.907288432121277E-001;3.900584205985069E-002;-1.633644104003906E-003;2.562582376413047E-004;
2.406333333333334E+009;1.918674409389496E-001;3.943837434053421E-002;-2.323181368410587E-003;-1.253175199963152E-003;
2.406500000000000E+009;1.926044225692749E-001;3.921334445476532E-002;-2.452069427818060E-003;-7.988360594026744E-004;
2.406666666666667E+009;1.931065469980240E-001;3.893567621707916E-002;-2.359825419262052E-003;-4.073178279213607E-004;
2.406833333333334E+009;1.934037506580353E-001;3.883586451411247E-002;-2.569176955148578E-003;-4.446901148185134E-004;
2.407000000000000E+009;1.935996115207672E-001;3.899226337671280E-002;-2.423523226752877E-003;-2.919806574936956E-004;
2.407166666666667E+009;1.940667778253555E-001;3.843253105878830E-002;-2.475892892107368E-003;-1.098403226933442E-004;
2.407333333333334E+009;1.940606981515884E-001;3.846695274114609E-002;-2.317362464964390E-003;-2.481018964317627E-005;
2.407500000000000E+009;1.938003748655319E-001;3.840434551239014E-002;-2.190835075452924E-003;1.309713697992265E-004;
2.407666666666667E+009;1.940591335296631E-001;3.803003951907158E-002;-2.153748879209161E-003;3.134084108751267E-004;
2.407833333333334E+009;1.936570852994919E-001;3.777941316366196E-002;-2.113097114488483E-003;4.488799604587257E-004;
2.408000000000000E+009;1.935212314128876E-001;3.748762235045433E-002;-2.095274394378066E-003;5.556475371122360E-004;
2.408166666666667E+009;1.931176930665970E-001;3.701445087790489E-002;-2.016693819314241E-003;6.413976079784334E-004;
2.408333333333334E+009;1.927989572286606E-001;3.640739992260933E-002;-1.639703754335642E-003;7.845637155696750E-004;
2.408500000000000E+009;1.923575103282929E-001;3.594810143113136E-002;-1.799763645976782E-003;7.837295415811241E-004;
2.408666666666667E+009;1.917619854211807E-001;3.538760542869568E-002;-1.517534605227411E-003;9.247024427168071E-004;
2.408833333333334E+009;1.913017779588699E-001;3.439881652593613E-002;-1.458124723285437E-003;1.043661381118000E-003;
2.409000000000000E+009;1.905376911163330E-001;3.348820656538010E-002;-1.167921232990921E-003;9.914742549881339E-004;
2.409166666666667E+009;1.897436827421188E-001;3.243273124098778E-002;-9.683833923190832E-004;9.577337186783552E-004;
2.409333333333334E+009;1.890514791011810E-001;3.147215396165848E-002;-8.647018112242222E-004;1.124658738262951E-003;
2.409500000000000E+009;1.881006658077240E-001;3.019419126212597E-002;-6.863130838610232E-004;1.107444637455046E-003;
2.409666666666667E+009;1.874204128980637E-001;2.883134223520756E-002;-5.834846524521709E-004;9.243848617188633E-004;
2.409833333333334E+009;1.865775138139725E-001;2.728691883385181E-002;-3.732272598426789E-004;1.028494560159743E-003;
2.410000000000000E+009;1.859068572521210E-001;2.582640387117863E-002;-2.092132053803653E-004;8.539375266991556E-004;
2.410166666666667E+009;1.850876808166504E-001;2.403298765420914E-002;-5.370713188312948E-005;8.027481380850077E-004;
2.410333333333334E+009;1.844400316476822E-001;2.236753143370152E-002;-9.349156607640907E-005;5.422318354249001E-004;
2.410500000000000E+009;1.835157424211502E-001;2.055467292666435E-002;1.406958617735654E-004;5.130053614266217E-004;
2.410666666666667E+009;1.828976571559906E-001;1.857160963118076E-002;1.017910617520101E-004;3.991379926446825E-004;
2.410833333333334E+009;1.823742091655731E-001;1.651467196643353E-002;-3.130126788164489E-005;2.355812612222508E-004;
2.411000000000000E+009;1.819356530904770E-001;1.446741074323654E-002;6.913863035151735E-005;2.518776454962790E-004;
2.411166666666667E+009;1.813819259405136E-001;1.237366069108248E-002;4.931929652229883E-005;1.298066345043480E-004;
2.411333333333334E+009;1.811738908290863E-001;1.020326837897301E-002;1.205671651405282E-004;-7.643483695574105E-005;
2.411500000000000E+009;1.807125061750412E-001;8.153103291988373E-003;-2.995805152750108E-005;-8.508077371516265E-006;
2.411666666666667E+009;1.807642132043839E-001;5.903115496039391E-003;-1.269317726837471E-004;-1.295696420129389E-004;
2.411833333333334E+009;1.806654185056686E-001;3.620870877057314E-003;-6.958342419238761E-005;-1.488353009335697E-004;
2.412000000000000E+009;1.806883811950684E-001;1.425692695192993E-003;-9.441286238143221E-005;-2.171936648664996E-004;
2.412166666666667E+009;1.809340268373489E-001;-5.443225381895900E-004;-1.737621641950682E-004;-1.829696557251737E-004;
2.412333333333334E+009;1.811600029468536E-001;-2.838242566213012E-003;-1.121971727116033E-004;-1.756756973918527E-004;
2.412500000000000E+009;1.816658377647400E-001;-5.023144651204348E-003;-2.714673755690455E-004;-2.402700920356438E-004;
2.412666666666667E+009;1.820632219314575E-001;-7.242711726576090E-003;-2.150182990590110E-004;-1.757498685037717E-004;
2.412833333333334E+009;1.826518625020981E-001;-9.433593600988388E-003;-2.781586954370141E-004;-1.443375949747860E-004;
2.413000000000000E+009;1.834337711334229E-001;-1.151965558528900E-002;-2.169496146962047E-004;-2.086663880618289E-004;
2.413166666666667E+009;1.842045336961746E-001;-1.369190495461226E-002;-7.687663310207427E-005;-2.146598126273602E-004;
2.413333333333334E+009;1.851775944232941E-001;-1.572570018470287E-002;-1.638241665204987E-004;-1.778449950506911E-004;
2.413500000000000E+009;1.859309673309326E-001;-1.758375577628613E-002;-1.899331109598279E-004;-4.165373393334448E-004;
2.413666666666667E+009;1.870836764574051E-001;-1.964948326349258E-002;-8.217194408643991E-005;-3.543136117514223E-004;
2.413833333333334E+009;1.878194957971573E-001;-2.161522954702377E-002;-1.907062105601654E-004;-3.375559754204005E-004;
2.414000000000000E+009;1.888485997915268E-001;-2.338055521249771E-002;-2.228179509984329E-004;-5.628125509247184E-004;
2.414166666666667E+009;1.900772452354431E-001;-2.488328516483307E-002;-2.424854174023494E-004;-5.890780012123287E-004;
2.414333333333334E+009;1.909725368022919E-001;-2.676508761942387E-002;-3.630768624134362E-004;-6.697640637867153E-004;
2.414500000000000E+009;1.919603943824768E-001;-2.817629277706146E-002;-4.548653669189662E-004;-7.466501556336880E-004;
2.414666666666667E+009;1.930155009031296E-001;-2.963184192776680E-002;-5.711530102416873E-004;-8.855648338794708E-004;
2.414833333333334E+009;1.940370053052902E-001;-3.099945746362209E-002;-6.478793802671135E-004;-8.759379270486534E-004;
2.415000000000000E+009;1.949368268251419E-001;-3.224619105458260E-002;-7.995907799340785E-004;-8.219195879064500E-004;
2.415166666666667E+009;1.960187852382660E-001;-3.337579593062401E-002;-8.592422236688435E-004;-9.096278226934373E-004;
2.415333333333334E+009;1.970552355051041E-001;-3.434862568974495E-002;-9.708472061902285E-004;-9.778549429029226E-004;
2.415500000000000E+009;1.978629082441330E-001;-3.502203524112701E-002;-1.350780017673969E-003;-8.311435813084245E-004;
2.415666666666667E+009;1.987843215465546E-001;-3.597351908683777E-002;-1.230204594321549E-003;-7.099721697159112E-004;
2.415833333333334E+009;1.994070112705231E-001;-3.669300302863121E-002;-1.459073740988970E-003;-5.840622470714152E-004;
2.416000000000000E+009;2.000077813863754E-001;-3.735131770372391E-002;-1.663362840190530E-003;-4.800695169251412E-004;
2.416166666666667E+009;2.005987167358398E-001;-3.799897432327271E-002;-1.853057765401900E-003;-3.758991369977593E-004;
2.416333333333334E+009;2.011039406061173E-001;-3.837180882692337E-002;-1.821156707592309E-003;-3.417717816773802E-004;
2.416500000000000E+009;2.014010697603226E-001;-3.883771225810051E-002;-2.100229728966951E-003;-2.028702583629638E-004;
2.416666666666667E+009;2.016624510288239E-001;-3.940958902239800E-002;-1.985576702281833E-003;1.567546714795753E-004;
2.416833333333334E+009;2.017327249050140E-001;-3.955318406224251E-002;-2.028823131695390E-003;3.251477319281548E-004;
2.417000000000000E+009;2.017774134874344E-001;-3.988156467676163E-002;-2.052169991657138E-003;4.401509359013289E-004;
2.417166666666667E+009;2.014881372451782E-001;-3.996361792087555E-002;-1.903613214381039E-003;6.102378829382360E-004;
2.417333333333334E+009;2.012326866388321E-001;-4.003675654530525E-002;-1.767917303368449E-003;8.139169076457620E-004;
2.417500000000000E+009;2.010815143585205E-001;-4.025529697537422E-002;-1.826285501010716E-003;1.015808316878974E-003;
2.417666666666667E+009;2.004421651363373E-001;-4.018669202923775E-002;-1.621962292119861E-003;9.590726112946868E-004;
2.417833333333334E+009;2.001356035470963E-001;-4.024595394730568E-002;-1.545897335745394E-003;1.076763146556914E-003;
2.418000000000000E+009;1.994730830192566E-001;-4.029140248894692E-002;-1.520410994999111E-003;1.148723997175694E-003;
2.418166666666667E+009;1.987288892269135E-001;-4.045430943369865E-002;-1.401207642629743E-003;1.116461702622473E-003;
2.418333333333334E+009;1.979086697101593E-001;-4.047906771302223E-002;-1.194245065562427E-003;1.107082702219486E-003;
2.418500000000000E+009;1.969720423221588E-001;-4.067675396800041E-002;-1.224375795572996E-003;1.083048759028316E-003;
2.418666666666667E+009;1.961744576692581E-001;-4.087402299046516E-002;-1.251259236596525E-003;1.288623781874776E-003;
2.418833333333334E+009;1.951328665018082E-001;-4.129100590944290E-002;-1.259520300664008E-003;1.347267068922520E-003;
2.419000000000000E+009;1.940313130617142E-001;-4.163543879985809E-002;-1.259725773707032E-003;1.398204476572573E-003;
2.419166666666667E+009;1.929971873760223E-001;-4.206832125782967E-002;-1.219068421050906E-003;1.473105512559414E-003;
2.419333333333334E+009;1.917105168104172E-001;-4.264528676867485E-002;-1.116849482059479E-003;1.541433157399297E-003;
2.419500000000000E+009;1.904811412096024E-001;-4.336204007267952E-002;-1.081689959391952E-003;1.805458683520556E-003;
2.419666666666667E+009;1.889975219964981E-001;-4.427189752459526E-002;-1.038974616676569E-003;1.813403563573957E-003;
2.419833333333334E+009;1.876152455806732E-001;-4.488020017743111E-002;-9.894834365695715E-004;2.032136078923941E-003;
2.420000000000000E+009;1.862720996141434E-001;-4.590795189142227E-002;-7.002289639785886E-004;1.998903695493937E-003;
2.420166666666667E+009;1.848660558462143E-001;-4.696212708950043E-002;-7.283386075869203E-004;2.189584076404572E-003;
2.420333333333334E+009;1.835212707519531E-001;-4.803422093391419E-002;-3.907916543539614E-004;2.241426147520542E-003;
2.420500000000000E+009;1.820521652698517E-001;-4.926416277885437E-002;-4.189149767626077E-004;2.339321654289961E-003;
2.420666666666667E+009;1.807809323072434E-001;-5.040265247225761E-002;-1.143437693826854E-004;2.304991940036416E-003;
2.420833333333334E+009;1.794004738330841E-001;-5.187202990055084E-002;1.504961837781593E-004;2.359169768169522E-003;
2.421000000000000E+009;1.782527565956116E-001;-5.358016863465309E-002;4.526068223640323E-004;2.388949040323496E-003;
2.421166666666667E+009;1.768059879541397E-001;-5.517999827861786E-002;7.119541405700147E-004;2.365150721743703E-003;
2.421333333333334E+009;1.752737462520599E-001;-5.668740347027779E-002;9.382287389598787E-004;2.195499371737242E-003;
2.421500000000000E+009;1.742680072784424E-001;-5.842630565166473E-002;1.111625228077173E-003;2.177768154069781E-003;
2.421666666666667E+009;1.730427592992783E-001;-6.002982333302498E-002;1.196337398141623E-003;1.877201022580266E-003;
2.421833333333334E+009;1.720450371503830E-001;-6.183803081512451E-002;1.463435124605894E-003;1.828426029533148E-003;
2.422000000000000E+009;1.709292083978653E-001;-6.353347748517990E-002;1.582769327796996E-003;1.616495545022190E-003;
2.422166666666667E+009;1.700781732797623E-001;-6.549572199583054E-002;1.646041986532509E-003;1.398321473971009E-003;
2.422333333333334E+009;1.694232821464539E-001;-6.735970824956894E-002;1.679074484854937E-003;1.137605402618647E-003;
2.422500000000000E+009;1.686470210552216E-001;-6.900234520435333E-002;1.604804769158363E-003;9.526336798444390E-004;
2.422666666666667E+009;1.679465323686600E-001;-7.077024877071381E-002;1.883391989395022E-003;6.444318569265306E-004;
2.422833333333334E+009;1.672946810722351E-001;-7.277521491050720E-002;1.729932962916791E-003;4.577756917569786E-004;
2.423000000000000E+009;1.668790131807327E-001;-7.471670955419540E-002;1.574738416820765E-003;3.489578375592828E-004;
2.423166666666667E+009;1.665108352899551E-001;-7.637780904769898E-002;1.530374865978956E-003;1.296241825912148E-004;
2.423333333333334E+009;1.661755144596100E-001;-7.823590934276581E-002;1.527294982224703E-003;-7.926925718493294E-006;
2.423500000000000E+009;1.660874933004379E-001;-7.995045185089111E-002;1.500721904449165E-003;-1.146475187852047E-004;
2.423666666666667E+009;1.659726947546005E-001;-8.165984600782394E-002;1.447171322070062E-003;-3.375404339749366E-004;
2.423833333333334E+009;1.658771336078644E-001;-8.323279768228531E-002;1.268037944100797E-003;-3.485366760287434E-004;
2.424000000000000E+009;1.658187061548233E-001;-8.496939390897751E-002;1.193958916701376E-003;-5.214351112954319E-004;
2.424166666666667E+009;1.659773290157318E-001;-8.641017228364945E-002;1.009241794236004E-003;-7.142694084905088E-004;
2.424333333333334E+009;1.660813689231873E-001;-8.782672137022018E-002;8.019062224775553E-004;-7.803640328347683E-004;
2.424500000000000E+009;1.662804931402206E-001;-8.928722888231278E-002;8.701120386831462E-004;-8.629654766991735E-004;
2.424666666666667E+009;1.662658303976059E-001;-9.070765227079392E-002;6.769551546312869E-004;-9.479064028710127E-004;
2.424833333333334E+009;1.668383926153183E-001;-9.195783734321594E-002;5.296647432260215E-004;-9.013788076117635E-004;
2.425000000000000E+009;1.668546646833420E-001;-9.316824376583099E-002;2.915359800681472E-004;-9.641149081289768E-004;
2.425166666666667E+009;1.671868711709976E-001;-9.418911486864090E-002;1.956559572136030E-004;-9.318700758740306E-004;
2.425333333333334E+009;1.672313809394836E-001;-9.521928429603577E-002;2.069476067845244E-005;-1.087492564693093E-003;
2.425500000000000E+009;1.675636172294617E-001;-9.615810215473175E-002;-1.654448424233124E-004;-1.057406654581428E-003;
2.425666666666667E+009;1.679477393627167E-001;-9.699784964323044E-002;-3.506697539705783E-004;-8.918910752981901E-004;
2.425833333333334E+009;1.681121140718460E-001;-9.788197278976440E-002;-5.449640448205173E-004;-8.178874850273132E-004;
2.426000000000000E+009;1.684116125106812E-001;-9.842512756586075E-002;-6.790155894123018E-004;-7.205987349152565E-004;
2.426166666666667E+009;1.686162501573563E-001;-9.904304146766663E-002;-9.214177262037993E-004;-5.684026982635260E-004;
2.426333333333334E+009;1.685699671506882E-001;-9.967024624347687E-002;-8.574211969971657E-004;-5.209575756452978E-004;
2.426500000000000E+009;1.688659191131592E-001;-9.994238615036011E-002;-9.905805345624685E-004;-3.111309197265655E-004;
2.426666666666667E+009;1.690606921911240E-001;-1.005689874291420E-001;-1.019343268126249E-003;-2.187194186262786E-004;
2.426833333333334E+009;1.692016571760178E-001;-1.009291857481003E-001;-1.148837734945118E-003;-1.414716680301353E-004;
2.427000000000000E+009;1.691818833351135E-001;-1.013009473681450E-001;-9.515414130873978E-004;1.722494198475033E-004;
2.427166666666667E+009;1.691748797893524E-001;-1.015749722719193E-001;-1.070822938345373E-003;1.375157298753038E-004;
2.427333333333334E+009;1.690088957548142E-001;-1.021049171686173E-001;-9.474254329688847E-004;1.990035962080583E-004;
2.427500000000000E+009;1.687178462743759E-001;-1.024556905031204E-001;-8.786515099927783E-004;4.773225518874824E-004;
2.427666666666667E+009;1.684625595808029E-001;-1.026567667722702E-001;-1.129211043007672E-003;4.195197252556682E-004;
