# Version 1.00
#
freq[Hz];re:Trc1_S11;im:Trc1_S11;re:Trc2_S21;im:Trc2_S21;
2.400000000000000E+009;1.570040285587311E-001;1.061332300305367E-001;3.120220964774489E-003;-1.066922326572239E-003;
2.400166666666667E+009;1.568633764982224E-001;1.037788391113281E-001;3.227933775633574E-003;-1.328697893768549E-003;
2.400333333333334E+009;1.572728902101517E-001;1.017348691821098E-001;3.187576541677117E-003;-1.502389903180301E-003;
2.400500000000000E+009;1.574157625436783E-001;9.903323650360107E-002;3.212744835764170E-003;-1.927281497046351E-003;
2.400666666666667E+009;1.578836441040039E-001;9.663762897253037E-002;3.199449274688959E-003;-2.315151505172253E-003;
2.400833333333334E+009;1.580547988414764E-001;9.397212415933609E-002;2.846470801159740E-003;-2.689482644200325E-003;
2.401000000000000E+009;1.584146916866303E-001;9.131392091512680E-002;2.705247839912772E-003;-2.839880064129829E-003;
2.401166666666667E+009;1.587742120027542E-001;8.866544812917709E-002;2.649016445502639E-003;-3.226299770176411E-003;
2.401333333333334E+009;1.591203361749649E-001;8.611720055341721E-002;2.408499130979180E-003;-3.484780434519053E-003;
2.401500000000000E+009;1.597310155630112E-001;8.343986421823502E-002;2.037003170698881E-003;-3.582376986742020E-003;
2.401666666666667E+009;1.601446419954300E-001;8.074448257684708E-002;1.642982591874898E-003;-3.692052792757750E-003;
2.401833333333334E+009;1.606243848800659E-001;7.824262976646423E-002;1.211195951327682E-003;-3.805370768532157E-003;
2.402000000000000E+009;1.614726781845093E-001;7.568920403718948E-002;1.202608342282474E-003;-3.740614512935281E-003;
2.402166666666667E+009;1.622435301542282E-001;7.325655966997147E-002;6.702538812533021E-004;-3.878839081153274E-003;
2.402333333333334E+009;1.632026582956314E-001;7.079625874757767E-002;5.055377259850502E-004;-3.849009983241558E-003;
2.402500000000000E+009;1.643141061067581E-001;6.837443262338638E-002;3.163931542076170E-004;-3.714771009981632E-003;
2.402666666666667E+009;1.652014255523682E-001;6.602703779935837E-002;-1.188183159683831E-004;-3.779701888561249E-003;
2.402833333333334E+009;1.664757877588272E-001;6.368866562843323E-002;-1.989295269595459E-004;-3.642951836809516E-003;
2.403000000000000E+009;1.678125411272049E-001;6.160001084208489E-002;-4.058747726958245E-004;-3.320956602692604E-003;
2.403166666666667E+009;1.692019104957581E-001;5.961463600397110E-002;-6.085537024773657E-004;-3.372432431206107E-003;
2.403333333333334E+009;1.705918610095978E-001;5.751367658376694E-002;-7.888142718002200E-004;-3.260050434619188E-003;
2.403500000000000E+009;1.720564812421799E-001;5.565387383103371E-002;-1.116626313887537E-003;-3.231420181691647E-003;
2.403666666666667E+009;1.737212985754013E-001;5.383413285017014E-002;-1.079601584933698E-003;-3.059662412852049E-003;
2.403833333333334E+009;1.749746203422546E-001;5.222465470433235E-002;-1.152537064626813E-003;-3.021523822098970E-003;
2.404000000000000E+009;1.763136386871338E-001;5.032781139016151E-002;-1.238041557371616E-003;-2.851115074008703E-003;
2.404166666666667E+009;1.778713464736939E-001;4.907009750604630E-002;-1.581175369210541E-003;-2.910327631980181E-003;
2.404333333333334E+009;1.792313456535339E-001;4.748291894793510E-002;-1.660534995608032E-003;-2.767597325146198E-003;
2.404500000000000E+009;1.805662065744400E-001;4.607656225562096E-002;-1.880212803371251E-003;-2.721283817663789E-003;
2.404666666666667E+009;1.820658445358276E-001;4.489038512110710E-002;-1.958700595423579E-003;-2.450170926749706E-003;
2.404833333333334E+009;1.835576891899109E-001;4.364376142621040E-002;-2.045491011813283E-003;-2.356795826926827E-003;
2.405000000000000E+009;1.844434589147568E-001;4.287361726164818E-002;-2.178492024540901E-003;-2.258482621982694E-003;
2.405166666666667E+009;1.857050955295563E-001;4.230341687798500E-002;-2.237903885543346E-003;-2.078506397083402E-003;
2.405333333333334E+009;1.868516504764557E-001;4.167222976684570E-002;-2.285862574353814E-003;-1.915542175993323E-003;
2.405500000000000E+009;1.880553662776947E-001;4.109940677881241E-002;-2.428141189739108E-003;-1.760048209689558E-003;
2.405666666666667E+009;1.888946890830994E-001;4.048494622111321E-002;-2.383477520197630E-003;-1.703815883956850E-003;
2.405833333333334E+009;1.900956779718399E-001;4.006859287619591E-002;-2.607079222798348E-003;-1.411516685038805E-003;
2.406000000000000E+009;1.907872855663300E-001;3.979572281241417E-002;-2.550227334722877E-003;-1.203462714329362E-003;
2.406166666666667E+009;1.915217936038971E-001;3.931653872132301E-002;-2.673701616004109E-003;-1.100904541090131E-003;
2.406333333333334E+009;1.923777312040329E-001;3.922007232904434E-002;-2.798021771013737E-003;-9.209956624545157E-004;
2.406500000000000E+009;1.930315345525742E-001;3.921611979603767E-002;-2.605823334306479E-003;-6.981101469136775E-004;
2.406666666666667E+009;1.935432851314545E-001;3.907726332545281E-002;-2.439800417050719E-003;-6.149009568616748E-004;
2.406833333333334E+009;1.940225064754486E-001;3.877180069684982E-002;-2.480134367942810E-003;-2.293141878908500E-004;
2.407000000000000E+009;1.941733062267304E-001;3.889751434326172E-002;-2.532943850383163E-003;-3.084834897890687E-004;
2.407166666666667E+009;1.945247203111649E-001;3.837968409061432E-002;-2.470426028594375E-003;-4.892325887340121E-005;
2.407333333333334E+009;1.945168375968933E-001;3.840770944952965E-002;-2.260719891637564E-003;8.033402991713956E-005;
2.407500000000000E+009;1.943516284227371E-001;3.811142966151238E-002;-2.346120541915298E-003;1.683959999354556E-004;
2.407666666666667E+009;1.944745182991028E-001;3.788383305072784E-002;-2.359171165153384E-003;4.199649847578257E-004;
2.407833333333334E+009;1.939752101898193E-001;3.767456486821175E-002;-2.070457208901644E-003;5.739116459153593E-004;
2.408000000000000E+009;1.939857155084610E-001;3.728896006941795E-002;-1.956304302439094E-003;6.600736523978412E-004;
2.408166666666667E+009;1.935152858495712E-001;3.683355823159218E-002;-1.743038068525493E-003;9.031089721247554E-004;
2.408333333333334E+009;1.930951029062271E-001;3.619237616658211E-002;-1.769269467331469E-003;9.052184759639204E-004;
2.408500000000000E+009;1.925582587718964E-001;3.579442203044891E-002;-1.657549757510424E-003;9.426411706954241E-004;
2.408666666666667E+009;1.923048049211502E-001;3.507989272475243E-002;-1.421061228029430E-003;1.001970726065338E-003;
2.408833333333334E+009;1.916369944810867E-001;3.422038629651070E-002;-1.369416830129921E-003;1.207705237902701E-003;
2.409000000000000E+009;1.908000707626343E-001;3.318977728486061E-002;-1.228756038472056E-003;1.074128434993327E-003;
2.409166666666667E+009;1.901145577430725E-001;3.224958851933479E-002;-1.133738784119487E-003;1.133393612690270E-003;
2.409333333333334E+009;1.895759850740433E-001;3.124056197702885E-002;-8.039001841098070E-004;1.185864908620715E-003;
2.409500000000000E+009;1.885678768157959E-001;2.999575994908810E-002;-7.481346838176251E-004;1.267345622181892E-003;
2.409666666666667E+009;1.877447962760925E-001;2.846574224531651E-002;-4.293714882805944E-004;1.041719689965248E-003;
2.409833333333334E+009;1.869244873523712E-001;2.704929001629353E-002;-4.173873167019337E-004;9.382920688949525E-004;
2.410000000000000E+009;1.862939596176148E-001;2.543959021568298E-002;-3.053838154301047E-004;9.468944626860321E-004;
2.410166666666667E+009;1.854810416698456E-001;2.374164946377277E-002;-2.101430291077122E-004;8.885639254003763E-004;
2.410333333333334E+009;1.846913546323776E-001;2.207622863352299E-002;-1.209824622492306E-004;7.138693472370505E-004;
2.410500000000000E+009;1.839501112699509E-001;2.021380513906479E-002;-6.642931839451194E-005;6.235970067791641E-004;
2.410666666666667E+009;1.833296567201614E-001;1.822505146265030E-002;9.034285903908312E-005;5.979903507977724E-004;
2.410833333333334E+009;1.829299032688141E-001;1.629081927239895E-002;3.300539538031444E-005;4.809830570593476E-004;
2.411000000000000E+009;1.822775453329086E-001;1.424755994230509E-002;4.444632213562727E-005;2.819213259499520E-004;
2.411166666666667E+009;1.818853318691254E-001;1.222915668040514E-002;2.637889119796455E-004;2.235357678728178E-004;
2.411333333333334E+009;1.815033704042435E-001;9.872096590697765E-003;-2.415350172668695E-005;5.281933772494085E-005;
2.411500000000000E+009;1.812336295843124E-001;7.622021716088057E-003;7.289903442142531E-005;5.024953497922979E-005;
2.411666666666667E+009;1.811116337776184E-001;5.612910259515047E-003;-2.543541313571041E-006;-4.458544572116807E-005;
2.411833333333334E+009;1.808723211288452E-001;3.325520548969507E-003;-1.767528374330141E-005;-8.439940575044602E-005;
2.412000000000000E+009;1.811554133892059E-001;9.554515127092600E-004;-1.232526119565591E-004;-1.339670325251063E-005;
2.412166666666667E+009;1.813251078128815E-001;-8.582993177697063E-004;-6.593927537323907E-005;-8.280605106847361E-005;
2.412333333333334E+009;1.814304143190384E-001;-3.295864211395383E-003;-1.943113165907562E-004;-2.081434795400128E-004;
2.412500000000000E+009;1.817454099655151E-001;-5.322425626218319E-003;-2.264673530589789E-004;-6.376681267283857E-005;
2.412666666666667E+009;1.823860257863998E-001;-7.744404021650553E-003;-1.156593716586940E-004;-1.816452568164095E-004;
2.412833333333334E+009;1.830023378133774E-001;-9.815019555389881E-003;-1.778092118911445E-004;-1.892820146167651E-004;
2.413000000000000E+009;1.838257014751434E-001;-1.201311778277159E-002;-7.750670920358971E-005;-1.274240639759228E-004;
2.413166666666667E+009;1.843346357345581E-001;-1.387943793088198E-002;-1.763789332471788E-004;-2.157165290554985E-004;
2.413333333333334E+009;1.852836459875107E-001;-1.609714515507221E-002;-2.170477673644200E-004;-2.240839239675552E-004;
2.413500000000000E+009;1.861162334680557E-001;-1.813252456486225E-002;-1.326691271970049E-004;-2.251671248814091E-004;
2.413666666666667E+009;1.870758086442947E-001;-2.018655464053154E-002;-1.420871121808887E-004;-3.686672716867179E-004;
2.413833333333334E+009;1.879971623420715E-001;-2.189493924379349E-002;-2.155973197659478E-004;-4.604989080689848E-004;
2.414000000000000E+009;1.889346688985825E-001;-2.372231148183346E-002;-6.225004472071305E-005;-4.908196860924363E-004;
2.414166666666667E+009;1.900192499160767E-001;-2.550729922950268E-002;-2.835628692992032E-004;-5.852569593116641E-004;
2.414333333333334E+009;1.908956766128540E-001;-2.727552130818367E-002;-2.770833380054683E-004;-6.417265976779163E-004;
2.414500000000000E+009;1.920139342546463E-001;-2.860241010785103E-002;-4.040406493004412E-004;-7.347909850068390E-004;
2.414666666666667E+009;1.930263489484787E-001;-2.996266260743141E-002;-5.801700754091144E-004;-8.872279431670904E-004;
2.414833333333334E+009;1.939588785171509E-001;-3.132857009768486E-002;-5.336993490345776E-004;-8.156190742738545E-004;
2.415000000000000E+009;1.948254108428955E-001;-3.260971605777741E-002;-5.974503583274782E-004;-8.597697596997023E-004;
2.415166666666667E+009;1.959110647439957E-001;-3.382469713687897E-002;-7.745663169771433E-004;-7.878793403506279E-004;
2.415333333333334E+009;1.968221664428711E-001;-3.470554947853088E-002;-9.710166486911476E-004;-8.001594687812030E-004;
2.415500000000000E+009;1.977700293064117E-001;-3.548950701951981E-002;-1.089116907678545E-003;-8.268235251307488E-004;
2.415666666666667E+009;1.986661702394486E-001;-3.627829998731613E-002;-1.398191670887172E-003;-7.170719909481704E-004;
2.415833333333334E+009;1.993601173162460E-001;-3.700320050120354E-002;-1.483079628087580E-003;-7.583526894450188E-004;
2.416000000000000E+009;1.999466121196747E-001;-3.774122893810272E-002;-1.559794065542519E-003;-5.292215500958264E-004;
2.416166666666667E+009;2.005515098571777E-001;-3.838138654828072E-002;-1.549571636132896E-003;-4.401854821480811E-004;
2.416333333333334E+009;2.011415213346481E-001;-3.876820206642151E-002;-1.865103724412620E-003;-4.071601433679462E-004;
2.416500000000000E+009;2.013580799102783E-001;-3.927784785628319E-002;-1.895853201858699E-003;-9.430176578462124E-005;
2.416666666666667E+009;2.015166282653809E-001;-3.979016095399857E-002;-1.988253323361278E-003;1.488089492340805E-005;
2.416833333333334E+009;2.016142010688782E-001;-3.987409919500351E-002;-1.855667214840651E-003;3.058502916246653E-004;
2.417000000000000E+009;2.016637325286865E-001;-4.027901217341423E-002;-1.931371283717454E-003;6.097394507378340E-004;
2.417166666666667E+009;2.013577669858933E-001;-4.042664542794228E-002;-1.958400709554553E-003;7.041327771730721E-004;
2.417333333333334E+009;2.009918838739395E-001;-4.043396189808846E-002;-1.756725017912686E-003;6.759280222468078E-004;
2.417500000000000E+009;2.008014917373657E-001;-4.066041857004166E-002;-1.681866589933634E-003;8.690760587342084E-004;
2.417666666666667E+009;2.002869695425034E-001;-4.067532345652580E-002;-1.562411198392510E-003;8.768630214035511E-004;
2.417833333333334E+009;1.998262256383896E-001;-4.075081273913384E-002;-1.463612425141037E-003;9.864384774118662E-004;
2.418000000000000E+009;1.992707848548889E-001;-4.078754782676697E-002;-1.421241788193584E-003;1.128138159401715E-003;
2.418166666666667E+009;1.984726190567017E-001;-4.087169468402863E-002;-1.361910137347877E-003;1.129194162786007E-003;
2.418333333333334E+009;1.976100355386734E-001;-4.085927829146385E-002;-1.330373925156891E-003;1.091156620532274E-003;
2.418500000000000E+009;1.968040466308594E-001;-4.110843315720558E-002;-1.305883051827550E-003;1.241350197233260E-003;
2.418666666666667E+009;1.958889365196228E-001;-4.131021723151207E-002;-1.172169460915029E-003;1.229933346621692E-003;
2.418833333333334E+009;1.947324723005295E-001;-4.158544167876244E-002;-1.248036744073033E-003;1.224986743181944E-003;
2.419000000000000E+009;1.937308162450790E-001;-4.192316532135010E-002;-1.116807572543621E-003;1.394774881191552E-003;
2.419166666666667E+009;1.926307827234268E-001;-4.240829125046730E-002;-1.185545348562300E-003;1.448005903512240E-003;
2.419333333333334E+009;1.914125084877014E-001;-4.310354962944984E-002;-1.112979371100664E-003;1.607558340765536E-003;
2.419500000000000E+009;1.902024894952774E-001;-4.368351399898529E-002;-1.122016226872802E-003;1.690969686023891E-003;
2.419666666666667E+009;1.888491362333298E-001;-4.443920403718948E-002;-9.397299727424979E-004;1.805770443752408E-003;
2.419833333333334E+009;1.873308867216110E-001;-4.510526359081268E-002;-7.699725101701915E-004;1.888951635919511E-003;
2.420000000000000E+009;1.860537827014923E-001;-4.612378403544426E-002;-6.621206994168460E-004;1.964258262887597E-003;
2.420166666666667E+009;1.846637874841690E-001;-4.714979603886604E-002;-7.161104003898799E-004;2.051999093964696E-003;
2.420333333333334E+009;1.831543147563934E-001;-4.830536246299744E-002;-4.746932245325297E-004;2.261323388665915E-003;
2.420500000000000E+009;1.817912757396698E-001;-4.972640797495842E-002;-3.908761718776077E-004;2.330073853954673E-003;
2.420666666666667E+009;1.803732663393021E-001;-5.069043859839439E-002;-1.314905675826594E-004;2.376344753429294E-003;
2.420833333333334E+009;1.789308041334152E-001;-5.221459642052651E-002;2.151430089725182E-004;2.345348009839654E-003;
2.421000000000000E+009;1.777608096599579E-001;-5.377021431922913E-002;2.809821744449437E-004;2.285188995301724E-003;
2.421166666666667E+009;1.764358729124069E-001;-5.535903200507164E-002;6.125887157395482E-004;2.279815962538123E-003;
2.421333333333334E+009;1.748991012573242E-001;-5.680024996399880E-002;8.173400419764221E-004;2.279130043461919E-003;
2.421500000000000E+009;1.737182438373566E-001;-5.859229341149330E-002;1.048259902745485E-003;2.114532282575965E-003;
2.421666666666667E+009;1.727368533611298E-001;-6.015818193554878E-002;1.205523847602308E-003;1.896930043585599E-003;
2.421833333333334E+009;1.716069281101227E-001;-6.201377138495445E-002;1.483429339714348E-003;1.691185403615236E-003;
2.422000000000000E+009;1.706087440252304E-001;-6.365803629159927E-002;1.378741697408259E-003;1.486331108026207E-003;
2.422166666666667E+009;1.697589010000229E-001;-6.556627154350281E-002;1.568402862176299E-003;1.338251517154276E-003;
2.422333333333334E+009;1.687763631343842E-001;-6.748061627149582E-002;1.706160837784410E-003;1.126432442106307E-003;
2.422500000000000E+009;1.681986153125763E-001;-6.912744045257568E-002;1.685915281996131E-003;9.004425373859704E-004;
2.422666666666667E+009;1.673982590436935E-001;-7.102453708648682E-002;1.627287594601512E-003;7.187774754129350E-004;
2.422833333333334E+009;1.669214963912964E-001;-7.298494130373001E-002;1.673331833444536E-003;5.397049244493246E-004;
2.423000000000000E+009;1.664236336946487E-001;-7.465952634811401E-002;1.610786770470440E-003;2.522418799344450E-004;
2.423166666666667E+009;1.661041527986527E-001;-7.635202258825302E-002;1.766064320690930E-003;1.530941808596253E-004;
2.423333333333334E+009;1.658868789672852E-001;-7.820520550012589E-002;1.424391753971577E-003;9.666322148405016E-005;
2.423500000000000E+009;1.655866354703903E-001;-7.971058785915375E-002;1.452459720894694E-003;-2.047966117970645E-004;
2.423666666666667E+009;1.657495349645615E-001;-8.161244541406632E-002;1.410723780281842E-003;-1.232313079526648E-004;
2.423833333333334E+009;1.654774248600006E-001;-8.317785710096359E-002;1.175155281089246E-003;-4.215614462736994E-004;
2.424000000000000E+009;1.655267179012299E-001;-8.476065099239349E-002;1.125216600485146E-003;-5.502322455868125E-004;
2.424166666666667E+009;1.654532551765442E-001;-8.616251498460770E-002;1.038244576193392E-003;-6.553633138537407E-004;
2.424333333333334E+009;1.655911207199097E-001;-8.755677193403244E-002;7.689939229749143E-004;-5.822789389640093E-004;
2.424500000000000E+009;1.659131199121475E-001;-8.925771713256836E-002;8.128348854370415E-004;-7.675145752727985E-004;
2.424666666666667E+009;1.660315394401550E-001;-9.057545661926270E-002;6.845991592854261E-004;-8.634926052764058E-004;
2.424833333333334E+009;1.664318889379501E-001;-9.182728826999664E-002;5.660550086759031E-004;-9.231521398760378E-004;
2.425000000000000E+009;1.666354984045029E-001;-9.295948594808579E-002;2.135056565748528E-004;-1.156727550551295E-003;
2.425166666666667E+009;1.669362336397171E-001;-9.398832917213440E-002;1.375702267978340E-004;-9.552605915814638E-004;
2.425333333333334E+009;1.668895930051804E-001;-9.495161473751068E-002;-5.348804916138761E-005;-1.082731178030372E-003;
2.425500000000000E+009;1.673433333635330E-001;-9.602031111717224E-002;-2.599567233119160E-004;-9.140670881606638E-004;
2.425666666666667E+009;1.676897853612900E-001;-9.681248664855957E-002;-4.391321854200214E-004;-9.132151608355343E-004;
2.425833333333334E+009;1.678378283977509E-001;-9.760887175798416E-002;-5.349967977963388E-004;-7.133691688068211E-004;
2.426000000000000E+009;1.681838035583496E-001;-9.808637201786041E-002;-8.114328375086188E-004;-7.086125551722944E-004;
2.426166666666667E+009;1.683984547853470E-001;-9.869143366813660E-002;-7.677107350900769E-004;-6.400252459570766E-004;
2.426333333333334E+009;1.683828532695770E-001;-9.930627048015595E-002;-9.643399971537292E-004;-4.438229370862246E-004;
2.426500000000000E+009;1.687190830707550E-001;-9.976249933242798E-002;-9.053081157617271E-004;-3.112728300038725E-004;
2.426666666666667E+009;1.689462363719940E-001;-1.001771315932274E-001;-9.837960824370384E-004;-1.958585198735818E-004;
2.426833333333334E+009;1.691220551729202E-001;-1.006994247436523E-001;-1.025235396809876E-003;1.847605562943500E-005;
2.427000000000000E+009;1.689889580011368E-001;-1.010796204209328E-001;-1.063622068613768E-003;1.038409172906540E-004;
2.427166666666667E+009;1.690578460693359E-001;-1.014518439769745E-001;-1.002231379970908E-003;3.231112787034363E-004;
2.427333333333334E+009;1.688981205224991E-001;-1.018444746732712E-001;-1.137665822170675E-003;4.225269658491015E-004;
2.427500000000000E+009;1.687105298042297E-001;-1.022044420242310E-001;-1.076718210242689E-003;3.798547841142863E-004;
2.427666666666667E+009;1.684457510709763E-001;-1.024087294936180E-001;-9.797384263947606E-004;5.222088657319546E-004;
