# Version 1.00
#
freq[Hz];re:Trc1_S11;im:Trc1_S11;re:Trc2_S21;im:Trc2_S21;
2.400000000000000E+009;1.567015051841736E-001;1.062101349234581E-001;3.067943500354886E-003;-9.244159446097910E-004;
2.400166666666667E+009;1.568860560655594E-001;1.038984283804894E-001;3.099656198173761E-003;-1.327573438175023E-003;
2.400333333333334E+009;1.570824980735779E-001;1.016911566257477E-001;3.170219250023365E-003;-1.563008641824126E-003;
2.400500000000000E+009;1.572486609220505E-001;9.920468181371689E-002;3.263527061790228E-003;-1.912712818011642E-003;
2.400666666666667E+009;1.576223075389862E-001;9.690812230110169E-002;3.124605165794492E-003;-2.116590505465865E-003;
2.400833333333334E+009;1.577876061201096E-001;9.428541362285614E-002;2.916742814704776E-003;-2.486095065250993E-003;
2.401000000000000E+009;1.582619100809097E-001;9.148138016462326E-002;2.733746077865362E-003;-2.884073182940483E-003;
2.401166666666667E+009;1.584202200174332E-001;8.894960582256317E-002;2.474880311638117E-003;-3.135059494525194E-003;
2.401333333333334E+009;1.589945852756500E-001;8.632361143827438E-002;2.302678767591715E-003;-3.351118182763457E-003;
2.401500000000000E+009;1.595591157674789E-001;8.343155682086945E-002;1.950039528310299E-003;-3.541230689734221E-003;
2.401666666666667E+009;1.600569784641266E-001;8.080796152353287E-002;1.569019048474729E-003;-3.682734910398722E-003;
2.401833333333334E+009;1.606181859970093E-001;7.831145823001862E-002;1.160169253125787E-003;-3.678726032376289E-003;
2.402000000000000E+009;1.612797528505325E-001;7.565559446811676E-002;8.976899553090334E-004;-3.752842312678695E-003;
2.402166666666667E+009;1.621830016374588E-001;7.342329621315002E-002;7.661681738682091E-004;-3.841613419353962E-003;
2.402333333333334E+009;1.630361378192902E-001;7.092463970184326E-002;5.353795713745058E-004;-3.769079921767116E-003;
2.402500000000000E+009;1.641999036073685E-001;6.859371066093445E-002;2.316600148333237E-004;-3.665000665932894E-003;
2.402666666666667E+009;1.651588082313538E-001;6.636425852775574E-002;-5.958236943115480E-005;-3.734487341716886E-003;
2.402833333333334E+009;1.665141135454178E-001;6.389112025499344E-002;-2.858090156223625E-004;-3.530869726091623E-003;
2.403000000000000E+009;1.676981449127197E-001;6.186438351869583E-002;-4.732043598778546E-004;-3.433118108659983E-003;
2.403166666666667E+009;1.692448556423187E-001;5.971923470497131E-002;-4.671078932005912E-004;-3.494322765618563E-003;
2.403333333333334E+009;1.705740988254547E-001;5.763240158557892E-002;-8.468333398923278E-004;-3.292025765404105E-003;
2.403500000000000E+009;1.720094233751297E-001;5.568998679518700E-002;-9.782338747754693E-004;-3.243552520871162E-003;
2.403666666666667E+009;1.734742522239685E-001;5.408504977822304E-002;-1.112483092583716E-003;-3.218778176233172E-003;
2.403833333333334E+009;1.749407798051834E-001;5.219138041138649E-002;-1.032878644764423E-003;-2.930347342044115E-003;
2.404000000000000E+009;1.762508898973465E-001;5.045646429061890E-002;-1.229709829203785E-003;-2.926777582615614E-003;
2.404166666666667E+009;1.778537482023239E-001;4.902662336826325E-002;-1.335011445917189E-003;-2.844913396984339E-003;
2.404333333333334E+009;1.792498528957367E-001;4.753195121884346E-002;-1.694200211204588E-003;-2.751822117716074E-003;
2.404500000000000E+009;1.805876046419144E-001;4.602850973606110E-002;-1.764911459758878E-003;-2.465142169967294E-003;
2.404666666666667E+009;1.818637102842331E-001;4.516490548849106E-002;-1.733257202431560E-003;-2.411180641502142E-003;
2.404833333333334E+009;1.834155917167664E-001;4.384547099471092E-002;-1.906585763208568E-003;-2.421705750748515E-003;
2.405000000000000E+009;1.843858808279038E-001;4.309690743684769E-002;-2.088849199935794E-003;-2.343544270843267E-003;
2.405166666666667E+009;1.855830848217011E-001;4.237568005919457E-002;-2.220876282081008E-003;-2.160597825422883E-003;
2.405333333333334E+009;1.867851465940476E-001;4.172686859965324E-002;-2.262056805193424E-003;-1.880689756944776E-003;
2.405500000000000E+009;1.879962831735611E-001;4.119298607110977E-002;-2.343666274100542E-003;-1.631569466553628E-003;
2.405666666666667E+009;1.889771223068237E-001;4.064853861927986E-002;-2.323355991393328E-003;-1.526228967122734E-003;
2.405833333333334E+009;1.900751739740372E-001;4.037899896502495E-002;-2.335085533559322E-003;-1.404566690325737E-003;
2.406000000000000E+009;1.909669488668442E-001;3.995930403470993E-002;-2.513836603611708E-003;-1.353029278106988E-003;
2.406166666666667E+009;1.917094141244888E-001;3.964120894670487E-002;-2.400790341198444E-003;-1.088893506675959E-003;
2.406333333333334E+009;1.924589872360230E-001;3.945561125874519E-002;-2.637332072481513E-003;-8.999980636872351E-004;
2.406500000000000E+009;1.929619312286377E-001;3.928610309958458E-002;-2.548566553741694E-003;-8.060527616180480E-004;
2.406666666666667E+009;1.934552639722824E-001;3.912665694952011E-002;-2.406517276540399E-003;-7.098915521055460E-004;
2.406833333333334E+009;1.938999146223068E-001;3.894690796732903E-002;-2.484900876879692E-003;-4.686517931986600E-004;
2.407000000000000E+009;1.941203325986862E-001;3.891577571630478E-002;-2.549688331782818E-003;-1.449405099265277E-004;
2.407166666666667E+009;1.944537013769150E-001;3.847945481538773E-002;-2.403443912044168E-003;-5.964419688098133E-005;
2.407333333333334E+009;1.944205164909363E-001;3.855673968791962E-002;-2.364980522543192E-003;-5.160898217582144E-005;
2.407500000000000E+009;1.943824291229248E-001;3.838808462023735E-002;-2.358421916142106E-003;2.749149862211198E-004;
2.407666666666667E+009;1.944465488195419E-001;3.804949298501015E-002;-2.209225902333856E-003;3.136094601359218E-004;
2.407833333333334E+009;1.940410882234573E-001;3.770446777343750E-002;-2.068587346002460E-003;3.174037847202271E-004;
2.408000000000000E+009;1.940122395753861E-001;3.735624626278877E-002;-1.948041259311140E-003;4.521715163718909E-004;
2.408166666666667E+009;1.936264038085938E-001;3.703549131751061E-002;-1.773768104612827E-003;7.329892832785845E-004;
2.408333333333334E+009;1.931483745574951E-001;3.630990162491798E-002;-1.694785780273378E-003;7.722574518993497E-004;
2.408500000000000E+009;1.926844269037247E-001;3.590340539813042E-002;-1.647103461436927E-003;8.773658191785216E-004;
2.408666666666667E+009;1.922207176685333E-001;3.515553101897240E-002;-1.452903845347464E-003;1.130887423641980E-003;
2.408833333333334E+009;1.915364861488342E-001;3.447115421295166E-002;-1.353473169729114E-003;1.221531187184155E-003;
2.409000000000000E+009;1.909492760896683E-001;3.336017951369286E-002;-1.198747195303440E-003;1.193414325825870E-003;
2.409166666666667E+009;1.902532875537872E-001;3.250705823302269E-002;-1.121193403378129E-003;1.139804720878601E-003;
2.409333333333334E+009;1.894989609718323E-001;3.146535158157349E-002;-7.943115197122097E-004;1.078249537386000E-003;
2.409500000000000E+009;1.885239630937576E-001;3.005359135568142E-002;-5.218211445026100E-004;1.148098963312805E-003;
2.409666666666667E+009;1.878445595502853E-001;2.878169342875481E-002;-4.772223765030503E-004;1.127676339820027E-003;
2.409833333333334E+009;1.870452016592026E-001;2.737174183130264E-002;-3.928256628569216E-004;1.060530077666044E-003;
2.410000000000000E+009;1.864509880542755E-001;2.584358863532543E-002;-1.594209315953776E-004;8.800468640401959E-004;
2.410166666666667E+009;1.854884475469589E-001;2.390418760478497E-002;-1.231749338330701E-004;8.463672711513937E-004;
2.410333333333334E+009;1.847318410873413E-001;2.228240668773651E-002;-7.698908120801207E-006;5.839338409714401E-004;
2.410500000000000E+009;1.840998083353043E-001;2.029078267514706E-002;7.360739255091175E-005;5.731288692913950E-004;
2.410666666666667E+009;1.834068596363068E-001;1.838392019271851E-002;1.127873383666156E-005;2.882797562051565E-004;
2.410833333333334E+009;1.830797642469406E-001;1.630908995866776E-002;2.154943285859190E-005;3.254572220612317E-004;
2.411000000000000E+009;1.824633479118347E-001;1.430178433656693E-002;3.228379136999138E-005;3.429326752666384E-004;
2.411166666666667E+009;1.818877011537552E-001;1.225480064749718E-002;1.235146482940763E-004;1.958425418706611E-004;
2.411333333333334E+009;1.814467012882233E-001;9.885895997285843E-003;1.716961851343513E-004;4.030033596791327E-005;
2.411500000000000E+009;1.810860484838486E-001;7.774875499308109E-003;5.624703408102505E-005;-1.097356107493397E-005;
2.411666666666667E+009;1.811755895614624E-001;5.679756868630648E-003;3.746664151549339E-005;-1.871275344456080E-005;
2.411833333333334E+009;1.808751970529556E-001;3.647257341071963E-003;-1.652860082685947E-004;-5.597494964604266E-005;
2.412000000000000E+009;1.811727136373520E-001;1.168293412774801E-003;-1.302997843595222E-004;-1.426785456715152E-004;
2.412166666666667E+009;1.812520921230316E-001;-9.201369830407202E-004;-2.272116544190794E-004;-1.579548552399501E-004;
2.412333333333334E+009;1.814662665128708E-001;-3.142883535474539E-003;-1.502028171671554E-004;-8.514992805430666E-005;
2.412500000000000E+009;1.820350885391235E-001;-5.306997336447239E-003;-3.417391562834382E-004;-1.626430457690731E-005;
2.412666666666667E+009;1.823558658361435E-001;-7.515008561313152E-003;-2.715162409003824E-004;-9.006603795569390E-005;
2.412833333333334E+009;1.829962730407715E-001;-9.677533060312271E-003;-1.534533803351224E-004;-1.135961283580400E-004;
2.413000000000000E+009;1.836648881435394E-001;-1.187578774988651E-002;-2.292897988809273E-004;-1.876101159723476E-004;
2.413166666666667E+009;1.843625754117966E-001;-1.385003142058849E-002;-2.025753783527762E-004;-1.995532074943185E-004;
2.413333333333334E+009;1.852592825889587E-001;-1.599655486643314E-002;-1.337665307801217E-004;-2.535026578698307E-004;
2.413500000000000E+009;1.861594468355179E-001;-1.813445426523686E-002;-6.037053390173242E-005;-2.506170421838760E-004;
2.413666666666667E+009;1.871553808450699E-001;-2.008848264813423E-002;-9.780438267625868E-005;-4.004155925940722E-004;
2.413833333333334E+009;1.880372911691666E-001;-2.174244634807110E-002;-1.148182709584944E-004;-3.442027373239398E-004;
2.414000000000000E+009;1.891203224658966E-001;-2.364704944193363E-002;-2.410451998002827E-004;-5.726842791773379E-004;
2.414166666666667E+009;1.900784522294998E-001;-2.528280019760132E-002;-2.214983978774399E-004;-6.524375057779253E-004;
2.414333333333334E+009;1.910731792449951E-001;-2.724433504045010E-002;-2.628738293424249E-004;-7.300724391825497E-004;
2.414500000000000E+009;1.920483857393265E-001;-2.861856482923031E-002;-4.819327441509813E-004;-8.158301934599876E-004;
2.414666666666667E+009;1.932305544614792E-001;-2.983249351382256E-002;-3.853704838547856E-004;-8.153496310114861E-004;
2.414833333333334E+009;1.940557360649109E-001;-3.121703304350376E-002;-4.013523866888136E-004;-8.779178606346250E-004;
2.415000000000000E+009;1.949652582406998E-001;-3.247665613889694E-002;-5.470109172165394E-004;-9.751440375111997E-004;
2.415166666666667E+009;1.960394233465195E-001;-3.364913910627365E-002;-8.505374426022172E-004;-8.865992422215641E-004;
2.415333333333334E+009;1.971025615930557E-001;-3.467918932437897E-002;-8.564761956222355E-004;-9.502694592811167E-004;
2.415500000000000E+009;1.979441940784454E-001;-3.550598770380020E-002;-1.219853758811951E-003;-7.963959942571819E-004;
2.415666666666667E+009;1.988105177879334E-001;-3.648437932133675E-002;-1.368347206152976E-003;-9.034126414917409E-004;
2.415833333333334E+009;1.994784623384476E-001;-3.705456852912903E-002;-1.550320070236921E-003;-7.464209920726717E-004;
2.416000000000000E+009;2.000862956047058E-001;-3.774057701230049E-002;-1.643079333007336E-003;-6.615013116970658E-004;
2.416166666666667E+009;2.006669044494629E-001;-3.843764588236809E-002;-1.703629735857248E-003;-4.824821080546826E-004;
2.416333333333334E+009;2.012344002723694E-001;-3.883146494626999E-002;-1.900124712847173E-003;-2.743472578004003E-004;
2.416500000000000E+009;2.014465332031250E-001;-3.921985626220703E-002;-1.948341261595488E-003;-8.391947631025687E-005;
2.416666666666667E+009;2.016762048006058E-001;-3.973957151174545E-002;-1.876295194961131E-003;5.404597686720081E-005;
2.416833333333334E+009;2.016214579343796E-001;-4.001818224787712E-002;-2.098134951665998E-003;3.404194139875472E-004;
2.417000000000000E+009;2.017186880111694E-001;-4.027234017848969E-002;-2.010709838941693E-003;3.938243316952139E-004;
2.417166666666667E+009;2.013352960348129E-001;-4.038307443261147E-002;-2.030109288170934E-003;5.827992572449148E-004;
2.417333333333334E+009;2.011137157678604E-001;-4.044549167156220E-002;-1.853224355727434E-003;8.306990494020283E-004;
2.417500000000000E+009;2.008956074714661E-001;-4.070169851183891E-002;-1.864954363554716E-003;7.933252491056919E-004;
2.417666666666667E+009;2.002983540296555E-001;-4.074189811944962E-002;-1.613775966688991E-003;1.027620397508144E-003;
2.417833333333334E+009;1.999126076698303E-001;-4.072062298655510E-002;-1.475366647355259E-003;1.010748557746410E-003;
2.418000000000000E+009;1.992723345756531E-001;-4.063735902309418E-002;-1.326066092588008E-003;1.203700085170567E-003;
2.418166666666667E+009;1.985349059104919E-001;-4.085341095924377E-002;-1.430666889064014E-003;1.219681696966291E-003;
2.418333333333334E+009;1.976820379495621E-001;-4.095316678285599E-002;-1.380730653181672E-003;1.195185701362789E-003;
2.418500000000000E+009;1.966897696256638E-001;-4.113453626632690E-002;-1.221282989718020E-003;1.197569188661873E-003;
2.418666666666667E+009;1.960477679967880E-001;-4.127505049109459E-002;-1.376749714836478E-003;1.234502880834043E-003;
2.418833333333334E+009;1.948093026876450E-001;-4.170876368880272E-002;-1.272357767447829E-003;1.323262113146484E-003;
2.419000000000000E+009;1.937348395586014E-001;-4.193870723247528E-002;-1.110731041990221E-003;1.463740598410368E-003;
2.419166666666667E+009;1.926519125699997E-001;-4.236162453889847E-002;-1.192927476949990E-003;1.483690342865884E-003;
2.419333333333334E+009;1.914454251527786E-001;-4.310896620154381E-002;-1.037031412124634E-003;1.686039264313877E-003;
2.419500000000000E+009;1.901902854442596E-001;-4.363366961479187E-002;-1.128522912040353E-003;1.710816402919591E-003;
2.419666666666667E+009;1.887396126985550E-001;-4.454750567674637E-002;-1.034326851367950E-003;1.896758563816547E-003;
2.419833333333334E+009;1.873746663331986E-001;-4.523279145359993E-002;-9.134642896242440E-004;1.845336984843016E-003;
2.420000000000000E+009;1.858908385038376E-001;-4.613961279392242E-002;-6.773562054149807E-004;2.171172527596355E-003;
2.420166666666667E+009;1.846381425857544E-001;-4.719504341483116E-002;-6.614391459152103E-004;2.239109482616186E-003;
2.420333333333334E+009;1.832691729068756E-001;-4.834341630339623E-002;-4.857825115323067E-004;2.097456483170390E-003;
2.420500000000000E+009;1.818205267190933E-001;-4.969719797372818E-002;-2.879733219742775E-004;2.265956485643983E-003;
2.420666666666667E+009;1.803461909294128E-001;-5.078488215804100E-002;-1.224566804012284E-004;2.384456107392907E-003;
2.420833333333334E+009;1.789417713880539E-001;-5.223471298813820E-002;1.838272728491575E-004;2.434494672343135E-003;
2.421000000000000E+009;1.777058392763138E-001;-5.375094711780548E-002;3.052769752684981E-004;2.486130921170116E-003;
2.421166666666667E+009;1.765614598989487E-001;-5.548423901200295E-002;5.216677673161030E-004;2.293471712619066E-003;
2.421333333333334E+009;1.750523000955582E-001;-5.678193271160126E-002;8.595982217229903E-004;2.255705185234547E-003;
2.421500000000000E+009;1.737816482782364E-001;-5.853863805532455E-002;1.014123903587461E-003;2.114137634634972E-003;
2.421666666666667E+009;1.727993786334992E-001;-6.015715003013611E-002;1.184760127216578E-003;1.940362970344722E-003;
2.421833333333334E+009;1.716712415218353E-001;-6.198510900139809E-002;1.369226374663413E-003;1.796858618035913E-003;
2.422000000000000E+009;1.705269664525986E-001;-6.376468390226364E-002;1.327465171925724E-003;1.672666752710939E-003;
2.422166666666667E+009;1.697814315557480E-001;-6.559151411056519E-002;1.577617716975510E-003;1.321958610787988E-003;
2.422333333333334E+009;1.688951253890991E-001;-6.739252060651779E-002;1.519395038485527E-003;1.182810170575976E-003;
2.422500000000000E+009;1.681116521358490E-001;-6.910879164934158E-002;1.636889064684510E-003;9.801802225410938E-004;
2.422666666666667E+009;1.675205081701279E-001;-7.102230191230774E-002;1.696308841928840E-003;7.739720749668777E-004;
2.422833333333334E+009;1.669470071792603E-001;-7.297985255718231E-002;1.579018891789019E-003;5.379582289606333E-004;
2.423000000000000E+009;1.664831787347794E-001;-7.479371130466461E-002;1.538521144539118E-003;3.269219887442887E-004;
2.423166666666667E+009;1.659504473209381E-001;-7.637100666761398E-002;1.580719137564302E-003;1.567363506183028E-004;
2.423333333333334E+009;1.658192723989487E-001;-7.817006111145020E-002;1.576559967361391E-003;6.352277705445886E-005;
2.423500000000000E+009;1.655887514352799E-001;-7.982065528631210E-002;1.409743214026094E-003;-4.329908551881090E-005;
2.423666666666667E+009;1.657861471176148E-001;-8.153985440731049E-002;1.410840312018991E-003;-2.118822449119762E-004;
2.423833333333334E+009;1.653334498405457E-001;-8.326762914657593E-002;1.277322415262461E-003;-3.267035644967109E-004;
2.424000000000000E+009;1.654676496982575E-001;-8.488040417432785E-002;1.266139559447765E-003;-5.555586540140212E-004;
2.424166666666667E+009;1.655307859182358E-001;-8.624603599309921E-002;9.284343104809523E-004;-5.747508839704096E-004;
2.424333333333334E+009;1.657852679491043E-001;-8.777344226837158E-002;1.028256490826607E-003;-6.363535649143159E-004;
2.424500000000000E+009;1.659301221370697E-001;-8.935183286666870E-002;8.003150578588247E-004;-7.958926144056022E-004;
2.424666666666667E+009;1.660860925912857E-001;-9.065616875886917E-002;7.271569920703769E-004;-8.569557103328407E-004;
2.424833333333334E+009;1.665186583995819E-001;-9.185811132192612E-002;5.630638333968818E-004;-1.105614239349961E-003;
2.425000000000000E+009;1.667207479476929E-001;-9.303150326013565E-002;3.253791073802859E-004;-1.006147824227810E-003;
2.425166666666667E+009;1.667838841676712E-001;-9.395452588796616E-002;2.981546858791262E-004;-1.119670690968633E-003;
2.425333333333334E+009;1.670850813388825E-001;-9.500122815370560E-002;-1.027972393785603E-004;-9.622106445021927E-004;
2.425500000000000E+009;1.673862487077713E-001;-9.602124243974686E-002;-1.568230363773182E-004;-1.047339872457087E-003;
2.425666666666667E+009;1.676618754863739E-001;-9.673400223255158E-002;-2.597421116661280E-004;-8.881042595021427E-004;
2.425833333333334E+009;1.678853631019592E-001;-9.774674475193024E-002;-5.005921702831984E-004;-7.603969424962997E-004;
2.426000000000000E+009;1.682086586952210E-001;-9.812555462121964E-002;-5.768745322711766E-004;-7.235751836560667E-004;
2.426166666666667E+009;1.684281378984451E-001;-9.880358725786209E-002;-6.770987529307604E-004;-5.867334548383951E-004;
2.426333333333334E+009;1.684249341487885E-001;-9.938250482082367E-002;-1.001897500827909E-003;-4.962102975696325E-004;
2.426500000000000E+009;1.687277555465698E-001;-9.983401745557785E-002;-8.080279221758246E-004;-3.428217023611069E-004;
2.426666666666667E+009;1.688813567161560E-001;-1.003761440515518E-001;-9.660813957452774E-004;-2.062919957097620E-004;
2.426833333333334E+009;1.689723134040833E-001;-1.007009074091911E-001;-1.043086755089462E-003;-3.380658745300025E-005;
2.427000000000000E+009;1.690267771482468E-001;-1.010822579264641E-001;-1.165752997621894E-003;2.380376390647143E-004;
2.427166666666667E+009;1.690954416990280E-001;-1.013497337698937E-001;-1.070441445335746E-003;1.914574386319146E-004;
2.427333333333334E+009;1.689270585775375E-001;-1.018210053443909E-001;-9.795709047466517E-004;3.891861124429852E-004;
2.427500000000000E+009;1.686284989118576E-001;-1.021584719419479E-001;-9.784650756046176E-004;4.163591365795583E-004;
2.427666666666667E+009;1.684496849775314E-001;-1.024696826934815E-001;-9.335890645161271E-004;5.224889027886093E-004;
