# Version 1.00
#
freq[Hz];re:Trc1_S11;im:Trc1_S11;re:Trc2_S21;im:Trc2_S21;
2.400000000000000E+009;1.552318632602692E-001;1.062322258949280E-001;-2.707702573388815E-003;-8.346902206540108E-003;
2.400166666666667E+009;1.548057198524475E-001;1.038372889161110E-001;-3.163185203447938E-003;-8.193693123757839E-003;
2.400333333333334E+009;1.548943072557449E-001;1.017030626535416E-001;-3.229481633752585E-003;-8.006499148905277E-003;
2.400500000000000E+009;1.549448370933533E-001;9.888815879821777E-002;-3.637218382209539E-003;-7.828769274055958E-003;
2.400666666666667E+009;1.547881960868835E-001;9.641335159540176E-002;-3.872203174978495E-003;-7.781037595123053E-003;
2.400833333333334E+009;1.547708809375763E-001;9.356851875782013E-002;-3.964732866734266E-003;-7.443284615874291E-003;
2.401000000000000E+009;1.551168262958527E-001;9.068625420331955E-002;-4.176306072622538E-003;-7.308394648134708E-003;
2.401166666666667E+009;1.551366597414017E-001;8.800428360700607E-002;-4.312519915401936E-003;-7.023239042609930E-003;
2.401333333333334E+009;1.555742919445038E-001;8.521141111850739E-002;-4.461543168872595E-003;-6.904272362589836E-003;
2.401500000000000E+009;1.560032665729523E-001;8.237476646900177E-002;-4.588291980326176E-003;-6.626914720982313E-003;
2.401666666666667E+009;1.564814895391464E-001;7.951474934816361E-002;-4.881142172962427E-003;-6.412766408175230E-003;
2.401833333333334E+009;1.568384915590286E-001;7.678942382335663E-002;-4.918087739497423E-003;-6.472040433436632E-003;
2.402000000000000E+009;1.578537076711655E-001;7.402760535478592E-002;-5.056959111243486E-003;-6.484987214207649E-003;
2.402166666666667E+009;1.585101783275604E-001;7.151996344327927E-002;-5.441752262413502E-003;-6.167204119265080E-003;
2.402333333333334E+009;1.595762073993683E-001;6.862033158540726E-002;-5.518419668078423E-003;-6.029179319739342E-003;
2.402500000000000E+009;1.606424897909164E-001;6.622425466775894E-002;-5.690733436495066E-003;-5.945579614490271E-003;
2.402666666666667E+009;1.619923710823059E-001;6.403804570436478E-002;-5.986927077174187E-003;-5.676775705069304E-003;
2.402833333333334E+009;1.632227152585983E-001;6.159313768148422E-002;-6.168067455291748E-003;-5.510086659342051E-003;
2.403000000000000E+009;1.647102236747742E-001;5.913261324167252E-002;-6.395848467946053E-003;-5.369991995394230E-003;
2.403166666666667E+009;1.663620918989182E-001;5.705084279179573E-002;-6.776555441319943E-003;-5.099683534353972E-003;
2.403333333333334E+009;1.678414344787598E-001;5.486814305186272E-002;-6.950887385755777E-003;-4.856563173234463E-003;
2.403500000000000E+009;1.695532053709030E-001;5.287684127688408E-002;-7.244832348078489E-003;-4.750948399305344E-003;
2.403666666666667E+009;1.712158471345902E-001;5.096207186579704E-002;-7.431244011968374E-003;-4.237465560436249E-003;
2.403833333333334E+009;1.729260683059692E-001;4.893460497260094E-002;-7.465812377631664E-003;-3.921794239431620E-003;
2.404000000000000E+009;1.743756383657455E-001;4.740706831216812E-002;-7.761609740555286E-003;-3.395699663087726E-003;
2.404166666666667E+009;1.761986613273621E-001;4.593435302376747E-002;-7.636418566107750E-003;-3.017433686181903E-003;
2.404333333333334E+009;1.779259145259857E-001;4.437303543090820E-002;-7.674724794924259E-003;-2.697078743949533E-003;
2.404500000000000E+009;1.794651448726654E-001;4.316654056310654E-002;-7.731857709586620E-003;-2.433633897453547E-003;
2.404666666666667E+009;1.811833828687668E-001;4.194596037268639E-002;-7.698689587414265E-003;-1.980924280360341E-003;
2.404833333333334E+009;1.828243732452393E-001;4.094859212636948E-002;-7.432070095092058E-003;-1.712489407509565E-003;
2.405000000000000E+009;1.843094378709793E-001;4.045680165290833E-002;-7.374889682978392E-003;-1.297426642850041E-003;
2.405166666666667E+009;1.856370568275452E-001;3.963124379515648E-002;-7.240919861942530E-003;-1.118119223974645E-003;
2.405333333333334E+009;1.871326118707657E-001;3.906159475445747E-002;-7.146702148020268E-003;-9.495710837654769E-004;
2.405500000000000E+009;1.883578598499298E-001;3.862016275525093E-002;-7.144560571759939E-003;-7.945567485876381E-004;
2.405666666666667E+009;1.897201985120773E-001;3.826009482145309E-002;-6.827801931649447E-003;-4.344542103353888E-004;
2.405833333333334E+009;1.908379942178726E-001;3.803969919681549E-002;-6.912702694535255E-003;-3.671041922643781E-004;
2.406000000000000E+009;1.918075829744339E-001;3.786206617951393E-002;-6.803412456065416E-003;-2.099737612297759E-004;
2.406166666666667E+009;1.928265243768692E-001;3.762929141521454E-002;-6.764248479157686E-003;-2.672919254109729E-005;
2.406333333333334E+009;1.936593055725098E-001;3.775691986083984E-002;-6.731161847710609E-003;2.499423571862280E-004;
2.406500000000000E+009;1.945354044437408E-001;3.775516524910927E-002;-6.561781279742718E-003;3.275135532021523E-004;
2.406666666666667E+009;1.950749009847641E-001;3.767754882574081E-002;-6.560009904205799E-003;5.655619897879660E-004;
2.406833333333334E+009;1.956543922424316E-001;3.777883946895599E-002;-6.287953350692987E-003;7.341018063016236E-004;
2.407000000000000E+009;1.959872543811798E-001;3.781780228018761E-002;-6.258878391236067E-003;9.012438822537661E-004;
2.407166666666667E+009;1.962631046772003E-001;3.770706057548523E-002;-6.001977249979973E-003;1.007430604659021E-003;
2.407333333333334E+009;1.961184144020081E-001;3.788145259022713E-002;-5.860457196831703E-003;1.074898871593177E-003;
2.407500000000000E+009;1.960383057594299E-001;3.795808181166649E-002;-5.689010489732027E-003;1.183170126751065E-003;
2.407666666666667E+009;1.961993277072907E-001;3.780135512351990E-002;-5.606518592685461E-003;1.283334102481604E-003;
2.407833333333334E+009;1.957645565271378E-001;3.763541206717491E-002;-5.501514300704002E-003;1.206362503580749E-003;
2.408000000000000E+009;1.955331116914749E-001;3.751293197274208E-002;-5.364666227251291E-003;1.305656624026597E-003;
2.408166666666667E+009;1.949680894613266E-001;3.733120113611221E-002;-5.197547841817141E-003;1.368057914078236E-003;
2.408333333333334E+009;1.945019960403442E-001;3.666766360402107E-002;-5.110774189233780E-003;1.464135944843292E-003;
2.408500000000000E+009;1.937263607978821E-001;3.626380860805512E-002;-5.117738153785467E-003;1.413432648405433E-003;
2.408666666666667E+009;1.930914968252182E-001;3.574246168136597E-002;-5.185208749026060E-003;1.176808029413223E-003;
2.408833333333334E+009;1.923021823167801E-001;3.512479364871979E-002;-5.176512058824301E-003;1.097305794246495E-003;
2.409000000000000E+009;1.913646608591080E-001;3.413006663322449E-002;-5.083944182842970E-003;1.212076167576015E-003;
2.409166666666667E+009;1.904025375843048E-001;3.314464166760445E-002;-5.065554752945900E-003;1.183347194455564E-003;
2.409333333333334E+009;1.895711570978165E-001;3.204415738582611E-002;-5.225937813520432E-003;1.341879251413047E-003;
2.409500000000000E+009;1.883539706468582E-001;3.100224025547504E-002;-5.537980701774359E-003;1.198256155475974E-003;
2.409666666666667E+009;1.872606724500656E-001;2.945895306766033E-002;-5.341762211173773E-003;1.483753439970315E-003;
2.409833333333334E+009;1.863128840923309E-001;2.789979055523872E-002;-5.637935362756252E-003;1.337925321422517E-003;
2.410000000000000E+009;1.853227317333221E-001;2.618984133005142E-002;-5.509362556040287E-003;1.667079166509211E-003;
2.410166666666667E+009;1.842972487211227E-001;2.446502633392811E-002;-5.715213716030121E-003;1.639755209907889E-003;
2.410333333333334E+009;1.832661479711533E-001;2.266943827271462E-002;-5.623047240078449E-003;1.639804104343057E-003;
2.410500000000000E+009;1.823864877223969E-001;2.058164775371552E-002;-5.775315221399069E-003;2.029803348705173E-003;
2.410666666666667E+009;1.814480870962143E-001;1.845359243452549E-002;-5.747905001044273E-003;2.070723799988627E-003;
2.410833333333334E+009;1.807267367839813E-001;1.620629429817200E-002;-5.823149811476469E-003;2.238978398963809E-003;
2.411000000000000E+009;1.800351589918137E-001;1.412125024944544E-002;-5.840686615556479E-003;2.326586283743382E-003;
2.411166666666667E+009;1.792423874139786E-001;1.184232998639345E-002;-5.859166849404573E-003;2.582932356745005E-003;
2.411333333333334E+009;1.789491176605225E-001;9.431278333067894E-003;-5.770347081124783E-003;2.669130684807897E-003;
2.411500000000000E+009;1.784826070070267E-001;6.955848075449467E-003;-5.864317528903484E-003;2.844558097422123E-003;
2.411666666666667E+009;1.784266680479050E-001;4.706221166998148E-003;-5.828885827213526E-003;3.008213592693210E-003;
2.411833333333334E+009;1.781209260225296E-001;2.564531285315752E-003;-5.865152925252914E-003;3.039222909137607E-003;
2.412000000000000E+009;1.782477945089340E-001;-2.017653314396739E-004;-5.819328594952822E-003;3.331091254949570E-003;
2.412166666666667E+009;1.781586408615112E-001;-2.582821995019913E-003;-5.857270210981369E-003;3.434754209592938E-003;
2.412333333333334E+009;1.784983873367310E-001;-5.084312055259943E-003;-5.850224755704403E-003;3.403592156246305E-003;
2.412500000000000E+009;1.788763552904129E-001;-7.514722645282745E-003;-5.890993867069483E-003;3.787835827097297E-003;
2.412666666666667E+009;1.794968545436859E-001;-9.971602819859982E-003;-5.791809409856796E-003;3.844474209472537E-003;
2.412833333333334E+009;1.800642162561417E-001;-1.232815068215132E-002;-6.021361798048019E-003;4.139616619795561E-003;
2.413000000000000E+009;1.808394938707352E-001;-1.464745402336121E-002;-6.005536764860153E-003;4.273422062397003E-003;
2.413166666666667E+009;1.816986501216888E-001;-1.695823483169079E-002;-5.987326148897409E-003;4.578426014631987E-003;
2.413333333333334E+009;1.827408075332642E-001;-1.910632848739624E-002;-6.187251303344965E-003;4.952787421643734E-003;
2.413500000000000E+009;1.835845857858658E-001;-2.142864651978016E-002;-6.061262916773558E-003;5.327910650521517E-003;
2.413666666666667E+009;1.847355216741562E-001;-2.347526140511036E-002;-6.153393536806107E-003;5.668003112077713E-003;
2.413833333333334E+009;1.859938651323319E-001;-2.536580339074135E-002;-6.093769799917936E-003;5.953090265393257E-003;
2.414000000000000E+009;1.870339214801788E-001;-2.733555622398853E-002;-5.872979294508696E-003;6.510660517960787E-003;
2.414166666666667E+009;1.884831190109253E-001;-2.914269641041756E-002;-5.625365767627955E-003;6.786665413528681E-003;
2.414333333333334E+009;1.893730163574219E-001;-3.108227811753750E-002;-5.449880380183458E-003;7.412139791995287E-003;
2.414500000000000E+009;1.907922923564911E-001;-3.260717540979385E-002;-5.001077428460121E-003;7.801280356943607E-003;
2.414666666666667E+009;1.919465810060501E-001;-3.407941013574600E-002;-4.749038256704807E-003;8.091367781162262E-003;
2.414833333333334E+009;1.931792795658112E-001;-3.540739789605141E-002;-4.146757069975138E-003;8.443388156592846E-003;
2.415000000000000E+009;1.941344141960144E-001;-3.667058795690537E-002;-3.677832428365946E-003;8.710545487701893E-003;
2.415166666666667E+009;1.954343467950821E-001;-3.772598877549171E-002;-3.339592600241303E-003;8.807282894849777E-003;
2.415333333333334E+009;1.966229528188705E-001;-3.868466988205910E-002;-2.841241890564561E-003;9.028473868966103E-003;
2.415500000000000E+009;1.976319402456284E-001;-3.932318836450577E-002;-2.347331726923585E-003;8.994546718895435E-003;
2.415666666666667E+009;1.986870318651199E-001;-4.027974605560303E-002;-1.925344928167760E-003;9.320346638560295E-003;
2.415833333333334E+009;1.995347589254379E-001;-4.080815613269806E-002;-1.458886545151472E-003;9.288301691412926E-003;
2.416000000000000E+009;2.001556307077408E-001;-4.135894402861595E-002;-1.231602043844760E-003;9.242740459740162E-003;
2.416166666666667E+009;2.009642571210861E-001;-4.195964708924294E-002;-6.369894836097956E-004;9.316624142229557E-003;
2.416333333333334E+009;2.014355659484863E-001;-4.238951951265335E-002;-3.093535488005728E-004;9.344912134110928E-003;
2.416500000000000E+009;2.019118517637253E-001;-4.253380000591278E-002;8.779529161984101E-005;9.259910322725773E-003;
2.416666666666667E+009;2.023146897554398E-001;-4.291477799415588E-002;5.628782091662288E-004;9.256872348487377E-003;
2.416833333333334E+009;2.024215459823608E-001;-4.291942343115807E-002;9.188924450427294E-004;9.105261415243149E-003;
2.417000000000000E+009;2.024302780628204E-001;-4.311844334006310E-002;1.291248016059399E-003;9.033084847033024E-003;
2.417166666666667E+009;2.021968662738800E-001;-4.298047721385956E-002;1.651766593568027E-003;9.003134444355965E-003;
2.417333333333334E+009;2.019699215888977E-001;-4.275361075997353E-002;2.032853197306395E-003;8.689759299159050E-003;
2.417500000000000E+009;2.016243636608124E-001;-4.280088469386101E-002;2.564848167821765E-003;8.475419133901596E-003;
2.417666666666667E+009;2.010131329298019E-001;-4.253235831856728E-002;2.800147980451584E-003;8.488251827657223E-003;
2.417833333333334E+009;2.005148231983185E-001;-4.230270162224770E-002;3.058275207877159E-003;8.226718753576279E-003;
2.418000000000000E+009;1.998832076787949E-001;-4.212788492441177E-002;3.433258272707462E-003;7.922805845737457E-003;
2.418166666666667E+009;1.990455836057663E-001;-4.210326820611954E-002;3.635833505541086E-003;7.528354413807392E-003;
2.418333333333334E+009;1.980545967817307E-001;-4.190966859459877E-002;3.884257981553674E-003;7.535898592323065E-003;
2.418500000000000E+009;1.970417648553848E-001;-4.210741817951202E-002;4.241210408508778E-003;7.202806882560253E-003;
2.418666666666667E+009;1.960088610649109E-001;-4.183997213840485E-002;4.381531383842230E-003;6.822295952588320E-003;
2.418833333333334E+009;1.949010789394379E-001;-4.189735278487206E-002;4.554863087832928E-003;6.559669505804777E-003;
2.419000000000000E+009;1.934668421745300E-001;-4.220518469810486E-002;4.601010121405125E-003;6.296715699136257E-003;
2.419166666666667E+009;1.921325922012329E-001;-4.250395670533180E-002;4.742592107504606E-003;6.084342021495104E-003;
2.419333333333334E+009;1.907024979591370E-001;-4.302121326327324E-002;4.787884186953306E-003;5.724103655666113E-003;
2.419500000000000E+009;1.892637163400650E-001;-4.332436248660088E-002;5.005185957998037E-003;5.591276101768017E-003;
2.419666666666667E+009;1.877534687519074E-001;-4.406546056270599E-002;4.993617068976164E-003;5.215716548264027E-003;
2.419833333333334E+009;1.860622763633728E-001;-4.478559643030167E-002;5.005407612770796E-003;5.003341007977724E-003;
2.420000000000000E+009;1.846936047077179E-001;-4.571884125471115E-002;4.984666127711535E-003;4.767360165715218E-003;
2.420166666666667E+009;1.829881370067596E-001;-4.677611216902733E-002;5.028529558330774E-003;4.691794980317354E-003;
2.420333333333334E+009;1.813970804214478E-001;-4.770747944712639E-002;5.020570941269398E-003;4.336486570537090E-003;
2.420500000000000E+009;1.797235310077667E-001;-4.895249381661415E-002;5.075285676866770E-003;4.239068366587162E-003;
2.420666666666667E+009;1.783374249935150E-001;-5.011864379048348E-002;4.997789859771729E-003;4.124801140278578E-003;
2.420833333333334E+009;1.765809059143066E-001;-5.188426375389099E-002;4.909873008728027E-003;3.892193548381329E-003;
2.421000000000000E+009;1.750689595937729E-001;-5.309265479445458E-002;4.837547428905964E-003;3.712528850883246E-003;
2.421166666666667E+009;1.737702786922455E-001;-5.496703833341599E-002;4.714800976216793E-003;3.525280393660069E-003;
2.421333333333334E+009;1.721464693546295E-001;-5.642102286219597E-002;4.768084269016981E-003;3.609270090237260E-003;
2.421500000000000E+009;1.710046380758286E-001;-5.837683007121086E-002;4.700447432696819E-003;3.493089228868485E-003;
2.421666666666667E+009;1.698489487171173E-001;-6.017629057168961E-002;4.735960625112057E-003;3.273760201409459E-003;
2.421833333333334E+009;1.686998009681702E-001;-6.212005019187927E-002;4.645443987101317E-003;3.194218967109919E-003;
2.422000000000000E+009;1.674663573503494E-001;-6.384338438510895E-002;4.621099215000868E-003;3.326513106003404E-003;
2.422166666666667E+009;1.667002886533737E-001;-6.593962758779526E-002;4.685929045081139E-003;3.120630979537964E-003;
2.422333333333334E+009;1.657826453447342E-001;-6.808441132307053E-002;4.663567524403334E-003;3.167458344250917E-003;
2.422500000000000E+009;1.650012135505676E-001;-6.996181607246399E-002;4.685185849666596E-003;3.069103462621570E-003;
2.422666666666667E+009;1.643580496311188E-001;-7.191879302263260E-002;4.708373919129372E-003;3.252068301662803E-003;
2.422833333333334E+009;1.639204025268555E-001;-7.406962662935257E-002;4.842015914618969E-003;3.027373226359487E-003;
2.423000000000000E+009;1.634507179260254E-001;-7.613378018140793E-002;5.056010559201241E-003;2.907273825258017E-003;
2.423166666666667E+009;1.631947308778763E-001;-7.817204296588898E-002;4.969731438905001E-003;3.038012888282538E-003;
2.423333333333334E+009;1.628412604331970E-001;-8.006029576063156E-002;5.061600822955370E-003;2.950298134237528E-003;
2.423500000000000E+009;1.627628505229950E-001;-8.188119530677795E-002;5.117528606206179E-003;2.743579214438796E-003;
2.423666666666667E+009;1.627551466226578E-001;-8.377137035131455E-002;5.191784817725420E-003;2.922338899224997E-003;
2.423833333333334E+009;1.628485471010208E-001;-8.550391346216202E-002;5.226880777627230E-003;2.798829926177859E-003;
2.424000000000000E+009;1.629164218902588E-001;-8.724950999021530E-002;5.417125765234232E-003;2.639890415593982E-003;
2.424166666666667E+009;1.629996150732040E-001;-8.879435062408447E-002;5.403574556112289E-003;2.509615616872907E-003;
2.424333333333334E+009;1.632063537836075E-001;-9.038549661636353E-002;5.541297141462565E-003;2.502280054613948E-003;
2.424500000000000E+009;1.635810881853104E-001;-9.199489653110504E-002;5.635165609419346E-003;2.281975932419300E-003;
2.424666666666667E+009;1.639326661825180E-001;-9.322651475667954E-002;5.684306845068932E-003;2.337920246645808E-003;
2.424833333333334E+009;1.645375937223434E-001;-9.463850408792496E-002;5.796283017843962E-003;2.431134926155210E-003;
2.425000000000000E+009;1.647440344095230E-001;-9.592054039239883E-002;5.939557217061520E-003;2.157709095627070E-003;
2.425166666666667E+009;1.650948077440262E-001;-9.697894752025604E-002;6.221981719136238E-003;2.290256321430206E-003;
2.425333333333334E+009;1.653413623571396E-001;-9.781379252672195E-002;6.384345702826977E-003;2.102121245115995E-003;
2.425500000000000E+009;1.659003496170044E-001;-9.879782050848007E-002;6.565252318978310E-003;1.996717182919383E-003;
2.425666666666667E+009;1.663047969341278E-001;-9.951476752758026E-002;6.531495600938797E-003;1.782352454029024E-003;
2.425833333333334E+009;1.665323972702026E-001;-1.003821343183518E-001;6.910580210387707E-003;1.653925864957273E-003;
2.426000000000000E+009;1.670346111059189E-001;-1.007688045501709E-001;7.132829166948795E-003;1.350119826383889E-003;
2.426166666666667E+009;1.673197746276856E-001;-1.012789160013199E-001;7.270469795912504E-003;1.094491104595363E-003;
2.426333333333334E+009;1.674852967262268E-001;-1.017760485410690E-001;7.233352400362492E-003;8.013654733076692E-004;
2.426500000000000E+009;1.677649021148682E-001;-1.019379869103432E-001;7.417702116072178E-003;6.614215089939535E-004;
2.426666666666667E+009;1.680391281843185E-001;-1.022724360227585E-001;7.423141971230507E-003;2.718907780945301E-004;
2.426833333333334E+009;1.683157384395599E-001;-1.026216149330139E-001;7.595785427838564E-003;2.803106872306671E-005;
2.427000000000000E+009;1.682108938694000E-001;-1.028349325060844E-001;7.653061766177416E-003;-2.318980841664597E-004;
2.427166666666667E+009;1.682476401329041E-001;-1.027887836098671E-001;7.523616310209036E-003;-6.591886049136519E-004;
2.427333333333334E+009;1.681963056325913E-001;-1.029311940073967E-001;7.711848709732294E-003;-7.808014634065330E-004;
2.427500000000000E+009;1.678953021764755E-001;-1.031707152724266E-001;7.481395266950131E-003;-1.149059273302555E-003;
2.427666666666667E+009;1.675557643175125E-001;-1.031737476587296E-001;7.628972176462412E-003;-1.476060482673347E-003;
2.427833333333334E+009;1.671965271234512E-001;-1.033334806561470E-001;7.565694861114025E-003;-1.663930015638471E-003;
