# Version 1.00
#
freq[Hz];re:Trc1_S11;im:Trc1_S11;re:Trc2_S21;im:Trc2_S21;
2.400000000000000E+009;1.550415456295013E-001;1.065506637096405E-001;-3.131473669782281E-003;-8.242836222052574E-003;
2.400166666666667E+009;1.548393517732620E-001;1.041425764560700E-001;-3.388538723811507E-003;-7.952485233545303E-003;
2.400333333333334E+009;1.547842174768448E-001;1.018590107560158E-001;-3.537196666002274E-003;-7.936275564134121E-003;
2.400500000000000E+009;1.547088176012039E-001;9.919740259647369E-002;-3.768556285649538E-003;-7.773268502205610E-003;
2.400666666666667E+009;1.548087000846863E-001;9.679944068193436E-002;-3.927058074623346E-003;-7.475547958165407E-003;
2.400833333333334E+009;1.548741012811661E-001;9.383810311555862E-002;-4.252715967595577E-003;-7.256570272147656E-003;
2.401000000000000E+009;1.549785137176514E-001;9.098066389560700E-002;-4.431505221873522E-003;-7.071729749441147E-003;
2.401166666666667E+009;1.551751494407654E-001;8.817671239376068E-002;-4.662418272346258E-003;-6.961429957300425E-003;
2.401333333333334E+009;1.555857807397842E-001;8.545866608619690E-002;-4.630966112017632E-003;-6.708825007081032E-003;
2.401500000000000E+009;1.560440957546234E-001;8.252163976430893E-002;-4.947456996887922E-003;-6.451762747019529E-003;
2.401666666666667E+009;1.562919169664383E-001;7.973555475473404E-002;-4.856982734054327E-003;-6.271351128816605E-003;
2.401833333333334E+009;1.567943245172501E-001;7.704649865627289E-002;-5.114965140819550E-003;-6.316402461379767E-003;
2.402000000000000E+009;1.577390730381012E-001;7.430368661880493E-002;-5.242925602942705E-003;-6.168370135128498E-003;
2.402166666666667E+009;1.586633771657944E-001;7.162819057703018E-002;-5.513644777238369E-003;-5.945487413555384E-003;
2.402333333333334E+009;1.595933586359024E-001;6.899634748697281E-002;-5.738027859479189E-003;-5.846739280968905E-003;
2.402500000000000E+009;1.607233881950378E-001;6.638901680707932E-002;-5.902679171413183E-003;-5.702858325093985E-003;
2.402666666666667E+009;1.618829071521759E-001;6.437118351459503E-002;-6.034224759787321E-003;-5.377261433750391E-003;
2.402833333333334E+009;1.632396727800369E-001;6.165967509150505E-002;-6.339107640087605E-003;-5.281312391161919E-003;
2.403000000000000E+009;1.647153049707413E-001;5.948056653141975E-002;-6.653787102550268E-003;-5.092673469334841E-003;
2.403166666666667E+009;1.662982106208801E-001;5.726386979222298E-002;-6.921906024217606E-003;-4.648871719837189E-003;
2.403333333333334E+009;1.677726656198502E-001;5.511067807674408E-002;-6.950552575290203E-003;-4.506969358772039E-003;
2.403500000000000E+009;1.694849580526352E-001;5.313527956604958E-002;-7.178768981248140E-003;-4.347603768110275E-003;
2.403666666666667E+009;1.713661104440689E-001;5.121859163045883E-002;-7.354965433478355E-003;-3.799102036282420E-003;
2.403833333333334E+009;1.730487495660782E-001;4.928670078516007E-002;-7.609743624925613E-003;-3.417808562517166E-003;
2.404000000000000E+009;1.745041459798813E-001;4.748369380831718E-002;-7.654058746993542E-003;-2.971328562125564E-003;
2.404166666666667E+009;1.761669367551804E-001;4.609933122992516E-002;-7.683820556849241E-003;-2.624255372211337E-003;
2.404333333333334E+009;1.779574304819107E-001;4.466341063380241E-002;-7.726780604571104E-003;-2.297133207321167E-003;
2.404500000000000E+009;1.795241683721542E-001;4.317025095224381E-002;-7.679183967411518E-003;-2.043289830908179E-003;
2.404666666666667E+009;1.812227666378021E-001;4.215385392308235E-002;-7.503991015255451E-003;-1.526299747638404E-003;
2.404833333333334E+009;1.828287392854691E-001;4.118495434522629E-002;-7.419280242174864E-003;-1.299630384892225E-003;
2.405000000000000E+009;1.842546612024307E-001;4.042486101388931E-002;-7.218935526907444E-003;-1.031798776239157E-003;
2.405166666666667E+009;1.857214719057083E-001;3.960473090410233E-002;-7.236619945615530E-003;-7.858529570512474E-004;
2.405333333333334E+009;1.871393620967865E-001;3.926236927509308E-002;-7.144317030906677E-003;-4.747223574668169E-004;
2.405500000000000E+009;1.886487603187561E-001;3.877855092287064E-002;-6.919828709214926E-003;-2.537529217079282E-004;
2.405666666666667E+009;1.897818446159363E-001;3.832937404513359E-002;-6.828022655099630E-003;-2.062094717985019E-004;
2.405833333333334E+009;1.909546554088593E-001;3.809582442045212E-002;-6.742106750607491E-003;6.215155008248985E-005;
2.406000000000000E+009;1.920347362756729E-001;3.788704425096512E-002;-6.589757278561592E-003;1.079486246453598E-004;
2.406166666666667E+009;1.930793076753616E-001;3.766000643372536E-002;-6.620441097766161E-003;3.560407203622162E-004;
2.406333333333334E+009;1.940200477838516E-001;3.766994923353195E-002;-6.526920944452286E-003;3.660932416096330E-004;
2.406500000000000E+009;1.946683377027512E-001;3.777547553181648E-002;-6.254673469811678E-003;5.670695099979639E-004;
2.406666666666667E+009;1.953276991844177E-001;3.767002001404762E-002;-6.223114207386971E-003;7.988908910192549E-004;
2.406833333333334E+009;1.959213316440582E-001;3.769920393824577E-002;-6.209217943251133E-003;8.979921112768352E-004;
2.407000000000000E+009;1.960022151470184E-001;3.792666643857956E-002;-5.891472101211548E-003;1.179400598630309E-003;
2.407166666666667E+009;1.965299993753433E-001;3.765524178743362E-002;-5.907385610044003E-003;1.285259146243334E-003;
2.407333333333334E+009;1.963237375020981E-001;3.777262568473816E-002;-5.688375327736139E-003;1.166860572993755E-003;
2.407500000000000E+009;1.961861252784729E-001;3.779290989041328E-002;-5.591236054897308E-003;1.401190296746790E-003;
2.407666666666667E+009;1.962604969739914E-001;3.772806003689766E-002;-5.325225647538900E-003;1.522680860944092E-003;
2.407833333333334E+009;1.958067119121552E-001;3.763652965426445E-002;-5.345096811652184E-003;1.440400839783251E-003;
2.408000000000000E+009;1.956870257854462E-001;3.740745037794113E-002;-5.062944721430540E-003;1.370421960018575E-003;
2.408166666666667E+009;1.949716061353684E-001;3.711453452706337E-002;-4.992119036614895E-003;1.364530529826880E-003;
2.408333333333334E+009;1.945754885673523E-001;3.653695806860924E-002;-5.006541498005390E-003;1.526341889984906E-003;
2.408500000000000E+009;1.938104927539825E-001;3.631141036748886E-002;-4.972025752067566E-003;1.367202843539417E-003;
2.408666666666667E+009;1.931119263172150E-001;3.564325347542763E-002;-4.887589253485203E-003;1.204817323014140E-003;
2.408833333333334E+009;1.923475712537766E-001;3.501946851611137E-002;-4.956057295203209E-003;1.231988309882581E-003;
2.409000000000000E+009;1.914581209421158E-001;3.403948992490768E-002;-4.768573679029942E-003;1.137148705311120E-003;
2.409166666666667E+009;1.905113011598587E-001;3.314212337136269E-002;-4.852216225117445E-003;1.147311413660646E-003;
2.409333333333334E+009;1.895320713520050E-001;3.208500519394875E-002;-4.878710489720106E-003;1.114856335334480E-003;
2.409500000000000E+009;1.884319037199020E-001;3.087990358471870E-002;-5.051008425652981E-003;1.253591035492718E-003;
2.409666666666667E+009;1.872184127569199E-001;2.941016107797623E-002;-5.203157197684050E-003;1.207339810207486E-003;
2.409833333333334E+009;1.863361746072769E-001;2.788195945322514E-002;-5.184909794479609E-003;1.273064524866641E-003;
2.410000000000000E+009;1.853945851325989E-001;2.632525749504566E-002;-5.295799579471350E-003;1.551047316752374E-003;
2.410166666666667E+009;1.842220723628998E-001;2.444857731461525E-002;-5.304109770804644E-003;1.657183049246669E-003;
2.410333333333334E+009;1.833484768867493E-001;2.267828956246376E-002;-5.486742593348026E-003;1.803346793167293E-003;
2.410500000000000E+009;1.823105961084366E-001;2.066038921475411E-002;-5.446501541882753E-003;1.872410648502410E-003;
2.410666666666667E+009;1.814838796854019E-001;1.854805648326874E-002;-5.481915082782507E-003;2.055593067780137E-003;
2.410833333333334E+009;1.809272468090057E-001;1.638522930443287E-002;-5.481665953993797E-003;2.239865483716130E-003;
2.411000000000000E+009;1.800274997949600E-001;1.412865892052651E-002;-5.449547898024321E-003;2.257909160107374E-003;
2.411166666666667E+009;1.795895099639893E-001;1.198367029428482E-002;-5.510014481842518E-003;2.414287533611059E-003;
2.411333333333334E+009;1.789551824331284E-001;9.543655440211296E-003;-5.479469895362854E-003;2.596415812149644E-003;
2.411500000000000E+009;1.785051971673966E-001;7.233397103846073E-003;-5.363654810935259E-003;2.747653517872095E-003;
2.411666666666667E+009;1.785828024148941E-001;4.761497024446726E-003;-5.393384490162134E-003;2.771065104752779E-003;
2.411833333333334E+009;1.781010627746582E-001;2.278020838275552E-003;-5.439114291220903E-003;2.808219986036420E-003;
2.412000000000000E+009;1.782415062189102E-001;-2.541084832046181E-004;-5.391652695834637E-003;3.027076134458184E-003;
2.412166666666667E+009;1.783438920974731E-001;-2.376616699621081E-003;-5.485191941261292E-003;3.321102820336819E-003;
2.412333333333334E+009;1.785933524370194E-001;-5.067676771432161E-003;-5.629934836179018E-003;3.299386706203222E-003;
2.412500000000000E+009;1.790746152400971E-001;-7.251673378050327E-003;-5.626611411571503E-003;3.505133325234056E-003;
2.412666666666667E+009;1.794846951961517E-001;-9.607867337763310E-003;-5.744564346969128E-003;3.695367136970162E-003;
2.412833333333334E+009;1.801851093769074E-001;-1.233815401792526E-002;-5.707923788577318E-003;3.861429402604699E-003;
2.413000000000000E+009;1.810483187437058E-001;-1.458467263728380E-002;-5.788606125861406E-003;4.101033322513104E-003;
2.413166666666667E+009;1.818809807300568E-001;-1.675529405474663E-002;-5.834204610437155E-003;4.431864246726036E-003;
2.413333333333334E+009;1.828360706567764E-001;-1.902675442397595E-002;-5.863772705197334E-003;4.791517741978169E-003;
2.413500000000000E+009;1.836868375539780E-001;-2.115389704704285E-002;-6.072133779525757E-003;5.002272780984640E-003;
2.413666666666667E+009;1.849583685398102E-001;-2.343332394957542E-002;-5.832409486174583E-003;5.390605889260769E-003;
2.413833333333334E+009;1.860582083463669E-001;-2.540393546223640E-002;-5.852137692272663E-003;5.836095660924912E-003;
2.414000000000000E+009;1.870801597833633E-001;-2.739833295345306E-002;-5.668478086590767E-003;6.233612541109324E-003;
2.414166666666667E+009;1.883634775876999E-001;-2.906301617622376E-002;-5.694030784070492E-003;6.772985681891441E-003;
2.414333333333334E+009;1.895094513893127E-001;-3.103897906839848E-002;-5.262757651507855E-003;7.124685682356358E-003;
2.414500000000000E+009;1.906814575195313E-001;-3.256653994321823E-002;-4.875755403190851E-003;7.403415162116289E-003;
2.414666666666667E+009;1.919061839580536E-001;-3.384904563426971E-002;-4.483312834054232E-003;7.699684705585241E-003;
2.414833333333334E+009;1.930295974016190E-001;-3.540780022740364E-002;-4.112982191145420E-003;8.095813915133476E-003;
2.415000000000000E+009;1.942676752805710E-001;-3.663368523120880E-002;-3.736897371709347E-003;8.457758463919163E-003;
2.415166666666667E+009;1.955331563949585E-001;-3.779579699039459E-002;-3.370640799403191E-003;8.591437712311745E-003;
2.415333333333334E+009;1.965479850769043E-001;-3.857919946312904E-002;-2.856265287846327E-003;8.651558309793472E-003;
2.415500000000000E+009;1.976217627525330E-001;-3.941933810710907E-002;-2.284101676195860E-003;8.893636055290699E-003;
2.415666666666667E+009;1.987494230270386E-001;-4.010929167270660E-002;-1.971198013052344E-003;9.010752663016319E-003;
2.415833333333334E+009;1.995221972465515E-001;-4.075563326478005E-002;-1.621504314243794E-003;8.997267112135887E-003;
2.416000000000000E+009;2.002562135457993E-001;-4.144429787993431E-002;-1.095793792046607E-003;8.980091661214829E-003;
2.416166666666667E+009;2.009194940328598E-001;-4.192567616701126E-002;-7.149602752178907E-004;9.247282519936562E-003;
2.416333333333334E+009;2.016747891902924E-001;-4.220814257860184E-002;-1.773645926732570E-004;9.082859382033348E-003;
2.416500000000000E+009;2.020633816719055E-001;-4.244234785437584E-002;1.080654619727284E-004;9.066128171980381E-003;
2.416666666666667E+009;2.022861987352371E-001;-4.281944781541824E-002;4.269486234989017E-004;9.063621982932091E-003;
2.416833333333334E+009;2.024553269147873E-001;-4.282867908477783E-002;7.727385382167995E-004;8.960274979472160E-003;
2.417000000000000E+009;2.025064975023270E-001;-4.304343461990356E-002;1.293726731091738E-003;8.777379989624023E-003;
2.417166666666667E+009;2.022317647933960E-001;-4.297836869955063E-002;1.664147246629000E-003;8.596730418503285E-003;
2.417333333333334E+009;2.020025849342346E-001;-4.272677376866341E-002;2.052998170256615E-003;8.378930389881134E-003;
2.417500000000000E+009;2.016403079032898E-001;-4.281543567776680E-002;2.359938342124224E-003;8.367747068405151E-003;
2.417666666666667E+009;2.011353522539139E-001;-4.252745583653450E-002;2.618975006043911E-003;8.131863549351692E-003;
2.417833333333334E+009;2.005340605974197E-001;-4.234911128878593E-002;3.039038740098476E-003;7.920141331851482E-003;
2.418000000000000E+009;1.999629884958267E-001;-4.213963449001312E-002;3.269422566518188E-003;7.713127415627241E-003;
2.418166666666667E+009;1.990921348333359E-001;-4.200883209705353E-002;3.559557953849435E-003;7.335988804697990E-003;
2.418333333333334E+009;1.979710608720779E-001;-4.176913946866989E-002;3.873594803735614E-003;7.126473356038332E-003;
2.418500000000000E+009;1.970919370651245E-001;-4.194727540016174E-002;3.895800095051527E-003;6.960312370210886E-003;
2.418666666666667E+009;1.960792094469070E-001;-4.180241748690605E-002;4.220004193484783E-003;6.645550951361656E-003;
2.418833333333334E+009;1.946824938058853E-001;-4.209397733211517E-002;4.390859045088291E-003;6.380218081176281E-003;
2.419000000000000E+009;1.935030072927475E-001;-4.214092716574669E-002;4.583453759551048E-003;6.074603181332350E-003;
2.419166666666667E+009;1.922508329153061E-001;-4.245222732424736E-002;4.548170138150454E-003;5.767759867012501E-003;
2.419333333333334E+009;1.908482462167740E-001;-4.296989738941193E-002;4.740485455840826E-003;5.650690756738186E-003;
2.419500000000000E+009;1.893230825662613E-001;-4.341314360499382E-002;4.614590667188168E-003;5.331701599061489E-003;
2.419666666666667E+009;1.877351552248001E-001;-4.413614794611931E-002;4.792358726263046E-003;5.191213916987181E-003;
2.419833333333334E+009;1.862635910511017E-001;-4.491186514496803E-002;4.831709899008274E-003;4.853939637541771E-003;
2.420000000000000E+009;1.846363842487335E-001;-4.576222226023674E-002;4.721631295979023E-003;4.530746024101973E-003;
2.420166666666667E+009;1.830432265996933E-001;-4.659755155444145E-002;4.813679493963718E-003;4.441932309418917E-003;
2.420333333333334E+009;1.814533174037933E-001;-4.777330160140991E-002;4.794772714376450E-003;4.199213813990355E-003;
2.420500000000000E+009;1.797993034124374E-001;-4.899400100111961E-002;4.772335290908814E-003;4.118135198950768E-003;
2.420666666666667E+009;1.781097203493118E-001;-5.019288510084152E-002;4.882458131760359E-003;3.791335271671414E-003;
2.420833333333334E+009;1.765641719102860E-001;-5.159807950258255E-002;4.675911739468575E-003;3.761717118322849E-003;
2.421000000000000E+009;1.752467006444931E-001;-5.320146307349205E-002;4.689676687121391E-003;3.459459869191051E-003;
2.421166666666667E+009;1.737656891345978E-001;-5.482096970081329E-002;4.638129845261574E-003;3.372275037690997E-003;
2.421333333333334E+009;1.722316294908524E-001;-5.643639340996742E-002;4.623661749064922E-003;3.496655961498618E-003;
2.421500000000000E+009;1.710488796234131E-001;-5.823417007923126E-002;4.534941166639328E-003;3.165199887007475E-003;
2.421666666666667E+009;1.697030365467072E-001;-6.012131273746491E-002;4.395122639834881E-003;3.274333197623491E-003;
2.421833333333334E+009;1.688043028116226E-001;-6.203324347734451E-002;4.380324389785528E-003;3.234663279727101E-003;
2.422000000000000E+009;1.675720214843750E-001;-6.390352547168732E-002;4.409608431160450E-003;3.183169756084681E-003;
2.422166666666667E+009;1.668186485767365E-001;-6.628134101629257E-002;4.388327710330486E-003;3.133008489385247E-003;
2.422333333333334E+009;1.657518446445465E-001;-6.792756170034409E-002;4.468903876841068E-003;3.082700539380312E-003;
2.422500000000000E+009;1.650318652391434E-001;-7.000003010034561E-002;4.541342612355948E-003;3.043402917683125E-003;
2.422666666666667E+009;1.645100712776184E-001;-7.206649333238602E-002;4.586414434015751E-003;3.122181398794055E-003;
2.422833333333334E+009;1.639119535684586E-001;-7.408617436885834E-002;4.622525535523891E-003;3.056108951568604E-003;
2.423000000000000E+009;1.636064201593399E-001;-7.621838897466660E-002;4.671296570450068E-003;3.022591117769480E-003;
2.423166666666667E+009;1.631389558315277E-001;-7.805002480745316E-002;4.718634765595198E-003;2.956276759505272E-003;
2.423333333333334E+009;1.628230214118958E-001;-8.005231618881226E-002;4.799011163413525E-003;2.837941981852055E-003;
2.423500000000000E+009;1.628753691911697E-001;-8.185680955648422E-002;4.772920627146959E-003;2.952486975118518E-003;
2.423666666666667E+009;1.628444045782089E-001;-8.386985957622528E-002;4.953668918460608E-003;2.787334611639381E-003;
2.423833333333334E+009;1.627635955810547E-001;-8.554598689079285E-002;4.990951158106327E-003;2.725171158090234E-003;
2.424000000000000E+009;1.629783064126968E-001;-8.739182353019714E-002;5.124570801854134E-003;2.697956282645464E-003;
2.424166666666667E+009;1.631098538637161E-001;-8.888468146324158E-002;5.212054122239351E-003;2.670252928510308E-003;
2.424333333333334E+009;1.634064316749573E-001;-9.040060639381409E-002;5.153886508196592E-003;2.597688231617212E-003;
2.424500000000000E+009;1.637706905603409E-001;-9.213167428970337E-002;5.525165703147650E-003;2.468355000019074E-003;
2.424666666666667E+009;1.639408767223358E-001;-9.346222132444382E-002;5.494697019457817E-003;2.495648805052042E-003;
2.424833333333334E+009;1.645214408636093E-001;-9.464366734027863E-002;5.710510537028313E-003;2.525684889405966E-003;
2.425000000000000E+009;1.648078560829163E-001;-9.591916948556900E-002;5.814516451209784E-003;2.296872437000275E-003;
2.425166666666667E+009;1.650970280170441E-001;-9.700305014848709E-002;6.034388672560453E-003;2.361903199926019E-003;
2.425333333333334E+009;1.655080914497376E-001;-9.799145162105560E-002;6.246447563171387E-003;2.373386407271028E-003;
2.425500000000000E+009;1.659072935581207E-001;-9.890946745872498E-002;6.365738343447447E-003;2.046805340796709E-003;
2.425666666666667E+009;1.663827598094940E-001;-9.952358156442642E-002;6.525373551994562E-003;1.921893563121557E-003;
2.425833333333334E+009;1.666132807731628E-001;-1.003434211015701E-001;6.791517138481140E-003;1.581797958351672E-003;
2.426000000000000E+009;1.671181023120880E-001;-1.007413715124130E-001;6.951749790459871E-003;1.326105557382107E-003;
2.426166666666667E+009;1.675514727830887E-001;-1.012299284338951E-001;6.979057099670172E-003;1.090587815269828E-003;
2.426333333333334E+009;1.675565093755722E-001;-1.017440035939217E-001;7.095084059983492E-003;9.906903142109513E-004;
2.426500000000000E+009;1.679429411888123E-001;-1.020159050822258E-001;7.443430367857218E-003;6.590628763660789E-004;
2.426666666666667E+009;1.681683659553528E-001;-1.022626608610153E-001;7.302654441446066E-003;2.810863370541483E-004;
2.426833333333334E+009;1.684211641550064E-001;-1.026300713419914E-001;7.394095417112112E-003;1.532641181256622E-004;
2.427000000000000E+009;1.682364493608475E-001;-1.027811393141747E-001;7.539774291217327E-003;-1.460798521293327E-004;
2.427166666666667E+009;1.683113574981690E-001;-1.029562056064606E-001;7.442963309586048E-003;-3.554808790795505E-004;
2.427333333333334E+009;1.683183014392853E-001;-1.030328422784805E-001;7.520522922277451E-003;-6.186079699546099E-004;
2.427500000000000E+009;1.679776608943939E-001;-1.032817810773850E-001;7.499883882701397E-003;-9.882440790534020E-004;
2.427666666666667E+009;1.676851361989975E-001;-1.033044531941414E-001;7.423634175211191E-003;-1.161512685939670E-003;
2.427833333333334E+009;1.673052012920380E-001;-1.033678501844406E-001;7.591428700834513E-003;-1.486793626099825E-003;
