# Version 1.00
#
freq[Hz];re:Trc1_S11;im:Trc1_S11;re:Trc2_S21;im:Trc2_S21;
2.400000000000000E+009;1.549651622772217E-001;1.063564643263817E-001;-3.035309724509716E-003;-8.149270899593830E-003;
2.400166666666667E+009;1.548221707344055E-001;1.041723042726517E-001;-3.483418840914965E-003;-7.972169667482376E-003;
2.400333333333334E+009;1.546051204204559E-001;1.017436906695366E-001;-3.733580932021141E-003;-7.854172028601170E-003;
2.400500000000000E+009;1.546490788459778E-001;9.918845444917679E-002;-3.813503310084343E-003;-7.669648155570030E-003;
2.400666666666667E+009;1.547967642545700E-001;9.636221081018448E-002;-4.019312560558319E-003;-7.410248741507530E-003;
2.400833333333334E+009;1.547414511442184E-001;9.380630403757095E-002;-4.265646915882826E-003;-7.264918647706509E-003;
2.401000000000000E+009;1.549850553274155E-001;9.093678742647171E-002;-4.610606469213963E-003;-6.997297052294016E-003;
2.401166666666667E+009;1.550853699445725E-001;8.822607994079590E-002;-4.594819620251656E-003;-6.826419383287430E-003;
2.401333333333334E+009;1.555386036634445E-001;8.550775051116943E-002;-4.879130516201258E-003;-6.564631592482328E-003;
2.401500000000000E+009;1.560501009225845E-001;8.256172388792038E-002;-5.036498419940472E-003;-6.536479573696852E-003;
2.401666666666667E+009;1.563088297843933E-001;7.978537678718567E-002;-4.928438458591700E-003;-6.251621991395950E-003;
2.401833333333334E+009;1.568096578121185E-001;7.710202038288117E-002;-5.295305978506804E-003;-6.082866340875626E-003;
2.402000000000000E+009;1.577358394861221E-001;7.417874038219452E-002;-5.422779358923435E-003;-6.025950424373150E-003;
2.402166666666667E+009;1.585459411144257E-001;7.180750370025635E-002;-5.484802182763815E-003;-5.980024114251137E-003;
2.402333333333334E+009;1.595374941825867E-001;6.893914937973023E-002;-5.733056925237179E-003;-5.735192913562059E-003;
2.402500000000000E+009;1.606713384389877E-001;6.640230119228363E-002;-5.798793397843838E-003;-5.692814476788044E-003;
2.402666666666667E+009;1.620746552944183E-001;6.408021599054337E-002;-6.145907100290060E-003;-5.581504665315151E-003;
2.402833333333334E+009;1.633372008800507E-001;6.170966848731041E-002;-6.307086441665888E-003;-5.160274449735880E-003;
2.403000000000000E+009;1.646501123905182E-001;5.935094505548477E-002;-6.647945847362280E-003;-4.983281716704369E-003;
2.403166666666667E+009;1.662545949220657E-001;5.715797469019890E-002;-6.741613149642944E-003;-4.690860398113728E-003;
2.403333333333334E+009;1.677244305610657E-001;5.509803444147110E-002;-6.966613233089447E-003;-4.477566108107567E-003;
2.403500000000000E+009;1.696469336748123E-001;5.286304652690888E-002;-7.173693273216486E-003;-4.050696268677712E-003;
2.403666666666667E+009;1.712203621864319E-001;5.098495632410049E-002;-7.434340659528971E-003;-3.880335949361324E-003;
2.403833333333334E+009;1.729892343282700E-001;4.924670979380608E-002;-7.720634806901217E-003;-3.451759694144130E-003;
2.404000000000000E+009;1.745008379220963E-001;4.753131046891213E-002;-7.652302272617817E-003;-2.984148683026433E-003;
2.404166666666667E+009;1.763018667697907E-001;4.593389481306076E-002;-7.694482337683439E-003;-2.667383989319205E-003;
2.404333333333334E+009;1.779304593801498E-001;4.462856054306030E-002;-7.618130184710026E-003;-2.400048309937120E-003;
2.404500000000000E+009;1.794511675834656E-001;4.303809255361557E-002;-7.579698227345944E-003;-1.943266368471086E-003;
2.404666666666667E+009;1.813519001007080E-001;4.215200245380402E-002;-7.496193982660770E-003;-1.708944211713970E-003;
2.404833333333334E+009;1.829391419887543E-001;4.098807275295258E-002;-7.294103968888521E-003;-1.274476642720401E-003;
2.405000000000000E+009;1.842336058616638E-001;4.034239426255226E-002;-7.387236692011356E-003;-9.254324831999838E-004;
2.405166666666667E+009;1.856771558523178E-001;3.964003920555115E-002;-7.115502376109362E-003;-8.582893642596901E-004;
2.405333333333334E+009;1.871301531791687E-001;3.912659361958504E-002;-6.991672795265913E-003;-5.684979842044413E-004;
2.405500000000000E+009;1.885444521903992E-001;3.865199163556099E-002;-7.045325357466936E-003;-3.095784049946815E-004;
2.405666666666667E+009;1.896752119064331E-001;3.824244812130928E-002;-6.861078552901745E-003;-2.005788264796138E-004;
2.405833333333334E+009;1.909686028957367E-001;3.806103765964508E-002;-6.642934866249561E-003;4.662981882574968E-005;
2.406000000000000E+009;1.920304149389267E-001;3.790730237960815E-002;-6.649104412645102E-003;1.365057396469638E-004;
2.406166666666667E+009;1.928809881210327E-001;3.760836273431778E-002;-6.579354405403137E-003;4.851342528127134E-004;
2.406333333333334E+009;1.938598752021790E-001;3.768734261393547E-002;-6.388834677636623E-003;5.981224821880460E-004;
2.406500000000000E+009;1.946399956941605E-001;3.777547553181648E-002;-6.373657379299402E-003;6.292973412200809E-004;
2.406666666666667E+009;1.952756494283676E-001;3.772401437163353E-002;-6.165719591081142E-003;9.646394755691290E-004;
2.406833333333334E+009;1.956903636455536E-001;3.780209645628929E-002;-6.027685012668371E-003;1.130466582253575E-003;
2.407000000000000E+009;1.960479915142059E-001;3.787811100482941E-002;-5.914494860917330E-003;1.188969356007874E-003;
2.407166666666667E+009;1.963500827550888E-001;3.769620880484581E-002;-5.734814796596766E-003;1.189757254905999E-003;
2.407333333333334E+009;1.961694359779358E-001;3.790605440735817E-002;-5.457753315567970E-003;1.301044714637101E-003;
2.407500000000000E+009;1.961813420057297E-001;3.799049928784370E-002;-5.479953717440367E-003;1.397512853145599E-003;
2.407666666666667E+009;1.962060034275055E-001;3.775623068213463E-002;-5.356299690902233E-003;1.614951062947512E-003;
2.407833333333334E+009;1.956817209720612E-001;3.766073286533356E-002;-5.138167180120945E-003;1.429005060344935E-003;
2.408000000000000E+009;1.955738365650177E-001;3.759133443236351E-002;-5.121674388647080E-003;1.457420992664993E-003;
2.408166666666667E+009;1.949708610773087E-001;3.718790411949158E-002;-4.935471341013908E-003;1.556857489049435E-003;
2.408333333333334E+009;1.945575624704361E-001;3.673064708709717E-002;-4.785348661243916E-003;1.436415943317115E-003;
2.408500000000000E+009;1.936538517475128E-001;3.641882166266441E-002;-4.811270628124476E-003;1.399295637384057E-003;
2.408666666666667E+009;1.930443346500397E-001;3.571060672402382E-002;-4.839277360588312E-003;1.308611826971173E-003;
2.408833333333334E+009;1.923398375511169E-001;3.490978106856346E-002;-4.848120734095573E-003;1.360185677185655E-003;
2.409000000000000E+009;1.913778036832809E-001;3.405760228633881E-002;-4.791943822056055E-003;1.240368233993650E-003;
2.409166666666667E+009;1.903838217258453E-001;3.320838510990143E-002;-4.791288636624813E-003;1.218842226080596E-003;
2.409333333333334E+009;1.894623786211014E-001;3.214722126722336E-002;-4.966186825186014E-003;1.292703906074166E-003;
2.409500000000000E+009;1.883644908666611E-001;3.076530434191227E-002;-4.934765398502350E-003;1.256420277059078E-003;
2.409666666666667E+009;1.873501241207123E-001;2.939270436763763E-002;-5.242319311946631E-003;1.293460140004754E-003;
2.409833333333334E+009;1.861815601587296E-001;2.810378000140190E-002;-5.119601264595985E-003;1.480659237131476E-003;
2.410000000000000E+009;1.852107048034668E-001;2.640186995267868E-002;-5.305470898747444E-003;1.574555062688887E-003;
2.410166666666667E+009;1.842886805534363E-001;2.462187781929970E-002;-5.271928850561380E-003;1.658409601077437E-003;
2.410333333333334E+009;1.832533627748489E-001;2.277055941522121E-002;-5.286760162562132E-003;1.742715714499354E-003;
2.410500000000000E+009;1.823606342077255E-001;2.074808813631535E-002;-5.381732247769833E-003;1.901484676636756E-003;
2.410666666666667E+009;1.815502345561981E-001;1.865226775407791E-002;-5.367913283407688E-003;1.993891317397356E-003;
2.410833333333334E+009;1.809233278036118E-001;1.638778671622276E-002;-5.402875598520041E-003;2.132510766386986E-003;
2.411000000000000E+009;1.801412850618362E-001;1.413284149020910E-002;-5.316361319273710E-003;2.328376285731792E-003;
2.411166666666667E+009;1.794988512992859E-001;1.199817843735218E-002;-5.540004931390286E-003;2.489248989149928E-003;
2.411333333333334E+009;1.790125966072083E-001;9.489021264016628E-003;-5.573812872171402E-003;2.591718453913927E-003;
2.411500000000000E+009;1.784780770540237E-001;7.067462895065546E-003;-5.471021402627230E-003;2.762498799711466E-003;
2.411666666666667E+009;1.786235272884369E-001;4.721430595964193E-003;-5.507867317646742E-003;2.893370809033513E-003;
2.411833333333334E+009;1.778123229742050E-001;2.411914290860295E-003;-5.513581912964582E-003;2.942411229014397E-003;
2.412000000000000E+009;1.783295869827271E-001;-2.141822915291414E-004;-5.456078331917524E-003;3.024200908839703E-003;
2.412166666666667E+009;1.782537102699280E-001;-2.398188225924969E-003;-5.490481853485107E-003;3.195337718352675E-003;
2.412333333333334E+009;1.784883439540863E-001;-4.930427297949791E-003;-5.576143506914377E-003;3.265811130404472E-003;
2.412500000000000E+009;1.789239495992661E-001;-7.443219423294067E-003;-5.519763566553593E-003;3.546392777934670E-003;
2.412666666666667E+009;1.794636249542236E-001;-9.888512082397938E-003;-5.589391570538282E-003;3.659967798739672E-003;
2.412833333333334E+009;1.800697743892670E-001;-1.224414259195328E-002;-5.697906017303467E-003;3.768593771383166E-003;
2.413000000000000E+009;1.808181554079056E-001;-1.449023839086294E-002;-5.866469349712133E-003;4.084682092070580E-003;
2.413166666666667E+009;1.817399561405182E-001;-1.666936650872231E-002;-5.809126421809197E-003;4.557894077152014E-003;
2.413333333333334E+009;1.827457398176193E-001;-1.892417296767235E-002;-5.808243993669748E-003;4.721726290881634E-003;
2.413500000000000E+009;1.836422830820084E-001;-2.131733670830727E-002;-5.869697779417038E-003;5.172967910766602E-003;
2.413666666666667E+009;1.847042292356491E-001;-2.349609136581421E-002;-5.784631241112948E-003;5.397774279117584E-003;
2.413833333333334E+009;1.860682517290115E-001;-2.543048188090324E-002;-5.807371810078621E-003;5.875810980796814E-003;
2.414000000000000E+009;1.869221031665802E-001;-2.728671766817570E-002;-5.761593580245972E-003;6.299054715782404E-003;
2.414166666666667E+009;1.884001195430756E-001;-2.909473516047001E-002;-5.422031506896019E-003;6.585452239960432E-003;
2.414333333333334E+009;1.894707381725311E-001;-3.098542429506779E-002;-5.204846616834402E-003;6.962892133742571E-003;
2.414500000000000E+009;1.907253265380859E-001;-3.246479108929634E-002;-4.733473528176546E-003;7.316376548260450E-003;
2.414666666666667E+009;1.919595897197723E-001;-3.374327719211578E-002;-4.530386533588171E-003;7.829110138118267E-003;
2.414833333333334E+009;1.931604593992233E-001;-3.529345989227295E-002;-4.246488213539124E-003;8.086001500487328E-003;
2.415000000000000E+009;1.942187696695328E-001;-3.662043437361717E-002;-3.677773522213101E-003;8.291805163025856E-003;
2.415166666666667E+009;1.955928504467011E-001;-3.773192688822746E-002;-3.231040434911847E-003;8.534033782780170E-003;
2.415333333333334E+009;1.965081840753555E-001;-3.861479833722115E-002;-2.678406890481710E-003;8.704893290996552E-003;
2.415500000000000E+009;1.977526247501373E-001;-3.940301015973091E-002;-2.437430201098323E-003;8.806032128632069E-003;
2.415666666666667E+009;1.986390650272369E-001;-4.020422697067261E-002;-1.909537124447525E-003;8.947840891778469E-003;
2.415833333333334E+009;1.994708329439163E-001;-4.079953208565712E-002;-1.596137182787061E-003;8.917600847780705E-003;
2.416000000000000E+009;2.002471238374710E-001;-4.136300459504128E-002;-1.097832457162440E-003;8.975933305919170E-003;
2.416166666666667E+009;2.010130882263184E-001;-4.194577410817146E-002;-7.259486592374742E-004;9.007278829813004E-003;
2.416333333333334E+009;2.016143351793289E-001;-4.219179227948189E-002;-3.145715454593301E-004;9.060857817530632E-003;
2.416500000000000E+009;2.020678371191025E-001;-4.250786826014519E-002;1.360340247629210E-004;9.078376926481724E-003;
2.416666666666667E+009;2.022789418697357E-001;-4.290725663304329E-002;5.879932432435453E-004;9.075796231627464E-003;
2.416833333333334E+009;2.023633122444153E-001;-4.292257130146027E-002;9.085129131563008E-004;8.805963210761547E-003;
2.417000000000000E+009;2.025500386953354E-001;-4.306321591138840E-002;1.329031074419618E-003;8.831150829792023E-003;
2.417166666666667E+009;2.022158950567246E-001;-4.290759935975075E-002;1.686262781731784E-003;8.676353842020035E-003;
2.417333333333334E+009;2.019376158714294E-001;-4.273589327931404E-002;2.206720411777496E-003;8.350646123290062E-003;
2.417500000000000E+009;2.016228288412094E-001;-4.282278195023537E-002;2.283927518874407E-003;8.194188587367535E-003;
2.417666666666667E+009;2.011339962482452E-001;-4.259509220719338E-002;2.808260498568416E-003;7.955916225910187E-003;
2.417833333333334E+009;2.006452828645706E-001;-4.232638329267502E-002;2.976835705339909E-003;7.816782221198082E-003;
2.418000000000000E+009;1.998628377914429E-001;-4.207771643996239E-002;3.371760481968522E-003;7.555441465228796E-003;
2.418166666666667E+009;1.990722417831421E-001;-4.206569865345955E-002;3.737790044397116E-003;7.463242858648300E-003;
2.418333333333334E+009;1.980772912502289E-001;-4.192511364817619E-002;3.833324415609241E-003;7.179234176874161E-003;
2.418500000000000E+009;1.972003877162933E-001;-4.199476540088654E-002;4.039770457893610E-003;6.846637930721045E-003;
2.418666666666667E+009;1.961671262979507E-001;-4.178988561034203E-002;4.097922705113888E-003;6.671140901744366E-003;
2.418833333333334E+009;1.949221640825272E-001;-4.204975441098213E-002;4.380374681204557E-003;6.350872106850147E-003;
2.419000000000000E+009;1.935385763645172E-001;-4.222748056054115E-002;4.551379010081291E-003;6.012677215039730E-003;
2.419166666666667E+009;1.922851353883743E-001;-4.245820641517639E-002;4.550730343908072E-003;5.824715364724398E-003;
2.419333333333334E+009;1.907840520143509E-001;-4.303034767508507E-002;4.677326418459415E-003;5.558232776820660E-003;
2.419500000000000E+009;1.895433217287064E-001;-4.333454743027687E-002;4.729364067316055E-003;5.257084034383297E-003;
2.419666666666667E+009;1.877586990594864E-001;-4.411344975233078E-002;4.767903592437506E-003;5.077789537608624E-003;
2.419833333333334E+009;1.861842572689056E-001;-4.474945366382599E-002;4.871910903602839E-003;4.757629241794348E-003;
2.420000000000000E+009;1.846956610679627E-001;-4.576747119426727E-002;4.917765036225319E-003;4.628070630133152E-003;
2.420166666666667E+009;1.830285191535950E-001;-4.668057709932327E-002;4.724351689219475E-003;4.446209874004126E-003;
2.420333333333334E+009;1.814020574092865E-001;-4.779624938964844E-002;4.751926753669977E-003;4.130084998905659E-003;
2.420500000000000E+009;1.797703653573990E-001;-4.910959675908089E-002;4.732059314846993E-003;4.007175564765930E-003;
2.420666666666667E+009;1.781712770462036E-001;-5.020657926797867E-002;4.726169630885124E-003;3.652845742180944E-003;
2.420833333333334E+009;1.766514033079147E-001;-5.181308835744858E-002;4.690095316618681E-003;3.651387989521027E-003;
2.421000000000000E+009;1.753695011138916E-001;-5.318247526884079E-002;4.757144954055548E-003;3.537345910444856E-003;
2.421166666666667E+009;1.739364862442017E-001;-5.500550940632820E-002;4.655531141906977E-003;3.289903979748488E-003;
2.421333333333334E+009;1.722647845745087E-001;-5.640470609068871E-002;4.513815511018038E-003;3.361357608810067E-003;
2.421500000000000E+009;1.709222793579102E-001;-5.858152359724045E-002;4.518044646829367E-003;3.281417069956660E-003;
2.421666666666667E+009;1.698593199253082E-001;-6.020249798893929E-002;4.540052730590105E-003;3.160007065162063E-003;
2.421833333333334E+009;1.687876582145691E-001;-6.212912872433662E-002;4.227891564369202E-003;3.179899882525206E-003;
2.422000000000000E+009;1.677747964859009E-001;-6.387812644243240E-002;4.623802844434977E-003;3.152237972244620E-003;
2.422166666666667E+009;1.668176800012589E-001;-6.611025333404541E-002;4.367702174931765E-003;3.082785755395889E-003;
2.422333333333334E+009;1.658417582511902E-001;-6.816440075635910E-002;4.411232657730579E-003;3.106418065726757E-003;
2.422500000000000E+009;1.650466173887253E-001;-7.011211663484573E-002;4.371590912342072E-003;3.041741438210011E-003;
2.422666666666667E+009;1.644388735294342E-001;-7.204107940196991E-002;4.393006209284067E-003;2.995228394865990E-003;
2.422833333333334E+009;1.641556024551392E-001;-7.408498972654343E-002;4.557817243039608E-003;3.055315464735031E-003;
2.423000000000000E+009;1.634990125894547E-001;-7.628632336854935E-002;4.549272358417511E-003;3.045526100322604E-003;
2.423166666666667E+009;1.631932109594345E-001;-7.813311368227005E-002;4.649750888347626E-003;2.975723706185818E-003;
2.423333333333334E+009;1.629816144704819E-001;-8.018703013658524E-002;4.835071042180061E-003;3.007256658747792E-003;
2.423500000000000E+009;1.629659831523895E-001;-8.184668421745300E-002;4.754431545734406E-003;2.910844748839736E-003;
2.423666666666667E+009;1.629010587930679E-001;-8.400396257638931E-002;4.999082535505295E-003;2.719342941418290E-003;
2.423833333333334E+009;1.627351492643356E-001;-8.557395637035370E-002;5.035720299929380E-003;2.637033117935062E-003;
2.424000000000000E+009;1.629993766546249E-001;-8.741709589958191E-002;5.104898009449244E-003;2.725757658481598E-003;
2.424166666666667E+009;1.629799008369446E-001;-8.891263604164124E-002;5.179685540497303E-003;2.582886489108205E-003;
2.424333333333334E+009;1.634149402379990E-001;-9.043673425912857E-002;5.239571910351515E-003;2.658846089616418E-003;
2.424500000000000E+009;1.636069416999817E-001;-9.213956445455551E-002;5.388066638261080E-003;2.650997135788202E-003;
2.424666666666667E+009;1.638541221618652E-001;-9.342970699071884E-002;5.402206443250179E-003;2.501891460269690E-003;
2.424833333333334E+009;1.643580198287964E-001;-9.483864903450012E-002;5.706792697310448E-003;2.442374359816313E-003;
2.425000000000000E+009;1.648064106702805E-001;-9.592802822589874E-002;5.865096580237150E-003;2.393378643319011E-003;
2.425166666666667E+009;1.649933308362961E-001;-9.702350199222565E-002;6.094576325267553E-003;2.357249613851309E-003;
2.425333333333334E+009;1.655347645282745E-001;-9.804350137710571E-002;6.114486604928970E-003;2.030163304880261E-003;
2.425500000000000E+009;1.659133434295654E-001;-9.887646883726120E-002;6.431801710277796E-003;2.169457264244556E-003;
2.425666666666667E+009;1.663369834423065E-001;-9.951190650463104E-002;6.594272330403328E-003;1.769132446497679E-003;
2.425833333333334E+009;1.666336655616760E-001;-1.003953218460083E-001;6.756342947483063E-003;1.842627301812172E-003;
2.426000000000000E+009;1.669475734233856E-001;-1.007966995239258E-001;6.936082616448402E-003;1.513577764853835E-003;
2.426166666666667E+009;1.673445552587509E-001;-1.012860462069511E-001;6.988237146288157E-003;1.273541478440166E-003;
2.426333333333334E+009;1.674688458442688E-001;-1.018066108226776E-001;7.181028835475445E-003;8.401719969697297E-004;
2.426500000000000E+009;1.678995788097382E-001;-1.019685864448547E-001;7.364329881966114E-003;6.693897885270417E-004;
2.426666666666667E+009;1.680946201086044E-001;-1.024037227034569E-001;7.346145343035460E-003;3.161614295095205E-004;
2.426833333333334E+009;1.683243364095688E-001;-1.025511696934700E-001;7.412093691527844E-003;6.335846410365775E-005;
2.427000000000000E+009;1.683016270399094E-001;-1.027672216296196E-001;7.378722541034222E-003;-1.805553329177201E-004;
2.427166666666667E+009;1.683510094881058E-001;-1.029274612665176E-001;7.395663298666477E-003;-5.963442381471396E-004;
2.427333333333334E+009;1.682559847831726E-001;-1.032104045152664E-001;7.452371530234814E-003;-7.234135409817100E-004;
2.427500000000000E+009;1.678595691919327E-001;-1.033025309443474E-001;7.389530539512634E-003;-1.056617009453476E-003;
2.427666666666667E+009;1.676747202873230E-001;-1.033121049404144E-001;7.424484472721815E-003;-1.324680284596980E-003;
2.427833333333334E+009;1.672177463769913E-001;-1.034638360142708E-001;7.353017106652260E-003;-1.363603747449815E-003;
