# Version 1.00
#
freq[Hz];re:Trc1_S11;im:Trc1_S11;re:Trc2_S21;im:Trc2_S21;
2.400000000000000E+009;1.553595513105393E-001;1.065515354275703E-001;3.186905290931463E-003;-5.393178667873144E-003;
2.400166666666667E+009;1.552481502294540E-001;1.041633337736130E-001;2.958461642265320E-003;-5.566529929637909E-003;
2.400333333333334E+009;1.553033292293549E-001;1.018691211938858E-001;2.865776419639587E-003;-5.659917369484901E-003;
2.400500000000000E+009;1.551402807235718E-001;9.913730621337891E-002;2.731074346229434E-003;-5.719952750951052E-003;
2.400666666666667E+009;1.552658379077911E-001;9.651185572147369E-002;2.478737384080887E-003;-6.014025304466486E-003;
2.400833333333334E+009;1.552450060844421E-001;9.361244738101959E-002;2.349555958062410E-003;-6.143775302916765E-003;
2.401000000000000E+009;1.553260535001755E-001;9.080448746681213E-002;2.085863379761577E-003;-6.159055046737194E-003;
2.401166666666667E+009;1.555595546960831E-001;8.808831125497818E-002;1.957925269380212E-003;-6.341015920042992E-003;
2.401333333333334E+009;1.558549106121063E-001;8.528425544500351E-002;1.696696272119880E-003;-6.498867645859718E-003;
2.401500000000000E+009;1.562883406877518E-001;8.226387202739716E-002;1.350446138530970E-003;-6.690625101327896E-003;
2.401666666666667E+009;1.565759479999542E-001;7.949554920196533E-002;1.280632102862001E-003;-6.626521237194538E-003;
2.401833333333334E+009;1.571313142776489E-001;7.671334594488144E-002;1.160544925369322E-003;-6.648565176874399E-003;
2.402000000000000E+009;1.578901112079620E-001;7.401242107152939E-002;9.023750317282975E-004;-6.701029371470213E-003;
2.402166666666667E+009;1.588188409805298E-001;7.142420858144760E-002;5.364933167584240E-004;-6.800800561904907E-003;
2.402333333333334E+009;1.597784161567688E-001;6.872234493494034E-002;3.343572025187314E-004;-6.892349105328322E-003;
2.402500000000000E+009;1.610227227210999E-001;6.624387949705124E-002;2.113445771101397E-005;-6.861666217446327E-003;
2.402666666666667E+009;1.620648801326752E-001;6.398838013410568E-002;-4.098726203665137E-004;-7.119811605662108E-003;
2.402833333333334E+009;1.634429395198822E-001;6.124164164066315E-002;-5.459144595079124E-004;-6.965780165046454E-003;
2.403000000000000E+009;1.649926900863648E-001;5.903020501136780E-002;-7.805681671015918E-004;-7.133491337299347E-003;
2.403166666666667E+009;1.666191518306732E-001;5.694718286395073E-002;-1.072576385922730E-003;-6.959863938391209E-003;
2.403333333333334E+009;1.679410487413406E-001;5.464625358581543E-002;-1.316405949182808E-003;-6.975488271564245E-003;
2.403500000000000E+009;1.697853058576584E-001;5.274048075079918E-002;-1.532252994365990E-003;-6.916793994605541E-003;
2.403666666666667E+009;1.714352369308472E-001;5.080980062484741E-002;-1.894188579171896E-003;-6.757138296961784E-003;
2.403833333333334E+009;1.730334609746933E-001;4.877621307969093E-002;-2.112441463395953E-003;-6.769768893718720E-003;
2.404000000000000E+009;1.745429486036301E-001;4.724973812699318E-002;-2.401573350653052E-003;-6.757649593055248E-003;
2.404166666666667E+009;1.764274090528488E-001;4.563773050904274E-002;-2.741409698501229E-003;-6.448369007557631E-003;
2.404333333333334E+009;1.780249029397965E-001;4.423041641712189E-002;-2.871441887691617E-003;-6.389135029166937E-003;
2.404500000000000E+009;1.796954125165939E-001;4.278574511408806E-002;-3.056341316550970E-003;-6.389933172613382E-003;
2.404666666666667E+009;1.811279207468033E-001;4.170009121298790E-002;-3.348508384078741E-003;-6.189659703522921E-003;
2.404833333333334E+009;1.827357709407806E-001;4.057024791836739E-002;-3.612230764701963E-003;-6.000722758471966E-003;
2.405000000000000E+009;1.842478364706039E-001;3.991993889212608E-002;-3.921425901353359E-003;-5.797276739031076E-003;
2.405166666666667E+009;1.856223791837692E-001;3.935187682509422E-002;-4.057432990521193E-003;-5.614085588604212E-003;
2.405333333333334E+009;1.870524287223816E-001;3.870236501097679E-002;-4.485357552766800E-003;-5.436344072222710E-003;
2.405500000000000E+009;1.883257031440735E-001;3.835200890898705E-002;-4.633163567632437E-003;-5.218123551458120E-003;
2.405666666666667E+009;1.896265894174576E-001;3.794480115175247E-002;-4.807975143194199E-003;-5.115481093525887E-003;
2.405833333333334E+009;1.908325999975205E-001;3.762109205126762E-002;-4.942800849676132E-003;-4.885216709226370E-003;
2.406000000000000E+009;1.917240321636200E-001;3.762123733758926E-002;-5.354830529540777E-003;-4.653810989111662E-003;
2.406166666666667E+009;1.927053630352020E-001;3.747642785310745E-002;-5.450687836855650E-003;-4.227239638566971E-003;
2.406333333333334E+009;1.935750544071198E-001;3.739485889673233E-002;-5.554302129894495E-003;-4.215578082948923E-003;
2.406500000000000E+009;1.942548900842667E-001;3.754943236708641E-002;-5.669318605214357E-003;-3.744248766452074E-003;
2.406666666666667E+009;1.949686259031296E-001;3.752769529819489E-002;-5.702213849872351E-003;-3.336842171847820E-003;
2.406833333333334E+009;1.953725069761276E-001;3.751455619931221E-002;-5.829668603837490E-003;-3.218574915081263E-003;
2.407000000000000E+009;1.957347542047501E-001;3.781431913375855E-002;-5.745321977883577E-003;-2.941101789474487E-003;
2.407166666666667E+009;1.961103528738022E-001;3.762053698301315E-002;-5.850139074027538E-003;-2.747622318565846E-003;
2.407333333333334E+009;1.959559321403503E-001;3.776977956295013E-002;-5.982131697237492E-003;-2.459063660353422E-003;
2.407500000000000E+009;1.959152519702911E-001;3.785315155982971E-002;-5.704538431018591E-003;-2.188316313549876E-003;
2.407666666666667E+009;1.959464401006699E-001;3.772862255573273E-002;-5.907730665057898E-003;-1.828556298278272E-003;
2.407833333333334E+009;1.954925805330277E-001;3.776087984442711E-002;-5.823204293847084E-003;-1.630019629374147E-003;
2.408000000000000E+009;1.954015046358109E-001;3.748312592506409E-002;-5.815901327878237E-003;-1.566279446706176E-003;
2.408166666666667E+009;1.947044283151627E-001;3.716517612338066E-002;-5.832341033965349E-003;-1.299429335631430E-003;
2.408333333333334E+009;1.942968368530273E-001;3.669161722064018E-002;-5.714059341698885E-003;-1.127645839005709E-003;
2.408500000000000E+009;1.935470402240753E-001;3.639428690075874E-002;-5.649041850119829E-003;-9.262413368560374E-004;
2.408666666666667E+009;1.930180341005325E-001;3.570999950170517E-002;-5.456887185573578E-003;-6.194190937094390E-004;
2.408833333333334E+009;1.922076344490051E-001;3.502589464187622E-002;-5.385729949921370E-003;-4.527647106442601E-004;
2.409000000000000E+009;1.913482993841171E-001;3.406171873211861E-002;-5.408092401921749E-003;-1.722484012134373E-004;
2.409166666666667E+009;1.902592480182648E-001;3.307618200778961E-002;-5.211195442825556E-003;-1.795393473003060E-004;
2.409333333333334E+009;1.893788576126099E-001;3.209660574793816E-002;-5.112346261739731E-003;-1.498208439443260E-004;
2.409500000000000E+009;1.883449852466583E-001;3.077427484095097E-002;-4.978902637958527E-003;3.089201345574111E-005;
2.409666666666667E+009;1.872739791870117E-001;2.942740172147751E-002;-4.947394598275423E-003;9.624286030884832E-005;
2.409833333333334E+009;1.863156408071518E-001;2.781496569514275E-002;-4.963581915944815E-003;2.036170626524836E-004;
2.410000000000000E+009;1.852394938468933E-001;2.628226019442082E-002;-4.593993071466684E-003;1.587628794368357E-004;
2.410166666666667E+009;1.841757446527481E-001;2.447160147130489E-002;-4.620174877345562E-003;2.633132389746606E-004;
2.410333333333334E+009;1.834224462509155E-001;2.254633419215679E-002;-4.556663334369659E-003;2.402548707323149E-004;
2.410500000000000E+009;1.822789758443832E-001;2.069414034485817E-002;-4.425839520990849E-003;2.652064431458712E-004;
2.410666666666667E+009;1.814939677715302E-001;1.841885410249233E-002;-4.521942231804133E-003;2.792850718833506E-004;
2.410833333333334E+009;1.806353628635407E-001;1.631302759051323E-002;-4.455393645912409E-003;3.872809465974569E-004;
2.411000000000000E+009;1.801154613494873E-001;1.417300105094910E-002;-4.319029860198498E-003;2.987134503200650E-004;
2.411166666666667E+009;1.793738752603531E-001;1.207071263343096E-002;-4.262533970177174E-003;4.171677574049681E-004;
2.411333333333334E+009;1.789134144783020E-001;9.516035206615925E-003;-4.368178546428680E-003;5.424403352662921E-004;
2.411500000000000E+009;1.784541457891464E-001;7.122997194528580E-003;-4.202287644147873E-003;4.719072021543980E-004;
2.411666666666667E+009;1.782862842082977E-001;4.767270758748055E-003;-4.335233941674233E-003;5.545587046071887E-004;
2.411833333333334E+009;1.780948638916016E-001;2.174038207158446E-003;-4.319621250033379E-003;5.688027595169842E-004;
2.412000000000000E+009;1.781406551599503E-001;-2.356076438445598E-004;-4.263972863554955E-003;5.760506610386074E-004;
2.412166666666667E+009;1.782114207744598E-001;-2.522329101338983E-003;-4.279607906937599E-003;6.532976403832436E-004;
2.412333333333334E+009;1.783856004476547E-001;-5.008893087506294E-003;-4.152741283178330E-003;6.608698749914765E-004;
2.412500000000000E+009;1.790548861026764E-001;-7.329529616981745E-003;-4.116032272577286E-003;6.140327895991504E-004;
2.412666666666667E+009;1.793988943099976E-001;-9.771837852895260E-003;-4.316061269491911E-003;6.770591135136783E-004;
2.412833333333334E+009;1.801135540008545E-001;-1.237821858376265E-002;-4.136938601732254E-003;7.383621414192021E-004;
2.413000000000000E+009;1.808378398418427E-001;-1.460802741348743E-002;-4.305131733417511E-003;9.039129945449531E-004;
2.413166666666667E+009;1.814328581094742E-001;-1.677900739014149E-002;-4.365696571767330E-003;8.955299854278565E-004;
2.413333333333334E+009;1.826631426811218E-001;-1.921503990888596E-002;-4.579904954880476E-003;1.019431161694229E-003;
2.413500000000000E+009;1.834487318992615E-001;-2.145041339099407E-002;-4.610390868037939E-003;1.315229572355747E-003;
2.413666666666667E+009;1.847433447837830E-001;-2.347442507743835E-002;-4.665553104132414E-003;1.493772957473993E-003;
2.413833333333334E+009;1.857341080904007E-001;-2.549752034246922E-002;-4.536851309239864E-003;1.652071019634605E-003;
2.414000000000000E+009;1.870145052671433E-001;-2.728913165628910E-002;-4.594839178025723E-003;1.880347961559892E-003;
2.414166666666667E+009;1.881528645753861E-001;-2.917769178748131E-002;-4.610293544828892E-003;1.972670201212168E-003;
2.414333333333334E+009;1.893443316221237E-001;-3.112530149519444E-002;-4.559695720672607E-003;2.216562163084745E-003;
2.414500000000000E+009;1.905844807624817E-001;-3.252203390002251E-002;-4.481012467294931E-003;2.157769631594420E-003;
2.414666666666667E+009;1.917438060045242E-001;-3.410426527261734E-002;-4.494528751820326E-003;2.380145248025656E-003;
2.414833333333334E+009;1.928053796291351E-001;-3.530623018741608E-002;-4.327092319726944E-003;2.484692260622978E-003;
2.415000000000000E+009;1.939400881528854E-001;-3.666860237717629E-002;-4.239927977323532E-003;2.696692943572998E-003;
2.415166666666667E+009;1.951426714658737E-001;-3.777734562754631E-002;-4.248813260346651E-003;2.778568072244525E-003;
2.415333333333334E+009;1.961420476436615E-001;-3.870091587305069E-002;-4.194239154458046E-003;2.965942723676562E-003;
2.415500000000000E+009;1.973390579223633E-001;-3.934048116207123E-002;-3.963700029999018E-003;3.122559981420636E-003;
2.415666666666667E+009;1.983306407928467E-001;-4.004071280360222E-002;-3.883709432557225E-003;3.158574923872948E-003;
2.415833333333334E+009;1.991578191518784E-001;-4.067946225404739E-002;-4.003111273050308E-003;3.398222150281072E-003;
2.416000000000000E+009;1.999638676643372E-001;-4.112520068883896E-002;-3.936233930289745E-003;3.562482772395015E-003;
2.416166666666667E+009;2.005988061428070E-001;-4.182638972997665E-002;-3.911644220352173E-003;3.633010666817427E-003;
2.416333333333334E+009;2.012488692998886E-001;-4.196894913911820E-002;-3.852429334074259E-003;3.789306618273258E-003;
2.416500000000000E+009;2.018672525882721E-001;-4.217159748077393E-002;-3.845597617328167E-003;3.976753447204828E-003;
2.416666666666667E+009;2.019838839769363E-001;-4.246633499860764E-002;-3.772265277802944E-003;4.232195205986500E-003;
2.416833333333334E+009;2.023056894540787E-001;-4.248603805899620E-002;-3.529336536303163E-003;4.343271255493164E-003;
2.417000000000000E+009;2.023807764053345E-001;-4.264298453927040E-002;-3.340478520840406E-003;4.574121907353401E-003;
2.417166666666667E+009;2.020028233528137E-001;-4.241593554615974E-002;-3.245892468839884E-003;4.677914083003998E-003;
2.417333333333334E+009;2.019340991973877E-001;-4.234265163540840E-002;-3.078985959291458E-003;4.864356480538845E-003;
2.417500000000000E+009;2.015987783670425E-001;-4.230419918894768E-002;-2.773678628727794E-003;4.996905103325844E-003;
2.417666666666667E+009;2.011049687862396E-001;-4.212805628776550E-002;-2.698790980502963E-003;5.157574545592070E-003;
2.417833333333334E+009;2.006486058235169E-001;-4.184770584106445E-002;-2.382327336817980E-003;5.193931981921196E-003;
2.418000000000000E+009;1.999617069959641E-001;-4.174291715025902E-002;-2.336656441912055E-003;5.218259524554014E-003;
2.418166666666667E+009;1.991320401430130E-001;-4.166552424430847E-002;-2.099892590194941E-003;5.397854838520289E-003;
2.418333333333334E+009;1.982557475566864E-001;-4.146384075284004E-002;-1.996292266994715E-003;5.312031600624323E-003;
2.418500000000000E+009;1.972930431365967E-001;-4.146628081798554E-002;-1.849098480306566E-003;5.432386882603169E-003;
2.418666666666667E+009;1.964136362075806E-001;-4.134156554937363E-002;-1.505546388216317E-003;5.531578324735165E-003;
2.418833333333334E+009;1.951693296432495E-001;-4.155071452260017E-002;-1.235937117598951E-003;5.570994690060616E-003;
2.419000000000000E+009;1.937152743339539E-001;-4.178581014275551E-002;-1.172086806036532E-003;5.647144746035337E-003;
2.419166666666667E+009;1.926032304763794E-001;-4.215261712670326E-002;-9.272655588574708E-004;5.769429728388786E-003;
2.419333333333334E+009;1.911727190017700E-001;-4.265585914254189E-002;-6.789186736568809E-004;5.551964975893498E-003;
2.419500000000000E+009;1.897162050008774E-001;-4.310509562492371E-002;-4.728939093183726E-004;5.612373817712069E-003;
2.419666666666667E+009;1.881763786077499E-001;-4.397397488355637E-002;-4.287128685973585E-004;5.602668505162001E-003;
2.419833333333334E+009;1.865514963865280E-001;-4.457531124353409E-002;-1.200965416501276E-004;5.445912014693022E-003;
2.420000000000000E+009;1.851279288530350E-001;-4.542659595608711E-002;-8.257332956418395E-005;5.402680486440659E-003;
2.420166666666667E+009;1.835093796253204E-001;-4.626561328768730E-002;2.373083843849599E-004;5.520229693502188E-003;
2.420333333333334E+009;1.817192137241364E-001;-4.756692796945572E-002;3.336379013489932E-004;5.474001169204712E-003;
2.420500000000000E+009;1.801618486642838E-001;-4.896531254053116E-002;5.311016575433314E-004;5.444939248263836E-003;
2.420666666666667E+009;1.785821616649628E-001;-5.005048960447311E-002;7.651700288988650E-004;5.313624162226915E-003;
2.420833333333334E+009;1.769158393144608E-001;-5.174523964524269E-002;8.511457708664239E-004;5.197667516767979E-003;
2.421000000000000E+009;1.754199117422104E-001;-5.333429574966431E-002;9.709614096209407E-004;5.022931843996048E-003;
2.421166666666667E+009;1.741723865270615E-001;-5.491870641708374E-002;1.142999040894210E-003;5.121134687215090E-003;
2.421333333333334E+009;1.726092547178268E-001;-5.642445385456085E-002;1.196213997900486E-003;5.044094286859036E-003;
2.421500000000000E+009;1.712984740734100E-001;-5.840327963232994E-002;1.271914807148278E-003;4.967338871210814E-003;
2.421666666666667E+009;1.700298190116882E-001;-6.010124087333679E-002;1.636694883927703E-003;5.025809630751610E-003;
2.421833333333334E+009;1.689176410436630E-001;-6.204813346266747E-002;1.705889706499875E-003;4.746383987367153E-003;
2.422000000000000E+009;1.678458452224731E-001;-6.393388658761978E-002;1.718266285024583E-003;4.736889619380236E-003;
2.422166666666667E+009;1.669767796993256E-001;-6.598111987113953E-002;1.940084737725556E-003;4.578978288918734E-003;
2.422333333333334E+009;1.661262810230255E-001;-6.812904030084610E-002;2.086580963805318E-003;4.469270817935467E-003;
2.422500000000000E+009;1.654637306928635E-001;-6.993403285741806E-002;2.098117489367724E-003;4.416391719132662E-003;
2.422666666666667E+009;1.646222770214081E-001;-7.210201025009155E-002;2.258247230201960E-003;4.436098039150238E-003;
2.422833333333334E+009;1.642715334892273E-001;-7.419477403163910E-002;2.404747763648629E-003;4.310584627091885E-003;
2.423000000000000E+009;1.636886000633240E-001;-7.600134611129761E-002;2.316911704838276E-003;4.152276087552309E-003;
2.423166666666667E+009;1.633997559547424E-001;-7.817534357309341E-002;2.439628820866346E-003;4.197809379547834E-003;
2.423333333333334E+009;1.630938351154327E-001;-8.018988370895386E-002;2.497812267392874E-003;4.054845310747623E-003;
2.423500000000000E+009;1.630276888608933E-001;-8.189664036035538E-002;2.717836759984493E-003;3.999055828899145E-003;
2.423666666666667E+009;1.630332469940186E-001;-8.384582400321960E-002;2.860229695215821E-003;3.799957223236561E-003;
2.423833333333334E+009;1.630275249481201E-001;-8.564461022615433E-002;2.861252287402749E-003;3.816595533862710E-003;
2.424000000000000E+009;1.631450951099396E-001;-8.746638894081116E-002;3.028415376320481E-003;3.602438140660524E-003;
2.424166666666667E+009;1.633201390504837E-001;-8.898863196372986E-002;3.041532123461366E-003;3.493854776024818E-003;
2.424333333333334E+009;1.635594069957733E-001;-9.045214951038361E-002;2.990820445120335E-003;3.398975590243936E-003;
2.424500000000000E+009;1.638542860746384E-001;-9.227120131254196E-002;3.190707881003618E-003;3.391593694686890E-003;
2.424666666666667E+009;1.639493405818939E-001;-9.357574582099915E-002;3.356040921062231E-003;3.274589544162154E-003;
2.424833333333334E+009;1.647354364395142E-001;-9.483156353235245E-002;3.565014572814107E-003;3.117200452834368E-003;
2.425000000000000E+009;1.649551689624786E-001;-9.598539769649506E-002;3.565483959391713E-003;2.860522130504251E-003;
2.425166666666667E+009;1.653475761413574E-001;-9.708939492702484E-002;3.508559660986066E-003;2.815121086314321E-003;
2.425333333333334E+009;1.655791848897934E-001;-9.813112765550613E-002;3.561581019312143E-003;2.748791826888919E-003;
2.425500000000000E+009;1.661570221185684E-001;-9.908752143383026E-002;3.747111419215798E-003;2.623922657221556E-003;
2.425666666666667E+009;1.665352433919907E-001;-9.966351836919785E-002;3.741654334589839E-003;2.429638057947159E-003;
2.425833333333334E+009;1.667530387639999E-001;-1.005093157291412E-001;3.954648971557617E-003;2.234925748780370E-003;
2.426000000000000E+009;1.671282202005386E-001;-1.009196043014526E-001;3.695402992889285E-003;2.204375108703971E-003;
2.426166666666667E+009;1.676352322101593E-001;-1.013977155089378E-001;3.775405464693904E-003;2.033847151324153E-003;
2.426333333333334E+009;1.676978021860123E-001;-1.019464731216431E-001;3.767432644963265E-003;1.949913101270795E-003;
2.426500000000000E+009;1.680485457181931E-001;-1.021765619516373E-001;3.930957987904549E-003;1.785046304576099E-003;
2.426666666666667E+009;1.682987511157990E-001;-1.025683656334877E-001;3.861785633489490E-003;1.637559151276946E-003;
2.426833333333334E+009;1.684313118457794E-001;-1.026960238814354E-001;3.791066352277994E-003;1.666607218794525E-003;
2.427000000000000E+009;1.684317141771317E-001;-1.029512137174606E-001;3.888639388605952E-003;1.634234562516213E-003;
2.427166666666667E+009;1.683876067399979E-001;-1.029904484748840E-001;3.781233681365848E-003;1.565080485306680E-003;
2.427333333333334E+009;1.683450341224670E-001;-1.033176854252815E-001;3.803065977990627E-003;1.550479792058468E-003;
2.427500000000000E+009;1.680167913436890E-001;-1.034176051616669E-001;3.808928886428475E-003;1.378790126182139E-003;
2.427666666666667E+009;1.677186191082001E-001;-1.035323515534401E-001;3.863981226459146E-003;1.171014155261219E-003;
2.427833333333334E+009;1.672681123018265E-001;-1.036370173096657E-001;3.791420022025704E-003;1.082928036339581E-003;
