# Version 1.00
#
freq[Hz];re:Trc1_S11;im:Trc1_S11;re:Trc2_S21;im:Trc2_S21;
2.400000000000000E+009;1.553988307714462E-001;1.065494343638420E-001;3.144951537251473E-003;-5.349805112928152E-003;
2.400166666666667E+009;1.551555544137955E-001;1.041848957538605E-001;2.856167731806636E-003;-5.579307675361633E-003;
2.400333333333334E+009;1.552051752805710E-001;1.016628742218018E-001;2.866441383957863E-003;-5.612790118902922E-003;
2.400500000000000E+009;1.553216874599457E-001;9.904557466506958E-002;2.544908784329891E-003;-5.822881590574980E-003;
2.400666666666667E+009;1.552895009517670E-001;9.647896885871887E-002;2.393487375229597E-003;-6.035615690052509E-003;
2.400833333333334E+009;1.553675234317780E-001;9.361205250024796E-002;2.279560081660748E-003;-6.168042775243521E-003;
2.401000000000000E+009;1.553998440504074E-001;9.075297415256500E-002;2.035960555076599E-003;-6.236908491700888E-003;
2.401166666666667E+009;1.554604470729828E-001;8.790004253387451E-002;1.908250036649406E-003;-6.256903056055307E-003;
2.401333333333334E+009;1.559873819351196E-001;8.527043461799622E-002;1.607862999662757E-003;-6.468644365668297E-003;
2.401500000000000E+009;1.563653796911240E-001;8.230771869421005E-002;1.543384045362473E-003;-6.483324803411961E-003;
2.401666666666667E+009;1.565934568643570E-001;7.936933636665344E-002;1.142306835390627E-003;-6.618650164455175E-003;
2.401833333333334E+009;1.571572721004486E-001;7.670756429433823E-002;9.033250971697271E-004;-6.713703274726868E-003;
2.402000000000000E+009;1.580516099929810E-001;7.382635772228241E-002;7.990231388248503E-004;-6.765437312424183E-003;
2.402166666666667E+009;1.588717848062515E-001;7.172525674104691E-002;4.162519471719861E-004;-6.847645156085491E-003;
2.402333333333334E+009;1.598328202962875E-001;6.876542419195175E-002;3.417978878132999E-004;-6.929214578121901E-003;
2.402500000000000E+009;1.610980033874512E-001;6.622728705406189E-002;9.963322372641414E-005;-6.870763376355171E-003;
2.402666666666667E+009;1.621954590082169E-001;6.343474984169006E-002;-1.956911437446252E-004;-7.110676728188992E-003;
2.402833333333334E+009;1.633959859609604E-001;6.122069805860519E-002;-6.726576248183847E-004;-7.007549516856670E-003;
2.403000000000000E+009;1.647788733243942E-001;5.913225188851357E-002;-7.108572754077613E-004;-6.917560007423163E-003;
2.403166666666667E+009;1.666413545608521E-001;5.695733800530434E-002;-1.097828499041498E-003;-6.917224265635014E-003;
2.403333333333334E+009;1.681458353996277E-001;5.462184548377991E-002;-1.240506651811302E-003;-6.873160600662231E-003;
2.403500000000000E+009;1.697535961866379E-001;5.274382606148720E-002;-1.648587058298290E-003;-6.953771226108074E-003;
2.403666666666667E+009;1.715039461851120E-001;5.084017664194107E-002;-1.968337688595057E-003;-6.712070200592279E-003;
2.403833333333334E+009;1.730405986309052E-001;4.887434095144272E-002;-2.123891375958920E-003;-6.765525322407484E-003;
2.404000000000000E+009;1.746055483818054E-001;4.714186862111092E-002;-2.336551202461124E-003;-6.503426469862461E-003;
2.404166666666667E+009;1.763817667961121E-001;4.568347334861755E-002;-2.745714271441102E-003;-6.617809180170298E-003;
2.404333333333334E+009;1.779246479272842E-001;4.418075084686279E-002;-2.920532133430243E-003;-6.413148250430822E-003;
2.404500000000000E+009;1.795490533113480E-001;4.293436557054520E-002;-3.118293592706323E-003;-6.257443223148584E-003;
2.404666666666667E+009;1.811860352754593E-001;4.175424575805664E-002;-3.317106049507856E-003;-6.147200707346201E-003;
2.404833333333334E+009;1.828831583261490E-001;4.051743075251579E-002;-3.652758896350861E-003;-5.967019591480494E-003;
2.405000000000000E+009;1.841712445020676E-001;3.998905420303345E-002;-3.825471270829439E-003;-6.048522423952818E-003;
2.405166666666667E+009;1.856524348258972E-001;3.926856070756912E-002;-4.084360785782337E-003;-5.704439245164394E-003;
2.405333333333334E+009;1.870445013046265E-001;3.883867710828781E-002;-4.305529408156872E-003;-5.554800853133202E-003;
2.405500000000000E+009;1.883973479270935E-001;3.828027471899986E-002;-4.653098993003368E-003;-5.397358443588018E-003;
2.405666666666667E+009;1.896317601203919E-001;3.803779557347298E-002;-4.806131590157747E-003;-5.252857226878405E-003;
2.405833333333334E+009;1.910331547260284E-001;3.777137026190758E-002;-5.609944928437471E-003;-4.908417817205191E-003;
2.406000000000000E+009;1.918461024761200E-001;3.763577714562416E-002;-5.152926780283451E-003;-4.756949376314879E-003;
2.406166666666667E+009;1.925656497478485E-001;3.745306655764580E-002;-5.191522184759378E-003;-4.489754792302847E-003;
2.406333333333334E+009;1.938868165016174E-001;3.729589655995369E-002;-5.683307535946369E-003;-4.030726384371519E-003;
2.406500000000000E+009;1.944896280765533E-001;3.725460544228554E-002;-5.821619648486376E-003;-3.371969796717167E-003;
2.406666666666667E+009;1.949830502271652E-001;3.752119094133377E-002;-5.669923499226570E-003;-3.603315679356456E-003;
2.406833333333334E+009;1.952501684427261E-001;3.743590787053108E-002;-5.564337596297264E-003;-3.189863637089729E-003;
2.407000000000000E+009;1.960249841213226E-001;3.745619580149651E-002;-6.276939995586872E-003;-2.397578908130527E-003;
2.407166666666667E+009;1.961012780666351E-001;3.753822296857834E-002;-6.172623485326767E-003;-2.834304235875607E-003;
2.407333333333334E+009;1.960385888814926E-001;3.760500997304916E-002;-5.878870841115713E-003;-2.260790672153235E-003;
2.407500000000000E+009;1.959350556135178E-001;3.777864947915077E-002;-5.845593288540840E-003;-2.367369364947081E-003;
2.407666666666667E+009;1.958575546741486E-001;3.776430711150169E-002;-5.715013481676579E-003;-1.781604718416929E-003;
2.407833333333334E+009;1.954892575740814E-001;3.766068443655968E-002;-5.922755692154169E-003;-1.679917215369642E-003;
2.408000000000000E+009;1.953549385070801E-001;3.742542117834091E-002;-5.853704642504454E-003;-1.459153601899743E-003;
2.408166666666667E+009;1.947625726461411E-001;3.705510497093201E-002;-5.830809473991394E-003;-1.337312860414386E-003;
2.408333333333334E+009;1.943612694740295E-001;3.665669262409210E-002;-5.700400564819574E-003;-9.980980539694428E-004;
2.408500000000000E+009;1.937324404716492E-001;3.635674715042114E-002;-5.550064612179995E-003;-8.137294789776206E-004;
2.408666666666667E+009;1.929820328950882E-001;3.585619479417801E-002;-5.609995219856501E-003;-6.566699594259262E-004;
2.408833333333334E+009;1.922639459371567E-001;3.501545637845993E-002;-5.369423888623714E-003;-5.315255839377642E-004;
2.409000000000000E+009;1.912648975849152E-001;3.402291610836983E-002;-5.239743273705244E-003;-2.904428984038532E-004;
2.409166666666667E+009;1.901911795139313E-001;3.312379121780396E-002;-5.213126074522734E-003;-3.301265242043883E-004;
2.409333333333334E+009;1.894772797822952E-001;3.204932808876038E-002;-5.007732193917036E-003;9.405231139680836E-006;
2.409500000000000E+009;1.883738040924072E-001;3.075233288109303E-002;-4.863185808062553E-003;-1.130476885009557E-004;
2.409666666666667E+009;1.872857511043549E-001;2.942286431789398E-002;-4.879596643149853E-003;3.792221468756907E-005;
2.409833333333334E+009;1.862151175737381E-001;2.784009650349617E-002;-4.790128674358130E-003;6.986588414292783E-005;
2.410000000000000E+009;1.853151172399521E-001;2.614821679890156E-002;-4.670363850891590E-003;1.932683371705934E-004;
2.410166666666667E+009;1.841029822826386E-001;2.439095266163349E-002;-4.525813274085522E-003;2.349748247070238E-004;
2.410333333333334E+009;1.833359450101852E-001;2.266450971364975E-002;-4.563537891954184E-003;2.518917608540505E-004;
2.410500000000000E+009;1.823789179325104E-001;2.070620656013489E-002;-4.488954786211252E-003;2.112161746481434E-004;
2.410666666666667E+009;1.813619732856751E-001;1.836463063955307E-002;-4.378568846732378E-003;2.000816748477519E-004;
2.410833333333334E+009;1.808210015296936E-001;1.617434434592724E-002;-4.329449497163296E-003;3.240208025090396E-004;
2.411000000000000E+009;1.799250096082687E-001;1.409861259162426E-002;-4.393012262880802E-003;4.139734664931893E-004;
2.411166666666667E+009;1.795176267623901E-001;1.188964396715164E-002;-4.319466650485992E-003;5.249425885267556E-004;
2.411333333333334E+009;1.788698434829712E-001;9.355424903333187E-003;-4.462081473320723E-003;4.873358411714435E-004;
2.411500000000000E+009;1.783544421195984E-001;7.033330388367176E-003;-4.310904536396265E-003;4.949172143824399E-004;
2.411666666666667E+009;1.782774627208710E-001;4.732042085379362E-003;-4.212064202874899E-003;5.983669543638825E-004;
2.411833333333334E+009;1.779507845640183E-001;2.360954880714417E-003;-4.161659628152847E-003;6.420328281819820E-004;
2.412000000000000E+009;1.782568991184235E-001;-3.372746577952057E-004;-4.063852131366730E-003;6.240324000827968E-004;
2.412166666666667E+009;1.781824529170990E-001;-2.530949190258980E-003;-4.126544110476971E-003;6.426351610571146E-004;
2.412333333333334E+009;1.783169656991959E-001;-5.064124241471291E-003;-4.190875217318535E-003;6.590813864022493E-004;
2.412500000000000E+009;1.789877563714981E-001;-7.449209224432707E-003;-4.139770753681660E-003;6.958325975574553E-004;
2.412666666666667E+009;1.794403195381165E-001;-1.000126544386149E-002;-4.283749964088202E-003;6.930866511538625E-004;
2.412833333333334E+009;1.800581812858582E-001;-1.225862279534340E-002;-4.198182374238968E-003;7.799523882567883E-004;
2.413000000000000E+009;1.808107197284699E-001;-1.469472702592611E-002;-4.393784794956446E-003;9.890655055642128E-004;
2.413166666666667E+009;1.815954446792603E-001;-1.679328456521034E-002;-4.265845287591219E-003;1.074604340828955E-003;
2.413333333333334E+009;1.826949566602707E-001;-1.924965344369412E-002;-4.531423561275005E-003;9.835476521402597E-004;
2.413500000000000E+009;1.834633201360703E-001;-2.150404639542103E-002;-4.534427076578140E-003;1.120230183005333E-003;
2.413666666666667E+009;1.846334189176559E-001;-2.350630052387714E-002;-4.659524187445641E-003;1.423641457222402E-003;
2.413833333333334E+009;1.857299357652664E-001;-2.548051066696644E-002;-4.591404460370541E-003;1.430692616850138E-003;
2.414000000000000E+009;1.868314445018768E-001;-2.749990113079548E-002;-4.613903816789389E-003;1.773877418600023E-003;
2.414166666666667E+009;1.881283819675446E-001;-2.908769436180592E-002;-4.578352440148592E-003;1.921736868098378E-003;
2.414333333333334E+009;1.892589181661606E-001;-3.110407106578350E-002;-4.653810057789087E-003;1.914413529448211E-003;
2.414500000000000E+009;1.904340088367462E-001;-3.244676440954208E-002;-4.581829067319632E-003;2.374694449827075E-003;
2.414666666666667E+009;1.918239593505859E-001;-3.401989489793778E-002;-4.363574087619782E-003;2.409599255770445E-003;
2.414833333333334E+009;1.927717924118042E-001;-3.543523326516151E-002;-4.322271794080734E-003;2.612212207168341E-003;
2.415000000000000E+009;1.938619762659073E-001;-3.668583557009697E-002;-4.362991545349360E-003;2.665206789970398E-003;
2.415166666666667E+009;1.951506882905960E-001;-3.776536509394646E-002;-4.244183190166950E-003;2.782726427540183E-003;
2.415333333333334E+009;1.961898207664490E-001;-3.858394920825958E-002;-4.061702638864517E-003;2.870331285521388E-003;
2.415500000000000E+009;1.973473280668259E-001;-3.929100185632706E-002;-4.098449368029833E-003;3.020571544766426E-003;
2.415666666666667E+009;1.982872635126114E-001;-4.011646658182144E-002;-4.169442690908909E-003;3.139734966680408E-003;
2.415833333333334E+009;1.992307454347611E-001;-4.069807380437851E-002;-3.998799715191126E-003;3.175158752128482E-003;
2.416000000000000E+009;1.999892592430115E-001;-4.118950664997101E-002;-4.070636816322804E-003;3.442816901952028E-003;
2.416166666666667E+009;2.005767971277237E-001;-4.167868942022324E-002;-3.953172359615564E-003;3.624664153903723E-003;
2.416333333333334E+009;2.012029290199280E-001;-4.197037220001221E-002;-3.836295334622264E-003;3.695931052789092E-003;
2.416500000000000E+009;2.017019838094711E-001;-4.212327674031258E-002;-3.742305096238852E-003;4.017599858343601E-003;
2.416666666666667E+009;2.020434737205505E-001;-4.245045036077499E-002;-3.759717335924506E-003;4.326792433857918E-003;
2.416833333333334E+009;2.021794319152832E-001;-4.249529540538788E-002;-3.545684739947319E-003;4.332510288804770E-003;
2.417000000000000E+009;2.023357450962067E-001;-4.257733002305031E-002;-3.456641919910908E-003;4.439605865627527E-003;
2.417166666666667E+009;2.021483331918716E-001;-4.244745522737503E-002;-3.295730100944638E-003;4.808502737432718E-003;
2.417333333333334E+009;2.017909586429596E-001;-4.228224977850914E-002;-3.032697364687920E-003;4.802448209375143E-003;
2.417500000000000E+009;2.016012221574783E-001;-4.236477613449097E-002;-2.853792160749435E-003;5.001456011086702E-003;
2.417666666666667E+009;2.009865343570709E-001;-4.210127890110016E-002;-2.809915924444795E-003;5.171431228518486E-003;
2.417833333333334E+009;2.007049322128296E-001;-4.194475710391998E-002;-2.520198468118906E-003;5.204274784773588E-003;
2.418000000000000E+009;1.999914348125458E-001;-4.175976663827896E-002;-2.264303853735328E-003;5.367272067815065E-003;
2.418166666666667E+009;1.991540491580963E-001;-4.161479696631432E-002;-2.113858237862587E-003;5.382653791457415E-003;
2.418333333333334E+009;1.981955021619797E-001;-4.150297492742539E-002;-1.916114590130746E-003;5.487646907567978E-003;
2.418500000000000E+009;1.973104923963547E-001;-4.158754274249077E-002;-1.880902098491788E-003;5.382494069635868E-003;
2.418666666666667E+009;1.963049769401550E-001;-4.148532822728157E-002;-1.434965990483761E-003;5.451507866382599E-003;
2.418833333333334E+009;1.950448602437973E-001;-4.167794063687325E-002;-1.260334160178900E-003;5.570630077272654E-003;
2.419000000000000E+009;1.939087957143784E-001;-4.185936972498894E-002;-1.146142720244825E-003;5.622062832117081E-003;
2.419166666666667E+009;1.925020515918732E-001;-4.215147346258164E-002;-1.008409541100264E-003;5.676592234522104E-003;
2.419333333333334E+009;1.910768449306488E-001;-4.270175844430924E-002;-7.875997689552605E-004;5.521194543689489E-003;
2.419500000000000E+009;1.895645558834076E-001;-4.309581220149994E-002;-6.515063578262925E-004;5.644098389893770E-003;
2.419666666666667E+009;1.880832165479660E-001;-4.390794038772583E-002;-2.151462540496141E-004;5.481563042849302E-003;
2.419833333333334E+009;1.864266097545624E-001;-4.461064562201500E-002;-2.950189518742263E-004;5.461086519062519E-003;
2.420000000000000E+009;1.848982125520706E-001;-4.545826464891434E-002;-3.884463876602240E-005;5.458583589643240E-003;
2.420166666666667E+009;1.833546608686447E-001;-4.641755670309067E-002;5.100462658447214E-005;5.544871557503939E-003;
2.420333333333334E+009;1.818571984767914E-001;-4.771721363067627E-002;3.308969899080694E-004;5.514181219041348E-003;
2.420500000000000E+009;1.800801604986191E-001;-4.899144545197487E-002;5.068609025329351E-004;5.337730515748262E-003;
2.420666666666667E+009;1.785277277231216E-001;-5.014955252408981E-002;6.151322741061449E-004;5.199938081204891E-003;
2.420833333333334E+009;1.768687665462494E-001;-5.173675715923309E-002;7.557932403869927E-004;5.130173172801733E-003;
2.421000000000000E+009;1.755727380514145E-001;-5.307382345199585E-002;9.201861103065312E-004;5.182052962481976E-003;
2.421166666666667E+009;1.741714179515839E-001;-5.486930161714554E-002;1.078526023775339E-003;5.062203388661146E-003;
2.421333333333334E+009;1.725657582283020E-001;-5.639350041747093E-002;1.225445768795908E-003;5.205656867474318E-003;
2.421500000000000E+009;1.713449060916901E-001;-5.832030251622200E-002;1.310331979766488E-003;4.996897187083960E-003;
2.421666666666667E+009;1.700382083654404E-001;-6.023273244500160E-002;1.438933657482266E-003;4.954524803906679E-003;
2.421833333333334E+009;1.688538640737534E-001;-6.212035939097405E-002;1.616785884834826E-003;4.875129088759422E-003;
2.422000000000000E+009;1.679139435291290E-001;-6.386944651603699E-002;1.599649316631258E-003;4.672805778682232E-003;
2.422166666666667E+009;1.670781522989273E-001;-6.611452996730804E-002;1.686784322373569E-003;4.639885853976011E-003;
2.422333333333334E+009;1.659613102674484E-001;-6.812343746423721E-002;1.883376040495932E-003;4.589853342622519E-003;
2.422500000000000E+009;1.653147637844086E-001;-7.006864994764328E-002;2.088657580316067E-003;4.533907398581505E-003;
2.422666666666667E+009;1.647032499313355E-001;-7.217117398977280E-002;2.206252189353108E-003;4.388407338410616E-003;
2.422833333333334E+009;1.642841845750809E-001;-7.412298023700714E-002;2.206912729889154E-003;4.304867703467608E-003;
2.423000000000000E+009;1.636313647031784E-001;-7.613037526607513E-002;2.373185008764267E-003;4.319672007113695E-003;
2.423166666666667E+009;1.632951796054840E-001;-7.818647474050522E-002;2.386853797361255E-003;4.074934870004654E-003;
2.423333333333334E+009;1.631353497505188E-001;-8.007392287254334E-002;2.412080066278577E-003;4.156679380685091E-003;
2.423500000000000E+009;1.630607247352600E-001;-8.204381167888641E-002;2.665705513209105E-003;3.952587489038706E-003;
2.423666666666667E+009;1.631646752357483E-001;-8.383841067552567E-002;2.756826113909483E-003;3.859281539916992E-003;
2.423833333333334E+009;1.630065143108368E-001;-8.557495474815369E-002;2.914323005825281E-003;3.863076912239194E-003;
2.424000000000000E+009;1.632955968379974E-001;-8.730717748403549E-002;2.993813483044505E-003;3.688473720103502E-003;
2.424166666666667E+009;1.631519049406052E-001;-8.902042359113693E-002;3.057185094803572E-003;3.709721844643354E-003;
2.424333333333334E+009;1.635296046733856E-001;-9.056832641363144E-002;3.161679720506072E-003;3.549967426806688E-003;
2.424500000000000E+009;1.637870669364929E-001;-9.216082841157913E-002;3.310275729745626E-003;3.466314636170864E-003;
2.424666666666667E+009;1.640947312116623E-001;-9.364748001098633E-002;3.309958614408970E-003;3.288684180006385E-003;
2.424833333333334E+009;1.646808087825775E-001;-9.490589052438736E-002;3.392614657059312E-003;3.372443141415715E-003;
2.425000000000000E+009;1.650319397449493E-001;-9.601298719644547E-002;3.496663179248571E-003;3.018342657014728E-003;
2.425166666666667E+009;1.653787344694138E-001;-9.708286076784134E-002;3.505219938233495E-003;2.956094918772578E-003;
2.425333333333334E+009;1.656789481639862E-001;-9.803577512502670E-002;3.750812029466033E-003;2.742750337347388E-003;
2.425500000000000E+009;1.660115718841553E-001;-9.893007576465607E-002;3.826811909675598E-003;2.661581616848707E-003;
2.425666666666667E+009;1.664662361145020E-001;-9.963399171829224E-002;3.667610697448254E-003;2.537221880629659E-003;
2.425833333333334E+009;1.667779833078384E-001;-1.005344912409782E-001;3.750948933884502E-003;2.192502841353416E-003;
2.426000000000000E+009;1.670979857444763E-001;-1.008566170930862E-001;3.791869850829244E-003;2.176343463361263E-003;
2.426166666666667E+009;1.674651652574539E-001;-1.014033630490303E-001;3.879998810589314E-003;2.063024323433638E-003;
2.426333333333334E+009;1.675551235675812E-001;-1.019731685519218E-001;3.707502502948046E-003;2.074365504086018E-003;
2.426500000000000E+009;1.679473221302033E-001;-1.022014170885086E-001;3.866333980113268E-003;1.925968215800822E-003;
2.426666666666667E+009;1.682465225458145E-001;-1.024280562996864E-001;3.723359899595380E-003;1.818655757233501E-003;
2.426833333333334E+009;1.684449464082718E-001;-1.026617437601090E-001;3.804821986705065E-003;1.752107054926455E-003;
2.427000000000000E+009;1.684338897466660E-001;-1.029297858476639E-001;3.713647834956646E-003;1.500075566582382E-003;
2.427166666666667E+009;1.684820652008057E-001;-1.030902639031410E-001;3.723577363416553E-003;1.624103635549545E-003;
2.427333333333334E+009;1.682313829660416E-001;-1.032387688755989E-001;3.819828387349844E-003;1.448492170311511E-003;
2.427500000000000E+009;1.680243760347366E-001;-1.034648194909096E-001;3.761062864214182E-003;1.329699647612870E-003;
2.427666666666667E+009;1.676713228225708E-001;-1.035170853137970E-001;3.937905654311180E-003;1.325833261944354E-003;
2.427833333333334E+009;1.672419309616089E-001;-1.036280542612076E-001;3.806468332186341E-003;1.133461249992251E-003;
