# Version 1.00
#
freq[Hz];re:Trc1_S11;im:Trc1_S11;re:Trc2_S21;im:Trc2_S21;
2.400000000000000E+009;1.604080647230148E-001;5.856919288635254E-002;2.295439364388585E-003;-4.960234509781003E-004;
2.400166666666667E+009;1.604389995336533E-001;5.724718794226646E-002;2.406197832897306E-003;-5.740227061323822E-004;
2.400333333333334E+009;1.603596210479736E-001;5.553565174341202E-002;2.236195374280214E-003;-4.497538029681891E-004;
2.400500000000000E+009;1.604481339454651E-001;5.377824604511261E-002;2.393689705058932E-003;-4.508737183641642E-004;
2.400666666666667E+009;1.605581045150757E-001;5.191826447844505E-002;2.338655758649111E-003;-3.650865692179650E-004;
2.400833333333334E+009;1.607708334922791E-001;5.032672733068466E-002;2.456030109897256E-003;-2.841624082066119E-004;
2.401000000000000E+009;1.608746349811554E-001;4.836044460535049E-002;2.442966680973768E-003;-2.396721829427406E-004;
2.401166666666667E+009;1.609223783016205E-001;4.634537920355797E-002;2.395281568169594E-003;-2.012373006436974E-004;
2.401333333333334E+009;1.612429171800613E-001;4.441968724131584E-002;2.566228155046701E-003;-2.887534210458398E-004;
2.401500000000000E+009;1.614070832729340E-001;4.260293394327164E-002;2.643394051119685E-003;-2.948209294117987E-004;
2.401666666666667E+009;1.617035865783691E-001;4.061463102698326E-002;2.696393057703972E-003;-2.362787490710616E-004;
2.401833333333334E+009;1.619827151298523E-001;3.909697011113167E-002;2.660204190760851E-003;-2.302373613929376E-004;
2.402000000000000E+009;1.623811721801758E-001;3.709853067994118E-002;2.819082001224160E-003;-2.584704780019820E-004;
2.402166666666667E+009;1.628489196300507E-001;3.508129715919495E-002;2.884485758841038E-003;-2.961030113510788E-004;
2.402333333333334E+009;1.631400585174561E-001;3.354822099208832E-002;3.061309922486544E-003;-3.292786132078618E-004;
2.402500000000000E+009;1.638382971286774E-001;3.187971934676170E-002;3.204375272616744E-003;-3.936029388569295E-004;
2.402666666666667E+009;1.643905788660049E-001;3.027585707604885E-002;3.128972603008151E-003;-4.692102374974638E-004;
2.402833333333334E+009;1.649153232574463E-001;2.890382334589958E-002;3.254041308537126E-003;-5.933258798904717E-004;
2.403000000000000E+009;1.654008924961090E-001;2.704562991857529E-002;3.295585047453642E-003;-7.171074976213276E-004;
2.403166666666667E+009;1.661535799503326E-001;2.567210048437119E-002;3.457217011600733E-003;-9.508613729849458E-004;
2.403333333333334E+009;1.668199300765991E-001;2.432912774384022E-002;3.496804507449269E-003;-9.483687463216484E-004;
2.403500000000000E+009;1.675274670124054E-001;2.306969277560711E-002;3.457401646301150E-003;-1.117556472308934E-003;
2.403666666666667E+009;1.681952774524689E-001;2.164940908551216E-002;3.437758190557361E-003;-1.296559348702431E-003;
2.403833333333334E+009;1.690674871206284E-001;2.047329396009445E-002;3.505582222715020E-003;-1.394204329699278E-003;
2.404000000000000E+009;1.698516160249710E-001;1.941674947738648E-002;3.590834792703390E-003;-1.424658927135170E-003;
2.404166666666667E+009;1.705196499824524E-001;1.822245121002197E-002;3.448159433901310E-003;-1.768813352100551E-003;
2.404333333333334E+009;1.710856407880783E-001;1.731737703084946E-002;3.490636823698878E-003;-1.952987280674279E-003;
2.404500000000000E+009;1.718066632747650E-001;1.612003333866596E-002;3.433724399656057E-003;-1.878020353615284E-003;
2.404666666666667E+009;1.726220697164536E-001;1.543937344104052E-002;3.432713681831956E-003;-2.185610821470618E-003;
2.404833333333334E+009;1.732685416936874E-001;1.458163373172283E-002;3.424724098294973E-003;-2.464715391397476E-003;
2.405000000000000E+009;1.740536689758301E-001;1.388844195753336E-002;3.247434506192803E-003;-2.605321118608117E-003;
2.405166666666667E+009;1.746098548173904E-001;1.316984742879868E-002;3.129700897261500E-003;-2.557596424594522E-003;
2.405333333333334E+009;1.753783077001572E-001;1.240645628422499E-002;3.108929144218564E-003;-2.755433320999146E-003;
2.405500000000000E+009;1.757755726575851E-001;1.195050496608019E-002;2.976339310407639E-003;-2.748699625954032E-003;
2.405666666666667E+009;1.762893199920654E-001;1.142083574086428E-002;2.718401374295354E-003;-2.788795391097665E-003;
2.405833333333334E+009;1.766255348920822E-001;1.101221982389689E-002;2.839980414137244E-003;-2.808647463098168E-003;
2.406000000000000E+009;1.772360503673554E-001;1.044916920363903E-002;2.511366968974471E-003;-3.139811800792813E-003;
2.406166666666667E+009;1.774899959564209E-001;1.015426497906447E-002;2.513751387596130E-003;-3.214704105630517E-003;
2.406333333333334E+009;1.780146509408951E-001;9.542482905089855E-003;2.430405467748642E-003;-3.042857162654400E-003;
2.406500000000000E+009;1.781349629163742E-001;9.195065125823021E-003;2.298431936651468E-003;-3.112685866653919E-003;
2.406666666666667E+009;1.781898885965347E-001;8.745005354285240E-003;2.212838269770145E-003;-3.238070523366332E-003;
2.406833333333334E+009;1.784288883209229E-001;8.319701999425888E-003;2.164731966331601E-003;-3.351103980094194E-003;
2.407000000000000E+009;1.784562468528748E-001;7.842277176678181E-003;1.829545362852514E-003;-3.315163543447852E-003;
2.407166666666667E+009;1.785618811845779E-001;7.509826682507992E-003;1.979080960154533E-003;-3.334375331178308E-003;
2.407333333333334E+009;1.784555912017822E-001;6.802347954362631E-003;1.862406381405890E-003;-3.317684866487980E-003;
2.407500000000000E+009;1.783937364816666E-001;6.450190674513578E-003;1.849180785939097E-003;-3.315562382340431E-003;
2.407666666666667E+009;1.782927364110947E-001;5.918593611568213E-003;1.637532142922282E-003;-3.397429361939430E-003;
2.407833333333334E+009;1.780762225389481E-001;5.226223263889551E-003;1.507517299614847E-003;-3.357509383931756E-003;
2.408000000000000E+009;1.776729077100754E-001;4.361340776085854E-003;1.351326005533338E-003;-3.454850520938635E-003;
2.408166666666667E+009;1.774260699748993E-001;3.862218698486686E-003;1.358576002530754E-003;-3.532540518790484E-003;
2.408333333333334E+009;1.771824955940247E-001;3.116787411272526E-003;1.386855379678309E-003;-3.560902085155249E-003;
2.408500000000000E+009;1.767285019159317E-001;2.149817068129778E-003;1.233837450854480E-003;-3.419184591621161E-003;
2.408666666666667E+009;1.762362271547318E-001;1.181617844849825E-003;1.173600554466248E-003;-3.476833924651146E-003;
2.408833333333334E+009;1.756479442119598E-001;2.068659960059449E-004;1.078611938282847E-003;-3.473289776593447E-003;
2.409000000000000E+009;1.751564741134644E-001;-7.395365973934531E-004;9.227187256328762E-004;-3.464933950453997E-003;
2.409166666666667E+009;1.746699661016464E-001;-1.923933625221252E-003;9.061657474376261E-004;-3.377917921170592E-003;
2.409333333333334E+009;1.742269247770309E-001;-3.082599723711610E-003;8.136626565828919E-004;-3.424825379624963E-003;
2.409500000000000E+009;1.736778616905212E-001;-4.636053927242756E-003;7.567334687337279E-004;-3.475276753306389E-003;
2.409666666666667E+009;1.729257851839066E-001;-5.711306817829609E-003;8.335491293109953E-004;-3.315473673865199E-003;
2.409833333333334E+009;1.724214255809784E-001;-7.006610278040171E-003;6.806654273532331E-004;-3.391701728105545E-003;
2.410000000000000E+009;1.721406131982803E-001;-8.396880701184273E-003;6.657469202764332E-004;-3.389229997992516E-003;
2.410166666666667E+009;1.714961826801300E-001;-9.956762194633484E-003;5.479353712871671E-004;-3.427970223128796E-003;
2.410333333333334E+009;1.708499044179916E-001;-1.164149865508080E-002;5.270899855531752E-004;-3.100577741861343E-003;
2.410500000000000E+009;1.706445962190628E-001;-1.334178075194359E-002;4.957877681590617E-004;-3.352956380695105E-003;
2.410666666666667E+009;1.701280027627945E-001;-1.488679740577936E-002;5.188268842175603E-004;-3.327645361423492E-003;
2.410833333333334E+009;1.697764098644257E-001;-1.657112687826157E-002;6.076201680116355E-004;-3.490503411740065E-003;
2.411000000000000E+009;1.694722771644592E-001;-1.831640861928463E-002;5.390446167439222E-004;-3.396781859919429E-003;
2.411166666666667E+009;1.690137535333633E-001;-2.015863917768002E-002;5.892200279049575E-004;-3.469010582193732E-003;
2.411333333333334E+009;1.688915342092514E-001;-2.187050133943558E-002;5.307337269186974E-004;-3.478490747511387E-003;
2.411500000000000E+009;1.686961948871613E-001;-2.378795854747295E-002;4.979835939593613E-004;-3.670050529763103E-003;
2.411666666666667E+009;1.686561703681946E-001;-2.580608054995537E-002;4.223085416015238E-004;-3.641722723841667E-003;
2.411833333333334E+009;1.686374843120575E-001;-2.744312770664692E-002;4.007133538834751E-004;-3.693544771522284E-003;
2.412000000000000E+009;1.686444580554962E-001;-2.944057993590832E-002;4.838368331547827E-004;-3.833039430901408E-003;
2.412166666666667E+009;1.685806512832642E-001;-3.125528991222382E-002;4.602986155077815E-004;-3.974528517574072E-003;
2.412333333333334E+009;1.690060794353485E-001;-3.296864777803421E-002;2.920788538176566E-004;-4.002011846750975E-003;
2.412500000000000E+009;1.688977032899857E-001;-3.473458439111710E-002;2.772108127828687E-004;-4.295104183256626E-003;
2.412666666666667E+009;1.689894050359726E-001;-3.667532280087471E-002;1.193537973449566E-004;-4.414301831275225E-003;
2.412833333333334E+009;1.693503409624100E-001;-3.849216550588608E-002;-2.722626413742546E-005;-4.358085803687573E-003;
2.413000000000000E+009;1.696671992540360E-001;-4.021894559264183E-002;-2.720671473070979E-004;-4.625768866389990E-003;
2.413166666666667E+009;1.698263883590698E-001;-4.164037853479385E-002;-3.514283162076026E-004;-4.759086761623621E-003;
2.413333333333334E+009;1.700574010610580E-001;-4.343378543853760E-002;-5.078129470348358E-004;-4.804911091923714E-003;
2.413500000000000E+009;1.705779433250427E-001;-4.495094344019890E-002;-7.638771785423160E-004;-4.816954489797354E-003;
2.413666666666667E+009;1.710039675235748E-001;-4.644652456045151E-002;-9.649527492001653E-004;-4.776532761752605E-003;
2.413833333333334E+009;1.713424026966095E-001;-4.792058840394020E-002;-1.121735665947199E-003;-5.006544291973114E-003;
2.414000000000000E+009;1.716976016759872E-001;-4.920104518532753E-002;-1.318908529356122E-003;-5.008401349186897E-003;
2.414166666666667E+009;1.722224652767181E-001;-5.042430013418198E-002;-1.477063400670886E-003;-5.159359425306320E-003;
2.414333333333334E+009;1.724771708250046E-001;-5.180867388844490E-002;-1.735165831632912E-003;-5.112051498144865E-003;
2.414500000000000E+009;1.732252985239029E-001;-5.282545462250710E-002;-1.961958827450872E-003;-5.080746952444315E-003;
2.414666666666667E+009;1.733774244785309E-001;-5.380049720406532E-002;-2.246290212497115E-003;-5.026074592024088E-003;
2.414833333333334E+009;1.737523078918457E-001;-5.483953654766083E-002;-2.460120944306254E-003;-4.888433031737804E-003;
2.415000000000000E+009;1.739867329597473E-001;-5.561864376068115E-002;-2.824684605002403E-003;-4.830046091228724E-003;
2.415166666666667E+009;1.744715720415115E-001;-5.654088780283928E-002;-3.085872391238809E-003;-4.848223179578781E-003;
2.415333333333334E+009;1.747626215219498E-001;-5.731344595551491E-002;-3.219325095415115E-003;-4.783067386597395E-003;
2.415500000000000E+009;1.750715076923370E-001;-5.785398557782173E-002;-3.551351139321923E-003;-4.617505241185427E-003;
2.415666666666667E+009;1.752318143844605E-001;-5.840910226106644E-002;-3.730300348252058E-003;-4.545841831713915E-003;
2.415833333333334E+009;1.756002157926559E-001;-5.901064351201057E-002;-3.929803613573313E-003;-4.268018063157797E-003;
2.416000000000000E+009;1.754270344972611E-001;-5.958393961191177E-002;-4.456749651581049E-003;-4.176465794444084E-003;
2.416166666666667E+009;1.757161021232605E-001;-5.998479202389717E-002;-4.552559927105904E-003;-3.953339066356421E-003;
2.416333333333334E+009;1.755174100399017E-001;-6.031255424022675E-002;-4.554061684757471E-003;-3.733259160071611E-003;
2.416500000000000E+009;1.755075454711914E-001;-6.070958450436592E-002;-4.814192187041044E-003;-3.576902206987143E-003;
2.416666666666667E+009;1.751926541328430E-001;-6.103223934769630E-002;-4.941628314554691E-003;-3.299463773146272E-003;
2.416833333333334E+009;1.750659346580505E-001;-6.125177815556526E-002;-5.252684932202101E-003;-3.015981754288077E-003;
2.417000000000000E+009;1.746300458908081E-001;-6.171100586652756E-002;-5.296116694808006E-003;-2.658265409991145E-003;
2.417166666666667E+009;1.742713749408722E-001;-6.192459166049957E-002;-5.334985908120871E-003;-2.628287998959422E-003;
2.417333333333334E+009;1.738885343074799E-001;-6.215132400393486E-002;-5.425439216196537E-003;-2.288919640704989E-003;
2.417500000000000E+009;1.732148528099060E-001;-6.255932897329330E-002;-5.486480426043272E-003;-2.060963306576014E-003;
2.417666666666667E+009;1.726499944925308E-001;-6.269621104001999E-002;-5.589887499809265E-003;-1.748248119838536E-003;
2.417833333333334E+009;1.719955950975418E-001;-6.307899206876755E-002;-5.747163668274880E-003;-1.585368067026138E-003;
2.418000000000000E+009;1.712235659360886E-001;-6.346838176250458E-002;-5.686700809746981E-003;-1.363179995678365E-003;
2.418166666666667E+009;1.702848225831986E-001;-6.371699273586273E-002;-5.870659369975328E-003;-9.952749824151397E-004;
2.418333333333334E+009;1.695799529552460E-001;-6.417294591665268E-002;-5.662795156240463E-003;-7.709942874498665E-004;
2.418500000000000E+009;1.686150729656220E-001;-6.441988795995712E-002;-5.773211829364300E-003;-6.343455752357841E-004;
2.418666666666667E+009;1.678297519683838E-001;-6.501337140798569E-002;-5.699144676327705E-003;-4.545338160824031E-004;
2.418833333333334E+009;1.664878726005554E-001;-6.542447209358215E-002;-5.652314983308315E-003;-1.818280725274235E-004;
2.419000000000000E+009;1.655192524194717E-001;-6.618207693099976E-002;-5.642238073050976E-003;-5.544256418943405E-005;
2.419166666666667E+009;1.644383072853088E-001;-6.684977561235428E-002;-5.677132867276669E-003;1.916814217111096E-004;
2.419333333333334E+009;1.631786972284317E-001;-6.729219108819962E-002;-5.633894354104996E-003;4.750424704980105E-004;
2.419500000000000E+009;1.622244119644165E-001;-6.820683181285858E-002;-5.583826452493668E-003;5.827826680615544E-004;
2.419666666666667E+009;1.612987369298935E-001;-6.901422888040543E-002;-5.436101462692022E-003;8.449778542853892E-004;
2.419833333333334E+009;1.598888039588928E-001;-6.980445981025696E-002;-5.516483914107084E-003;9.658893686719239E-004;
2.420000000000000E+009;1.588673144578934E-001;-7.070570439100266E-002;-5.304331425577402E-003;1.280613592825830E-003;
2.420166666666667E+009;1.580638736486435E-001;-7.178317010402679E-002;-5.339894443750382E-003;1.486219465732575E-003;
2.420333333333334E+009;1.569718271493912E-001;-7.297567278146744E-002;-5.122771486639977E-003;1.602701027877629E-003;
2.420500000000000E+009;1.558403074741364E-001;-7.405819743871689E-002;-5.104576703161001E-003;1.910944469273090E-003;
2.420666666666667E+009;1.549238264560700E-001;-7.522958517074585E-002;-5.014067050069571E-003;2.139301737770438E-003;
2.420833333333334E+009;1.539764553308487E-001;-7.647669315338135E-002;-4.765545483678579E-003;2.295618876814842E-003;
2.421000000000000E+009;1.530891954898834E-001;-7.793476432561874E-002;-4.759805742651224E-003;2.346980152651668E-003;
2.421166666666667E+009;1.523558795452118E-001;-7.938009500503540E-002;-4.396286793053150E-003;2.644073916599155E-003;
2.421333333333334E+009;1.517004966735840E-001;-8.067575097084045E-002;-4.403898958116770E-003;2.873381366953254E-003;
2.421500000000000E+009;1.508359462022781E-001;-8.212240040302277E-002;-4.207043908536434E-003;2.941268729045987E-003;
2.421666666666667E+009;1.502617746591568E-001;-8.376555889844894E-002;-4.077037330716848E-003;3.023042343556881E-003;
2.421833333333334E+009;1.496949791908264E-001;-8.527532219886780E-002;-3.932592924684286E-003;3.450048388913274E-003;
2.422000000000000E+009;1.492675989866257E-001;-8.673674613237381E-002;-3.661353839561343E-003;3.455893136560917E-003;
2.422166666666667E+009;1.488265842199326E-001;-8.854317665100098E-002;-3.433917183429003E-003;3.566570114344358E-003;
2.422333333333334E+009;1.485676765441895E-001;-9.004077315330505E-002;-3.225973108783364E-003;3.836839925497770E-003;
2.422500000000000E+009;1.481810808181763E-001;-9.162836521863937E-002;-3.116175765171647E-003;3.797951620072126E-003;
2.422666666666667E+009;1.480196118354797E-001;-9.349007904529572E-002;-2.810394391417503E-003;3.866696963086724E-003;
2.422833333333334E+009;1.480433195829392E-001;-9.502740949392319E-002;-2.732212888076901E-003;3.874407615512610E-003;
2.423000000000000E+009;1.478994488716126E-001;-9.661356359720230E-002;-2.320835832506418E-003;4.053172655403614E-003;
2.423166666666667E+009;1.479426622390747E-001;-9.825586527585983E-002;-2.213616389781237E-003;4.015999846160412E-003;
2.423333333333334E+009;1.481581777334213E-001;-9.965565055608749E-002;-2.043966203927994E-003;3.967096097767353E-003;
2.423500000000000E+009;1.481475383043289E-001;-1.015170067548752E-001;-1.590825850144029E-003;4.009022377431393E-003;
2.423666666666667E+009;1.480249464511871E-001;-1.028591692447662E-001;-1.526198815554380E-003;4.074191674590111E-003;
2.423833333333334E+009;1.485607773065567E-001;-1.043913215398789E-001;-1.240894547663629E-003;3.942182753235102E-003;
2.424000000000000E+009;1.487195938825607E-001;-1.056227236986160E-001;-1.186778652481735E-003;3.950691781938076E-003;
2.424166666666667E+009;1.488771736621857E-001;-1.070916950702667E-001;-1.029058708809316E-003;3.964494448155165E-003;
2.424333333333334E+009;1.491059958934784E-001;-1.083632186055183E-001;-7.976303459145129E-004;3.848017891868949E-003;
2.424500000000000E+009;1.495461612939835E-001;-1.096381843090057E-001;-6.551643600687385E-004;3.796267323195934E-003;
2.424666666666667E+009;1.499292403459549E-001;-1.106155887246132E-001;-4.888983676210046E-004;3.776816418394446E-003;
2.424833333333334E+009;1.500419825315476E-001;-1.117823496460915E-001;-2.455161011312157E-004;3.729599993675947E-003;
2.425000000000000E+009;1.503521651029587E-001;-1.128626689314842E-001;-5.707382297259755E-005;3.613257547840476E-003;
2.425166666666667E+009;1.505161970853806E-001;-1.136674955487251E-001;-1.730870280880481E-005;3.564336104318500E-003;
2.425333333333334E+009;1.509103924036026E-001;-1.145453825592995E-001;2.188814542023465E-004;3.473316319286823E-003;
2.425500000000000E+009;1.511617749929428E-001;-1.155041158199310E-001;2.879455278161913E-004;3.469137474894524E-003;
2.425666666666667E+009;1.512666195631027E-001;-1.161805614829063E-001;5.055585061199963E-004;3.310717875137925E-003;
2.425833333333334E+009;1.515379399061203E-001;-1.169480904936791E-001;5.477122031152248E-004;3.154890611767769E-003;
2.426000000000000E+009;1.515971422195435E-001;-1.176191344857216E-001;8.935197838582099E-004;3.324544755741954E-003;
2.426166666666667E+009;1.517623960971832E-001;-1.181551441550255E-001;6.922321044839919E-004;2.949276007711887E-003;
2.426333333333334E+009;1.516627669334412E-001;-1.184707507491112E-001;9.196278988383710E-004;2.935480326414108E-003;
2.426500000000000E+009;1.517107784748077E-001;-1.188824772834778E-001;1.065624412149191E-003;2.793754218146205E-003;
2.426666666666667E+009;1.517328023910523E-001;-1.191036626696587E-001;1.023366115987301E-003;2.670746762305498E-003;
2.426833333333334E+009;1.515425890684128E-001;-1.194969564676285E-001;1.061813905835152E-003;2.599996747449040E-003;
2.427000000000000E+009;1.511468440294266E-001;-1.198807656764984E-001;1.096498919650912E-003;2.278890926390886E-003;
2.427166666666667E+009;1.508985757827759E-001;-1.199324503540993E-001;1.279496471397579E-003;2.361629623919725E-003;
2.427333333333334E+009;1.504204422235489E-001;-1.202395707368851E-001;1.252515590749681E-003;2.108733868226409E-003;
2.427500000000000E+009;1.500207781791687E-001;-1.204976662993431E-001;1.245548482984304E-003;1.797534292563796E-003;
2.427666666666667E+009;1.494064182043076E-001;-1.207132562994957E-001;1.356500433757901E-003;1.917219371534884E-003;
