# Version 1.00
#
freq[Hz];re:Trc1_S11;im:Trc1_S11;re:Trc2_S21;im:Trc2_S21;
2.400000000000000E+009;1.552102863788605E-001;1.065696030855179E-001;-3.953538835048676E-003;-2.701442281249911E-004;
2.400166666666667E+009;1.548595279455185E-001;1.040685027837753E-001;-3.907519858330488E-003;-2.380335790803656E-004;
2.400333333333334E+009;1.550935953855515E-001;1.017454639077187E-001;-4.059133585542440E-003;-3.330865292809904E-004;
2.400500000000000E+009;1.550994664430618E-001;9.904202818870544E-002;-4.080323968082666E-003;-2.828130163834430E-005;
2.400666666666667E+009;1.553011089563370E-001;9.658726304769516E-002;-4.196409136056900E-003;1.116644125431776E-004;
2.400833333333334E+009;1.550956517457962E-001;9.374281764030457E-002;-4.389699548482895E-003;2.111276808136609E-005;
2.401000000000000E+009;1.554099172353745E-001;9.084849804639816E-002;-4.516984336078167E-003;1.401564513798803E-004;
2.401166666666667E+009;1.555794775485992E-001;8.819297701120377E-002;-4.485961049795151E-003;2.665548236109316E-004;
2.401333333333334E+009;1.560436487197876E-001;8.524394780397415E-002;-4.645467735826969E-003;5.307114333845675E-004;
2.401500000000000E+009;1.563608646392822E-001;8.258831501007080E-002;-4.607065580785275E-003;7.047740509733558E-004;
2.401666666666667E+009;1.567276418209076E-001;7.972618937492371E-002;-4.741579294204712E-003;1.018222887068987E-003;
2.401833333333334E+009;1.572071015834808E-001;7.709199190139771E-002;-4.767468199133873E-003;8.681182516738772E-004;
2.402000000000000E+009;1.581574231386185E-001;7.426037639379501E-002;-4.676069598644972E-003;1.258469303138554E-003;
2.402166666666667E+009;1.589643955230713E-001;7.185350358486176E-002;-4.716335795819759E-003;1.461082603782415E-003;
2.402333333333334E+009;1.600760519504547E-001;6.914915144443512E-002;-4.813479259610176E-003;1.561795477755368E-003;
2.402500000000000E+009;1.611711829900742E-001;6.648962199687958E-002;-4.827192518860102E-003;1.911006751470268E-003;
2.402666666666667E+009;1.623330116271973E-001;6.439536809921265E-002;-4.803344141691923E-003;2.099788747727871E-003;
2.402833333333334E+009;1.637562066316605E-001;6.202189251780510E-002;-4.719586577266455E-003;2.351643750444055E-003;
2.403000000000000E+009;1.652036160230637E-001;5.974025279283524E-002;-4.781083669513464E-003;2.506148535758257E-003;
2.403166666666667E+009;1.668962836265564E-001;5.757432803511620E-002;-4.830457270145416E-003;2.883416134864092E-003;
2.403333333333334E+009;1.683939397335053E-001;5.530830472707748E-002;-4.551924765110016E-003;3.024022094905376E-003;
2.403500000000000E+009;1.700341701507568E-001;5.338514596223831E-002;-4.606598056852818E-003;3.380910027772188E-003;
2.403666666666667E+009;1.717980504035950E-001;5.133347213268280E-002;-4.663445521146059E-003;3.691924037411809E-003;
2.403833333333334E+009;1.735191643238068E-001;4.954956471920013E-002;-4.172533284872770E-003;3.831730457022786E-003;
2.404000000000000E+009;1.749939173460007E-001;4.774564132094383E-002;-4.038058221340179E-003;4.195272456854582E-003;
2.404166666666667E+009;1.767420917749405E-001;4.627238959074020E-002;-3.871938679367304E-003;4.392524715512991E-003;
2.404333333333334E+009;1.784239709377289E-001;4.476711153984070E-002;-3.393279854208231E-003;4.487542901188135E-003;
2.404500000000000E+009;1.800503283739090E-001;4.328685998916626E-002;-3.459819126874209E-003;4.692732356488705E-003;
2.404666666666667E+009;1.816252171993256E-001;4.232316464185715E-002;-3.147030016407371E-003;4.886831156909466E-003;
2.404833333333334E+009;1.832185685634613E-001;4.111959040164948E-002;-2.869932679459453E-003;4.919923841953278E-003;
2.405000000000000E+009;1.843454390764237E-001;4.052314162254334E-002;-2.617593389004469E-003;5.048808176070452E-003;
2.405166666666667E+009;1.858345270156860E-001;3.972453996539116E-002;-2.506530843675137E-003;5.007609259337187E-003;
2.405333333333334E+009;1.873037964105606E-001;3.933366388082504E-002;-2.025430090725422E-003;4.908666480332613E-003;
2.405500000000000E+009;1.885392665863037E-001;3.866076096892357E-002;-2.053495729342103E-003;5.171299912035465E-003;
2.405666666666667E+009;1.897815167903900E-001;3.842093795537949E-002;-1.672680489718914E-003;5.276596173644066E-003;
2.405833333333334E+009;1.909860968589783E-001;3.804578632116318E-002;-1.535419141873717E-003;5.277990829199553E-003;
2.406000000000000E+009;1.919893622398377E-001;3.797503933310509E-002;-1.147970440797508E-003;5.261252634227276E-003;
2.406166666666667E+009;1.927762478590012E-001;3.775043785572052E-002;-1.042887684889138E-003;5.302303005009890E-003;
2.406333333333334E+009;1.937959641218185E-001;3.768419101834297E-002;-7.170282769948244E-004;5.275209434330463E-003;
2.406500000000000E+009;1.944819986820221E-001;3.780552744865418E-002;-6.211698637343943E-004;5.117387510836124E-003;
2.406666666666667E+009;1.950793415307999E-001;3.786674886941910E-002;-5.434687482193112E-004;5.282649770379067E-003;
2.406833333333334E+009;1.956981271505356E-001;3.766258805990219E-002;-1.071488077286631E-004;5.177516024559736E-003;
2.407000000000000E+009;1.959035992622376E-001;3.795281797647476E-002;1.106858908315189E-004;5.063632037490606E-003;
2.407166666666667E+009;1.963020265102387E-001;3.769354522228241E-002;3.562116471584886E-004;5.063404329121113E-003;
2.407333333333334E+009;1.961490660905838E-001;3.791850805282593E-002;6.412457441911101E-004;4.836494568735361E-003;
2.407500000000000E+009;1.960581392049789E-001;3.792976588010788E-002;7.644647266715765E-004;4.797530826181173E-003;
2.407666666666667E+009;1.961245834827423E-001;3.775830566883087E-002;8.055018843151629E-004;4.622305277734995E-003;
2.407833333333334E+009;1.956060826778412E-001;3.758794814348221E-002;1.045554527081549E-003;4.596387036144733E-003;
2.408000000000000E+009;1.955477446317673E-001;3.740952163934708E-002;1.280097407288849E-003;4.375224467366934E-003;
2.408166666666667E+009;1.949080675840378E-001;3.718312829732895E-002;1.417346298694611E-003;4.351745359599590E-003;
2.408333333333334E+009;1.945639997720718E-001;3.646986186504364E-002;1.397192361764610E-003;4.039110615849495E-003;
2.408500000000000E+009;1.937492936849594E-001;3.616147860884666E-002;1.482989056967199E-003;4.000904504209757E-003;
2.408666666666667E+009;1.931632161140442E-001;3.541527688503265E-002;1.687648356892169E-003;3.703420050442219E-003;
2.408833333333334E+009;1.924086213111877E-001;3.479987382888794E-002;1.644972944632173E-003;3.736608894541860E-003;
2.409000000000000E+009;1.913881301879883E-001;3.379985317587853E-002;1.649838173761964E-003;3.560863900929689E-003;
2.409166666666667E+009;1.903475522994995E-001;3.284068405628204E-002;1.741657848469913E-003;3.551843343302608E-003;
2.409333333333334E+009;1.896243691444397E-001;3.182843700051308E-002;1.891458756290376E-003;3.264567116275430E-003;
2.409500000000000E+009;1.885326355695725E-001;3.049342520534992E-002;1.897153793834150E-003;3.189793555065990E-003;
2.409666666666667E+009;1.876556575298309E-001;2.900142408907414E-002;1.837899093516171E-003;3.092148108407855E-003;
2.409833333333334E+009;1.865356415510178E-001;2.756543830037117E-002;1.971748890355229E-003;2.923372900113463E-003;
2.410000000000000E+009;1.856192648410797E-001;2.570632286369801E-002;1.895302208140492E-003;2.782679395750165E-003;
2.410166666666667E+009;1.845367699861527E-001;2.399928495287895E-002;1.958221429958940E-003;2.773365704342723E-003;
2.410333333333334E+009;1.836376637220383E-001;2.226681262254715E-002;2.044660737738013E-003;2.597934566438198E-003;
2.410500000000000E+009;1.826463341712952E-001;2.039700001478195E-002;1.930965576320887E-003;2.490467391908169E-003;
2.410666666666667E+009;1.817358434200287E-001;1.806993223726749E-002;1.944794435985386E-003;2.394511131569743E-003;
2.410833333333334E+009;1.812102645635605E-001;1.594145782291889E-002;1.946576870977879E-003;2.221834845840931E-003;
2.411000000000000E+009;1.804469525814056E-001;1.368559524416924E-002;2.029403578490019E-003;2.261455869302154E-003;
2.411166666666667E+009;1.798772364854813E-001;1.142716314643621E-002;1.913193264044821E-003;2.165176440030336E-003;
2.411333333333334E+009;1.791686266660690E-001;9.111710824072361E-003;1.934982836246491E-003;1.956836786121130E-003;
2.411500000000000E+009;1.789725720882416E-001;6.635589525103569E-003;1.993807964026928E-003;1.944304094649851E-003;
2.411666666666667E+009;1.786109805107117E-001;4.472927190363407E-003;1.860947231762111E-003;1.720365835353732E-003;
2.411833333333334E+009;1.784970164299011E-001;1.841185148805380E-003;1.801206148229539E-003;1.865891739726067E-003;
2.412000000000000E+009;1.785545051097870E-001;-6.405094754882157E-004;1.718667568638921E-003;1.738887396641076E-003;
2.412166666666667E+009;1.785967499017716E-001;-2.890038536861539E-003;1.716274651698768E-003;1.777658006176353E-003;
2.412333333333334E+009;1.789971292018890E-001;-5.478648934513331E-003;1.577235525473952E-003;1.621959614567459E-003;
2.412500000000000E+009;1.793919354677200E-001;-7.850130088627338E-003;1.590920030139387E-003;1.596295041963458E-003;
2.412666666666667E+009;1.800392866134644E-001;-1.020221970975399E-002;1.619969494640827E-003;1.598668401129544E-003;
2.412833333333334E+009;1.806138604879379E-001;-1.276699081063271E-002;1.525235245935619E-003;1.525893108919263E-003;
2.413000000000000E+009;1.812788993120194E-001;-1.490082032978535E-002;1.353156054392457E-003;1.640912611037493E-003;
2.413166666666667E+009;1.819103360176086E-001;-1.721275039017201E-002;1.296249334700406E-003;1.629829290322959E-003;
2.413333333333334E+009;1.830742955207825E-001;-1.943368092179298E-002;1.340298331342638E-003;1.514375908300281E-003;
2.413500000000000E+009;1.839337497949600E-001;-2.174390666186810E-002;1.187356538139284E-003;1.696146209724248E-003;
2.413666666666667E+009;1.849875748157501E-001;-2.381071262061596E-002;1.201086211949587E-003;1.722817542031407E-003;
2.413833333333334E+009;1.861701309680939E-001;-2.573102153837681E-002;1.248306594789028E-003;1.874630921520293E-003;
2.414000000000000E+009;1.871034651994705E-001;-2.768464386463165E-002;1.371226622723043E-003;2.117065247148275E-003;
2.414166666666667E+009;1.884475350379944E-001;-2.928146161139011E-002;1.309937797486782E-003;2.027171198278666E-003;
2.414333333333334E+009;1.893921643495560E-001;-3.141979873180389E-002;1.393494661897421E-003;2.017023041844368E-003;
2.414500000000000E+009;1.905990689992905E-001;-3.290466219186783E-002;1.559124328196049E-003;2.360585611313582E-003;
2.414666666666667E+009;1.917092651128769E-001;-3.422088548541069E-002;1.470772316679359E-003;2.285484923049808E-003;
2.414833333333334E+009;1.929207444190979E-001;-3.562485799193382E-002;1.600248506292701E-003;2.333561191335321E-003;
2.415000000000000E+009;1.940280795097351E-001;-3.674002364277840E-002;1.787505345419049E-003;2.432604320347309E-003;
2.415166666666667E+009;1.950810700654984E-001;-3.787837550044060E-002;1.686925301328301E-003;2.402644371613860E-003;
2.415333333333334E+009;1.962343901395798E-001;-3.877086192369461E-002;1.969050616025925E-003;2.613479737192392E-003;
2.415500000000000E+009;1.972366422414780E-001;-3.958865627646446E-002;2.018205123022199E-003;2.414438640698791E-003;
2.415666666666667E+009;1.983150690793991E-001;-4.036269709467888E-002;2.140638651326299E-003;2.477753208950162E-003;
2.415833333333334E+009;1.990725100040436E-001;-4.094253107905388E-002;2.258676104247570E-003;2.516913460567594E-003;
2.416000000000000E+009;1.997899115085602E-001;-4.156264662742615E-002;2.489953767508268E-003;2.685157814994454E-003;
2.416166666666667E+009;2.005425095558167E-001;-4.206408187747002E-002;2.735975198447704E-003;2.517107874155045E-003;
2.416333333333334E+009;2.010292559862137E-001;-4.233708977699280E-002;2.749557141214609E-003;2.605103189125657E-003;
2.416500000000000E+009;2.015589922666550E-001;-4.255713149905205E-002;2.886745613068342E-003;2.525527961552143E-003;
2.416666666666667E+009;2.016829550266266E-001;-4.286438971757889E-002;3.179637249559164E-003;2.446014434099197E-003;
2.416833333333334E+009;2.019411176443100E-001;-4.292217642068863E-002;3.284431295469403E-003;2.355060540139675E-003;
2.417000000000000E+009;2.020775824785233E-001;-4.305888712406158E-002;3.592184279114008E-003;2.068707486614585E-003;
2.417166666666667E+009;2.016535699367523E-001;-4.302533343434334E-002;3.766275476664305E-003;1.932746963575482E-003;
2.417333333333334E+009;2.014376521110535E-001;-4.263729229569435E-002;3.737272229045630E-003;1.993337878957391E-003;
2.417500000000000E+009;2.011564224958420E-001;-4.276966676115990E-002;4.012490622699261E-003;1.775852171704173E-003;
2.417666666666667E+009;2.006268799304962E-001;-4.253949970006943E-002;4.176560789346695E-003;1.514260657131672E-003;
2.417833333333334E+009;2.001579701900482E-001;-4.236024990677834E-002;4.072228446602821E-003;1.376662519760430E-003;
2.418000000000000E+009;1.993566006422043E-001;-4.212407022714615E-002;4.231638275086880E-003;9.479874861426652E-004;
2.418166666666667E+009;1.986323148012161E-001;-4.203126952052116E-002;4.251902457326651E-003;8.950789924710989E-004;
2.418333333333334E+009;1.976519674062729E-001;-4.186592251062393E-002;4.140405915677548E-003;7.169034215621650E-004;
2.418500000000000E+009;1.966838538646698E-001;-4.191581904888153E-002;4.192396998405457E-003;6.890886579640210E-004;
2.418666666666667E+009;1.956800371408463E-001;-4.198811203241348E-002;4.187161568552256E-003;4.620603285729885E-004;
2.418833333333334E+009;1.944839209318161E-001;-4.209710657596588E-002;4.183104261755943E-003;2.038334350800142E-004;
2.419000000000000E+009;1.930557191371918E-001;-4.228387027978897E-002;4.098147619515657E-003;2.615234698168933E-004;
2.419166666666667E+009;1.918263733386993E-001;-4.254379495978355E-002;4.201625473797321E-003;-1.296899881708669E-006;
2.419333333333334E+009;1.905589252710342E-001;-4.310758411884308E-002;4.047833383083344E-003;7.462745270458981E-005;
2.419500000000000E+009;1.891599446535111E-001;-4.345579445362091E-002;4.075738601386547E-003;-1.963178219739348E-004;
2.419666666666667E+009;1.876596659421921E-001;-4.435199126601219E-002;4.031262826174498E-003;-1.900125935208052E-004;
2.419833333333334E+009;1.860447525978088E-001;-4.495399072766304E-002;4.032060503959656E-003;-4.273439699318260E-004;
2.420000000000000E+009;1.844720840454102E-001;-4.588077589869499E-002;4.048821516335011E-003;-4.237097164150327E-004;
2.420166666666667E+009;1.828894615173340E-001;-4.672224819660187E-002;4.236407112330198E-003;-5.099660484120250E-004;
2.420333333333334E+009;1.813044697046280E-001;-4.794849082827568E-002;4.152864217758179E-003;-6.616106256842613E-004;
2.420500000000000E+009;1.796802729368210E-001;-4.919496923685074E-002;4.221860785037279E-003;-6.169708794914186E-004;
2.420666666666667E+009;1.781070530414581E-001;-5.022732168436050E-002;4.271769896149635E-003;-8.830075967125595E-004;
2.420833333333334E+009;1.764823496341705E-001;-5.172638222575188E-002;4.321002401411533E-003;-1.030623796395958E-003;
2.421000000000000E+009;1.751415729522705E-001;-5.346687138080597E-002;4.246046300977469E-003;-1.182816922664642E-003;
2.421166666666667E+009;1.737869232892990E-001;-5.502741038799286E-002;4.302568733692169E-003;-1.362748560495675E-003;
2.421333333333334E+009;1.721438765525818E-001;-5.662648007273674E-002;4.160652402788401E-003;-1.475139870308340E-003;
2.421500000000000E+009;1.710464209318161E-001;-5.842965096235275E-002;4.192554857581854E-003;-1.708715106360614E-003;
2.421666666666667E+009;1.698706597089768E-001;-6.029514968395233E-002;4.177420865744352E-003;-1.921853399835527E-003;
2.421833333333334E+009;1.687651723623276E-001;-6.214467808604240E-002;3.891362575814128E-003;-1.980232074856758E-003;
2.422000000000000E+009;1.676656603813171E-001;-6.406097114086151E-002;3.906769212335348E-003;-2.204749733209610E-003;
2.422166666666667E+009;1.667940467596054E-001;-6.616227328777313E-002;3.908491693437100E-003;-2.239095279946923E-003;
2.422333333333334E+009;1.658962368965149E-001;-6.813161075115204E-002;3.824938554316759E-003;-2.546932082623243E-003;
2.422500000000000E+009;1.651555299758911E-001;-7.003210484981537E-002;3.653256921097636E-003;-2.732932334765792E-003;
2.422666666666667E+009;1.646000742912293E-001;-7.207500934600830E-002;3.595791524276137E-003;-2.817847067490220E-003;
2.422833333333334E+009;1.639993786811829E-001;-7.401988655328751E-002;3.329770173877478E-003;-2.761211013421416E-003;
2.423000000000000E+009;1.635435670614243E-001;-7.603885978460312E-002;3.207312431186438E-003;-2.941265702247620E-003;
2.423166666666667E+009;1.632917076349258E-001;-7.805964350700378E-002;3.015659749507904E-003;-3.079143585637212E-003;
2.423333333333334E+009;1.630637198686600E-001;-8.004745841026306E-002;3.020012285560370E-003;-3.098286222666502E-003;
2.423500000000000E+009;1.628888547420502E-001;-8.173786848783493E-002;2.719440264627338E-003;-3.253568895161152E-003;
2.423666666666667E+009;1.629477590322495E-001;-8.355712890625000E-002;2.588148694485426E-003;-3.208735492080450E-003;
2.423833333333334E+009;1.627224087715149E-001;-8.531730622053146E-002;2.485851524397731E-003;-3.163857851177454E-003;
2.424000000000000E+009;1.630564630031586E-001;-8.696107566356659E-002;2.287740586325526E-003;-3.262292826548219E-003;
2.424166666666667E+009;1.630870997905731E-001;-8.859979361295700E-002;2.186217112466693E-003;-3.303983947262168E-003;
2.424333333333334E+009;1.632130742073059E-001;-9.011869132518768E-002;1.833905000239611E-003;-3.254716750234366E-003;
2.424500000000000E+009;1.636465936899185E-001;-9.179710596799851E-002;1.972398487851024E-003;-3.304760903120041E-003;
2.424666666666667E+009;1.637535244226456E-001;-9.306470304727554E-002;1.824152306653559E-003;-3.304369281977415E-003;
2.424833333333334E+009;1.644130945205689E-001;-9.440235793590546E-002;1.697729574516416E-003;-3.163712564855814E-003;
2.425000000000000E+009;1.647137105464935E-001;-9.554830938577652E-002;1.515038660727441E-003;-3.316669724881649E-003;
2.425166666666667E+009;1.652657538652420E-001;-9.665430337190628E-002;1.320353476330638E-003;-3.137188265100122E-003;
2.425333333333334E+009;1.653647273778915E-001;-9.755749255418778E-002;1.519682700745761E-003;-3.218138124793768E-003;
2.425500000000000E+009;1.657452583312988E-001;-9.847784042358398E-002;1.304575940594077E-003;-3.228230401873589E-003;
2.425666666666667E+009;1.662942469120026E-001;-9.919256716966629E-002;1.296693459153175E-003;-3.216144861653447E-003;
2.425833333333334E+009;1.663736552000046E-001;-9.994337707757950E-002;1.217508804984391E-003;-3.241191385313869E-003;
2.426000000000000E+009;1.668987125158310E-001;-1.003886535763741E-001;1.145594636909664E-003;-3.179892664775252E-003;
2.426166666666667E+009;1.673690825700760E-001;-1.009975075721741E-001;1.258354168385267E-003;-3.121310146525502E-003;
2.426333333333334E+009;1.673478335142136E-001;-1.013818234205246E-001;1.002735458314419E-003;-3.290986176580191E-003;
2.426500000000000E+009;1.677541583776474E-001;-1.016486585140228E-001;1.108490978367627E-003;-3.313796827569604E-003;
2.426666666666667E+009;1.678574979305267E-001;-1.019132882356644E-001;9.235584875568748E-004;-3.227615728974342E-003;
2.426833333333334E+009;1.681381016969681E-001;-1.022956743836403E-001;8.966578170657158E-004;-3.201349172741175E-003;
2.427000000000000E+009;1.680318862199783E-001;-1.024469733238220E-001;8.541595307178795E-004;-3.278720891103149E-003;
2.427166666666667E+009;1.681102514266968E-001;-1.025041341781616E-001;8.723541395738721E-004;-3.424277296289802E-003;
2.427333333333334E+009;1.679239720106125E-001;-1.027967557311058E-001;6.623937515541911E-004;-3.320340765640140E-003;
2.427500000000000E+009;1.677038222551346E-001;-1.029648780822754E-001;6.130653782747686E-004;-3.345294622704387E-003;
2.427666666666667E+009;1.674513369798660E-001;-1.029929891228676E-001;5.004731938242912E-004;-3.295520320534706E-003;
2.427833333333334E+009;1.670363992452622E-001;-1.031832173466682E-001;5.528201581910253E-004;-3.515891032293439E-003;
