# Version 1.00
#
freq[Hz];re:Trc1_S11;im:Trc1_S11;re:Trc2_S21;im:Trc2_S21;
2.400000000000000E+009;1.573709249496460E-001;6.275814026594162E-002;-2.476940397173166E-003;2.050159731879830E-003;
2.400166666666667E+009;1.573765277862549E-001;6.106712296605110E-002;-2.257381565868855E-003;1.810859306715429E-003;
2.400333333333334E+009;1.572456806898117E-001;5.916646867990494E-002;-2.376086544245482E-003;1.972434809431434E-003;
2.400500000000000E+009;1.570434272289276E-001;5.730331689119339E-002;-2.384254476055503E-003;1.918346737511456E-003;
2.400666666666667E+009;1.571650058031082E-001;5.499608814716339E-002;-2.144607715308666E-003;2.056031255051494E-003;
2.400833333333334E+009;1.572969257831574E-001;5.318569019436836E-002;-2.180961426347494E-003;2.124374499544501E-003;
2.401000000000000E+009;1.573730707168579E-001;5.104208365082741E-002;-2.011833712458611E-003;2.016205340623856E-003;
2.401166666666667E+009;1.576040387153626E-001;4.900773987174034E-002;-1.939619425684214E-003;2.164743142202497E-003;
2.401333333333334E+009;1.575898230075836E-001;4.689903557300568E-002;-1.972341444343329E-003;2.320352010428906E-003;
2.401500000000000E+009;1.581466197967529E-001;4.489153251051903E-002;-1.924101379700005E-003;2.330916468054056E-003;
2.401666666666667E+009;1.585432440042496E-001;4.265783354640007E-002;-1.984521048143506E-003;2.441615331918001E-003;
2.401833333333334E+009;1.588299870491028E-001;4.076196253299713E-002;-1.822858466766775E-003;2.526050200685859E-003;
2.402000000000000E+009;1.591722518205643E-001;3.865610435605049E-002;-1.780492137186229E-003;2.496075816452503E-003;
2.402166666666667E+009;1.598101705312729E-001;3.668829426169395E-002;-1.758065656758845E-003;2.679033437743783E-003;
2.402333333333334E+009;1.603045463562012E-001;3.473247960209847E-002;-1.724841189570725E-003;2.683795755729079E-003;
2.402500000000000E+009;1.613163053989410E-001;3.287865966558456E-002;-1.655366504564881E-003;2.898348029702902E-003;
2.402666666666667E+009;1.617973446846008E-001;3.110609203577042E-002;-1.689618686214089E-003;2.961492398753762E-003;
2.402833333333334E+009;1.627413481473923E-001;2.952505461871624E-002;-1.582359196618199E-003;2.806721255183220E-003;
2.403000000000000E+009;1.636200100183487E-001;2.813822031021118E-002;-1.349047757685185E-003;2.973192604258657E-003;
2.403166666666667E+009;1.645902842283249E-001;2.628432027995586E-002;-1.338996808044612E-003;3.070420818403363E-003;
2.403333333333334E+009;1.656123846769333E-001;2.496179752051830E-002;-1.195347984321415E-003;3.293290268629789E-003;
2.403500000000000E+009;1.663401573896408E-001;2.350128814578056E-002;-1.022496609948576E-003;3.256284864619374E-003;
2.403666666666667E+009;1.674610823392868E-001;2.224561758339405E-002;-8.331110584549606E-004;3.433888778090477E-003;
2.403833333333334E+009;1.683697253465653E-001;2.084477804601193E-002;-8.772967848926783E-004;3.347400808706880E-003;
2.404000000000000E+009;1.694298982620239E-001;1.984058693051338E-002;-8.397488272748888E-004;3.352870466187596E-003;
2.404166666666667E+009;1.703158020973206E-001;1.873060688376427E-002;-6.081155152060092E-004;3.583200275897980E-003;
2.404333333333334E+009;1.714677363634110E-001;1.790004782378674E-002;-3.233024908695370E-004;3.494043834507465E-003;
2.404500000000000E+009;1.722453236579895E-001;1.684267632663250E-002;-2.679550088942051E-004;3.575639799237251E-003;
2.404666666666667E+009;1.733193993568420E-001;1.586452685296536E-002;-2.261970512336120E-004;3.634567139670253E-003;
2.404833333333334E+009;1.742439121007919E-001;1.517270877957344E-002;-1.192874042317271E-004;3.686529118567705E-003;
2.405000000000000E+009;1.752099245786667E-001;1.454277802258730E-002;9.095569112105295E-005;3.573316149413586E-003;
2.405166666666667E+009;1.760122776031494E-001;1.399295218288899E-002;3.238543868064880E-004;3.750909352675080E-003;
2.405333333333334E+009;1.768815517425537E-001;1.329960301518440E-002;3.407892363611609E-004;3.633033484220505E-003;
2.405500000000000E+009;1.775760501623154E-001;1.300687249749899E-002;6.986846565268934E-004;3.713508835062385E-003;
2.405666666666667E+009;1.782767921686173E-001;1.256167795509100E-002;7.330826483666897E-004;3.585249651223421E-003;
2.405833333333334E+009;1.786167025566101E-001;1.228443812578917E-002;9.218215127475560E-004;3.613242879509926E-003;
2.406000000000000E+009;1.794902682304382E-001;1.179145649075508E-002;1.103396643884480E-003;3.598770825192332E-003;
2.406166666666667E+009;1.797066330909729E-001;1.163908187299967E-002;1.364898751489818E-003;3.554272465407848E-003;
2.406333333333334E+009;1.801573485136032E-001;1.126152742654085E-002;1.402456196956337E-003;3.618311835452914E-003;
2.406500000000000E+009;1.803976744413376E-001;1.099481899291277E-002;1.560406410135329E-003;3.386252326890826E-003;
2.406666666666667E+009;1.804570555686951E-001;1.084255333989859E-002;1.683803391642869E-003;3.419499844312668E-003;
2.406833333333334E+009;1.808073967695236E-001;1.045099552720785E-002;1.941858557984233E-003;3.351470455527306E-003;
2.407000000000000E+009;1.808621585369110E-001;1.017523556947708E-002;2.059849677607417E-003;3.198202699422836E-003;
2.407166666666667E+009;1.809068322181702E-001;9.901897981762886E-003;2.099649980664253E-003;3.139650216326118E-003;
2.407333333333334E+009;1.806612014770508E-001;9.516610763967037E-003;2.388188149780035E-003;3.000050084665418E-003;
2.407500000000000E+009;1.804090142250061E-001;9.171458892524242E-003;2.512388397008181E-003;2.821777248755097E-003;
2.407666666666667E+009;1.803198754787445E-001;8.815341629087925E-003;2.672068076208234E-003;2.603063592687249E-003;
2.407833333333334E+009;1.798859834671021E-001;8.124215528368950E-003;2.762837801128626E-003;2.493171021342278E-003;
2.408000000000000E+009;1.794452220201492E-001;7.410192862153053E-003;2.861205721274018E-003;2.446203725412488E-003;
2.408166666666667E+009;1.789266169071198E-001;7.010934408754110E-003;2.917230594903231E-003;2.433609683066607E-003;
2.408333333333334E+009;1.784606128931046E-001;6.198075134307146E-003;3.068452235311270E-003;2.131870482116938E-003;
2.408500000000000E+009;1.779375672340393E-001;5.214814562350512E-003;2.934750169515610E-003;2.112009096890688E-003;
2.408666666666667E+009;1.772536933422089E-001;4.443222191184759E-003;2.976933028548956E-003;1.729214796796441E-003;
2.408833333333334E+009;1.765997111797333E-001;3.548384876921773E-003;3.088688245043159E-003;1.598115311935544E-003;
2.409000000000000E+009;1.758849918842316E-001;2.361921360716224E-003;3.155855694785714E-003;1.642319839447737E-003;
2.409166666666667E+009;1.751335710287094E-001;1.314557390287519E-003;3.242373233661056E-003;1.460300409235060E-003;
2.409333333333334E+009;1.745016723871231E-001;1.974085353140254E-005;3.223781008273363E-003;1.373691600747407E-003;
2.409500000000000E+009;1.738288849592209E-001;-1.342173898592591E-003;3.154568374156952E-003;1.251115696504712E-003;
2.409666666666667E+009;1.730976253747940E-001;-2.649805042892695E-003;3.233056981116533E-003;1.121995737776160E-003;
2.409833333333334E+009;1.723665893077850E-001;-4.044342320412397E-003;3.357796696946025E-003;9.467673953622580E-004;
2.410000000000000E+009;1.719274371862412E-001;-5.812032148241997E-003;3.384115174412727E-003;7.481180364266038E-004;
2.410166666666667E+009;1.711846888065338E-001;-7.316160481423140E-003;3.362209303304553E-003;5.658685113303363E-004;
2.410333333333334E+009;1.706399470567703E-001;-9.041030891239643E-003;3.340520430356264E-003;5.971699138171971E-004;
2.410500000000000E+009;1.700535416603088E-001;-1.069895923137665E-002;3.204157575964928E-003;4.236831155139953E-004;
2.410666666666667E+009;1.695211678743362E-001;-1.271784491837025E-002;3.328687511384487E-003;2.816633204929531E-004;
2.410833333333334E+009;1.691231429576874E-001;-1.439486723393202E-002;3.365828189998865E-003;1.114397891797125E-004;
2.411000000000000E+009;1.687155365943909E-001;-1.643086038529873E-002;3.499579150229693E-003;6.438358832383528E-005;
2.411166666666667E+009;1.684335470199585E-001;-1.837167888879776E-002;3.194449935108423E-003;-4.704658931586891E-005;
2.411333333333334E+009;1.681297272443771E-001;-2.019819244742394E-002;3.249897854402661E-003;-2.137412957381457E-004;
2.411500000000000E+009;1.680174618959427E-001;-2.240189909934998E-002;3.402056870982051E-003;-4.696690884884447E-004;
2.411666666666667E+009;1.681692600250244E-001;-2.440083771944046E-002;3.178666811436415E-003;-5.879894597455859E-004;
2.411833333333334E+009;1.680045127868652E-001;-2.618529833853245E-002;3.201487241312861E-003;-4.585190908983350E-004;
2.412000000000000E+009;1.682015657424927E-001;-2.828553691506386E-002;3.142403671517968E-003;-9.048957726918161E-004;
2.412166666666667E+009;1.681721955537796E-001;-3.043041191995144E-002;3.125679679214954E-003;-9.296477073803544E-004;
2.412333333333334E+009;1.686654984951019E-001;-3.214336186647415E-002;2.980058081448078E-003;-1.137646380811930E-003;
2.412500000000000E+009;1.687304228544235E-001;-3.403773903846741E-002;2.868531271815300E-003;-1.327779726125300E-003;
2.412666666666667E+009;1.691745370626450E-001;-3.625155240297318E-002;2.882681088522077E-003;-1.408688724040985E-003;
2.412833333333334E+009;1.693934351205826E-001;-3.803872689604759E-002;2.642720472067595E-003;-1.476195990107954E-003;
2.413000000000000E+009;1.698665469884872E-001;-3.987681493163109E-002;2.811857732012868E-003;-1.628387137316167E-003;
2.413166666666667E+009;1.704917103052139E-001;-4.163335263729096E-002;2.493067644536495E-003;-1.686411094851792E-003;
2.413333333333334E+009;1.708207875490189E-001;-4.344787821173668E-002;2.491210820153356E-003;-1.829130342230201E-003;
2.413500000000000E+009;1.713748872280121E-001;-4.491220787167549E-002;2.501119859516621E-003;-1.815679599530995E-003;
2.413666666666667E+009;1.720582693815231E-001;-4.654217511415482E-002;2.268487587571144E-003;-1.923590549267829E-003;
2.413833333333334E+009;1.724699735641480E-001;-4.810348525643349E-002;1.929077203385532E-003;-2.001282060518861E-003;
2.414000000000000E+009;1.730787754058838E-001;-4.945549741387367E-002;1.970963319763541E-003;-2.124021528288722E-003;
2.414166666666667E+009;1.737704873085022E-001;-5.077321082353592E-002;1.829444197937846E-003;-2.079830504953861E-003;
2.414333333333334E+009;1.742274314165115E-001;-5.202064290642738E-002;1.611086656339467E-003;-2.109118737280369E-003;
2.414500000000000E+009;1.750022023916245E-001;-5.304024741053581E-002;1.491505885496736E-003;-2.194582717493177E-003;
2.414666666666667E+009;1.753996908664703E-001;-5.399456247687340E-002;1.327994628809393E-003;-2.179878996685147E-003;
2.414833333333334E+009;1.759400218725205E-001;-5.503229424357414E-002;1.259980024769902E-003;-2.130270702764392E-003;
2.415000000000000E+009;1.762886494398117E-001;-5.573539808392525E-002;1.099470886401832E-003;-2.249751240015030E-003;
2.415166666666667E+009;1.767656952142716E-001;-5.658530443906784E-002;1.003584475256503E-003;-2.242272486910224E-003;
2.415333333333334E+009;1.772030144929886E-001;-5.740001425147057E-002;9.898840216919780E-004;-2.147441264241934E-003;
2.415500000000000E+009;1.775500923395157E-001;-5.790732800960541E-002;8.056177175603807E-004;-2.182784024626017E-003;
2.415666666666667E+009;1.778253018856049E-001;-5.834356695413590E-002;7.405665237456560E-004;-2.105680759996176E-003;
2.415833333333334E+009;1.780427098274231E-001;-5.876181647181511E-002;5.912241758778691E-004;-2.027391688898206E-003;
2.416000000000000E+009;1.780124604701996E-001;-5.923409387469292E-002;4.296720726415515E-004;-2.007203642278910E-003;
2.416166666666667E+009;1.783729940652847E-001;-5.951154604554176E-002;4.477015754673630E-004;-2.130046254023910E-003;
2.416333333333334E+009;1.781627684831619E-001;-5.982378870248795E-002;3.869658394251019E-004;-2.006205962970853E-003;
2.416500000000000E+009;1.781064718961716E-001;-6.010696291923523E-002;2.559613494668156E-004;-1.872319495305419E-003;
2.416666666666667E+009;1.778233498334885E-001;-6.027365475893021E-002;1.650543272262439E-004;-1.962182344868779E-003;
2.416833333333334E+009;1.776709258556366E-001;-6.055667996406555E-002;1.237770920852199E-004;-1.980027882382274E-003;
2.417000000000000E+009;1.771452575922012E-001;-6.080210208892822E-002;9.221863729180768E-005;-1.847271691076458E-003;
2.417166666666667E+009;1.767073869705200E-001;-6.082853302359581E-002;1.034717934089713E-004;-1.761747058480978E-003;
2.417333333333334E+009;1.761836707592011E-001;-6.098787486553192E-002;8.044746209634468E-005;-1.830119639635086E-003;
2.417500000000000E+009;1.754644364118576E-001;-6.143425405025482E-002;-4.924135282635689E-005;-1.722678309306502E-003;
2.417666666666667E+009;1.747632920742035E-001;-6.146549433469772E-002;-3.094401836278848E-005;-1.653429237194359E-003;
2.417833333333334E+009;1.738773733377457E-001;-6.166664883494377E-002;-4.576499486574903E-005;-1.695822225883603E-003;
2.418000000000000E+009;1.728639602661133E-001;-6.206897646188736E-002;-2.185407502111048E-004;-1.666965428739786E-003;
2.418166666666667E+009;1.718691587448120E-001;-6.222562864422798E-002;-1.877607719507068E-004;-1.593428780324757E-003;
2.418333333333334E+009;1.712819337844849E-001;-6.262145191431046E-002;-2.518391120247543E-004;-1.738676568493247E-003;
2.418500000000000E+009;1.699597835540772E-001;-6.298276036977768E-002;-1.911840954562649E-004;-1.561988610774279E-003;
2.418666666666667E+009;1.688121855258942E-001;-6.351051479578018E-002;-1.980531815206632E-004;-1.561275450512767E-003;
2.418833333333334E+009;1.675790399312973E-001;-6.406927853822708E-002;-3.684627008624375E-004;-1.599384471774101E-003;
2.419000000000000E+009;1.662230044603348E-001;-6.465556472539902E-002;-3.411065845284611E-004;-1.471839146688581E-003;
2.419166666666667E+009;1.652390360832214E-001;-6.531703472137451E-002;-3.724931739270687E-004;-1.398030319251120E-003;
2.419333333333334E+009;1.637493669986725E-001;-6.588581949472427E-002;-4.334597033448517E-004;-1.500089652836323E-003;
2.419500000000000E+009;1.626193225383759E-001;-6.690546870231628E-002;-3.863361489493400E-004;-1.479444908909500E-003;
2.419666666666667E+009;1.614107489585877E-001;-6.772865355014801E-002;-4.478938644751906E-004;-1.255211653187871E-003;
2.419833333333334E+009;1.601268500089645E-001;-6.852148473262787E-002;-4.840116598643363E-004;-1.323152566328645E-003;
2.420000000000000E+009;1.590001434087753E-001;-6.960094720125198E-002;-5.090315244160593E-004;-1.255427720025182E-003;
2.420166666666667E+009;1.577555537223816E-001;-7.088186591863632E-002;-5.788764683529735E-004;-1.189218251965940E-003;
2.420333333333334E+009;1.569505333900452E-001;-7.204342633485794E-002;-6.489738589152694E-004;-1.300160074606538E-003;
2.420500000000000E+009;1.559771150350571E-001;-7.325034588575363E-002;-5.691080004908145E-004;-1.218816963955760E-003;
2.420666666666667E+009;1.547160148620606E-001;-7.439740002155304E-002;-6.237471243366599E-004;-1.232678187079728E-003;
2.420833333333334E+009;1.539389044046402E-001;-7.592118531465530E-002;-6.530007231049240E-004;-1.182254403829575E-003;
2.421000000000000E+009;1.529797613620758E-001;-7.754803448915482E-002;-6.572672282345593E-004;-1.011557760648429E-003;
2.421166666666667E+009;1.522229611873627E-001;-7.895155996084213E-002;-6.857073749415577E-004;-9.931469103321433E-004;
2.421333333333334E+009;1.517206877470017E-001;-8.059532940387726E-002;-7.268961053341627E-004;-1.088256482034922E-003;
2.421500000000000E+009;1.510391533374786E-001;-8.207640051841736E-002;-6.545078940689564E-004;-1.091361627914012E-003;
2.421666666666667E+009;1.505517810583115E-001;-8.380915224552155E-002;-7.464843220077455E-004;-1.127255614846945E-003;
2.421833333333334E+009;1.502305567264557E-001;-8.545399457216263E-002;-7.058784249238670E-004;-9.791147895157337E-004;
2.422000000000000E+009;1.498294770717621E-001;-8.716324716806412E-002;-8.539681439287961E-004;-1.049960730597377E-003;
2.422166666666667E+009;1.496031731367111E-001;-8.907317370176315E-002;-9.720224770717323E-004;-7.549620349891484E-004;
2.422333333333334E+009;1.494095623493195E-001;-9.072609990835190E-002;-8.352100267075002E-004;-8.132075308822095E-004;
2.422500000000000E+009;1.491738855838776E-001;-9.221535921096802E-002;-8.034962229430676E-004;-9.466965566389263E-004;
2.422666666666667E+009;1.492995470762253E-001;-9.400225430727005E-002;-9.106941288337112E-004;-9.709039586596191E-004;
2.422833333333334E+009;1.493453830480576E-001;-9.584237635135651E-002;-9.160541230812669E-004;-5.680338945239782E-004;
2.423000000000000E+009;1.494458913803101E-001;-9.743595123291016E-002;-8.541942806914449E-004;-8.788579143583775E-004;
2.423166666666667E+009;1.498339176177979E-001;-9.906107932329178E-002;-1.040893141180277E-003;-6.334792124107480E-004;
2.423333333333334E+009;1.503106504678726E-001;-1.005721613764763E-001;-1.039327005855739E-003;-6.150418776087463E-004;
2.423500000000000E+009;1.504796445369721E-001;-1.023430675268173E-001;-9.867999469861388E-004;-5.399942747317255E-004;
2.423666666666667E+009;1.507325768470764E-001;-1.038660109043121E-001;-1.056650537066162E-003;-6.087724468670785E-004;
2.423833333333334E+009;1.513724476099014E-001;-1.052585914731026E-001;-9.824055014178157E-004;-3.341546107549220E-004;
2.424000000000000E+009;1.516647040843964E-001;-1.065554469823837E-001;-1.121958368457854E-003;-4.981707897968590E-004;
2.424166666666667E+009;1.521428972482681E-001;-1.079870462417603E-001;-1.077687717042863E-003;-3.732128534466028E-004;
2.424333333333334E+009;1.526992022991180E-001;-1.091543957591057E-001;-1.159314299002290E-003;-3.971215628553182E-004;
2.424500000000000E+009;1.533832699060440E-001;-1.102808490395546E-001;-1.110949087888002E-003;-2.304386143805459E-004;
2.424666666666667E+009;1.539533436298370E-001;-1.111765056848526E-001;-1.045179669745266E-003;1.351115315628704E-005;
2.424833333333334E+009;1.542575210332871E-001;-1.122663244605064E-001;-1.054944703355432E-003;-1.804967760108411E-004;
2.425000000000000E+009;1.546966135501862E-001;-1.131652221083641E-001;-1.004868070594966E-003;-1.729283940221649E-005;
2.425166666666667E+009;1.551464349031448E-001;-1.140133589506149E-001;-8.157779811881483E-004;-8.945147783379071E-006;
2.425333333333334E+009;1.555881500244141E-001;-1.146748736500740E-001;-9.100029710680246E-004;-1.280745982512599E-005;
2.425500000000000E+009;1.560469865798950E-001;-1.153757944703102E-001;-7.860435871407390E-004;2.035755169345066E-004;
2.425666666666667E+009;1.562112122774124E-001;-1.158860176801682E-001;-8.466283907182515E-004;1.935145410243422E-004;
2.425833333333334E+009;1.564814597368240E-001;-1.165221929550171E-001;-8.486512233503163E-004;3.544686478562653E-005;
2.426000000000000E+009;1.567180007696152E-001;-1.169828772544861E-001;-6.866371259093285E-004;1.337483845418319E-004;
2.426166666666667E+009;1.569297462701798E-001;-1.173478513956070E-001;-6.772464257664979E-004;1.256251707673073E-004;
2.426333333333334E+009;1.568415760993958E-001;-1.176698952913284E-001;-5.860644159838557E-004;2.138656273018569E-004;
2.426500000000000E+009;1.569780558347702E-001;-1.178957819938660E-001;-5.041231052018702E-004;1.468447881052271E-004;
2.426666666666667E+009;1.570253074169159E-001;-1.179637238383293E-001;-5.818588542751968E-004;2.425620041321963E-004;
2.426833333333334E+009;1.567019373178482E-001;-1.181739941239357E-001;-3.817706310655922E-004;2.527389733586460E-004;
2.427000000000000E+009;1.564004570245743E-001;-1.183358877897263E-001;-4.128709842916578E-004;3.274299378972501E-004;
2.427166666666667E+009;1.560624092817307E-001;-1.183963716030121E-001;-4.063322849106044E-004;2.772512671072036E-004;
2.427333333333334E+009;1.555330157279968E-001;-1.185153797268868E-001;-3.282623656559736E-004;2.326886897208169E-004;
2.427500000000000E+009;1.550674438476563E-001;-1.185265481472015E-001;-1.867949176812545E-004;1.047398909577169E-004;
2.427666666666667E+009;1.544054448604584E-001;-1.186717152595520E-001;-2.920415427070111E-004;2.058879035757855E-004;
