# Version 1.00
#
freq[Hz];re:Trc1_S11;im:Trc1_S11;re:Trc2_S21;im:Trc2_S21;
2.400000000000000E+009;1.574142575263977E-001;6.262547522783279E-002;-2.529717050492764E-003;1.878187176771462E-003;
2.400166666666667E+009;1.573580503463745E-001;6.102054193615913E-002;-2.418069867417216E-003;2.098000142723322E-003;
2.400333333333334E+009;1.570503562688828E-001;5.901772156357765E-002;-2.301248721778393E-003;2.175103174522519E-003;
2.400500000000000E+009;1.572873890399933E-001;5.718786269426346E-002;-2.380669582635164E-003;2.179597737267613E-003;
2.400666666666667E+009;1.569997966289520E-001;5.499837547540665E-002;-2.419304801151156E-003;2.238441957160831E-003;
2.400833333333334E+009;1.572587788105011E-001;5.314327031373978E-002;-2.357684075832367E-003;2.369665075093508E-003;
2.401000000000000E+009;1.574243158102036E-001;5.103927850723267E-002;-2.103840000927448E-003;2.358965110033751E-003;
2.401166666666667E+009;1.575629115104675E-001;4.892433434724808E-002;-2.261062385514379E-003;2.317068399861455E-003;
2.401333333333334E+009;1.577603816986084E-001;4.673490673303604E-002;-2.095605712383986E-003;2.484129276126623E-003;
2.401500000000000E+009;1.582675874233246E-001;4.473572224378586E-002;-2.080888720229268E-003;2.563491696491838E-003;
2.401666666666667E+009;1.583826392889023E-001;4.276739805936813E-002;-1.950848149135709E-003;2.657992299646139E-003;
2.401833333333334E+009;1.587644666433334E-001;4.060563072562218E-002;-1.957274740561843E-003;2.593078417703509E-003;
2.402000000000000E+009;1.591999083757401E-001;3.857741132378578E-002;-1.790830632671714E-003;2.658932236954570E-003;
2.402166666666667E+009;1.596221774816513E-001;3.647428750991821E-002;-1.743690692819655E-003;2.786149736493826E-003;
2.402333333333334E+009;1.604856401681900E-001;3.486834838986397E-002;-1.689378288574517E-003;2.837735693901777E-003;
2.402500000000000E+009;1.612815409898758E-001;3.302961215376854E-002;-1.638515503145754E-003;2.782879397273064E-003;
2.402666666666667E+009;1.619147658348084E-001;3.130838647484779E-002;-1.530050649307668E-003;3.072395222261548E-003;
2.402833333333334E+009;1.627453416585922E-001;2.964106947183609E-002;-1.276299473829567E-003;3.248548367992044E-003;
2.403000000000000E+009;1.635755598545075E-001;2.778973802924156E-002;-1.258890493772924E-003;3.302423283457756E-003;
2.403166666666667E+009;1.646544039249420E-001;2.643345855176449E-002;-1.276547205634415E-003;3.366342512890697E-003;
2.403333333333334E+009;1.655296236276627E-001;2.498349361121655E-002;-1.097323256544769E-003;3.279035910964012E-003;
2.403500000000000E+009;1.663082242012024E-001;2.352667599916458E-002;-9.124051430262625E-004;3.492058720439673E-003;
2.403666666666667E+009;1.674605906009674E-001;2.214189060032368E-002;-9.599666227586567E-004;3.609410021454096E-003;
2.403833333333334E+009;1.684213727712631E-001;2.093603834509850E-002;-6.678811623714864E-004;3.482851432636380E-003;
2.404000000000000E+009;1.694559454917908E-001;1.977390795946121E-002;-7.008416578173637E-004;3.567014355212450E-003;
2.404166666666667E+009;1.703800857067108E-001;1.863680593669415E-002;-5.452530458569527E-004;3.807051805779338E-003;
2.404333333333334E+009;1.714581549167633E-001;1.779312081634998E-002;-3.652479208540171E-004;3.852073336020112E-003;
2.404500000000000E+009;1.723425835371018E-001;1.678372174501419E-002;-2.848421863745898E-004;3.774559125304222E-003;
2.404666666666667E+009;1.732987016439438E-001;1.589514315128326E-002;-5.900551695958711E-005;3.791482187807560E-003;
2.404833333333334E+009;1.742403358221054E-001;1.514333765953779E-002;6.280934030655772E-006;3.822181606665254E-003;
2.405000000000000E+009;1.751569658517838E-001;1.453678030520678E-002;1.634820800973103E-004;3.838296281173825E-003;
2.405166666666667E+009;1.760105341672897E-001;1.397831272333860E-002;4.319903382565826E-004;3.852226538583636E-003;
2.405333333333334E+009;1.768919974565506E-001;1.324080582708120E-002;6.305522401817143E-004;3.822542726993561E-003;
2.405500000000000E+009;1.775802820920944E-001;1.290732808411121E-002;8.909997995942831E-004;3.899840638041496E-003;
2.405666666666667E+009;1.782149523496628E-001;1.263983361423016E-002;8.255215361714363E-004;3.856194671243429E-003;
2.405833333333334E+009;1.786959320306778E-001;1.221197843551636E-002;1.221427228301764E-003;3.943388815969229E-003;
2.406000000000000E+009;1.793866753578186E-001;1.174714136868715E-002;1.170563744381070E-003;3.668426070362330E-003;
2.406166666666667E+009;1.796088367700577E-001;1.166329532861710E-002;1.425206777639687E-003;3.853474278002977E-003;
2.406333333333334E+009;1.802499443292618E-001;1.136598829180002E-002;1.636037137359381E-003;3.582361154258251E-003;
2.406500000000000E+009;1.804960072040558E-001;1.099904999136925E-002;1.876394031569362E-003;3.626357531175017E-003;
2.406666666666667E+009;1.804676055908203E-001;1.087954360991716E-002;2.111597917973995E-003;3.691535443067551E-003;
2.406833333333334E+009;1.806499063968658E-001;1.056610327214003E-002;2.100475365296006E-003;3.167854622006416E-003;
2.407000000000000E+009;1.808913946151733E-001;1.013591792434454E-002;2.376684918999672E-003;3.298617666587234E-003;
2.407166666666667E+009;1.808083802461624E-001;9.890906512737274E-003;2.565297996625304E-003;3.278064075857401E-003;
2.407333333333334E+009;1.806539744138718E-001;9.459206834435463E-003;2.663489896804094E-003;3.010614076629281E-003;
2.407500000000000E+009;1.804384887218475E-001;9.095934219658375E-003;2.665831474587321E-003;2.866462338715792E-003;
2.407666666666667E+009;1.801548153162003E-001;8.805188350379467E-003;2.905811881646514E-003;2.690899651497603E-003;
2.407833333333334E+009;1.797875761985779E-001;8.100453764200211E-003;3.007989842444658E-003;2.670972142368555E-003;
2.408000000000000E+009;1.793733090162277E-001;7.530152797698975E-003;3.131026867777109E-003;2.499443711712956E-003;
2.408166666666667E+009;1.790044456720352E-001;6.976462434977293E-003;3.178456565365195E-003;2.367738168686628E-003;
2.408333333333334E+009;1.786878407001495E-001;6.162853445857763E-003;3.222255036234856E-003;2.181078772991896E-003;
2.408500000000000E+009;1.779296249151230E-001;5.400156602263451E-003;3.384507959708571E-003;1.890510437078774E-003;
2.408666666666667E+009;1.772735267877579E-001;4.490988794714212E-003;3.417468164116144E-003;1.835226314142346E-003;
2.408833333333334E+009;1.764357239007950E-001;3.524921135976911E-003;3.436008468270302E-003;1.726738875731826E-003;
2.409000000000000E+009;1.758494377136231E-001;2.438671886920929E-003;3.391480073332787E-003;1.493565505370498E-003;
2.409166666666667E+009;1.751799285411835E-001;1.257989322766662E-003;3.349615260958672E-003;1.361966016702354E-003;
2.409333333333334E+009;1.746557354927063E-001;6.307918374659494E-005;3.434434300288558E-003;1.298246090300381E-003;
2.409500000000000E+009;1.737496405839920E-001;-1.542442128993571E-003;3.476316109299660E-003;1.122844987548888E-003;
2.409666666666667E+009;1.729299873113632E-001;-2.840813715010881E-003;3.376158419996500E-003;9.632171713747084E-004;
2.409833333333334E+009;1.721435636281967E-001;-4.198641516268253E-003;3.600615542382002E-003;7.818272570148110E-004;
2.410000000000000E+009;1.716780215501785E-001;-5.668625701218844E-003;3.481540828943253E-003;7.418129243887961E-004;
2.410166666666667E+009;1.710520237684250E-001;-7.323962170630693E-003;3.388352459296584E-003;4.954532487317920E-004;
2.410333333333334E+009;1.705674976110458E-001;-8.971111848950386E-003;3.419685410335660E-003;3.391850914340466E-004;
2.410500000000000E+009;1.699422448873520E-001;-1.079986523836851E-002;3.530279034748673E-003;1.619421527720988E-004;
2.410666666666667E+009;1.693855673074722E-001;-1.256477646529675E-002;3.421823494136334E-003;-8.501810225425288E-005;
2.410833333333334E+009;1.690994203090668E-001;-1.436380203813314E-002;3.570232074707747E-003;-1.061804287019186E-004;
2.411000000000000E+009;1.685774326324463E-001;-1.635603979229927E-002;3.498348873108625E-003;-3.022582095582038E-004;
2.411166666666667E+009;1.683538258075714E-001;-1.834620349109173E-002;3.397853346541524E-003;-2.438118681311607E-004;
2.411333333333334E+009;1.681586205959320E-001;-2.027033269405365E-002;3.283201018348336E-003;-3.216763434465975E-004;
2.411500000000000E+009;1.677992343902588E-001;-2.232360467314720E-002;3.420502878725529E-003;-5.189678049646318E-004;
2.411666666666667E+009;1.680477112531662E-001;-2.433203347027302E-002;3.407556796446443E-003;-7.872218266129494E-004;
2.411833333333334E+009;1.679845303297043E-001;-2.627881616353989E-002;3.221485298126936E-003;-8.196291746571660E-004;
2.412000000000000E+009;1.680098921060562E-001;-2.840392664074898E-002;3.279992146417499E-003;-1.048919046297669E-003;
2.412166666666667E+009;1.681126356124878E-001;-3.023339062929153E-002;3.159143961966038E-003;-1.248813932761550E-003;
2.412333333333334E+009;1.685446649789810E-001;-3.221331164240837E-002;3.058359259739518E-003;-1.238926779478788E-003;
2.412500000000000E+009;1.686704605817795E-001;-3.413822129368782E-002;2.990234876051545E-003;-1.465941662900150E-003;
2.412666666666667E+009;1.691285818815231E-001;-3.608123958110809E-002;2.926660003140569E-003;-1.645988086238504E-003;
2.412833333333334E+009;1.694067120552063E-001;-3.814026340842247E-002;2.794484607875347E-003;-1.747786300256848E-003;
2.413000000000000E+009;1.699331104755402E-001;-3.969525918364525E-002;2.693840302526951E-003;-1.807296532206237E-003;
2.413166666666667E+009;1.703770011663437E-001;-4.150549322366715E-002;2.588331466540694E-003;-2.002538647502661E-003;
2.413333333333334E+009;1.707774847745895E-001;-4.334309324622154E-002;2.525330288335681E-003;-2.063830848783255E-003;
2.413500000000000E+009;1.713371872901917E-001;-4.495137184858322E-002;2.474065870046616E-003;-2.112646820023656E-003;
2.413666666666667E+009;1.718613505363464E-001;-4.643336683511734E-002;2.182162832468748E-003;-2.185865072533488E-003;
2.413833333333334E+009;1.725748777389526E-001;-4.794011265039444E-002;2.142573706805706E-003;-2.412078902125359E-003;
2.414000000000000E+009;1.728148311376572E-001;-4.932871088385582E-002;1.965633127838373E-003;-2.250231103971601E-003;
2.414166666666667E+009;1.735580265522003E-001;-5.061996728181839E-002;1.653560670092702E-003;-2.357684541493654E-003;
2.414333333333334E+009;1.742247790098190E-001;-5.177911370992661E-002;1.679452718235552E-003;-2.469906583428383E-003;
2.414500000000000E+009;1.749282777309418E-001;-5.288343131542206E-002;1.594643690623343E-003;-2.549540251493454E-003;
2.414666666666667E+009;1.753812283277512E-001;-5.408471450209618E-002;1.300700358115137E-003;-2.352863317355514E-003;
2.414833333333334E+009;1.758548766374588E-001;-5.482199415564537E-002;1.419181819073856E-003;-2.441874472424388E-003;
2.415000000000000E+009;1.762824356555939E-001;-5.594269931316376E-002;9.710715967230499E-004;-2.442858880385757E-003;
2.415166666666667E+009;1.767828464508057E-001;-5.658794194459915E-002;1.046792836859822E-003;-2.389313420280814E-003;
2.415333333333334E+009;1.773601323366165E-001;-5.729719251394272E-002;7.475134916603565E-004;-2.364995423704386E-003;
2.415500000000000E+009;1.776260882616043E-001;-5.775505304336548E-002;6.211492582224309E-004;-2.366191241890192E-003;
2.415666666666667E+009;1.777768582105637E-001;-5.824797600507736E-002;5.683110211975873E-004;-2.347692847251892E-003;
2.415833333333334E+009;1.780963987112045E-001;-5.868727341294289E-002;5.235977005213499E-004;-2.236582338809967E-003;
2.416000000000000E+009;1.780973970890045E-001;-5.913932994008064E-002;4.427228996064514E-004;-2.347581088542938E-003;
2.416166666666667E+009;1.783525943756104E-001;-5.947609245777130E-002;2.925219596363604E-004;-2.322925720363855E-003;
2.416333333333334E+009;1.782274991273880E-001;-5.972637608647347E-002;2.398476208327338E-004;-2.103281905874610E-003;
2.416500000000000E+009;1.781821846961975E-001;-6.013566628098488E-002;1.588434242876247E-004;-2.175422850996256E-003;
2.416666666666667E+009;1.776877343654633E-001;-6.022449210286140E-002;2.175786939915270E-004;-2.165930112823844E-003;
2.416833333333334E+009;1.776642799377441E-001;-6.050976365804672E-002;1.695642822596710E-005;-2.011857926845551E-003;
2.417000000000000E+009;1.771478503942490E-001;-6.075491383671761E-002;-3.946549259126186E-005;-1.993642421439290E-003;
2.417166666666667E+009;1.767128854990006E-001;-6.080755591392517E-002;-4.725830149254762E-005;-2.052086638286710E-003;
2.417333333333334E+009;1.761381775140762E-001;-6.094717979431152E-002;-1.328272483078763E-004;-1.908670994453132E-003;
2.417500000000000E+009;1.754173934459686E-001;-6.133653596043587E-002;-1.479658676544204E-004;-1.882738200947642E-003;
2.417666666666667E+009;1.748187839984894E-001;-6.136075779795647E-002;-2.148138737538829E-004;-1.830603461712599E-003;
2.417833333333334E+009;1.739120036363602E-001;-6.148707866668701E-002;-3.885858750436455E-004;-1.705977250821888E-003;
2.418000000000000E+009;1.728300601243973E-001;-6.205782666802406E-002;-3.852804948110133E-004;-1.805524691008031E-003;
2.418166666666667E+009;1.719760596752167E-001;-6.214506924152374E-002;-3.531032125465572E-004;-1.713045872747898E-003;
2.418333333333334E+009;1.711832582950592E-001;-6.261958181858063E-002;-3.052632964681834E-004;-1.761193154379726E-003;
2.418500000000000E+009;1.699447631835938E-001;-6.297317147254944E-002;-3.814421070273966E-004;-1.723392168059945E-003;
2.418666666666667E+009;1.689966320991516E-001;-6.351140886545181E-002;-4.957906785421073E-004;-1.557647017762065E-003;
2.418833333333334E+009;1.675481349229813E-001;-6.404685974121094E-002;-4.974441835656762E-004;-1.641806680709124E-003;
2.419000000000000E+009;1.663043797016144E-001;-6.461796164512634E-002;-6.163924699649215E-004;-1.641159411519766E-003;
2.419166666666667E+009;1.650953143835068E-001;-6.518887728452683E-002;-6.441589212045074E-004;-1.518135075457394E-003;
2.419333333333334E+009;1.638535261154175E-001;-6.582441926002502E-002;-4.849837569054216E-004;-1.582165132276714E-003;
2.419500000000000E+009;1.626162976026535E-001;-6.674765795469284E-002;-6.590906996279955E-004;-1.519634271971881E-003;
2.419666666666667E+009;1.615379005670548E-001;-6.777448207139969E-002;-6.899471045471728E-004;-1.277836970984936E-003;
2.419833333333334E+009;1.600854098796845E-001;-6.858631968498230E-002;-7.487874245271087E-004;-1.363764866255224E-003;
2.420000000000000E+009;1.590983569622040E-001;-6.973306834697723E-002;-9.192656725645065E-004;-1.345931203104556E-003;
2.420166666666667E+009;1.580122858285904E-001;-7.069212198257446E-002;-7.858106982894242E-004;-1.311337458901107E-003;
2.420333333333334E+009;1.569234132766724E-001;-7.208672165870667E-002;-7.709884084761143E-004;-1.198188983835280E-003;
2.420500000000000E+009;1.559103429317474E-001;-7.328874617815018E-002;-8.037592633627355E-004;-1.133347861468792E-003;
2.420666666666667E+009;1.549435108900070E-001;-7.443388551473618E-002;-8.690570830367506E-004;-1.244817045517266E-003;
2.420833333333334E+009;1.542369425296783E-001;-7.590263336896896E-002;-7.767271599732339E-004;-1.199337770231068E-003;
2.421000000000000E+009;1.530616134405136E-001;-7.752454280853272E-002;-8.132039220072329E-004;-1.106317969970405E-003;
2.421166666666667E+009;1.524579823017120E-001;-7.894957065582275E-002;-8.851996972225606E-004;-1.142615219578147E-003;
2.421333333333334E+009;1.517013162374497E-001;-8.060413599014282E-002;-9.920623851940036E-004;-9.577951859682798E-004;
2.421500000000000E+009;1.510465145111084E-001;-8.222574740648270E-002;-1.156238955445588E-003;-1.024156925268471E-003;
2.421666666666667E+009;1.506159156560898E-001;-8.364450186491013E-002;-1.148304785601795E-003;-9.849951602518559E-004;
2.421833333333334E+009;1.501503437757492E-001;-8.563563972711563E-002;-9.825889719650149E-004;-7.766490452922881E-004;
2.422000000000000E+009;1.498009264469147E-001;-8.724848926067352E-002;-1.111863879486918E-003;-8.091944037005305E-004;
2.422166666666667E+009;1.495440304279327E-001;-8.920458704233170E-002;-1.153172459453344E-003;-8.450131281279028E-004;
2.422333333333334E+009;1.494628340005875E-001;-9.060913324356079E-002;-1.119074993766844E-003;-8.087693131528795E-004;
2.422500000000000E+009;1.492881327867508E-001;-9.229375422000885E-002;-1.029034727253020E-003;-6.927875801920891E-004;
2.422666666666667E+009;1.491672694683075E-001;-9.416444599628449E-002;-1.067032688297331E-003;-7.069190614856780E-004;
2.422833333333334E+009;1.493693292140961E-001;-9.585689008235931E-002;-1.204416505061090E-003;-4.959462676197290E-004;
2.423000000000000E+009;1.495216041803360E-001;-9.744559228420258E-002;-1.137482118792832E-003;-5.988758057355881E-004;
2.423166666666667E+009;1.497901082038879E-001;-9.929529577493668E-002;-1.091534853912890E-003;-3.190314746461809E-004;
2.423333333333334E+009;1.503209024667740E-001;-1.006669029593468E-001;-1.173711614683271E-003;-4.269265045877546E-004;
2.423500000000000E+009;1.504663825035095E-001;-1.023465022444725E-001;-1.158010098151863E-003;-4.793691332451999E-004;
2.423666666666667E+009;1.506928652524948E-001;-1.039214134216309E-001;-1.125323586165905E-003;-3.189189010299742E-004;
2.423833333333334E+009;1.513002365827560E-001;-1.054146140813828E-001;-1.196035416796804E-003;-3.201055224053562E-004;
2.424000000000000E+009;1.516654342412949E-001;-1.066102087497711E-001;-1.184158027172089E-003;-2.676039584912360E-004;
2.424166666666667E+009;1.521155387163162E-001;-1.081067845225334E-001;-1.209404086694121E-003;-1.522699894849211E-004;
2.424333333333334E+009;1.529068648815155E-001;-1.091194227337837E-001;-1.136612263508141E-003;-5.029334352002479E-005;
2.424500000000000E+009;1.532167047262192E-001;-1.102845147252083E-001;-1.071352860890329E-003;-9.419746493222192E-005;
2.424666666666667E+009;1.537812799215317E-001;-1.112790703773499E-001;-1.122810179367662E-003;4.701635407400318E-005;
2.424833333333334E+009;1.541096866130829E-001;-1.124021634459496E-001;-1.026218291372061E-003;-4.533544142759638E-006;
2.425000000000000E+009;1.548313796520233E-001;-1.133002415299416E-001;-1.087462762370706E-003;1.864302030298859E-004;
2.425166666666667E+009;1.549962908029556E-001;-1.141590103507042E-001;-8.838023059070110E-004;2.713338180910796E-004;
2.425333333333334E+009;1.554955989122391E-001;-1.148811951279640E-001;-9.581973426975310E-004;1.587042497703806E-004;
2.425500000000000E+009;1.559186577796936E-001;-1.154737472534180E-001;-9.723221883177757E-004;3.359878028277308E-004;
2.425666666666667E+009;1.561287790536881E-001;-1.160265430808067E-001;-8.800256764516234E-004;3.238878562115133E-004;
2.425833333333334E+009;1.564462780952454E-001;-1.165992990136147E-001;-8.301895577460527E-004;3.060825692955405E-004;
2.426000000000000E+009;1.566083431243897E-001;-1.170243471860886E-001;-7.589360466226935E-004;3.737345978152007E-004;
2.426166666666667E+009;1.569124907255173E-001;-1.174927651882172E-001;-6.728408625349402E-004;5.144423921592534E-004;
2.426333333333334E+009;1.568343937397003E-001;-1.177430525422096E-001;-6.392988725565374E-004;4.241889109835029E-004;
2.426500000000000E+009;1.569798290729523E-001;-1.180311813950539E-001;-5.000458331778646E-004;5.492364289239049E-004;
2.426666666666667E+009;1.569253951311112E-001;-1.179125979542732E-001;-4.055153985973448E-004;3.109994577243924E-004;
2.426833333333334E+009;1.567522138357163E-001;-1.182390674948692E-001;-4.043990338686854E-004;3.713181649800390E-004;
2.427000000000000E+009;1.564046740531921E-001;-1.184646338224411E-001;-4.470929270610213E-004;4.510708386078477E-004;
2.427166666666667E+009;1.560705602169037E-001;-1.183903589844704E-001;-2.819458022713661E-004;3.970035759266466E-004;
2.427333333333334E+009;1.555416136980057E-001;-1.185239255428314E-001;-2.771900908555836E-004;4.046868416480720E-004;
2.427500000000000E+009;1.550038903951645E-001;-1.187002733349800E-001;-2.308211987838149E-004;4.795322020072490E-004;
2.427666666666667E+009;1.542477309703827E-001;-1.187116727232933E-001;-2.317255566595122E-004;3.117052256129682E-004;
