# Version 1.00
#
freq[Hz];re:Trc1_S11;im:Trc1_S11;re:Trc2_S21;im:Trc2_S21;
2.400000000000000E+009;1.523389965295792E-001;1.172246560454369E-001;2.461171476170421E-003;1.878855051472783E-003;
2.400166666666667E+009;1.518525183200836E-001;1.151203140616417E-001;2.346011344343424E-003;1.806216081604362E-003;
2.400333333333334E+009;1.517887264490128E-001;1.127624586224556E-001;2.580860164016485E-003;1.962231006473303E-003;
2.400500000000000E+009;1.514781564474106E-001;1.102474182844162E-001;2.732634544372559E-003;1.974400831386447E-003;
2.400666666666667E+009;1.514365077018738E-001;1.079008951783180E-001;2.898771781474352E-003;2.145865000784397E-003;
2.400833333333334E+009;1.511202454566956E-001;1.048766374588013E-001;3.055251669138670E-003;1.925998833030462E-003;
2.401000000000000E+009;1.512222439050674E-001;1.021769270300865E-001;3.339051734656096E-003;1.798990066163242E-003;
2.401166666666667E+009;1.512452512979507E-001;9.923365712165833E-002;3.534600604325533E-003;1.820943085476756E-003;
2.401333333333334E+009;1.513934582471848E-001;9.643069654703140E-002;3.644067328423262E-003;1.670855213887990E-003;
2.401500000000000E+009;1.517553776502609E-001;9.352247416973114E-002;3.930338658392429E-003;1.574883121065795E-003;
2.401666666666667E+009;1.520390659570694E-001;9.053098410367966E-002;4.083061590790749E-003;1.399677246809006E-003;
2.401833333333334E+009;1.525393426418304E-001;8.764277398586273E-002;4.087687470018864E-003;1.234265742823482E-003;
2.402000000000000E+009;1.532271206378937E-001;8.471208810806274E-002;4.241399932652712E-003;1.026918296702206E-003;
2.402166666666667E+009;1.536778509616852E-001;8.184224367141724E-002;4.333413206040859E-003;7.585512357763946E-004;
2.402333333333334E+009;1.549280732870102E-001;7.890378683805466E-002;4.432471469044685E-003;4.743673489429057E-004;
2.402500000000000E+009;1.558708697557449E-001;7.594669610261917E-002;4.667086992412806E-003;2.040286490228027E-004;
2.402666666666667E+009;1.572536677122116E-001;7.349853962659836E-002;4.765779245644808E-003;-1.017038521240465E-004;
2.402833333333334E+009;1.584147661924362E-001;7.079855352640152E-002;4.570871591567993E-003;-3.404959570616484E-004;
2.403000000000000E+009;1.601988077163696E-001;6.815141439437866E-002;4.616291262209415E-003;-5.588616477325559E-004;
2.403166666666667E+009;1.619393527507782E-001;6.565681844949722E-002;4.702910780906677E-003;-7.682062569074333E-004;
2.403333333333334E+009;1.636264622211456E-001;6.312905251979828E-002;4.410059191286564E-003;-1.021610223688185E-003;
2.403500000000000E+009;1.655579060316086E-001;6.077655404806137E-002;4.456821363419294E-003;-1.352853723801673E-003;
2.403666666666667E+009;1.675772219896317E-001;5.856287851929665E-002;4.299134481698275E-003;-1.614233362488449E-003;
2.403833333333334E+009;1.694536209106445E-001;5.645879358053207E-002;4.259513225406408E-003;-1.753540709614754E-003;
2.404000000000000E+009;1.712124794721603E-001;5.434674397110939E-002;3.919863142073154E-003;-1.841229968704283E-003;
2.404166666666667E+009;1.733386963605881E-001;5.247348546981812E-002;3.938234411180019E-003;-2.219308866187930E-003;
2.404333333333334E+009;1.752405613660812E-001;5.070250853896141E-002;3.734129713848233E-003;-2.361157443374395E-003;
2.404500000000000E+009;1.771646440029144E-001;4.889470711350441E-002;3.434550249949098E-003;-2.444444224238396E-003;
2.404666666666667E+009;1.793119162321091E-001;4.754505306482315E-002;3.473270684480667E-003;-2.262819092720747E-003;
2.404833333333334E+009;1.812397092580795E-001;4.618198797106743E-002;3.317878115922213E-003;-2.382368547841907E-003;
2.405000000000000E+009;1.829956322908402E-001;4.520315304398537E-002;3.268188098445535E-003;-2.524118404835463E-003;
2.405166666666667E+009;1.848026812076569E-001;4.434331133961678E-002;3.184035187587142E-003;-2.629798604175448E-003;
2.405333333333334E+009;1.865784227848053E-001;4.374058172106743E-002;3.264296567067504E-003;-2.626607893034816E-003;
2.405500000000000E+009;1.883469671010971E-001;4.300885647535324E-002;3.078414592891932E-003;-2.887639217078686E-003;
2.405666666666667E+009;1.899801641702652E-001;4.249594360589981E-002;2.987937768921256E-003;-2.893144264817238E-003;
2.405833333333334E+009;1.916820555925369E-001;4.210717603564262E-002;2.852417062968016E-003;-3.024905687198043E-003;
2.406000000000000E+009;1.931871920824051E-001;4.199728742241859E-002;2.799852052703500E-003;-2.874913392588496E-003;
2.406166666666667E+009;1.944920271635056E-001;4.172030836343765E-002;2.574684564024210E-003;-2.993820467963815E-003;
2.406333333333334E+009;1.958137154579163E-001;4.173251613974571E-002;2.319526858627796E-003;-3.199631813913584E-003;
2.406500000000000E+009;1.969685107469559E-001;4.166182503104210E-002;2.389898058027029E-003;-3.253034316003323E-003;
2.406666666666667E+009;1.980235427618027E-001;4.181625321507454E-002;2.293335506692529E-003;-3.449985524639487E-003;
2.406833333333334E+009;1.988664418458939E-001;4.179056361317635E-002;2.045260276645422E-003;-3.427423536777496E-003;
2.407000000000000E+009;1.993591934442520E-001;4.210650175809860E-002;1.939190900884569E-003;-3.730130149051547E-003;
2.407166666666667E+009;2.001479268074036E-001;4.194824025034905E-002;1.926802215166390E-003;-3.710075281560421E-003;
2.407333333333334E+009;2.003179788589478E-001;4.230105504393578E-002;1.607667538337410E-003;-3.787693800404668E-003;
2.407500000000000E+009;2.005164325237274E-001;4.244417697191238E-002;1.568503212183714E-003;-3.842077683657408E-003;
2.407666666666667E+009;2.005918323993683E-001;4.248778522014618E-002;1.250821165740490E-003;-3.822230035439134E-003;
2.407833333333334E+009;2.003695815801621E-001;4.244232177734375E-002;1.000652438960969E-003;-3.796377684921026E-003;
2.408000000000000E+009;2.005190849304199E-001;4.256112128496170E-002;9.402902796864510E-004;-3.741858294233680E-003;
2.408166666666667E+009;1.999062746763229E-001;4.240473732352257E-002;7.949344580993056E-004;-3.775057615712285E-003;
2.408333333333334E+009;1.994239240884781E-001;4.199249297380447E-002;6.868667551316321E-004;-3.673825645819306E-003;
2.408500000000000E+009;1.988663822412491E-001;4.196102172136307E-002;5.243470077402890E-004;-3.752189688384533E-003;
2.408666666666667E+009;1.980526596307755E-001;4.168333113193512E-002;4.724831087514758E-004;-3.495680633932352E-003;
2.408833333333334E+009;1.973996907472611E-001;4.108853638172150E-002;3.209549176972359E-004;-3.468339331448078E-003;
2.409000000000000E+009;1.961665004491806E-001;4.041679948568344E-002;3.895212721545249E-004;-3.436723491176963E-003;
2.409166666666667E+009;1.952189952135086E-001;3.973495960235596E-002;1.918716006912291E-004;-3.496664110571146E-003;
2.409333333333334E+009;1.942220479249954E-001;3.900476545095444E-002;3.315338981337845E-004;-3.425769973546267E-003;
2.409500000000000E+009;1.928093582391739E-001;3.792912140488625E-002;1.220011254190467E-004;-3.378910943865776E-003;
2.409666666666667E+009;1.915454864501953E-001;3.678835555911064E-002;-6.757108349120244E-005;-3.521034494042397E-003;
2.409833333333334E+009;1.901205480098724E-001;3.558539599180222E-002;6.998727258178406E-006;-3.458107355982065E-003;
2.410000000000000E+009;1.889744997024536E-001;3.405481204390526E-002;-6.018929525453132E-006;-3.475490026175976E-003;
2.410166666666667E+009;1.876720786094666E-001;3.239381685853005E-002;-9.401691204402596E-005;-3.408335614949465E-003;
2.410333333333334E+009;1.863304972648621E-001;3.069366887211800E-002;-3.669821890071034E-004;-3.563776379451156E-003;
2.410500000000000E+009;1.850555688142777E-001;2.902183309197426E-002;-5.028740852139890E-004;-3.453094279393554E-003;
2.410666666666667E+009;1.838719546794891E-001;2.683917991816998E-002;-6.002050940878689E-004;-3.556552808731794E-003;
2.410833333333334E+009;1.828783452510834E-001;2.469727396965027E-002;-5.915829678997397E-004;-3.556059906259179E-003;
2.411000000000000E+009;1.819764375686646E-001;2.240670286118984E-002;-8.061190019361675E-004;-3.439900232478976E-003;
2.411166666666667E+009;1.806741356849670E-001;2.044557034969330E-002;-9.329457534477115E-004;-3.311575623229146E-003;
2.411333333333334E+009;1.800487786531448E-001;1.766004227101803E-002;-1.006864942610264E-003;-3.228496992960572E-003;
2.411500000000000E+009;1.790066957473755E-001;1.539544388651848E-002;-1.113009639084339E-003;-3.331059589982033E-003;
2.411666666666667E+009;1.787185668945313E-001;1.305490080267191E-002;-1.013342523947358E-003;-3.199249971657991E-003;
2.411833333333334E+009;1.779512166976929E-001;1.046226546168327E-002;-1.354694366455078E-003;-3.208317328244448E-003;
2.412000000000000E+009;1.778443008661270E-001;7.709200959652662E-003;-1.462649437598884E-003;-3.026175079867244E-003;
2.412166666666667E+009;1.775917112827301E-001;5.304224789142609E-003;-1.487585832364857E-003;-2.966751111671329E-003;
2.412333333333334E+009;1.772792488336563E-001;2.720270073041320E-003;-1.437839237041771E-003;-2.940434962511063E-003;
2.412500000000000E+009;1.776625812053680E-001;3.909332008333877E-005;-1.416083076037467E-003;-2.936990000307560E-003;
2.412666666666667E+009;1.779796481132507E-001;-2.585675800219178E-003;-1.520456979051232E-003;-2.701140008866787E-003;
2.412833333333334E+009;1.784029155969620E-001;-5.330595653504133E-003;-1.447953749448061E-003;-2.839343389496207E-003;
2.413000000000000E+009;1.789223402738571E-001;-7.641599047929049E-003;-1.638053101487458E-003;-2.678159624338150E-003;
2.413166666666667E+009;1.796434372663498E-001;-1.028981897979975E-002;-1.717511098831892E-003;-2.765780547633767E-003;
2.413333333333334E+009;1.803474426269531E-001;-1.278011593967676E-002;-1.658515888266265E-003;-2.666775835677981E-003;
2.413500000000000E+009;1.811563968658447E-001;-1.531517226248980E-002;-1.760133774951100E-003;-2.779138274490833E-003;
2.413666666666667E+009;1.824795603752136E-001;-1.763636432588100E-002;-1.873397850431502E-003;-2.712182002142072E-003;
2.413833333333334E+009;1.834716498851776E-001;-1.989595219492912E-002;-1.976171508431435E-003;-2.726918319240212E-003;
2.414000000000000E+009;1.844428032636643E-001;-2.206653729081154E-002;-2.078262623399496E-003;-2.756781876087189E-003;
2.414166666666667E+009;1.858218312263489E-001;-2.413202077150345E-002;-2.323926426470280E-003;-2.812109189108014E-003;
2.414333333333334E+009;1.869487315416336E-001;-2.637748047709465E-002;-2.286956179887056E-003;-2.797822933644056E-003;
2.414500000000000E+009;1.884221732616425E-001;-2.806987613439560E-002;-2.423837780952454E-003;-2.509962301701307E-003;
2.414666666666667E+009;1.895807385444641E-001;-2.974346093833447E-002;-2.645389409735799E-003;-2.295137383043766E-003;
2.414833333333334E+009;1.910153031349182E-001;-3.120102174580097E-002;-2.514904364943504E-003;-2.183406148105860E-003;
2.415000000000000E+009;1.921109706163406E-001;-3.264303877949715E-002;-2.756325760856271E-003;-2.154148649424315E-003;
2.415166666666667E+009;1.936518251895905E-001;-3.390439227223396E-002;-2.780728274956346E-003;-1.979965483769774E-003;
2.415333333333334E+009;1.948779076337814E-001;-3.499995172023773E-002;-2.706555416807532E-003;-2.035802463069558E-003;
2.415500000000000E+009;1.962717771530151E-001;-3.586434200406075E-002;-2.876879880204797E-003;-1.855195267125964E-003;
2.415666666666667E+009;1.975551843643189E-001;-3.679136931896210E-002;-2.842560177668929E-003;-1.761521794833243E-003;
2.415833333333334E+009;1.985800564289093E-001;-3.762002661824226E-002;-2.874035853892565E-003;-1.815097057260573E-003;
2.416000000000000E+009;1.997143626213074E-001;-3.811477124691010E-002;-3.165834816172719E-003;-1.760557992383838E-003;
2.416166666666667E+009;2.007669806480408E-001;-3.874400630593300E-002;-2.942533465102315E-003;-1.604495802894235E-003;
2.416333333333334E+009;2.017161697149277E-001;-3.890670463442802E-002;-2.969699213281274E-003;-1.674923463724554E-003;
2.416500000000000E+009;2.023974508047104E-001;-3.917739912867546E-002;-2.975834999233484E-003;-1.395221799612045E-003;
2.416666666666667E+009;2.029712796211243E-001;-3.945722058415413E-002;-3.128543961793184E-003;-1.380828674882650E-003;
2.416833333333334E+009;2.034376561641693E-001;-3.941131010651588E-002;-3.211179981008172E-003;-1.298334449529648E-003;
2.417000000000000E+009;2.038427591323853E-001;-3.940946236252785E-002;-3.277500392869115E-003;-1.331878826022148E-003;
2.417166666666667E+009;2.038903087377548E-001;-3.921602293848991E-002;-3.266320098191500E-003;-1.172094489447773E-003;
2.417333333333334E+009;2.038984447717667E-001;-3.876363113522530E-002;-3.294534515589476E-003;-1.167004113085568E-003;
2.417500000000000E+009;2.038889378309250E-001;-3.848843276500702E-002;-3.360230708494782E-003;-1.097270520403981E-003;
2.417666666666667E+009;2.037404477596283E-001;-3.820956870913506E-002;-3.460141364485025E-003;-8.737693424336612E-004;
2.417833333333334E+009;2.036243528127670E-001;-3.771775588393211E-002;-3.453002311289311E-003;-8.606961928308010E-004;
2.418000000000000E+009;2.030324190855026E-001;-3.713247552514076E-002;-3.559099277481437E-003;-6.733700283803046E-004;
2.418166666666667E+009;2.025974541902542E-001;-3.689210489392281E-002;-3.662506351247430E-003;-6.011041114106774E-004;
2.418333333333334E+009;2.017989754676819E-001;-3.644731268286705E-002;-3.730907803401351E-003;-4.414828727021813E-004;
2.418500000000000E+009;2.010569125413895E-001;-3.616037592291832E-002;-3.717309562489390E-003;-3.275676863268018E-004;
2.418666666666667E+009;2.002236098051071E-001;-3.571534529328346E-002;-3.664627438411117E-003;-2.262237976538017E-004;
2.418833333333334E+009;1.991694420576096E-001;-3.561174869537354E-002;-3.800658276304603E-003;-1.452234137104824E-004;
2.419000000000000E+009;1.980570703744888E-001;-3.543921932578087E-002;-3.728717798367143E-003;1.595081994310021E-005;
2.419166666666667E+009;1.968523859977722E-001;-3.557547181844711E-002;-3.713978687301278E-003;9.226451220456511E-005;
2.419333333333334E+009;1.955324858427048E-001;-3.579443320631981E-002;-3.627181285992265E-003;2.729716652538627E-004;
2.419500000000000E+009;1.940567195415497E-001;-3.591742366552353E-002;-3.541606711223722E-003;2.833846956491470E-004;
2.419666666666667E+009;1.925925612449646E-001;-3.648740798234940E-002;-3.695294493809342E-003;4.129371955059469E-004;
2.419833333333334E+009;1.909118443727493E-001;-3.682386502623558E-002;-3.436642466112971E-003;5.625472404062748E-004;
2.420000000000000E+009;1.894576251506805E-001;-3.768790885806084E-002;-3.609226318076253E-003;5.905545549467206E-004;
2.420166666666667E+009;1.877179592847824E-001;-3.836660459637642E-002;-3.620350733399391E-003;5.638230359181762E-004;
2.420333333333334E+009;1.859147846698761E-001;-3.937750682234764E-002;-3.513624658808112E-003;6.398473633453250E-004;
2.420500000000000E+009;1.840123832225800E-001;-4.039348289370537E-002;-3.589488100260496E-003;7.645446457900107E-004;
2.420666666666667E+009;1.822449862957001E-001;-4.139902442693710E-002;-3.700758097693324E-003;7.660139817744494E-004;
2.420833333333334E+009;1.805348098278046E-001;-4.291413351893425E-002;-3.668070770800114E-003;8.056784863583744E-004;
2.421000000000000E+009;1.787058413028717E-001;-4.422070086002350E-002;-3.940369002521038E-003;9.639083873480558E-004;
2.421166666666667E+009;1.771433353424072E-001;-4.587414488196373E-002;-3.992038778960705E-003;1.235460746102035E-003;
2.421333333333334E+009;1.752702742815018E-001;-4.720734059810638E-002;-4.136586096137762E-003;1.317253685556352E-003;
2.421500000000000E+009;1.736745983362198E-001;-4.922359064221382E-002;-4.275723360478878E-003;1.490185270085931E-003;
2.421666666666667E+009;1.722553074359894E-001;-5.083359405398369E-002;-4.135684575885534E-003;1.812592963688076E-003;
2.421833333333334E+009;1.710094511508942E-001;-5.270660296082497E-002;-4.004636779427528E-003;2.057665493339300E-003;
2.422000000000000E+009;1.697064638137817E-001;-5.476090684533119E-002;-4.066212568432093E-003;2.376693300902844E-003;
2.422166666666667E+009;1.686568856239319E-001;-5.674792081117630E-002;-4.027775023132563E-003;2.482862211763859E-003;
2.422333333333334E+009;1.673798114061356E-001;-5.887341126799583E-002;-3.832707647234201E-003;2.867538249120116E-003;
2.422500000000000E+009;1.665292531251907E-001;-6.094235181808472E-002;-3.755859564989805E-003;3.049089107662439E-003;
2.422666666666667E+009;1.657193154096603E-001;-6.304191797971726E-002;-3.583893412724137E-003;3.207519883289933E-003;
2.422833333333334E+009;1.650505214929581E-001;-6.538989394903183E-002;-3.428133204579353E-003;3.579202340915799E-003;
2.423000000000000E+009;1.645762622356415E-001;-6.760095059871674E-002;-3.161157714203000E-003;3.735949052497745E-003;
2.423166666666667E+009;1.641289591789246E-001;-6.964542716741562E-002;-2.902193227782846E-003;3.873475361615419E-003;
2.423333333333334E+009;1.637985259294510E-001;-7.190121710300446E-002;-2.658278215676546E-003;4.002843517810106E-003;
2.423500000000000E+009;1.638225764036179E-001;-7.392144948244095E-002;-2.387111075222492E-003;3.988074604421854E-003;
2.423666666666667E+009;1.637410819530487E-001;-7.592186331748962E-002;-2.182712312787771E-003;4.194833338260651E-003;
2.423833333333334E+009;1.637036502361298E-001;-7.811863720417023E-002;-1.824896549805999E-003;4.291576799005270E-003;
2.424000000000000E+009;1.638115793466568E-001;-8.024020493030548E-002;-1.675375388003886E-003;4.061152692884207E-003;
2.424166666666667E+009;1.640079021453857E-001;-8.201144635677338E-002;-1.458789454773068E-003;3.976704087108374E-003;
2.424333333333334E+009;1.643415689468384E-001;-8.385481685400009E-002;-1.283691381104291E-003;4.082339815795422E-003;
2.424500000000000E+009;1.647077202796936E-001;-8.592545986175537E-002;-1.133068348281086E-003;3.973522689193487E-003;
2.424666666666667E+009;1.651241183280945E-001;-8.736233413219452E-002;-8.355604368261993E-004;3.927075304090977E-003;
2.424833333333334E+009;1.657427102327347E-001;-8.898422122001648E-002;-7.779374718666077E-004;4.018957726657391E-003;
2.425000000000000E+009;1.662270128726959E-001;-9.049110114574432E-002;-6.344180437736213E-004;3.880038158968091E-003;
2.425166666666667E+009;1.669023334980011E-001;-9.169360995292664E-002;-5.946764722466469E-004;3.835021285340190E-003;
2.425333333333334E+009;1.673675775527954E-001;-9.285380691289902E-002;-3.976099251303822E-004;3.833570750430226E-003;
2.425500000000000E+009;1.681507378816605E-001;-9.404769539833069E-002;-2.730019332375377E-004;3.896572161465883E-003;
2.425666666666667E+009;1.686410754919052E-001;-9.496566653251648E-002;-6.228590063983575E-005;3.666600678116083E-003;
2.425833333333334E+009;1.693533062934876E-001;-9.595139324665070E-002;-1.547290594317019E-005;3.568194108083844E-003;
2.426000000000000E+009;1.700237840414047E-001;-9.654416143894196E-002;6.646583642577753E-005;3.544845152646303E-003;
2.426166666666667E+009;1.706882566213608E-001;-9.723180532455444E-002;1.362560869893059E-004;3.639080794528127E-003;
2.426333333333334E+009;1.711427122354507E-001;-9.791105985641480E-002;2.242109476355836E-004;3.350445069372654E-003;
2.426500000000000E+009;1.719271093606949E-001;-9.829413890838623E-002;2.007264702115208E-004;3.488093847408891E-003;
2.426666666666667E+009;1.725236922502518E-001;-9.877296537160873E-002;4.734690010081977E-004;3.374031744897366E-003;
2.426833333333334E+009;1.729960143566132E-001;-9.901415556669235E-002;5.656613502651453E-004;3.256942378357053E-003;
2.427000000000000E+009;1.733534634113312E-001;-9.931128472089768E-002;6.198614719323814E-004;3.241853322833777E-003;
2.427166666666667E+009;1.736782640218735E-001;-9.943950176239014E-002;6.074054399505258E-004;3.187602153047919E-003;
2.427333333333334E+009;1.739380508661270E-001;-9.964789450168610E-002;8.336750906892121E-004;3.163193352520466E-003;
2.427500000000000E+009;1.740226149559021E-001;-9.996460378170013E-002;8.280745823867619E-004;3.133734688162804E-003;
2.427666666666667E+009;1.740076690912247E-001;-9.994647651910782E-002;1.066370052285492E-003;3.045953111723065E-003;
