# Version 1.00
#
freq[Hz];re:Trc1_S11;im:Trc1_S11;re:Trc2_S21;im:Trc2_S21;
2.400000000000000E+009;1.521480679512024E-001;1.176225170493126E-001;2.424647100269795E-003;1.910093822516501E-003;
2.400166666666667E+009;1.517125517129898E-001;1.152843981981278E-001;2.425943734124303E-003;1.927500357851386E-003;
2.400333333333334E+009;1.515281498432159E-001;1.131431013345718E-001;2.551149111241102E-003;2.050099661573768E-003;
2.400500000000000E+009;1.512710005044937E-001;1.105616390705109E-001;2.520280890166760E-003;1.938119763508439E-003;
2.400666666666667E+009;1.512518227100372E-001;1.080152541399002E-001;2.940725535154343E-003;2.001393819227815E-003;
2.400833333333334E+009;1.511100828647614E-001;1.052088886499405E-001;2.931667258962989E-003;1.979949651286006E-003;
2.401000000000000E+009;1.511127054691315E-001;1.024294346570969E-001;3.174432087689638E-003;1.836864277720451E-003;
2.401166666666667E+009;1.510037034749985E-001;9.956229478120804E-002;3.373093204572797E-003;1.916183042339981E-003;
2.401333333333334E+009;1.510684639215469E-001;9.673918783664703E-002;3.480900777503848E-003;1.788753550499678E-003;
2.401500000000000E+009;1.515590995550156E-001;9.369222819805145E-002;3.824903629720211E-003;1.728212460875511E-003;
2.401666666666667E+009;1.517069488763809E-001;9.078275412321091E-002;3.936380147933960E-003;1.572567853145301E-003;
2.401833333333334E+009;1.522729545831680E-001;8.784537762403488E-002;4.152974579483271E-003;1.447380520403385E-003;
2.402000000000000E+009;1.529840379953384E-001;8.508979529142380E-002;4.256633576005697E-003;1.341406605206430E-003;
2.402166666666667E+009;1.535595357418060E-001;8.223526179790497E-002;4.488630685955286E-003;8.181383018381894E-004;
2.402333333333334E+009;1.546711623668671E-001;7.915893197059631E-002;4.550092387944460E-003;6.962662446312606E-004;
2.402500000000000E+009;1.558190286159515E-001;7.639910280704498E-002;4.732787143439055E-003;4.346445784904063E-004;
2.402666666666667E+009;1.570446938276291E-001;7.360472530126572E-002;4.698190372437239E-003;2.239006425952539E-004;
2.402833333333334E+009;1.583434194326401E-001;7.107246667146683E-002;4.758436232805252E-003;-1.853503454185557E-005;
2.403000000000000E+009;1.599147915840149E-001;6.828361749649048E-002;4.687403794378042E-003;-3.929861413780600E-004;
2.403166666666667E+009;1.618689894676209E-001;6.586898863315582E-002;4.681085702031851E-003;-6.768057355657220E-004;
2.403333333333334E+009;1.635191142559052E-001;6.341391056776047E-002;4.657928831875324E-003;-8.905637077987194E-004;
2.403500000000000E+009;1.654339432716370E-001;6.106717884540558E-002;4.482270218431950E-003;-1.260311692021787E-003;
2.403666666666667E+009;1.673619747161865E-001;5.887509882450104E-002;4.247107077389956E-003;-1.588884741067886E-003;
2.403833333333334E+009;1.693496704101563E-001;5.659588798880577E-002;4.242637660354376E-003;-1.595249981619418E-003;
2.404000000000000E+009;1.710435301065445E-001;5.454887077212334E-002;4.010161384940147E-003;-1.794360345229507E-003;
2.404166666666667E+009;1.731701493263245E-001;5.266809463500977E-002;3.796365112066269E-003;-1.908890204504132E-003;
2.404333333333334E+009;1.752822250127792E-001;5.085817724466324E-002;3.711153985932469E-003;-2.223957097157836E-003;
2.404500000000000E+009;1.769964545965195E-001;4.918476194143295E-002;3.626307239755988E-003;-2.272735582664609E-003;
2.404666666666667E+009;1.790319830179215E-001;4.795674607157707E-002;3.398468019440770E-003;-2.189887920394540E-003;
2.404833333333334E+009;1.810281276702881E-001;4.667307063937187E-002;3.362478222697973E-003;-2.375140320509672E-003;
2.405000000000000E+009;1.827968955039978E-001;4.566287994384766E-002;3.348001046106219E-003;-2.322460524737835E-003;
2.405166666666667E+009;1.847394853830338E-001;4.472243413329125E-002;3.151826560497284E-003;-2.527453005313873E-003;
2.405333333333334E+009;1.864245384931564E-001;4.407614469528198E-002;3.109789453446865E-003;-2.548799850046635E-003;
2.405500000000000E+009;1.882068216800690E-001;4.325791448354721E-002;3.023266792297363E-003;-2.622026717290282E-003;
2.405666666666667E+009;1.899735033512116E-001;4.289115220308304E-002;2.906022593379021E-003;-2.842617221176624E-003;
2.405833333333334E+009;1.915246993303299E-001;4.250899702310562E-002;2.811165060847998E-003;-2.937254961580038E-003;
2.406000000000000E+009;1.930957287549973E-001;4.231439158320427E-002;2.776667475700378E-003;-2.939929720014334E-003;
2.406166666666667E+009;1.943939775228500E-001;4.204127565026283E-002;2.743000164628029E-003;-3.168008057400584E-003;
2.406333333333334E+009;1.957859843969345E-001;4.206561669707298E-002;2.478320850059390E-003;-3.257999429479241E-003;
2.406500000000000E+009;1.969562172889710E-001;4.212841764092445E-002;2.482550917193294E-003;-3.316965186968446E-003;
2.406666666666667E+009;1.978936344385147E-001;4.193947836756706E-002;2.347759436815977E-003;-3.357297275215387E-003;
2.406833333333334E+009;1.989754289388657E-001;4.203398153185844E-002;2.126962412148714E-003;-3.318410832434893E-003;
2.407000000000000E+009;1.995785385370255E-001;4.237894713878632E-002;2.032975433394313E-003;-3.526628483086824E-003;
2.407166666666667E+009;2.001589536666870E-001;4.221360385417938E-002;1.887706457637250E-003;-3.669232130050659E-003;
2.407333333333334E+009;2.004742771387100E-001;4.247155785560608E-002;1.607953105121851E-003;-3.772709285840392E-003;
2.407500000000000E+009;2.006300836801529E-001;4.263062775135040E-002;1.538745244033635E-003;-3.722115652635694E-003;
2.407666666666667E+009;2.008493691682816E-001;4.266039654612541E-002;1.387622673064470E-003;-3.769301110878587E-003;
2.407833333333334E+009;2.005329430103302E-001;4.275202378630638E-002;1.201179809868336E-003;-3.750951727852225E-003;
2.408000000000000E+009;2.005273252725601E-001;4.267900437116623E-002;1.064446056261659E-003;-3.732724348083139E-003;
2.408166666666667E+009;1.999673992395401E-001;4.251405969262123E-002;9.542313055135310E-004;-3.707377705723047E-003;
2.408333333333334E+009;1.996537148952484E-001;4.228373989462853E-002;6.096031283959746E-004;-3.635206259787083E-003;
2.408500000000000E+009;1.989605128765106E-001;4.220968484878540E-002;6.887892377562821E-004;-3.685832954943180E-003;
2.408666666666667E+009;1.982783079147339E-001;4.191363230347633E-002;6.060317391529679E-004;-3.629227634519339E-003;
2.408833333333334E+009;1.975591629743576E-001;4.137487336993218E-002;4.754392139147967E-004;-3.626188030466437E-003;
2.409000000000000E+009;1.962962746620178E-001;4.074664786458015E-002;2.681054174900055E-004;-3.484995104372501E-003;
2.409166666666667E+009;1.952607482671738E-001;4.000689461827278E-002;3.873938985634595E-004;-3.609137376770377E-003;
2.409333333333334E+009;1.941347271203995E-001;3.920554369688034E-002;2.541093272157013E-004;-3.510044189170003E-003;
2.409500000000000E+009;1.929041147232056E-001;3.808839619159699E-002;1.799561432562769E-004;-3.492905758321285E-003;
2.409666666666667E+009;1.916774511337280E-001;3.695261478424072E-002;5.953892832621932E-005;-3.571799956262112E-003;
2.409833333333334E+009;1.903423964977264E-001;3.564640134572983E-002;1.504738320363686E-004;-3.501859493553639E-003;
2.410000000000000E+009;1.891079694032669E-001;3.424499928951263E-002;4.088399873580784E-005;-3.493514377623797E-003;
2.410166666666667E+009;1.877702027559280E-001;3.258534520864487E-002;-1.714444370009005E-004;-3.758229548111558E-003;
2.410333333333334E+009;1.864733397960663E-001;3.098968230187893E-002;-3.164121299050748E-004;-3.719639964401722E-003;
2.410500000000000E+009;1.851418763399124E-001;2.921785041689873E-002;-4.470304120332003E-004;-3.763520624488592E-003;
2.410666666666667E+009;1.838828623294830E-001;2.697450853884220E-002;-4.257420368958265E-004;-3.629078390076757E-003;
2.410833333333334E+009;1.829902678728104E-001;2.496121637523174E-002;-6.167815881781280E-004;-3.580458229407668E-003;
2.411000000000000E+009;1.818233430385590E-001;2.285490371286869E-002;-5.862471298314631E-004;-3.514330135658383E-003;
2.411166666666667E+009;1.808928549289703E-001;2.069447748363018E-002;-8.632111130282283E-004;-3.531861351802945E-003;
2.411333333333334E+009;1.799811273813248E-001;1.807026565074921E-002;-9.539833408780396E-004;-3.391856560483575E-003;
2.411500000000000E+009;1.792523562908173E-001;1.574086770415306E-002;-9.880214929580689E-004;-3.405835945159197E-003;
2.411666666666667E+009;1.786665767431259E-001;1.325212977826595E-002;-9.806449525058270E-004;-3.326516132801771E-003;
2.411833333333334E+009;1.782052069902420E-001;1.068125665187836E-002;-1.215227530337870E-003;-3.235679119825363E-003;
2.412000000000000E+009;1.779051274061203E-001;8.091797120869160E-003;-1.369978883303702E-003;-3.098708344623447E-003;
2.412166666666667E+009;1.777026802301407E-001;5.604269448667765E-003;-1.339027658104897E-003;-2.989457920193672E-003;
2.412333333333334E+009;1.774010360240936E-001;2.943543717265129E-003;-1.399880042299628E-003;-2.942817984148860E-003;
2.412500000000000E+009;1.778376549482346E-001;3.820650745183229E-004;-1.534877927042544E-003;-2.900846302509308E-003;
2.412666666666667E+009;1.779323369264603E-001;-2.277377061545849E-003;-1.557228504680097E-003;-2.838453510776162E-003;
2.412833333333334E+009;1.784417927265167E-001;-5.064923316240311E-003;-1.635222462937236E-003;-2.896200167015195E-003;
2.413000000000000E+009;1.790781915187836E-001;-7.558126468211412E-003;-1.537288073450327E-003;-2.745914040133357E-003;
2.413166666666667E+009;1.797678768634796E-001;-9.938815608620644E-003;-1.637076144106686E-003;-2.902134554460645E-003;
2.413333333333334E+009;1.806170642375946E-001;-1.250648498535156E-002;-1.707714400254190E-003;-2.901118248701096E-003;
2.413500000000000E+009;1.812775284051895E-001;-1.511140167713165E-002;-1.720045693218708E-003;-2.751225372776389E-003;
2.413666666666667E+009;1.825227588415146E-001;-1.747756265103817E-002;-1.855607726611197E-003;-2.813599770888686E-003;
2.413833333333334E+009;1.835112422704697E-001;-1.979717053472996E-002;-2.017882419750094E-003;-2.835331251844764E-003;
2.414000000000000E+009;1.846836954355240E-001;-2.192167006433010E-002;-1.966423122212291E-003;-2.849912038072944E-003;
2.414166666666667E+009;1.860614717006683E-001;-2.400743775069714E-002;-2.236485481262207E-003;-2.712417393922806E-003;
2.414333333333334E+009;1.870000958442688E-001;-2.608839608728886E-002;-2.270923461765051E-003;-2.640411723405123E-003;
2.414500000000000E+009;1.884561181068420E-001;-2.794998697936535E-002;-2.471579937264323E-003;-2.472098916769028E-003;
2.414666666666667E+009;1.897377520799637E-001;-2.953289262950420E-002;-2.572431694716215E-003;-2.479516202583909E-003;
2.414833333333334E+009;1.910172253847122E-001;-3.114088997244835E-002;-2.583505120128393E-003;-2.426075516268611E-003;
2.415000000000000E+009;1.921681761741638E-001;-3.263336792588234E-002;-2.709584310650826E-003;-2.199335489422083E-003;
2.415166666666667E+009;1.937224417924881E-001;-3.394725918769836E-002;-2.712619258090854E-003;-2.094380324706435E-003;
2.415333333333334E+009;1.951003223657608E-001;-3.495924174785614E-002;-2.744165947660804E-003;-1.963500864803791E-003;
2.415500000000000E+009;1.963157504796982E-001;-3.585242480039597E-002;-2.792045008391142E-003;-1.947527751326561E-003;
2.415666666666667E+009;1.975741982460022E-001;-3.674230352044106E-002;-2.849099924787879E-003;-1.887329621240497E-003;
2.415833333333334E+009;1.986469179391861E-001;-3.740032017230988E-002;-2.865018555894494E-003;-1.659285859204829E-003;
2.416000000000000E+009;1.998201310634613E-001;-3.808570653200150E-002;-2.935145050287247E-003;-1.724563888274133E-003;
2.416166666666667E+009;2.008230686187744E-001;-3.858737275004387E-002;-3.105373587459326E-003;-1.511708367615938E-003;
2.416333333333334E+009;2.017814666032791E-001;-3.893319889903069E-002;-2.915688091889024E-003;-1.502624363638461E-003;
2.416500000000000E+009;2.025403380393982E-001;-3.909166529774666E-002;-3.150320146232843E-003;-1.383776427246630E-003;
2.416666666666667E+009;2.030586302280426E-001;-3.941037505865097E-002;-3.151060780510306E-003;-1.539069693535566E-003;
2.416833333333334E+009;2.036243528127670E-001;-3.918482735753059E-002;-3.319593379274011E-003;-1.477350015193224E-003;
2.417000000000000E+009;2.039917111396790E-001;-3.924943879246712E-002;-3.194155870005488E-003;-1.325604738667607E-003;
2.417166666666667E+009;2.040391415357590E-001;-3.902832791209221E-002;-3.178909188136458E-003;-1.238431781530380E-003;
2.417333333333334E+009;2.040617018938065E-001;-3.870983049273491E-002;-3.366692690178752E-003;-1.176433637738228E-003;
2.417500000000000E+009;2.040658891201019E-001;-3.857200965285301E-002;-3.555371891707182E-003;-1.062081661075354E-003;
2.417666666666667E+009;2.040369063615799E-001;-3.804617747664452E-002;-3.668137127533555E-003;-1.039066468365490E-003;
2.417833333333334E+009;2.037540078163147E-001;-3.770693764090538E-002;-3.595339367166162E-003;-8.173757814802229E-004;
2.418000000000000E+009;2.033279389142990E-001;-3.709337860345841E-002;-3.591013839468360E-003;-8.332369616255164E-004;
2.418166666666667E+009;2.027248889207840E-001;-3.671596199274063E-002;-3.656046465039253E-003;-5.754992598667741E-004;
2.418333333333334E+009;2.020065784454346E-001;-3.628223761916161E-002;-3.639730857685208E-003;-5.052760825492442E-004;
2.418500000000000E+009;2.013566941022873E-001;-3.609627112746239E-002;-3.717791987583041E-003;-4.521344089880586E-004;
2.418666666666667E+009;2.004432082176209E-001;-3.566400706768036E-002;-3.824254730716348E-003;-3.224828687962145E-004;
2.418833333333334E+009;1.994206458330154E-001;-3.552934899926186E-002;-3.885991172865033E-003;-1.809624882298522E-005;
2.419000000000000E+009;1.983327865600586E-001;-3.532825037837029E-002;-3.833405673503876E-003;4.409588655107655E-005;
2.419166666666667E+009;1.971603035926819E-001;-3.540097922086716E-002;-3.757253987714648E-003;2.491280029062182E-004;
2.419333333333334E+009;1.958995610475540E-001;-3.561293333768845E-002;-3.766109701246023E-003;3.282095130998641E-004;
2.419500000000000E+009;1.945193260908127E-001;-3.583327680826187E-002;-3.806202672421932E-003;3.485660708975047E-004;
2.419666666666667E+009;1.928825378417969E-001;-3.637563809752464E-002;-3.638176014646888E-003;3.987059753853828E-004;
2.419833333333334E+009;1.913137137889862E-001;-3.678496181964874E-002;-3.644519019871950E-003;5.821067607030273E-004;
2.420000000000000E+009;1.896695047616959E-001;-3.742042183876038E-002;-3.774662036448717E-003;4.861214838456363E-004;
2.420166666666667E+009;1.878657788038254E-001;-3.832378238439560E-002;-3.703913651406765E-003;7.927165715955198E-004;
2.420333333333334E+009;1.861669123172760E-001;-3.936733305454254E-002;-3.779816441237927E-003;7.756942068226636E-004;
2.420500000000000E+009;1.843813806772232E-001;-4.035759344696999E-002;-3.795258468016982E-003;6.696909549646080E-004;
2.420666666666667E+009;1.826029866933823E-001;-4.148919880390167E-002;-3.797338111326098E-003;8.234513807110488E-004;
2.420833333333334E+009;1.808520257472992E-001;-4.265255108475685E-002;-3.824029816314578E-003;9.595021838322282E-004;
2.421000000000000E+009;1.790269315242767E-001;-4.426873475313187E-002;-4.199452698230743E-003;1.073487102985382E-003;
2.421166666666667E+009;1.775506287813187E-001;-4.579328373074532E-002;-4.018033389002085E-003;1.179636339657009E-003;
2.421333333333334E+009;1.755288690328598E-001;-4.734902456402779E-002;-4.177196417003870E-003;1.465355511754751E-003;
2.421500000000000E+009;1.740164756774902E-001;-4.923113435506821E-002;-4.141751211136580E-003;1.759830163791776E-003;
2.421666666666667E+009;1.726229190826416E-001;-5.106768757104874E-002;-4.194748122245073E-003;1.853379420936108E-003;
2.421833333333334E+009;1.712902933359146E-001;-5.270710587501526E-002;-4.246513824909926E-003;2.177639398723841E-003;
2.422000000000000E+009;1.699153184890747E-001;-5.468893051147461E-002;-4.180749878287315E-003;2.505037933588028E-003;
2.422166666666667E+009;1.688528060913086E-001;-5.694011226296425E-002;-3.976413980126381E-003;2.734738634899259E-003;
2.422333333333334E+009;1.676139831542969E-001;-5.894624069333077E-002;-3.814304247498512E-003;2.954117022454739E-003;
2.422500000000000E+009;1.667893379926682E-001;-6.086914241313934E-002;-3.895567730069161E-003;3.149175550788641E-003;
2.422666666666667E+009;1.658985018730164E-001;-6.309815496206284E-002;-3.490833798423410E-003;3.427170217037201E-003;
2.422833333333334E+009;1.653624325990677E-001;-6.529338657855988E-002;-3.195288823917508E-003;3.725388320162892E-003;
2.423000000000000E+009;1.647167205810547E-001;-6.764751672744751E-002;-3.027732949703932E-003;3.784617641940713E-003;
2.423166666666667E+009;1.642693132162094E-001;-6.957081705331802E-002;-2.907615387812257E-003;3.988205920904875E-003;
2.423333333333334E+009;1.640200763940811E-001;-7.189666479825974E-002;-2.547456417232752E-003;4.085121676325798E-003;
2.423500000000000E+009;1.638924777507782E-001;-7.382810115814209E-002;-2.382387872785330E-003;4.180407151579857E-003;
2.423666666666667E+009;1.639831364154816E-001;-7.604888081550598E-002;-2.113831927999854E-003;4.204420838505030E-003;
2.423833333333334E+009;1.640026420354843E-001;-7.807104289531708E-002;-1.785553526133299E-003;4.162569530308247E-003;
2.424000000000000E+009;1.639931946992874E-001;-8.025698363780975E-002;-1.416468061506748E-003;4.156149458140135E-003;
2.424166666666667E+009;1.640731394290924E-001;-8.199078589677811E-002;-1.359596149995923E-003;4.023716319352388E-003;
2.424333333333334E+009;1.645216792821884E-001;-8.399617671966553E-002;-1.221593120135367E-003;4.091517534106970E-003;
2.424500000000000E+009;1.649356335401535E-001;-8.594043552875519E-002;-1.001427066512406E-003;3.989418502897024E-003;
2.424666666666667E+009;1.652980893850327E-001;-8.735089749097824E-002;-5.990529316477478E-004;4.003013949841261E-003;
2.424833333333334E+009;1.658782362937927E-001;-8.894605189561844E-002;-7.305943872779608E-004;3.892388893291354E-003;
2.425000000000000E+009;1.664696633815765E-001;-9.039915353059769E-002;-5.103123839944601E-004;3.803600324317813E-003;
2.425166666666667E+009;1.669566184282303E-001;-9.168422222137451E-002;-4.588952579069883E-004;3.791452152654529E-003;
2.425333333333334E+009;1.676251590251923E-001;-9.298567473888397E-002;-2.814465260598809E-004;3.814801573753357E-003;
2.425500000000000E+009;1.682749837636948E-001;-9.411809593439102E-002;-1.505015825387090E-004;3.642380703240633E-003;
2.425666666666667E+009;1.688971817493439E-001;-9.509336948394775E-002;3.502019126244704E-006;3.644940908998251E-003;
2.425833333333334E+009;1.694765985012054E-001;-9.602055698633194E-002;-4.713934322353452E-005;3.502517705783248E-003;
2.426000000000000E+009;1.701694726943970E-001;-9.671162813901901E-002;1.100717490771785E-004;3.544185310602188E-003;
2.426166666666667E+009;1.708884090185165E-001;-9.729466587305069E-002;2.256342995679006E-004;3.562639467418194E-003;
2.426333333333334E+009;1.713281720876694E-001;-9.790084511041641E-002;2.735310408752412E-004;3.536337520927191E-003;
2.426500000000000E+009;1.720080077648163E-001;-9.829259663820267E-002;3.674866457004100E-004;3.492325311526656E-003;
2.426666666666667E+009;1.726000905036926E-001;-9.880810230970383E-002;5.155504331924021E-004;3.471475327387452E-003;
2.426833333333334E+009;1.732177734375000E-001;-9.903763234615326E-002;5.471101612783968E-004;3.264206461608410E-003;
2.427000000000000E+009;1.735790222883225E-001;-9.939160943031311E-002;7.064194651320577E-004;3.332138992846012E-003;
2.427166666666667E+009;1.738921552896500E-001;-9.955746680498123E-002;7.331958622671664E-004;3.295235801488161E-003;
2.427333333333334E+009;1.740901321172714E-001;-9.982497990131378E-002;8.738721953704953E-004;3.235134063288570E-003;
2.427500000000000E+009;1.742542982101440E-001;-1.000525504350662E-001;9.683941607363522E-004;3.219608450308442E-003;
2.427666666666667E+009;1.742389947175980E-001;-1.000704467296600E-001;9.778302628546953E-004;3.123548347502947E-003;
