# Version 1.00
#
freq[Hz];re:Trc1_S11;im:Trc1_S11;re:Trc2_S21;im:Trc2_S21;
2.400000000000000E+009;1.620613932609558E-001;5.664063245058060E-002;-6.696393247693777E-003;1.649975660257042E-003;
2.400166666666667E+009;1.620008647441864E-001;5.536677315831184E-002;-6.688352674245834E-003;1.949705998413265E-003;
2.400333333333334E+009;1.620660126209259E-001;5.344872549176216E-002;-6.687828805297613E-003;2.037643920630217E-003;
2.400500000000000E+009;1.622094064950943E-001;5.177519470453262E-002;-6.776251830160618E-003;2.386849373579025E-003;
2.400666666666667E+009;1.623419225215912E-001;4.977657273411751E-002;-6.622438784688711E-003;2.827423857524991E-003;
2.400833333333334E+009;1.625342518091202E-001;4.831515997648239E-002;-6.451864726841450E-003;3.075846470892429E-003;
2.401000000000000E+009;1.625888198614121E-001;4.632927104830742E-002;-6.433931645005941E-003;3.313733730465174E-003;
2.401166666666667E+009;1.626645326614380E-001;4.459961503744125E-002;-6.443405523896217E-003;3.515406046062708E-003;
2.401333333333334E+009;1.628987491130829E-001;4.281396418809891E-002;-6.228436250239611E-003;3.837786149233580E-003;
2.401500000000000E+009;1.634668409824371E-001;4.106605052947998E-002;-6.158049684017897E-003;4.151054192334414E-003;
2.401666666666667E+009;1.635579317808151E-001;3.921184688806534E-002;-5.742933135479689E-003;4.328730516135693E-003;
2.401833333333334E+009;1.639115512371063E-001;3.713868185877800E-002;-5.619788076728582E-003;4.787008743733168E-003;
2.402000000000000E+009;1.640424579381943E-001;3.574509173631668E-002;-5.650845821946859E-003;4.851224366575480E-003;
2.402166666666667E+009;1.645719856023789E-001;3.392358124256134E-002;-5.131824407726526E-003;5.218033213168383E-003;
2.402333333333334E+009;1.649631261825562E-001;3.216810524463654E-002;-4.932375159114599E-003;5.263007245957851E-003;
2.402500000000000E+009;1.655704677104950E-001;3.071020171046257E-002;-4.793906584382057E-003;5.423380061984062E-003;
2.402666666666667E+009;1.659662127494812E-001;2.905308268964291E-002;-4.264539107680321E-003;5.621314048767090E-003;
2.402833333333334E+009;1.663747876882553E-001;2.751095406711102E-002;-4.199521150439978E-003;5.823521874845028E-003;
2.403000000000000E+009;1.671351939439774E-001;2.603051252663136E-002;-3.854318521916866E-003;6.169834639877081E-003;
2.403166666666667E+009;1.676607578992844E-001;2.465213090181351E-002;-3.537257434800267E-003;6.102455779910088E-003;
2.403333333333334E+009;1.682687848806381E-001;2.345345169305801E-002;-3.332754364237189E-003;6.254047621041536E-003;
2.403500000000000E+009;1.689969003200531E-001;2.210962772369385E-002;-3.022735938429833E-003;6.415668874979019E-003;
2.403666666666667E+009;1.695565581321716E-001;2.066564001142979E-002;-2.743999473750591E-003;6.544532254338265E-003;
2.403833333333334E+009;1.703301519155502E-001;1.945123635232449E-002;-2.428108826279640E-003;6.545177660882473E-003;
2.404000000000000E+009;1.708604544401169E-001;1.846669055521488E-002;-2.052537864074111E-003;6.694546900689602E-003;
2.404166666666667E+009;1.716429144144058E-001;1.729047298431397E-002;-1.865058089606464E-003;6.591147277504206E-003;
2.404333333333334E+009;1.721770465373993E-001;1.643045805394650E-002;-1.591650652699173E-003;6.608807016164064E-003;
2.404500000000000E+009;1.727916151285172E-001;1.534000691026449E-002;-1.240760437212884E-003;6.673678755760193E-003;
2.404666666666667E+009;1.733832061290741E-001;1.461429428309202E-002;-1.050041173584759E-003;6.518342066556215E-003;
2.404833333333334E+009;1.738927364349365E-001;1.380832307040691E-002;-4.431516863405705E-004;6.487818434834480E-003;
2.405000000000000E+009;1.743839830160141E-001;1.293805055320263E-002;-3.406751493457705E-004;6.584599148482084E-003;
2.405166666666667E+009;1.749091297388077E-001;1.227812189608812E-002;-1.828278036555275E-004;6.259575020521879E-003;
2.405333333333334E+009;1.756216138601303E-001;1.164191495627165E-002;7.392941915895790E-005;6.275996100157499E-003;
2.405500000000000E+009;1.760151386260986E-001;1.108349207788706E-002;4.121006932109594E-004;6.219012197107077E-003;
2.405666666666667E+009;1.763720363378525E-001;1.056528743356466E-002;7.588202715851367E-004;6.225905846804380E-003;
2.405833333333334E+009;1.766812801361084E-001;1.000154204666615E-002;8.812466985546053E-004;5.947539582848549E-003;
2.406000000000000E+009;1.770828813314438E-001;9.352512657642365E-003;1.060725073330104E-003;5.939911119639874E-003;
2.406166666666667E+009;1.771756857633591E-001;9.091638028621674E-003;1.468678237870336E-003;5.840012803673744E-003;
2.406333333333334E+009;1.776704341173172E-001;8.634480647742748E-003;1.694613951258361E-003;5.480090156197548E-003;
2.406500000000000E+009;1.776970624923706E-001;8.144844323396683E-003;1.787459361366928E-003;5.393514409661293E-003;
2.406666666666667E+009;1.777497380971909E-001;7.740697823464871E-003;2.048783237114549E-003;5.359021481126547E-003;
2.406833333333334E+009;1.778413951396942E-001;7.161141838878393E-003;2.170828636735678E-003;5.038508214056492E-003;
2.407000000000000E+009;1.779095977544785E-001;6.624785717576742E-003;2.273058984428644E-003;4.947016481310129E-003;
2.407166666666667E+009;1.779743134975433E-001;6.365852430462837E-003;2.418890129774809E-003;4.824049770832062E-003;
2.407333333333334E+009;1.776807308197022E-001;5.621339660137892E-003;2.513923682272434E-003;4.774239845573902E-003;
2.407500000000000E+009;1.776077598333359E-001;5.115928128361702E-003;2.499042078852654E-003;4.411371890455484E-003;
2.407666666666667E+009;1.774865239858627E-001;4.591977223753929E-003;2.650874899700284E-003;4.306210204958916E-003;
2.407833333333334E+009;1.769019067287445E-001;3.815698903053999E-003;2.837054198607802E-003;4.080755170434713E-003;
2.408000000000000E+009;1.767180114984512E-001;2.934080548584461E-003;2.955599687993527E-003;3.929644823074341E-003;
2.408166666666667E+009;1.763010770082474E-001;2.266106661409140E-003;2.936854958534241E-003;3.849066328257322E-003;
2.408333333333334E+009;1.762063801288605E-001;1.449989853426814E-003;2.983979415148497E-003;3.499855520203710E-003;
2.408500000000000E+009;1.757563799619675E-001;5.394214531406760E-004;3.054253291338682E-003;3.437812905758619E-003;
2.408666666666667E+009;1.752999126911163E-001;-4.570390738081187E-004;2.953367307782173E-003;3.292029025033116E-003;
2.408833333333334E+009;1.747712343931198E-001;-1.495465054176748E-003;3.141155466437340E-003;3.204818349331617E-003;
2.409000000000000E+009;1.741762161254883E-001;-2.628818154335022E-003;3.222835715860128E-003;3.088132943958044E-003;
2.409166666666667E+009;1.736047267913818E-001;-3.940507303923369E-003;3.199300263077021E-003;2.955742878839374E-003;
2.409333333333334E+009;1.732648760080338E-001;-5.024613812565804E-003;3.116037696599960E-003;2.723318058997393E-003;
2.409500000000000E+009;1.726384907960892E-001;-6.349306087940931E-003;3.194179618731141E-003;2.630859846249223E-003;
2.409666666666667E+009;1.721253246068955E-001;-7.796996738761663E-003;3.039287170395255E-003;2.503920812159777E-003;
2.409833333333334E+009;1.716604977846146E-001;-9.178780950605869E-003;3.206087742000818E-003;2.502139192074537E-003;
2.410000000000000E+009;1.712315976619721E-001;-1.069158874452114E-002;3.176622791215777E-003;2.256370615214109E-003;
2.410166666666667E+009;1.708380430936813E-001;-1.219006627798080E-002;3.139240201562643E-003;2.212933963164687E-003;
2.410333333333334E+009;1.704232096672058E-001;-1.399481855332851E-002;3.187905065715313E-003;2.029418013989925E-003;
2.410500000000000E+009;1.699911355972290E-001;-1.527687441557646E-002;3.181839361786842E-003;1.981656299903989E-003;
2.410666666666667E+009;1.696122288703919E-001;-1.717161759734154E-002;3.209766699001193E-003;1.941771246492863E-003;
2.410833333333334E+009;1.694441288709641E-001;-1.887284778058529E-002;3.064280841499567E-003;1.830569584853947E-003;
2.411000000000000E+009;1.691842973232269E-001;-2.049834281206131E-002;3.248791210353375E-003;1.735611585900188E-003;
2.411166666666667E+009;1.687912344932556E-001;-2.244199439883232E-002;3.240806516259909E-003;1.677057123742998E-003;
2.411333333333334E+009;1.686507612466812E-001;-2.404036745429039E-002;3.387739183381200E-003;1.673822291195393E-003;
2.411500000000000E+009;1.685697883367539E-001;-2.602188661694527E-002;3.459395840764046E-003;1.415110076777637E-003;
2.411666666666667E+009;1.685715913772583E-001;-2.778178639709950E-002;3.422123612836003E-003;1.371151534840465E-003;
2.411833333333334E+009;1.685138791799545E-001;-2.947591617703438E-002;3.539366880431771E-003;1.167100272141397E-003;
2.412000000000000E+009;1.686885505914688E-001;-3.143053129315376E-002;3.318205475807190E-003;1.210134127177298E-003;
2.412166666666667E+009;1.687769740819931E-001;-3.328481316566467E-002;3.412095597013831E-003;8.429541485384107E-004;
2.412333333333334E+009;1.691098213195801E-001;-3.494439646601677E-002;3.534989664331079E-003;8.992241928353906E-004;
2.412500000000000E+009;1.692951768636704E-001;-3.674352914094925E-002;3.405472962185741E-003;7.272961665876210E-004;
2.412666666666667E+009;1.694833189249039E-001;-3.850074484944344E-002;3.376792650669813E-003;6.488829967565835E-004;
2.412833333333334E+009;1.699033975601196E-001;-4.036153480410576E-002;3.436096478253603E-003;5.388745339587331E-004;
2.413000000000000E+009;1.700752526521683E-001;-4.183782264590263E-002;3.556398674845696E-003;2.666960353963077E-004;
2.413166666666667E+009;1.702439785003662E-001;-4.350524395704269E-002;3.293811576440930E-003;3.154480655211955E-004;
2.413333333333334E+009;1.707822233438492E-001;-4.512365162372589E-002;3.467084374278784E-003;-5.707809123123298E-006;
2.413500000000000E+009;1.715198606252670E-001;-4.662575200200081E-002;3.486988367512822E-003;1.112194877350703E-005;
2.413666666666667E+009;1.718261986970902E-001;-4.810940474271774E-002;3.290464868769050E-003;-1.909091370180249E-004;
2.413833333333334E+009;1.720512658357620E-001;-4.953226074576378E-002;3.300017444416881E-003;-2.607872593216598E-004;
2.414000000000000E+009;1.726001650094986E-001;-5.082540959119797E-002;3.176390659064055E-003;-4.416959127411246E-004;
2.414166666666667E+009;1.729964464902878E-001;-5.202627554535866E-002;3.002076409757137E-003;-5.673725390806794E-004;
2.414333333333334E+009;1.732244193553925E-001;-5.316010862588882E-002;2.756706904619932E-003;-7.359070004895330E-004;
2.414500000000000E+009;1.739172488451004E-001;-5.427226424217224E-002;2.824322320520878E-003;-8.142823935486376E-004;
2.414666666666667E+009;1.743123382329941E-001;-5.515655130147934E-002;2.532626036554575E-003;-8.799085044302046E-004;
2.414833333333334E+009;1.746627688407898E-001;-5.618612468242645E-002;2.579182619228959E-003;-9.474882972426713E-004;
2.415000000000000E+009;1.748922616243362E-001;-5.699877813458443E-002;2.473031403496862E-003;-1.010758103802800E-003;
2.415166666666667E+009;1.753353774547577E-001;-5.780179426074028E-002;2.134106820449233E-003;-1.180927967652679E-003;
2.415333333333334E+009;1.756126433610916E-001;-5.836954712867737E-002;2.174484077841044E-003;-9.291862952522934E-004;
2.415500000000000E+009;1.757577210664749E-001;-5.907620862126350E-002;2.121285535395145E-003;-1.169859664514661E-003;
2.415666666666667E+009;1.759675443172455E-001;-5.956977605819702E-002;1.944873598404229E-003;-1.167238224297762E-003;
2.415833333333334E+009;1.761100590229034E-001;-6.015817821025848E-002;1.824897248297930E-003;-1.091259997338057E-003;
2.416000000000000E+009;1.759830415248871E-001;-6.066918745636940E-002;1.913693500682712E-003;-1.136817387305200E-003;
2.416166666666667E+009;1.760741025209427E-001;-6.103772670030594E-002;1.678123953752220E-003;-1.007802551612258E-003;
2.416333333333334E+009;1.759974360466003E-001;-6.135510653257370E-002;1.609708182513714E-003;-1.186239300295711E-003;
2.416500000000000E+009;1.757181733846664E-001;-6.176136434078217E-002;1.447130343876779E-003;-1.031587948091328E-003;
2.416666666666667E+009;1.754961162805557E-001;-6.198729947209358E-002;1.515619806014001E-003;-1.013571280054748E-003;
2.416833333333334E+009;1.752923876047134E-001;-6.243336573243141E-002;1.637190114706755E-003;-9.541793260723352E-004;
2.417000000000000E+009;1.747151613235474E-001;-6.276816874742508E-002;1.382674672640860E-003;-9.294839692302048E-004;
2.417166666666667E+009;1.743051260709763E-001;-6.288613379001617E-002;1.381407375447452E-003;-9.035664261318743E-004;
2.417333333333334E+009;1.737823635339737E-001;-6.313224881887436E-002;1.397756859660149E-003;-9.425897151231766E-004;
2.417500000000000E+009;1.730826348066330E-001;-6.353297084569931E-002;1.368821249343455E-003;-9.224986424669623E-004;
2.417666666666667E+009;1.725099831819534E-001;-6.365461647510529E-002;1.303543220274150E-003;-7.313048699870706E-004;
2.417833333333334E+009;1.715956777334213E-001;-6.408283114433289E-002;1.207116409204900E-003;-7.121808012016118E-004;
2.418000000000000E+009;1.709133386611939E-001;-6.453763693571091E-002;1.133749843575060E-003;-7.321275188587606E-004;
2.418166666666667E+009;1.699960231781006E-001;-6.472859531641007E-002;1.185118104331195E-003;-7.377435103990138E-004;
2.418333333333334E+009;1.691391021013260E-001;-6.522446870803833E-002;1.234468538314104E-003;-8.788788691163063E-004;
2.418500000000000E+009;1.680703908205032E-001;-6.576400995254517E-002;9.853624505922198E-004;-6.818874971941114E-004;
2.418666666666667E+009;1.670746654272080E-001;-6.629172712564468E-002;1.083970186300576E-003;-7.399687892757356E-004;
2.418833333333334E+009;1.660132557153702E-001;-6.676131486892700E-002;1.061630900949240E-003;-7.816851721145213E-004;
2.419000000000000E+009;1.646533012390137E-001;-6.746016442775726E-002;9.826847817748785E-004;-6.076219142414630E-004;
2.419166666666667E+009;1.636653542518616E-001;-6.822226941585541E-002;9.425511816516519E-004;-7.067643455229700E-004;
2.419333333333334E+009;1.623275279998779E-001;-6.866513937711716E-002;1.130857155658305E-003;-6.744562415406108E-004;
2.419500000000000E+009;1.613308340311050E-001;-6.961402297019959E-002;1.017945585772395E-003;-7.391480030491948E-004;
2.419666666666667E+009;1.603383868932724E-001;-7.056367397308350E-002;1.195301418192685E-003;-5.589108914136887E-004;
2.419833333333334E+009;1.590812206268311E-001;-7.132115960121155E-002;1.118050306104124E-003;-8.302464848384261E-004;
2.420000000000000E+009;1.580583304166794E-001;-7.233338803052902E-002;1.158332917839289E-003;-7.097742054611445E-004;
2.420166666666667E+009;1.569291353225708E-001;-7.342920452356339E-002;9.650840656831861E-004;-7.325719925574958E-004;
2.420333333333334E+009;1.558629870414734E-001;-7.465754449367523E-002;1.153196906670928E-003;-6.115658325143158E-004;
2.420500000000000E+009;1.548175364732742E-001;-7.569377869367600E-002;1.078561763279140E-003;-5.795777542516589E-004;
2.420666666666667E+009;1.536554992198944E-001;-7.695233821868897E-002;1.075038569979370E-003;-5.702555645257235E-004;
2.420833333333334E+009;1.528843343257904E-001;-7.837957143783569E-002;1.252945279702544E-003;-6.664435495622456E-004;
2.421000000000000E+009;1.519608497619629E-001;-7.996917515993118E-002;1.054016407579184E-003;-7.932552834972739E-004;
2.421166666666667E+009;1.511828899383545E-001;-8.121559023857117E-002;1.241652062162757E-003;-6.441870355047286E-004;
2.421333333333334E+009;1.506029963493347E-001;-8.291166275739670E-002;1.057062880136073E-003;-8.201373857446015E-004;
2.421500000000000E+009;1.495821028947830E-001;-8.431275188922882E-002;1.038931193761528E-003;-7.087139529176056E-004;
2.421666666666667E+009;1.491818279027939E-001;-8.580045402050018E-002;1.042225165292621E-003;-7.051138672977686E-004;
2.421833333333334E+009;1.486542075872421E-001;-8.746161311864853E-002;1.040499890223146E-003;-7.373653934337199E-004;
2.422000000000000E+009;1.482145190238953E-001;-8.900491148233414E-002;1.135531696490943E-003;-9.373022476211190E-004;
2.422166666666667E+009;1.478001624345779E-001;-9.076879173517227E-002;1.000759424641728E-003;-7.480441126972437E-004;
2.422333333333334E+009;1.474037617444992E-001;-9.219521284103394E-002;9.661046206019819E-004;-7.029052940197289E-004;
2.422500000000000E+009;1.471389979124069E-001;-9.378535300493240E-002;1.001195400021970E-003;-7.500284118577838E-004;
2.422666666666667E+009;1.469210237264633E-001;-9.560289978981018E-002;8.931545889936388E-004;-8.548150653950870E-004;
2.422833333333334E+009;1.469436138868332E-001;-9.730429202318192E-002;1.049090409651399E-003;-7.228035246953368E-004;
2.423000000000000E+009;1.467963159084320E-001;-9.879108518362045E-002;9.670921135693789E-004;-7.417490123771131E-004;
2.423166666666667E+009;1.469202637672424E-001;-1.003282815217972E-001;1.047257217578590E-003;-6.080805324018002E-004;
2.423333333333334E+009;1.472052037715912E-001;-1.018961444497109E-001;1.014813547953963E-003;-5.958891124464572E-004;
2.423500000000000E+009;1.472727209329605E-001;-1.034468859434128E-001;9.929558727890253E-004;-5.931009654887021E-004;
2.423666666666667E+009;1.472474783658981E-001;-1.050835326313973E-001;9.470189106650651E-004;-7.208937313407660E-004;
2.423833333333334E+009;1.476707458496094E-001;-1.064715236425400E-001;9.838650003075600E-004;-5.936399102210999E-004;
2.424000000000000E+009;1.477952748537064E-001;-1.077070757746697E-001;1.224603271111846E-003;-7.147826836444438E-004;
2.424166666666667E+009;1.480527073144913E-001;-1.090968921780586E-001;1.169012975879014E-003;-7.470804848708212E-004;
2.424333333333334E+009;1.483329832553864E-001;-1.102740839123726E-001;1.248334650881589E-003;-5.941519048064947E-004;
2.424500000000000E+009;1.488018035888672E-001;-1.114773079752922E-001;1.082266680896282E-003;-7.014803122729063E-004;
2.424666666666667E+009;1.491563469171524E-001;-1.125699728727341E-001;1.336345565505326E-003;-7.399659371003509E-004;
2.424833333333334E+009;1.492621898651123E-001;-1.136227399110794E-001;1.223165425471962E-003;-7.500848150812089E-004;
2.425000000000000E+009;1.499039828777313E-001;-1.147575601935387E-001;1.128170057199895E-003;-7.471462595276535E-004;
2.425166666666667E+009;1.498826593160629E-001;-1.154298633337021E-001;1.241929247044027E-003;-8.354907622560859E-004;
2.425333333333334E+009;1.503228247165680E-001;-1.164162382483482E-001;1.234719296917319E-003;-1.099810120649636E-003;
2.425500000000000E+009;1.504806280136108E-001;-1.171845272183418E-001;1.339177018962801E-003;-9.387091267853975E-004;
2.425666666666667E+009;1.506431549787521E-001;-1.177594736218453E-001;1.291724271140993E-003;-1.105046132579446E-003;
2.425833333333334E+009;1.509728729724884E-001;-1.185086444020271E-001;1.149645308032632E-003;-1.119618420489132E-003;
2.426000000000000E+009;1.509502530097961E-001;-1.191561445593834E-001;1.329092658124864E-003;-1.068371464498341E-003;
2.426166666666667E+009;1.512900292873383E-001;-1.194898709654808E-001;1.349950558505952E-003;-1.000216230750084E-003;
2.426333333333334E+009;1.511354297399521E-001;-1.200252026319504E-001;1.319431001320481E-003;-1.244188868440688E-003;
2.426500000000000E+009;1.511901617050171E-001;-1.203803420066834E-001;1.431426731869578E-003;-1.304238336160779E-003;
2.426666666666667E+009;1.512364894151688E-001;-1.206150278449059E-001;1.179122948087752E-003;-1.200719270855188E-003;
2.426833333333334E+009;1.509153097867966E-001;-1.209038048982620E-001;1.364425872452557E-003;-1.294409506954253E-003;
2.427000000000000E+009;1.506382524967194E-001;-1.212581992149353E-001;1.158748287707567E-003;-1.219171914272010E-003;
2.427166666666667E+009;1.503770202398300E-001;-1.213447377085686E-001;1.381467212922871E-003;-1.383741269819439E-003;
2.427333333333334E+009;1.498870998620987E-001;-1.216557249426842E-001;1.269559259526432E-003;-1.353777130134404E-003;
2.427500000000000E+009;1.494410485029221E-001;-1.217360123991966E-001;1.316670677624643E-003;-1.416251994669437E-003;
2.427666666666667E+009;1.487514972686768E-001;-1.219114586710930E-001;1.358141074888408E-003;-1.655147178098559E-003;
2.427833333333334E+009;1.479801237583160E-001;-1.219995319843292E-001;1.387755619361997E-003;-1.502179424278438E-003;
