# Version 1.00
#
freq[Hz];re:Trc1_S11;im:Trc1_S11;re:Trc2_S21;im:Trc2_S21;
2.400000000000000E+009;1.733115017414093E-001;4.888209700584412E-002;-7.367230718955398E-004;6.309863179922104E-003;
2.400166666666667E+009;1.738673299551010E-001;4.841481894254684E-002;-5.591563531197608E-004;6.246571894735098E-003;
2.400333333333334E+009;1.744881868362427E-001;4.760907590389252E-002;-5.370438448153436E-004;6.440661381930113E-003;
2.400500000000000E+009;1.749361753463745E-001;4.678206518292427E-002;-4.533294995781034E-004;6.360145285725594E-003;
2.400666666666667E+009;1.752704828977585E-001;4.644854739308357E-002;-3.583645448088646E-004;6.416688673198223E-003;
2.400833333333334E+009;1.757110357284546E-001;4.572030901908875E-002;-1.124203918152489E-004;6.457161158323288E-003;
2.401000000000000E+009;1.758621782064438E-001;4.551206901669502E-002;-6.929277151357383E-005;6.583127193152905E-003;
2.401166666666667E+009;1.761985570192337E-001;4.445891454815865E-002;4.660951162804849E-005;6.610646378248930E-003;
2.401333333333334E+009;1.763640791177750E-001;4.398800805211067E-002;1.880910276668146E-004;6.763370241969824E-003;
2.401500000000000E+009;1.764911860227585E-001;4.352207854390144E-002;3.963484778068960E-004;6.773589644581080E-003;
2.401666666666667E+009;1.764315217733383E-001;4.276998341083527E-002;7.178600062616170E-004;6.700347177684307E-003;
2.401833333333334E+009;1.762316226959229E-001;4.175845161080360E-002;8.762080105952919E-004;6.867113988846541E-003;
2.402000000000000E+009;1.761328876018524E-001;4.112758859992027E-002;1.180965104140341E-003;6.959320977330208E-003;
2.402166666666667E+009;1.761633157730103E-001;4.014908149838448E-002;1.502594095654786E-003;6.956462748348713E-003;
2.402333333333334E+009;1.760703325271606E-001;3.931559249758720E-002;1.743384986184537E-003;7.041890639811754E-003;
2.402500000000000E+009;1.760032773017883E-001;3.837388008832932E-002;2.068093977868557E-003;7.143176160752773E-003;
2.402666666666667E+009;1.754584163427353E-001;3.746312111616135E-002;2.252646954730153E-003;6.791846361011267E-003;
2.402833333333334E+009;1.751264631748200E-001;3.618662431836128E-002;2.644964959472418E-003;6.756473332643509E-003;
2.403000000000000E+009;1.749882847070694E-001;3.500090166926384E-002;2.945154905319214E-003;6.775435991585255E-003;
2.403166666666667E+009;1.746694296598434E-001;3.382403776049614E-002;3.193378215655685E-003;6.650242488831282E-003;
2.403333333333334E+009;1.741896718740463E-001;3.234821185469627E-002;3.510757116600871E-003;6.387770641595125E-003;
2.403500000000000E+009;1.736900210380554E-001;3.099822066724300E-002;3.835474140942097E-003;6.134142167866230E-003;
2.403666666666667E+009;1.732828021049500E-001;2.923139743506908E-002;3.916244953870773E-003;6.141669116914272E-003;
2.403833333333334E+009;1.729755550622940E-001;2.767557092010975E-002;4.091329406946898E-003;6.098035722970963E-003;
2.404000000000000E+009;1.727250665426254E-001;2.599341981112957E-002;4.503182601183653E-003;5.767248570919037E-003;
2.404166666666667E+009;1.722313910722733E-001;2.404214628040791E-002;4.660540726035833E-003;5.545200314372778E-003;
2.404333333333334E+009;1.716652661561966E-001;2.238589338958263E-002;4.666378721594811E-003;5.307450890541077E-003;
2.404500000000000E+009;1.711725443601608E-001;2.036898210644722E-002;5.019293166697025E-003;5.134454462677240E-003;
2.404666666666667E+009;1.707963794469833E-001;1.859878934919834E-002;5.085274111479521E-003;5.035433918237686E-003;
2.404833333333334E+009;1.705259233713150E-001;1.654001697897911E-002;5.174794234335423E-003;4.886354785412550E-003;
2.405000000000000E+009;1.703162640333176E-001;1.440207380801439E-002;5.357778165489435E-003;4.546350333839655E-003;
2.405166666666667E+009;1.702522635459900E-001;1.250186935067177E-002;5.448289215564728E-003;4.207678604871035E-003;
2.405333333333334E+009;1.701986640691757E-001;1.034892909228802E-002;5.624261219054461E-003;4.121261648833752E-003;
2.405500000000000E+009;1.701732575893402E-001;8.371588774025440E-003;5.681040231138468E-003;3.915093373507261E-003;
2.405666666666667E+009;1.702192127704620E-001;6.303980480879545E-003;5.755210760980845E-003;3.698502667248249E-003;
2.405833333333334E+009;1.701590120792389E-001;4.274110775440931E-003;5.867874249815941E-003;3.636753885075450E-003;
2.406000000000000E+009;1.703811585903168E-001;1.987033057957888E-003;5.965224001556635E-003;3.329261438921094E-003;
2.406166666666667E+009;1.705197691917419E-001;1.192300842376426E-004;6.310603115707636E-003;3.211773699149489E-003;
2.406333333333334E+009;1.710444986820221E-001;-1.949179568327963E-003;6.161031778901815E-003;2.984311897307634E-003;
2.406500000000000E+009;1.713879704475403E-001;-3.988327458500862E-003;6.297532003372908E-003;2.770214574411511E-003;
2.406666666666667E+009;1.717611253261566E-001;-5.924879107624292E-003;6.520233117043972E-003;2.658915705978870E-003;
2.406833333333334E+009;1.723114252090454E-001;-8.127413690090179E-003;6.584464106708765E-003;2.486087614670396E-003;
2.407000000000000E+009;1.729710996150971E-001;-9.897557087242603E-003;6.693918723613024E-003;2.161259995773435E-003;
2.407166666666667E+009;1.736139804124832E-001;-1.167434547096491E-002;6.859865505248308E-003;1.812106114812195E-003;
2.407333333333334E+009;1.741922944784164E-001;-1.376547012478113E-002;6.890608929097652E-003;1.658447552472353E-003;
2.407500000000000E+009;1.748940348625183E-001;-1.559100579470396E-002;7.079350762069225E-003;1.116605824790895E-003;
2.407666666666667E+009;1.755973994731903E-001;-1.714539341628552E-002;7.149694953113794E-003;1.016073743812740E-003;
2.407833333333334E+009;1.763867586851120E-001;-1.906507275998592E-002;7.227031514048576E-003;5.516455275937915E-004;
2.408000000000000E+009;1.771740615367889E-001;-2.066576294600964E-002;7.250304333865643E-003;1.691377983661369E-004;
2.408166666666667E+009;1.778253465890884E-001;-2.204761467874050E-002;7.180051878094673E-003;-6.928868970135227E-005;
2.408333333333334E+009;1.787808686494827E-001;-2.362412586808205E-002;7.265967782586813E-003;-5.717806052416563E-004;
2.408500000000000E+009;1.793392449617386E-001;-2.514360472559929E-002;7.086686324328184E-003;-9.547111112624407E-004;
2.408666666666667E+009;1.799545735120773E-001;-2.652621455490589E-002;6.967809516936541E-003;-1.243028440512717E-003;
2.408833333333334E+009;1.805594265460968E-001;-2.774596028029919E-002;6.846342701464891E-003;-1.624529599212110E-003;
2.409000000000000E+009;1.809581965208054E-001;-2.875541336834431E-002;6.772143766283989E-003;-1.970946090295911E-003;
2.409166666666667E+009;1.817216873168945E-001;-2.969167008996010E-002;6.519604939967394E-003;-2.164730802178383E-003;
2.409333333333334E+009;1.821228265762329E-001;-3.069120645523071E-002;6.397139746695757E-003;-2.511633094400168E-003;
2.409500000000000E+009;1.823162883520126E-001;-3.142976015806198E-002;6.142776459455490E-003;-2.825454343110323E-003;
2.409666666666667E+009;1.827615201473236E-001;-3.219057247042656E-002;5.922500509768724E-003;-2.981710946187377E-003;
2.409833333333334E+009;1.829681396484375E-001;-3.254285827279091E-002;5.778923630714417E-003;-3.188101109117270E-003;
2.410000000000000E+009;1.834118813276291E-001;-3.315836936235428E-002;5.463338922709227E-003;-3.424113150686026E-003;
2.410166666666667E+009;1.836252510547638E-001;-3.360080346465111E-002;5.389385391026735E-003;-3.606431419029832E-003;
2.410333333333334E+009;1.836379319429398E-001;-3.381839767098427E-002;4.926604684442282E-003;-3.694383194670081E-003;
2.410500000000000E+009;1.837195158004761E-001;-3.421070799231529E-002;4.772057291120291E-003;-3.871538676321507E-003;
2.410666666666667E+009;1.836872547864914E-001;-3.451629355549812E-002;4.388739820569754E-003;-4.130002576857805E-003;
2.410833333333334E+009;1.837156116962433E-001;-3.495718166232109E-002;4.220578819513321E-003;-4.200381226837635E-003;
2.411000000000000E+009;1.836325973272324E-001;-3.522486612200737E-002;3.974147140979767E-003;-4.179156851023436E-003;
2.411166666666667E+009;1.831954866647720E-001;-3.534926101565361E-002;3.745696740224958E-003;-4.425794817507267E-003;
2.411333333333334E+009;1.828779131174088E-001;-3.560108691453934E-002;3.371880156919360E-003;-4.336652345955372E-003;
2.411500000000000E+009;1.823648512363434E-001;-3.624104335904121E-002;3.116155741736293E-003;-4.434465896338224E-003;
2.411666666666667E+009;1.820734441280365E-001;-3.652999550104141E-002;2.854799386113882E-003;-4.560686182230711E-003;
2.411833333333334E+009;1.813284903764725E-001;-3.662463277578354E-002;2.534062135964632E-003;-4.508197773247957E-003;
2.412000000000000E+009;1.806982904672623E-001;-3.718331828713417E-002;2.219966612756252E-003;-4.346490837633610E-003;
2.412166666666667E+009;1.798140704631805E-001;-3.753393515944481E-002;2.073715440928936E-003;-4.462698008865118E-003;
2.412333333333334E+009;1.790933758020401E-001;-3.788424283266068E-002;1.763139269314706E-003;-4.276330117136240E-003;
2.412500000000000E+009;1.778398007154465E-001;-3.833783790469170E-002;1.537289237603545E-003;-4.200356546789408E-003;
2.412666666666667E+009;1.768748164176941E-001;-3.911684453487396E-002;1.455028890632093E-003;-3.988092299550772E-003;
2.412833333333334E+009;1.758191585540772E-001;-3.962662070989609E-002;1.134908641688526E-003;-3.919094335287809E-003;
2.413000000000000E+009;1.746056675910950E-001;-4.035763069987297E-002;1.075002131983638E-003;-3.612182801589370E-003;
2.413166666666667E+009;1.733154356479645E-001;-4.107085615396500E-002;1.031991210766137E-003;-3.579810028895736E-003;
2.413333333333334E+009;1.718820929527283E-001;-4.192578047513962E-002;8.042954723350704E-004;-3.322068834677339E-003;
2.413500000000000E+009;1.707109212875366E-001;-4.295454919338226E-002;8.673630654811859E-004;-3.415106795728207E-003;
2.413666666666667E+009;1.693486124277115E-001;-4.385108128190041E-002;7.607691804878414E-004;-2.913193777203560E-003;
2.413833333333334E+009;1.680541187524796E-001;-4.490146040916443E-002;8.932721102610230E-004;-2.986534731462598E-003;
2.414000000000000E+009;1.667113900184631E-001;-4.619279131293297E-002;7.531893206760287E-004;-2.790642203763127E-003;
2.414166666666667E+009;1.655225306749344E-001;-4.737938940525055E-002;7.075954927131534E-004;-2.641929546371102E-003;
2.414333333333334E+009;1.642086654901505E-001;-4.878880828619003E-002;9.318714728578925E-004;-2.548920223489404E-003;
2.414500000000000E+009;1.631376743316650E-001;-5.011629313230515E-002;9.521908359602094E-004;-2.311991760507226E-003;
2.414666666666667E+009;1.618557274341583E-001;-5.161217600107193E-002;1.145038288086653E-003;-2.487622899934650E-003;
2.414833333333334E+009;1.606966555118561E-001;-5.315707996487618E-002;1.216746750287712E-003;-2.384388353675604E-003;
2.415000000000000E+009;1.595963984727860E-001;-5.482793599367142E-002;1.149514806456864E-003;-2.335039433091879E-003;
2.415166666666667E+009;1.585707813501358E-001;-5.654988810420036E-002;1.219021738506854E-003;-2.299394924193621E-003;
2.415333333333334E+009;1.578040570020676E-001;-5.839282274246216E-002;1.360947731882334E-003;-2.426992636173964E-003;
2.415500000000000E+009;1.569130122661591E-001;-6.025967001914978E-002;1.409456133842468E-003;-2.488029422238469E-003;
2.415666666666667E+009;1.560731083154678E-001;-6.204153224825859E-002;1.593726337887347E-003;-2.473176456987858E-003;
2.415833333333334E+009;1.553770750761032E-001;-6.406152993440628E-002;1.663767267018557E-003;-2.640816615894437E-003;
2.416000000000000E+009;1.545193940401077E-001;-6.604777276515961E-002;1.782614272087812E-003;-2.910932293161750E-003;
2.416166666666667E+009;1.541967839002609E-001;-6.802680343389511E-002;1.784240477718413E-003;-2.763764932751656E-003;
2.416333333333334E+009;1.535957306623459E-001;-7.001583278179169E-002;1.764899818226695E-003;-2.995287301018834E-003;
2.416500000000000E+009;1.531811505556107E-001;-7.213407009840012E-002;1.684835762716830E-003;-3.011852269992232E-003;
2.416666666666667E+009;1.526993811130524E-001;-7.407010346651077E-002;1.707400777377188E-003;-3.192723728716373E-003;
2.416833333333334E+009;1.525389850139618E-001;-7.607096433639526E-002;1.776624820195139E-003;-3.312761662527919E-003;
2.417000000000000E+009;1.521443873643875E-001;-7.798390090465546E-002;1.742779510095716E-003;-3.487964160740376E-003;
2.417166666666667E+009;1.518915295600891E-001;-7.978139072656632E-002;1.721211359836161E-003;-3.567372681573033E-003;
2.417333333333334E+009;1.518261134624481E-001;-8.170710504055023E-002;1.536365132778883E-003;-3.808525158092380E-003;
2.417500000000000E+009;1.516556441783905E-001;-8.354742079973221E-002;1.457860926166177E-003;-4.016455728560686E-003;
2.417666666666667E+009;1.518877893686295E-001;-8.514158427715302E-002;1.357641303911805E-003;-4.339316394180059E-003;
2.417833333333334E+009;1.518238633871079E-001;-8.667342364788055E-002;1.301359850913286E-003;-4.392277449369431E-003;
2.418000000000000E+009;1.517539620399475E-001;-8.835082501173019E-002;1.190508832223713E-003;-4.374837968498468E-003;
2.418166666666667E+009;1.517900675535202E-001;-8.959307521581650E-002;9.042532183229923E-004;-4.593529738485813E-003;
2.418333333333334E+009;1.522796005010605E-001;-9.101846069097519E-002;8.408941794186831E-004;-4.815236665308476E-003;
2.418500000000000E+009;1.523060947656632E-001;-9.215560555458069E-002;5.732755525968969E-004;-4.936902783811092E-003;
2.418666666666667E+009;1.526938378810883E-001;-9.335718303918839E-002;4.014832957182080E-004;-5.029795225709677E-003;
2.418833333333334E+009;1.528048664331436E-001;-9.431286901235580E-002;1.681394060142338E-004;-5.254907067865133E-003;
2.419000000000000E+009;1.528366059064865E-001;-9.512884914875031E-002;-2.534748346079141E-004;-5.427739582955837E-003;
2.419166666666667E+009;1.531266868114471E-001;-9.589947760105133E-002;-4.170189204160124E-004;-5.340867675840855E-003;
2.419333333333334E+009;1.532743126153946E-001;-9.645815938711166E-002;-8.122253930196166E-004;-5.278746597468853E-003;
2.419500000000000E+009;1.536746174097061E-001;-9.718082845211029E-002;-1.018212409690023E-003;-5.460876040160656E-003;
2.419666666666667E+009;1.539608687162399E-001;-9.738216549158096E-002;-1.188517897389829E-003;-5.192941520363092E-003;
2.419833333333334E+009;1.540214568376541E-001;-9.761875867843628E-002;-1.627382356673479E-003;-5.290434230118990E-003;
2.420000000000000E+009;1.542448550462723E-001;-9.802033752202988E-002;-1.935244072228670E-003;-5.225756671279669E-003;
2.420166666666667E+009;1.544719338417053E-001;-9.800813347101212E-002;-2.100232988595963E-003;-5.226230248808861E-003;
2.420333333333334E+009;1.545212119817734E-001;-9.800396859645844E-002;-2.354346215724945E-003;-5.077529232949019E-003;
2.420500000000000E+009;1.544869095087051E-001;-9.774225205183029E-002;-2.637401223182678E-003;-4.917720332741737E-003;
2.420666666666667E+009;1.545434743165970E-001;-9.752503037452698E-002;-2.784535754472017E-003;-4.628666676580906E-003;
2.420833333333334E+009;1.544729024171829E-001;-9.740571677684784E-002;-3.091631922870874E-003;-4.535967018455267E-003;
2.421000000000000E+009;1.544056236743927E-001;-9.721612930297852E-002;-3.209009300917387E-003;-4.380302969366312E-003;
2.421166666666667E+009;1.541679054498673E-001;-9.692297130823135E-002;-3.489403752610087E-003;-4.244497045874596E-003;
2.421333333333334E+009;1.541499197483063E-001;-9.651960432529450E-002;-3.655630396679044E-003;-3.905338468030095E-003;
2.421500000000000E+009;1.536563485860825E-001;-9.623913466930389E-002;-3.901628544554114E-003;-3.721748478710651E-003;
2.421666666666667E+009;1.533488780260086E-001;-9.586146473884583E-002;-4.093762487173080E-003;-3.549140179529786E-003;
2.421833333333334E+009;1.528503745794296E-001;-9.544555097818375E-002;-4.191287327557802E-003;-3.396873362362385E-003;
2.422000000000000E+009;1.520568281412125E-001;-9.497889876365662E-002;-4.337322898209095E-003;-3.162844805046916E-003;
2.422166666666667E+009;1.513445228338242E-001;-9.507931023836136E-002;-4.396675620228052E-003;-2.870984608307481E-003;
2.422333333333334E+009;1.506377011537552E-001;-9.460941702127457E-002;-4.236649721860886E-003;-2.565094502642751E-003;
2.422500000000000E+009;1.494603306055069E-001;-9.421437978744507E-002;-4.524488933384419E-003;-2.197014167904854E-003;
2.422666666666667E+009;1.484875231981278E-001;-9.416791051626205E-002;-4.379187710583210E-003;-2.050535520538688E-003;
2.422833333333334E+009;1.474504470825195E-001;-9.410313516855240E-002;-4.355324897915125E-003;-1.878818846307695E-003;
2.423000000000000E+009;1.460293680429459E-001;-9.377630800008774E-002;-4.290837794542313E-003;-1.708849449642003E-003;
2.423166666666667E+009;1.449158787727356E-001;-9.380075335502625E-002;-4.323266446590424E-003;-1.312003238126636E-003;
2.423333333333334E+009;1.434787362813950E-001;-9.364512562751770E-002;-4.149696789681912E-003;-1.072359387762845E-003;
2.423500000000000E+009;1.419124752283096E-001;-9.376339614391327E-002;-4.000103566795588E-003;-9.199087508022785E-004;
2.423666666666667E+009;1.404283046722412E-001;-9.396616369485855E-002;-3.987382166087627E-003;-8.018818916752935E-004;
2.423833333333334E+009;1.390385478734970E-001;-9.398797899484634E-002;-3.806255757808685E-003;-7.915147580206394E-004;
2.424000000000000E+009;1.373525112867355E-001;-9.413919597864151E-002;-3.771678777411580E-003;-6.342342821881175E-004;
2.424166666666667E+009;1.357131153345108E-001;-9.453959763050079E-002;-3.588098799809814E-003;-7.655199151486158E-004;
2.424333333333334E+009;1.343372017145157E-001;-9.482318162918091E-002;-3.571724519133568E-003;-6.306306459009647E-004;
2.424500000000000E+009;1.328639835119247E-001;-9.548196196556091E-002;-3.687815042212606E-003;-5.278577446006239E-004;
2.424666666666667E+009;1.314178258180618E-001;-9.570540487766266E-002;-3.451572265475988E-003;-4.997142823413014E-004;
2.424833333333334E+009;1.298670470714569E-001;-9.673653542995453E-002;-3.377136075869203E-003;-4.463316581677645E-004;
2.425000000000000E+009;1.284899413585663E-001;-9.750548750162125E-002;-3.461235668510199E-003;-3.991461417172104E-004;
2.425166666666667E+009;1.269344687461853E-001;-9.849118441343308E-002;-3.413579193875194E-003;-3.619358467403799E-004;
2.425333333333334E+009;1.256441473960877E-001;-9.949950873851776E-002;-3.356195520609617E-003;-3.466386115178466E-004;
2.425500000000000E+009;1.244394555687904E-001;-1.006226688623428E-001;-3.182883141562343E-003;-3.554065187927336E-004;
2.425666666666667E+009;1.230175346136093E-001;-1.018506884574890E-001;-3.189353039488196E-003;-2.211297105532140E-004;
2.425833333333334E+009;1.218625530600548E-001;-1.031642481684685E-001;-3.185999346897006E-003;-8.766962855588645E-005;
2.426000000000000E+009;1.208682283759117E-001;-1.045293807983398E-001;-3.119896631687880E-003;-9.589744149707258E-005;
2.426166666666667E+009;1.200609058141708E-001;-1.061186045408249E-001;-3.162855980917811E-003;1.197807869175449E-004;
2.426333333333334E+009;1.190145537257195E-001;-1.075114756822586E-001;-3.194664372131228E-003;1.113454491132870E-004;
2.426500000000000E+009;1.180746853351593E-001;-1.089392900466919E-001;-3.013082779943943E-003;1.466233661631122E-004;
2.426666666666667E+009;1.175078600645065E-001;-1.104690507054329E-001;-3.084874246269465E-003;1.382226473651826E-004;
2.426833333333334E+009;1.168092563748360E-001;-1.121739670634270E-001;-3.041749121621251E-003;2.276354061905295E-004;
2.427000000000000E+009;1.161009743809700E-001;-1.138994544744492E-001;-2.929461188614368E-003;2.180598530685529E-004;
2.427166666666667E+009;1.155996769666672E-001;-1.154621690511704E-001;-2.825963776558638E-003;2.575349935796112E-004;
2.427333333333334E+009;1.150653511285782E-001;-1.171341538429260E-001;-2.935101743787527E-003;2.818032808136195E-004;
2.427500000000000E+009;1.149968132376671E-001;-1.187760159373283E-001;-2.811126876622438E-003;2.400710363872349E-004;
2.427666666666667E+009;1.146045625209808E-001;-1.203330978751183E-001;-2.772576641291380E-003;4.073064192198217E-004;
