# Version 1.00
#
freq[Hz];re:Trc1_S11;im:Trc1_S11;re:Trc2_S21;im:Trc2_S21;
2.400000000000000E+009;1.569937169551849E-001;1.121361553668976E-001;-1.350991777144373E-003;1.914369175210595E-003;
2.400166666666667E+009;1.563201546669006E-001;1.100228577852249E-001;-1.111590303480625E-003;2.110528992488980E-003;
2.400333333333334E+009;1.561163365840912E-001;1.076570376753807E-001;-1.048174686729908E-003;2.141716424375773E-003;
2.400500000000000E+009;1.557397693395615E-001;1.050206869840622E-001;-8.397817728109658E-004;2.153382636606693E-003;
2.400666666666667E+009;1.555334329605103E-001;1.027340963482857E-001;-5.805591354146600E-004;2.322947839275003E-003;
2.400833333333334E+009;1.552616506814957E-001;9.989292919635773E-002;-3.235961485188454E-004;2.126479754224420E-003;
2.401000000000000E+009;1.551753282546997E-001;9.682585299015045E-002;-8.880000677891076E-005;2.247393596917391E-003;
2.401166666666667E+009;1.548755019903183E-001;9.399934113025665E-002;-1.143227418651804E-004;2.144152298569679E-003;
2.401333333333334E+009;1.549279242753983E-001;9.104344993829727E-002;1.652242281124927E-005;1.933540916070342E-003;
2.401500000000000E+009;1.551815569400787E-001;8.780480921268463E-002;7.317939889617264E-005;2.006598515436053E-003;
2.401666666666667E+009;1.551174372434616E-001;8.503092080354691E-002;7.150675082812086E-005;1.873857458122075E-003;
2.401833333333334E+009;1.555395722389221E-001;8.192918449640274E-002;1.513611932750791E-004;1.928567071445286E-003;
2.402000000000000E+009;1.560442745685577E-001;7.886585593223572E-002;2.416892966721207E-004;1.778073026798666E-003;
2.402166666666667E+009;1.565983146429062E-001;7.606796920299530E-002;1.593032502569258E-004;1.736402511596680E-003;
2.402333333333334E+009;1.574582159519196E-001;7.302215695381165E-002;1.412487181369215E-004;1.683789188973606E-003;
2.402500000000000E+009;1.583285778760910E-001;7.011575996875763E-002;9.335255163023248E-005;1.604056800715625E-003;
2.402666666666667E+009;1.593944579362869E-001;6.761665642261505E-002;1.632793137105182E-004;1.528450055047870E-003;
2.402833333333334E+009;1.607206910848618E-001;6.464736908674240E-002;9.963093907572329E-005;1.518747303634882E-003;
2.403000000000000E+009;1.620142161846161E-001;6.199891865253449E-002;5.903693090658635E-005;1.683008274994791E-003;
2.403166666666667E+009;1.636036336421967E-001;5.940026044845581E-002;5.739519474445842E-005;1.689188531599939E-003;
2.403333333333334E+009;1.648342162370682E-001;5.683234333992004E-002;1.575873466208577E-005;1.704267691820860E-003;
2.403500000000000E+009;1.667851209640503E-001;5.441207066178322E-002;-3.721364555531181E-005;1.770747941918671E-003;
2.403666666666667E+009;1.687534004449844E-001;5.208609625697136E-002;-1.863592478912324E-004;1.953259576112032E-003;
2.403833333333334E+009;1.703405976295471E-001;4.983696714043617E-002;-1.013224682537839E-004;2.115350216627121E-003;
2.404000000000000E+009;1.718362271785736E-001;4.773091897368431E-002;5.967705874354579E-006;2.318161074072123E-003;
2.404166666666667E+009;1.740101277828217E-001;4.586172476410866E-002;1.884971861727536E-004;2.269763965159655E-003;
2.404333333333334E+009;1.756797581911087E-001;4.413393884897232E-002;5.330503336153925E-004;2.415696391835809E-003;
2.404500000000000E+009;1.774075031280518E-001;4.232591390609741E-002;3.774556098505855E-004;2.625446533784270E-003;
2.404666666666667E+009;1.794231534004211E-001;4.104775562882423E-002;6.707999273203313E-004;2.537208609282970E-003;
2.404833333333334E+009;1.812911629676819E-001;3.967282921075821E-002;9.969156235456467E-004;2.664908999577165E-003;
2.405000000000000E+009;1.827365607023239E-001;3.894861042499542E-002;1.194161828607321E-003;2.537633292376995E-003;
2.405166666666667E+009;1.845174282789230E-001;3.795472905039787E-002;1.343272626399994E-003;2.385145286098123E-003;
2.405333333333334E+009;1.862469166517258E-001;3.715053200721741E-002;1.360533176921308E-003;2.460288815200329E-003;
2.405500000000000E+009;1.879705488681793E-001;3.646617382764816E-002;1.713113626465201E-003;2.335793105885387E-003;
2.405666666666667E+009;1.895509213209152E-001;3.608254715800285E-002;1.761870691552758E-003;2.211268292739987E-003;
2.405833333333334E+009;1.910037994384766E-001;3.580338507890701E-002;1.917379908263683E-003;2.088163746520877E-003;
2.406000000000000E+009;1.924473047256470E-001;3.563789650797844E-002;1.975079067051411E-003;1.936936867423356E-003;
2.406166666666667E+009;1.937617808580399E-001;3.551634028553963E-002;1.982405316084623E-003;1.864678459241986E-003;
2.406333333333334E+009;1.949307918548584E-001;3.574219346046448E-002;2.160355914384127E-003;1.747389091178775E-003;
2.406500000000000E+009;1.961166858673096E-001;3.580153360962868E-002;2.072871429845691E-003;1.507534994743764E-003;
2.406666666666667E+009;1.970122307538986E-001;3.593946248292923E-002;2.169258659705520E-003;1.408152049407363E-003;
2.406833333333334E+009;1.978367865085602E-001;3.608042374253273E-002;2.211950020864606E-003;1.291005057282746E-003;
2.407000000000000E+009;1.983842849731445E-001;3.655696660280228E-002;2.249021315947175E-003;1.124872127547860E-003;
2.407166666666667E+009;1.991535872220993E-001;3.659089282155037E-002;2.243635244667530E-003;1.190692419186235E-003;
2.407333333333334E+009;1.992867141962051E-001;3.708276152610779E-002;2.256512641906738E-003;1.045286189764738E-003;
2.407500000000000E+009;1.994919329881668E-001;3.734549880027771E-002;2.081866608932614E-003;1.149645773693919E-003;
2.407666666666667E+009;1.996530294418335E-001;3.760392963886261E-002;2.291812095791102E-003;1.104037510231137E-003;
2.407833333333334E+009;1.994280815124512E-001;3.775949776172638E-002;2.343355910852552E-003;8.869317825883627E-004;
2.408000000000000E+009;1.995917260646820E-001;3.807838633656502E-002;2.247525611892343E-003;7.947522681206465E-004;
2.408166666666667E+009;1.991056054830551E-001;3.808581829071045E-002;2.326873363927007E-003;6.283420952968299E-004;
2.408333333333334E+009;1.987531185150147E-001;3.796190395951271E-002;2.374866511672735E-003;6.234538741409779E-004;
2.408500000000000E+009;1.981964856386185E-001;3.793395310640335E-002;2.313493983820081E-003;5.327841499820352E-004;
2.408666666666667E+009;1.975265443325043E-001;3.783461079001427E-002;2.325920155271888E-003;4.503464151639491E-004;
2.408833333333334E+009;1.968220621347427E-001;3.733121976256371E-002;2.294185338541865E-003;5.121956346556544E-004;
2.409000000000000E+009;1.958303749561310E-001;3.692856058478355E-002;2.266707131639123E-003;3.933421103283763E-004;
2.409166666666667E+009;1.947688907384872E-001;3.635567054152489E-002;2.496127970516682E-003;3.325692377984524E-004;
2.409333333333334E+009;1.937782913446426E-001;3.572021797299385E-002;2.372829709202051E-003;2.931194321718067E-004;
2.409500000000000E+009;1.925148069858551E-001;3.464143723249435E-002;2.317310310900211E-003;2.935783122666180E-004;
2.409666666666667E+009;1.912869215011597E-001;3.361536934971809E-002;2.383115002885461E-003;2.058906538877636E-004;
2.409833333333334E+009;1.901797503232956E-001;3.242184221744537E-002;2.312103286385536E-003;2.547035692259669E-004;
2.410000000000000E+009;1.889382451772690E-001;3.109593503177166E-002;2.444470534101129E-003;7.492209988413379E-005;
2.410166666666667E+009;1.876551359891892E-001;2.944446355104446E-002;2.576808910816908E-003;1.347840152448043E-004;
2.410333333333334E+009;1.864016354084015E-001;2.786060236394405E-002;2.677276497706771E-003;6.687250424874947E-005;
2.410500000000000E+009;1.851698011159897E-001;2.618625573813915E-002;2.760481787845492E-003;-4.150405220570974E-005;
2.410666666666667E+009;1.839212179183960E-001;2.415248937904835E-002;2.850412623956800E-003;-2.422717443550937E-005;
2.410833333333334E+009;1.829795241355896E-001;2.208082377910614E-002;2.981011988595128E-003;-2.891162876039743E-004;
2.411000000000000E+009;1.818996965885162E-001;1.980545744299889E-002;3.174428595229983E-003;-3.094646672252566E-004;
2.411166666666667E+009;1.809352785348892E-001;1.775311492383480E-002;3.222333267331123E-003;-4.325151385273784E-004;
2.411333333333334E+009;1.801682412624359E-001;1.526427175849676E-002;3.165507223457098E-003;-8.507027523592114E-004;
2.411500000000000E+009;1.792557835578919E-001;1.285479124635458E-002;3.284073201939464E-003;-8.783031371422112E-004;
2.411666666666667E+009;1.789272278547287E-001;1.048283372074366E-002;3.258639480918646E-003;-1.049275044351816E-003;
2.411833333333334E+009;1.781501173973084E-001;7.902557961642742E-003;3.034743014723063E-003;-1.241179998032749E-003;
2.412000000000000E+009;1.779130995273590E-001;5.204639863222837E-003;3.078482113778591E-003;-1.412621582858264E-003;
2.412166666666667E+009;1.777621209621429E-001;2.636367920786142E-003;3.022232325747609E-003;-1.658610999584198E-003;
2.412333333333334E+009;1.777756214141846E-001;-7.890864071669057E-005;2.823673887178302E-003;-1.806279062293470E-003;
2.412500000000000E+009;1.780489236116409E-001;-2.684904029592872E-003;2.663340419530869E-003;-2.184493700042367E-003;
2.412666666666667E+009;1.783173233270645E-001;-5.313976202160120E-003;2.586524002254009E-003;-2.349340124055743E-003;
2.412833333333334E+009;1.787762194871903E-001;-8.073961362242699E-003;2.467362675815821E-003;-2.389621455222368E-003;
2.413000000000000E+009;1.795916557312012E-001;-1.062894146889448E-002;2.219890477135778E-003;-2.420300617814064E-003;
2.413166666666667E+009;1.799959838390350E-001;-1.296334154903889E-002;2.060569822788239E-003;-2.480571623891592E-003;
2.413333333333334E+009;1.810604929924011E-001;-1.588744856417179E-002;1.825686078518629E-003;-2.636101329699159E-003;
2.413500000000000E+009;1.817954331636429E-001;-1.838167011737824E-002;1.610371517017484E-003;-2.646533306688070E-003;
2.413666666666667E+009;1.830454766750336E-001;-2.089878357946873E-002;1.383360940963030E-003;-2.599034458398819E-003;
2.413833333333334E+009;1.840101182460785E-001;-2.313233911991119E-002;1.322599942795932E-003;-2.616668585687876E-003;
2.414000000000000E+009;1.852899193763733E-001;-2.553562447428703E-002;1.234008814208210E-003;-2.656291704624891E-003;
2.414166666666667E+009;1.865378320217133E-001;-2.764366567134857E-002;1.101295114494860E-003;-2.596440259367228E-003;
2.414333333333334E+009;1.877770274877548E-001;-2.986088581383228E-002;1.025081728585064E-003;-2.408167580142617E-003;
2.414500000000000E+009;1.890463531017304E-001;-3.154190257191658E-002;9.528176742605865E-004;-2.646799199283123E-003;
2.414666666666667E+009;1.904405951499939E-001;-3.329549729824066E-002;8.255728171207011E-004;-2.682141726836562E-003;
2.414833333333334E+009;1.916644424200058E-001;-3.502712398767471E-002;6.442612502723932E-004;-2.529324963688850E-003;
2.415000000000000E+009;1.929752081632614E-001;-3.652118891477585E-002;6.115912692621350E-004;-2.533493796363473E-003;
2.415166666666667E+009;1.944667249917984E-001;-3.781469538807869E-002;5.694382707588375E-004;-2.309278119355440E-003;
2.415333333333334E+009;1.958413571119309E-001;-3.898140788078308E-002;5.472462507896125E-004;-2.540877554565668E-003;
2.415500000000000E+009;1.971996277570725E-001;-4.000995680689812E-002;3.986123920185491E-005;-2.580016851425171E-003;
2.415666666666667E+009;1.984903067350388E-001;-4.092892631888390E-002;4.198490933049470E-004;-2.644819673150778E-003;
2.415833333333334E+009;1.996435672044754E-001;-4.179004207253456E-002;5.648360456689261E-005;-2.537206746637821E-003;
2.416000000000000E+009;2.007618099451065E-001;-4.238530620932579E-002;1.148761875811033E-004;-2.573746023699641E-003;
2.416166666666667E+009;2.017351239919663E-001;-4.297665506601334E-002;-5.079030597698875E-005;-2.512904349714518E-003;
2.416333333333334E+009;2.025920301675797E-001;-4.323360323905945E-002;-1.538711367174983E-004;-2.418183488771319E-003;
2.416500000000000E+009;2.035249471664429E-001;-4.357784986495972E-002;-3.406704054214060E-004;-2.481572329998016E-003;
2.416666666666667E+009;2.040838748216629E-001;-4.377065971493721E-002;-3.192166623193771E-004;-2.273811958730221E-003;
2.416833333333334E+009;2.044121921062470E-001;-4.376433417201042E-002;-3.344426513649523E-004;-2.044070046395063E-003;
2.417000000000000E+009;2.049002051353455E-001;-4.393257200717926E-002;-3.833781229332089E-004;-2.167833736166358E-003;
2.417166666666667E+009;2.049748450517654E-001;-4.373367875814438E-002;-4.969250876456499E-004;-2.084528794512153E-003;
2.417333333333334E+009;2.049786746501923E-001;-4.328241199254990E-002;-3.673369938042015E-004;-1.737425685860217E-003;
2.417500000000000E+009;2.050740271806717E-001;-4.324894770979881E-002;-5.359385977499187E-004;-1.797721022740006E-003;
2.417666666666667E+009;2.047004401683807E-001;-4.273767769336700E-002;-3.975860890932381E-004;-1.805254956707358E-003;
2.417833333333334E+009;2.044800668954849E-001;-4.241560772061348E-002;-3.656828484963626E-004;-1.712270081043243E-003;
2.418000000000000E+009;2.041041553020477E-001;-4.192713275551796E-002;-3.345821169205010E-004;-1.782320090569556E-003;
2.418166666666667E+009;2.034557461738586E-001;-4.161337763071060E-002;-2.292129065608606E-004;-1.800151541829109E-003;
2.418333333333334E+009;2.027652114629746E-001;-4.118061810731888E-002;-3.066460485570133E-004;-1.798543380573392E-003;
2.418500000000000E+009;2.018785476684570E-001;-4.091141000390053E-002;-4.113854665774852E-004;-1.810351037420332E-003;
2.418666666666667E+009;2.009748071432114E-001;-4.040448740124703E-002;-2.568293130025268E-004;-1.765836961567402E-003;
2.418833333333334E+009;1.997696459293366E-001;-4.032916203141213E-002;-1.905650424305350E-004;-1.923761446960270E-003;
2.419000000000000E+009;1.986996531486511E-001;-4.028582200407982E-002;-2.278254396514967E-004;-2.086060820147395E-003;
2.419166666666667E+009;1.973052024841309E-001;-4.023348167538643E-002;-1.335178676526994E-004;-2.190769882872701E-003;
2.419333333333334E+009;1.958495080471039E-001;-4.038344696164131E-002;-3.659590438473970E-004;-2.184934681281447E-003;
2.419500000000000E+009;1.943730264902115E-001;-4.071046039462090E-002;-3.134784637950361E-004;-2.227910095825791E-003;
2.419666666666667E+009;1.927739679813385E-001;-4.111458733677864E-002;-5.497049423865974E-004;-2.339965896680951E-003;
2.419833333333334E+009;1.909973025321960E-001;-4.148538783192635E-002;-4.118416691198945E-004;-2.372047631070018E-003;
2.420000000000000E+009;1.893911212682724E-001;-4.217830672860146E-002;-5.638322909362614E-004;-2.477740636095405E-003;
2.420166666666667E+009;1.875618994235992E-001;-4.289743676781654E-002;-7.012389251030982E-004;-2.350831404328346E-003;
2.420333333333334E+009;1.857675611972809E-001;-4.380220547318459E-002;-9.319738601334393E-004;-2.496425295248628E-003;
2.420500000000000E+009;1.836985051631928E-001;-4.489811137318611E-002;-9.890707442536950E-004;-2.384051913395524E-003;
2.420666666666667E+009;1.819550544023514E-001;-4.584547877311707E-002;-9.779770625755191E-004;-2.341164508834481E-003;
2.420833333333334E+009;1.800356507301331E-001;-4.732379317283630E-002;-1.072242856025696E-003;-2.281532855704427E-003;
2.421000000000000E+009;1.784871369600296E-001;-4.884143918752670E-002;-1.244899816811085E-003;-2.237961394712329E-003;
2.421166666666667E+009;1.766108870506287E-001;-5.042969807982445E-002;-1.275702728889883E-003;-2.170592313632369E-003;
2.421333333333334E+009;1.746052503585815E-001;-5.176378414034843E-002;-1.488885260187089E-003;-2.256640698760748E-003;
2.421500000000000E+009;1.732548028230667E-001;-5.388360470533371E-002;-1.509747235104442E-003;-2.272180980071425E-003;
2.421666666666667E+009;1.716795563697815E-001;-5.565140023827553E-002;-1.477184705436230E-003;-2.293671248480678E-003;
2.421833333333334E+009;1.701901406049728E-001;-5.772184953093529E-002;-1.499140867963433E-003;-2.243363531306386E-003;
2.422000000000000E+009;1.686280816793442E-001;-5.973652005195618E-002;-1.621522475033999E-003;-2.174991881474853E-003;
2.422166666666667E+009;1.677773892879486E-001;-6.178795918822289E-002;-1.735526602715254E-003;-2.159622497856617E-003;
2.422333333333334E+009;1.663359999656677E-001;-6.397736817598343E-002;-1.777221565134823E-003;-2.227354561910033E-003;
2.422500000000000E+009;1.653632670640945E-001;-6.615650653839111E-002;-1.960125518962741E-003;-2.105191582813859E-003;
2.422666666666667E+009;1.643403619527817E-001;-6.835395842790604E-002;-2.029953291639686E-003;-2.126581035554409E-003;
2.422833333333334E+009;1.637079268693924E-001;-7.071254402399063E-002;-2.035374520346522E-003;-2.102901926264167E-003;
2.423000000000000E+009;1.629428863525391E-001;-7.311628013849258E-002;-2.246408024802804E-003;-2.210020553320646E-003;
2.423166666666667E+009;1.624941825866699E-001;-7.528027892112732E-002;-2.370277186855674E-003;-2.032117685303092E-003;
2.423333333333334E+009;1.620918661355972E-001;-7.740860432386398E-002;-2.340381266549230E-003;-2.049737144261599E-003;
2.423500000000000E+009;1.618072688579559E-001;-7.946360856294632E-002;-2.481648931279779E-003;-1.911695813760161E-003;
2.423666666666667E+009;1.618425697088242E-001;-8.187158405780792E-002;-2.791790757328272E-003;-1.855852548032999E-003;
2.423833333333334E+009;1.616865694522858E-001;-8.392348885536194E-002;-2.819898072630167E-003;-1.918928348459303E-003;
2.424000000000000E+009;1.618189960718155E-001;-8.600848168134689E-002;-2.852171193808317E-003;-1.808968023397028E-003;
2.424166666666667E+009;1.618671566247940E-001;-8.791612833738327E-002;-3.249614499509335E-003;-1.583483885042369E-003;
2.424333333333334E+009;1.622435301542282E-001;-8.986090868711472E-002;-3.254454117268324E-003;-1.446037436835468E-003;
2.424500000000000E+009;1.626770645380020E-001;-9.171667695045471E-002;-3.284674137830734E-003;-1.286929473280907E-003;
2.424666666666667E+009;1.629760414361954E-001;-9.334696829319000E-002;-3.470603842288256E-003;-1.293872715905309E-003;
2.424833333333334E+009;1.636036783456802E-001;-9.507654607295990E-002;-3.462297376245260E-003;-9.883218444883823E-004;
2.425000000000000E+009;1.641581356525421E-001;-9.647962450981140E-002;-3.565055551007390E-003;-8.937884122133255E-004;
2.425166666666667E+009;1.646981388330460E-001;-9.786544740200043E-002;-3.609016537666321E-003;-6.482002791017294E-004;
2.425333333333334E+009;1.652045547962189E-001;-9.888853132724762E-002;-3.729332936927676E-003;-4.864328075200319E-004;
2.425500000000000E+009;1.657925844192505E-001;-1.003112122416496E-001;-3.792977426201105E-003;-1.908910053316504E-004;
2.425666666666667E+009;1.664955317974091E-001;-1.010420024394989E-001;-3.846176434308291E-003;3.661986920633353E-005;
2.425833333333334E+009;1.671878844499588E-001;-1.021691784262657E-001;-3.696273313835263E-003;-4.328257637098432E-005;
2.426000000000000E+009;1.678024977445602E-001;-1.026908084750176E-001;-3.612187923863530E-003;2.998115960508585E-004;
2.426166666666667E+009;1.684609800577164E-001;-1.033925712108612E-001;-3.477449296042323E-003;4.559094086289406E-004;
2.426333333333334E+009;1.689250469207764E-001;-1.039467304944992E-001;-3.625899087637663E-003;5.633387481793761E-004;
2.426500000000000E+009;1.696668267250061E-001;-1.042327955365181E-001;-3.498796373605728E-003;8.093387004919350E-004;
2.426666666666667E+009;1.701504290103912E-001;-1.046445891261101E-001;-3.300331532955170E-003;1.005851780064404E-003;
2.426833333333334E+009;1.707623749971390E-001;-1.050637140870094E-001;-3.457993036136031E-003;1.234490540809929E-003;
2.427000000000000E+009;1.710256189107895E-001;-1.051716729998589E-001;-3.306994214653969E-003;1.492535113357008E-003;
2.427166666666667E+009;1.713625937700272E-001;-1.051995903253555E-001;-3.276623087003827E-003;1.476255361922085E-003;
2.427333333333334E+009;1.715674102306366E-001;-1.055208668112755E-001;-3.057210706174374E-003;1.614806125871837E-003;
2.427500000000000E+009;1.717007011175156E-001;-1.054770573973656E-001;-3.053446300327778E-003;1.774636446498334E-003;
2.427666666666667E+009;1.716623306274414E-001;-1.054447293281555E-001;-2.955995034426451E-003;1.731552765704691E-003;
