# Version 1.00
#
freq[Hz];re:Trc1_S11;im:Trc1_S11;re:Trc2_S21;im:Trc2_S21;
2.400000000000000E+009;1.569691598415375E-001;1.122693419456482E-001;-1.361046917736530E-003;1.887936727143824E-003;
2.400166666666667E+009;1.563194841146469E-001;1.101496592164040E-001;-1.214685500599444E-003;2.136825583875179E-003;
2.400333333333334E+009;1.560536473989487E-001;1.078615859150887E-001;-1.022434211336076E-003;2.096947049722076E-003;
2.400500000000000E+009;1.556841135025024E-001;1.051608696579933E-001;-8.051089826039970E-004;2.242240821942687E-003;
2.400666666666667E+009;1.555545032024384E-001;1.028367727994919E-001;-7.070153369568288E-004;2.343738917261362E-003;
2.400833333333334E+009;1.550655663013458E-001;9.981949627399445E-002;-5.029980675317347E-004;2.145767444744706E-003;
2.401000000000000E+009;1.548961997032166E-001;9.698371589183807E-002;-2.259881584905088E-004;2.184905111789703E-003;
2.401166666666667E+009;1.547687798738480E-001;9.406316280364990E-002;-1.684489689068869E-004;2.082820748910308E-003;
2.401333333333334E+009;1.547576040029526E-001;9.103224426507950E-002;-3.909369479515590E-005;2.096132142469287E-003;
2.401500000000000E+009;1.550360023975372E-001;8.823091536760330E-002;-2.528283403080422E-005;1.986980903893709E-003;
2.401666666666667E+009;1.551441550254822E-001;8.502954989671707E-002;7.240363629534841E-005;1.872524968348444E-003;
2.401833333333334E+009;1.553589552640915E-001;8.203233778476715E-002;5.436407445813529E-005;1.818760181777179E-003;
2.402000000000000E+009;1.558911502361298E-001;7.913707941770554E-002;3.131946505163796E-005;1.811559544876218E-003;
2.402166666666667E+009;1.565205305814743E-001;7.617162913084030E-002;6.448833300964907E-005;1.738281105645001E-003;
2.402333333333334E+009;1.572904437780380E-001;7.328616082668304E-002;1.232903014170006E-004;1.687680138275027E-003;
2.402500000000000E+009;1.583381295204163E-001;7.030639797449112E-002;-1.109199292841367E-004;1.666917349211872E-003;
2.402666666666667E+009;1.592013835906982E-001;6.766229122877121E-002;1.230058956025459E-006;1.534207141958177E-003;
2.402833333333334E+009;1.603132784366608E-001;6.488203257322311E-002;2.115140705427621E-005;1.696242019534111E-003;
2.403000000000000E+009;1.618888527154923E-001;6.212857738137245E-002;1.430355496268021E-005;1.768338610418141E-003;
2.403166666666667E+009;1.634629368782044E-001;5.950418859720230E-002;-4.898436600342393E-005;1.757215010002255E-003;
2.403333333333334E+009;1.650671660900116E-001;5.699013546109200E-002;-8.081908163148910E-005;1.714160083793104E-003;
2.403500000000000E+009;1.667752712965012E-001;5.453818291425705E-002;-1.456597829019302E-006;1.790782203897834E-003;
2.403666666666667E+009;1.687391847372055E-001;5.222123116254807E-002;-1.194572323583998E-004;1.784763298928738E-003;
2.403833333333334E+009;1.704046726226807E-001;5.009038746356964E-002;-1.749689363350626E-005;2.010633470490575E-003;
2.404000000000000E+009;1.718772202730179E-001;4.765062779188156E-002;5.763299850514159E-005;2.167050261050463E-003;
2.404166666666667E+009;1.740386933088303E-001;4.602209851145744E-002;1.557714858790860E-004;2.375990850850940E-003;
2.404333333333334E+009;1.757161319255829E-001;4.407417774200440E-002;3.797501267399639E-004;2.400293946266174E-003;
2.404500000000000E+009;1.774638891220093E-001;4.230016469955444E-002;4.860273038502783E-004;2.430272288620472E-003;
2.404666666666667E+009;1.794991791248322E-001;4.104245454072952E-002;6.656262557953596E-004;2.552777063101530E-003;
2.404833333333334E+009;1.813794672489166E-001;3.969294577836990E-002;8.524162694811821E-004;2.541367895901203E-003;
2.405000000000000E+009;1.828221529722214E-001;3.887087851762772E-002;1.081350608728826E-003;2.614669036120176E-003;
2.405166666666667E+009;1.845961213111877E-001;3.796850144863129E-002;1.268355874344707E-003;2.438652794808149E-003;
2.405333333333334E+009;1.864081621170044E-001;3.725860267877579E-002;1.385446754284203E-003;2.384097548201680E-003;
2.405500000000000E+009;1.880299746990204E-001;3.659589588642120E-002;1.622807467356324E-003;2.561288885772228E-003;
2.405666666666667E+009;1.897114217281342E-001;3.625446930527687E-002;1.725832698866725E-003;2.180854091420770E-003;
2.405833333333334E+009;1.911472678184509E-001;3.605569899082184E-002;1.946629141457379E-003;2.000508597120643E-003;
2.406000000000000E+009;1.925151348114014E-001;3.581384941935539E-002;1.973874634131789E-003;1.891465275548399E-003;
2.406166666666667E+009;1.937744170427322E-001;3.563668578863144E-002;2.087346976622939E-003;1.543449820019305E-003;
2.406333333333334E+009;1.950549781322479E-001;3.578154370188713E-002;2.114450559020042E-003;1.662471913732588E-003;
2.406500000000000E+009;1.961218863725662E-001;3.589059412479401E-002;2.185311866924167E-003;1.396146835759282E-003;
2.406666666666667E+009;1.969969123601914E-001;3.600905835628510E-002;2.036303281784058E-003;1.431226031854749E-003;
2.406833333333334E+009;1.979602426290512E-001;3.620996698737145E-002;2.240701345726848E-003;1.251733629032970E-003;
2.407000000000000E+009;1.984721571207047E-001;3.662797436118126E-002;2.208512043580413E-003;1.115213264711201E-003;
2.407166666666667E+009;1.992221623659134E-001;3.671151772141457E-002;2.236569998785853E-003;1.044471864588559E-003;
2.407333333333334E+009;1.993859559297562E-001;3.722386807203293E-002;2.156249945983291E-003;1.044727978296578E-003;
2.407500000000000E+009;1.995141506195068E-001;3.762750700116158E-002;2.252965699881315E-003;1.002315897494555E-003;
2.407666666666667E+009;1.998671740293503E-001;3.777725994586945E-002;2.175178844481707E-003;1.056096749380231E-003;
2.407833333333334E+009;1.994699686765671E-001;3.795363381505013E-002;2.282439498230815E-003;9.020227007567883E-004;
2.408000000000000E+009;1.996738463640213E-001;3.808992728590965E-002;2.358372556045651E-003;7.680570124648511E-004;
2.408166666666667E+009;1.991963237524033E-001;3.816666454076767E-002;2.231023274362087E-003;7.364402990788221E-004;
2.408333333333334E+009;1.988236606121063E-001;3.809259831905365E-002;2.352883806452155E-003;7.657276582904160E-004;
2.408500000000000E+009;1.982249319553375E-001;3.813524544239044E-002;2.302203793078661E-003;6.837671971879900E-004;
2.408666666666667E+009;1.975552886724472E-001;3.804966434836388E-002;2.253243699669838E-003;4.862642381340265E-004;
2.408833333333334E+009;1.969152987003326E-001;3.765253350138664E-002;2.299468964338303E-003;5.586620536632836E-004;
2.409000000000000E+009;1.959903687238693E-001;3.706658259034157E-002;2.470156177878380E-003;5.059010582044721E-004;
2.409166666666667E+009;1.950516104698181E-001;3.651453554630280E-002;2.452044980600476E-003;4.109698347747326E-004;
2.409333333333334E+009;1.939917504787445E-001;3.577495366334915E-002;2.341535873711109E-003;3.552004345692694E-004;
2.409500000000000E+009;1.926112174987793E-001;3.482550010085106E-002;2.424412174150348E-003;5.000276723876596E-004;
2.409666666666667E+009;1.915040016174316E-001;3.376689925789833E-002;2.385027240961790E-003;3.022187738679349E-004;
2.409833333333334E+009;1.902921944856644E-001;3.252114728093147E-002;2.418191172182560E-003;2.389994479017332E-004;
2.410000000000000E+009;1.888988912105560E-001;3.112479485571384E-002;2.575634978711605E-003;2.243831258965656E-004;
2.410166666666667E+009;1.877616345882416E-001;2.965110167860985E-002;2.536049112677574E-003;3.281076205894351E-004;
2.410333333333334E+009;1.864987462759018E-001;2.795922569930553E-002;2.730458974838257E-003;2.433650806779042E-004;
2.410500000000000E+009;1.852309256792069E-001;2.614868246018887E-002;2.746802987530828E-003;3.892590939358342E-006;
2.410666666666667E+009;1.841252446174622E-001;2.411548793315888E-002;3.005375154316425E-003;3.684052353492007E-005;
2.410833333333334E+009;1.830078512430191E-001;2.206167764961720E-002;2.825082745403051E-003;-9.280948142986745E-005;
2.411000000000000E+009;1.819614619016647E-001;1.990997977554798E-002;3.021777374669910E-003;-2.591133234091103E-004;
2.411166666666667E+009;1.811260133981705E-001;1.775426603853703E-002;3.076311899349093E-003;-4.949543508701026E-004;
2.411333333333334E+009;1.802526563405991E-001;1.514887530356646E-002;2.960863057523966E-003;-6.654253229498863E-004;
2.411500000000000E+009;1.793861538171768E-001;1.286775059998035E-002;3.031241241842508E-003;-8.463388076052070E-004;
2.411666666666667E+009;1.790199130773544E-001;1.040322240442038E-002;3.202473977580667E-003;-1.203065854497254E-003;
2.411833333333334E+009;1.782810539007187E-001;7.984044961631298E-003;2.951368689537048E-003;-1.363067654892802E-003;
2.412000000000000E+009;1.781636178493500E-001;5.110547877848148E-003;2.991323359310627E-003;-1.610043691471219E-003;
2.412166666666667E+009;1.780218780040741E-001;2.722175326198340E-003;2.872263314202428E-003;-1.733530545607209E-003;
2.412333333333334E+009;1.778463423252106E-001;-6.441927689593285E-005;2.663617255166173E-003;-1.756257261149585E-003;
2.412500000000000E+009;1.781026571989059E-001;-2.442420693114400E-003;2.596234669908881E-003;-2.110692439600825E-003;
2.412666666666667E+009;1.782072037458420E-001;-5.365319550037384E-003;2.474723383784294E-003;-2.026185393333435E-003;
2.412833333333334E+009;1.788888275623322E-001;-8.048461750149727E-003;2.319650724530220E-003;-2.211153740063310E-003;
2.413000000000000E+009;1.794017255306244E-001;-1.064756233245134E-002;2.164992038160563E-003;-2.314118202775717E-003;
2.413166666666667E+009;1.802238374948502E-001;-1.307291444391012E-002;1.977271866053343E-003;-2.414364134892821E-003;
2.413333333333334E+009;1.810621619224548E-001;-1.583672501146793E-002;1.862657372839749E-003;-2.549968659877777E-003;
2.413500000000000E+009;1.818946152925491E-001;-1.848363131284714E-002;1.574495690874755E-003;-2.580273896455765E-003;
2.413666666666667E+009;1.830401569604874E-001;-2.093494497239590E-002;1.455059857107699E-003;-2.545601222664118E-003;
2.413833333333334E+009;1.840966045856476E-001;-2.316706255078316E-002;1.251741428859532E-003;-2.652354305610061E-003;
2.414000000000000E+009;1.852166950702667E-001;-2.555985376238823E-002;1.170089934021235E-003;-2.582146087661386E-003;
2.414166666666667E+009;1.867853254079819E-001;-2.763079665601254E-002;1.158907776698470E-003;-2.451907144859433E-003;
2.414333333333334E+009;1.878449022769928E-001;-2.974226512014866E-002;1.059822039678693E-003;-2.396196126937866E-003;
2.414500000000000E+009;1.892272233963013E-001;-3.159480541944504E-002;8.764969534240663E-004;-2.526087453588843E-003;
2.414666666666667E+009;1.905403584241867E-001;-3.332751989364624E-002;6.950151873752475E-004;-2.488701371476054E-003;
2.414833333333334E+009;1.918736994266510E-001;-3.491447120904923E-002;8.034833590500057E-004;-2.429329091683030E-003;
2.415000000000000E+009;1.931475251913071E-001;-3.659505769610405E-002;6.931781535968185E-004;-2.490294165909290E-003;
2.415166666666667E+009;1.946820467710495E-001;-3.786450996994972E-002;7.386434590443969E-004;-2.443020930513740E-003;
2.415333333333334E+009;1.960678249597549E-001;-3.911283612251282E-002;4.427935637068003E-004;-2.604954876005650E-003;
2.415500000000000E+009;1.974077373743057E-001;-3.998325392603874E-002;5.031826440244913E-004;-2.459873212501407E-003;
2.415666666666667E+009;1.986557394266129E-001;-4.108330234885216E-002;3.986014926340431E-004;-2.571698743849993E-003;
2.415833333333334E+009;1.998216360807419E-001;-4.163409397006035E-002;2.056938537862152E-004;-2.539130859076977E-003;
2.416000000000000E+009;2.009223103523254E-001;-4.241251572966576E-002;2.166813646908850E-004;-2.405463485047221E-003;
2.416166666666667E+009;2.019139975309372E-001;-4.300295189023018E-002;1.555748349346686E-005;-2.470100531354547E-003;
2.416333333333334E+009;2.028469294309616E-001;-4.330321028828621E-002;-1.038115806295537E-004;-2.427486469969153E-003;
2.416500000000000E+009;2.035508155822754E-001;-4.363048821687698E-002;-2.137737901648507E-004;-2.360519720241427E-003;
2.416666666666667E+009;2.042593955993652E-001;-4.400559142231941E-002;-3.188636037521064E-004;-2.281828317791224E-003;
2.416833333333334E+009;2.046404778957367E-001;-4.393102601170540E-002;-3.451181109994650E-004;-2.071461174637079E-003;
2.417000000000000E+009;2.050739973783493E-001;-4.403287172317505E-002;-3.750823670998216E-004;-2.062784973531961E-003;
2.417166666666667E+009;2.050863653421402E-001;-4.371149837970734E-002;-4.247347242198885E-004;-1.886194339022040E-003;
2.417333333333334E+009;2.051109373569489E-001;-4.343777894973755E-002;-3.023582685273141E-004;-1.847163075581193E-003;
2.417500000000000E+009;2.051825225353241E-001;-4.335512965917587E-002;-2.519096888136119E-004;-1.815662137232721E-003;
2.417666666666667E+009;2.048601508140564E-001;-4.291561245918274E-002;-3.454304824117571E-004;-1.780202495865524E-003;
2.417833333333334E+009;2.047218084335327E-001;-4.249230399727821E-002;-3.157584578730166E-004;-1.718263491056860E-003;
2.418000000000000E+009;2.041279822587967E-001;-4.197498410940170E-002;-3.314030182082206E-004;-1.834528171457350E-003;
2.418166666666667E+009;2.034571468830109E-001;-4.181603714823723E-002;-3.413516387809068E-004;-1.631441526114941E-003;
2.418333333333334E+009;2.028149813413620E-001;-4.125314578413963E-002;-1.636312226764858E-004;-1.754387747496367E-003;
2.418500000000000E+009;2.018452286720276E-001;-4.110193252563477E-002;-1.255521638086066E-004;-1.659161411225796E-003;
2.418666666666667E+009;2.011144906282425E-001;-4.060949757695198E-002;-1.204080399475060E-004;-1.923982519656420E-003;
2.418833333333334E+009;1.999153941869736E-001;-4.047676920890808E-002;-1.355324493488297E-004;-1.952517079189420E-003;
2.419000000000000E+009;1.986776441335678E-001;-4.045880958437920E-002;-1.575766073074192E-004;-2.080777892842889E-003;
2.419166666666667E+009;1.974023431539536E-001;-4.036966338753700E-002;-2.032794291153550E-004;-2.183897886425257E-003;
2.419333333333334E+009;1.959561556577683E-001;-4.056805372238159E-002;-2.403404942015186E-004;-2.250185236334801E-003;
2.419500000000000E+009;1.944691687822342E-001;-4.069098830223084E-002;-3.390091587789357E-004;-2.199204172939062E-003;
2.419666666666667E+009;1.928690075874329E-001;-4.114528745412827E-002;-5.166176124475896E-004;-2.242923714220524E-003;
2.419833333333334E+009;1.911166161298752E-001;-4.143748432397842E-002;-4.905473906546831E-004;-2.357782796025276E-003;
2.420000000000000E+009;1.893200725317001E-001;-4.212160781025887E-002;-6.702046375721693E-004;-2.376163145527244E-003;
2.420166666666667E+009;1.876501888036728E-001;-4.278928413987160E-002;-5.725714727304876E-004;-2.571866614744067E-003;
2.420333333333334E+009;1.858395040035248E-001;-4.386012256145477E-002;-7.894188165664673E-004;-2.414135960862041E-003;
2.420500000000000E+009;1.839198470115662E-001;-4.495780542492867E-002;-8.582531008869410E-004;-2.317962935194373E-003;
2.420666666666667E+009;1.820610016584396E-001;-4.601142928004265E-002;-1.098014647141099E-003;-2.383608603850007E-003;
2.420833333333334E+009;1.801361441612244E-001;-4.737333580851555E-002;-9.825592860579491E-004;-2.300312975421548E-003;
2.421000000000000E+009;1.783806085586548E-001;-4.885958880186081E-002;-1.134854275733233E-003;-2.351674949750304E-003;
2.421166666666667E+009;1.766316145658493E-001;-5.037712305784226E-002;-1.296416856348515E-003;-2.280530054122210E-003;
2.421333333333334E+009;1.749204099178314E-001;-5.198209732770920E-002;-1.279240939766169E-003;-2.279600361362100E-003;
2.421500000000000E+009;1.731491088867188E-001;-5.377924814820290E-002;-1.328396843746305E-003;-2.259687054902315E-003;
2.421666666666667E+009;1.716176420450211E-001;-5.583509802818298E-002;-1.385500305332243E-003;-2.184363082051277E-003;
2.421833333333334E+009;1.701646745204926E-001;-5.767460912466049E-002;-1.421879976987839E-003;-2.198177855461836E-003;
2.422000000000000E+009;1.687770634889603E-001;-5.976372584700584E-002;-1.671393401920795E-003;-2.208016579970717E-003;
2.422166666666667E+009;1.676806360483170E-001;-6.185156852006912E-002;-1.463100430555642E-003;-2.191264182329178E-003;
2.422333333333334E+009;1.664037108421326E-001;-6.406198441982269E-002;-1.732276985421777E-003;-2.207727869972587E-003;
2.422500000000000E+009;1.653295010328293E-001;-6.615421921014786E-002;-1.818868448026478E-003;-2.329510403797030E-003;
2.422666666666667E+009;1.643493026494980E-001;-6.846819072961807E-002;-2.097098622471094E-003;-2.193345455452800E-003;
2.422833333333334E+009;1.639048010110855E-001;-7.076860219240189E-002;-2.066605258733034E-003;-2.142671961337328E-003;
2.423000000000000E+009;1.629891246557236E-001;-7.312958687543869E-002;-2.095281379297376E-003;-2.094737719744444E-003;
2.423166666666667E+009;1.626533418893814E-001;-7.534470409154892E-002;-2.244187286123633E-003;-2.170379040762782E-003;
2.423333333333334E+009;1.622391492128372E-001;-7.764118909835815E-002;-2.541805617511272E-003;-2.098674187436700E-003;
2.423500000000000E+009;1.619074642658234E-001;-7.982527464628220E-002;-2.615736797451973E-003;-2.072250936180353E-003;
2.423666666666667E+009;1.619385629892349E-001;-8.191142976284027E-002;-2.634629141539335E-003;-1.979572232812643E-003;
2.423833333333334E+009;1.617476493120194E-001;-8.392751216888428E-002;-2.817228436470032E-003;-1.938172033987939E-003;
2.424000000000000E+009;1.619542241096497E-001;-8.609126508235931E-002;-3.047249978408217E-003;-1.907572732307017E-003;
2.424166666666667E+009;1.619925051927567E-001;-8.798041939735413E-002;-3.037160495296121E-003;-1.751627074554563E-003;
2.424333333333334E+009;1.622249931097031E-001;-8.974710851907730E-002;-3.387966658920050E-003;-1.631297753192484E-003;
2.424500000000000E+009;1.625422984361649E-001;-9.184262901544571E-002;-3.487032838165760E-003;-1.515568583272398E-003;
2.424666666666667E+009;1.630231589078903E-001;-9.335540980100632E-002;-3.579019801691175E-003;-1.225136802531779E-003;
2.424833333333334E+009;1.637271940708160E-001;-9.513080120086670E-002;-3.533568698912859E-003;-1.187399146147072E-003;
2.425000000000000E+009;1.642094403505325E-001;-9.671580046415329E-002;-3.690486075356603E-003;-8.337214239872992E-004;
2.425166666666667E+009;1.646764427423477E-001;-9.795147925615311E-002;-3.790917573496699E-003;-6.535526481457055E-004;
2.425333333333334E+009;1.651434004306793E-001;-9.923576563596726E-002;-3.876705188304186E-003;-5.582562298513949E-004;
2.425500000000000E+009;1.658504605293274E-001;-1.003638952970505E-001;-3.926360979676247E-003;-2.146469778381288E-004;
2.425666666666667E+009;1.664864271879196E-001;-1.011658683419228E-001;-3.969225101172924E-003;-1.302147720707580E-004;
2.425833333333334E+009;1.671658456325531E-001;-1.022541522979736E-001;-3.822339931502938E-003;1.548036234453321E-004;
2.426000000000000E+009;1.677160859107971E-001;-1.028109565377235E-001;-3.794337389990687E-003;3.045157936867327E-004;
2.426166666666667E+009;1.684045642614365E-001;-1.034850329160690E-001;-3.698007669299841E-003;3.992062411271036E-004;
2.426333333333334E+009;1.688568741083145E-001;-1.041242554783821E-001;-3.662230679765344E-003;7.038475596345961E-004;
2.426500000000000E+009;1.695473045110703E-001;-1.043017283082008E-001;-3.641057992354035E-003;7.273884257301688E-004;
2.426666666666667E+009;1.700900048017502E-001;-1.047807931900024E-001;-3.421605564653873E-003;9.676915942691267E-004;
2.426833333333334E+009;1.707036644220352E-001;-1.050857007503510E-001;-3.480033250525594E-003;1.015052781440318E-003;
2.427000000000000E+009;1.710040569305420E-001;-1.052428185939789E-001;-3.371235448867083E-003;1.133920275606215E-003;
2.427166666666667E+009;1.713527292013168E-001;-1.053452789783478E-001;-3.266501706093550E-003;1.498196390457451E-003;
2.427333333333334E+009;1.715649813413620E-001;-1.055326387286186E-001;-3.309840336441994E-003;1.481539220549166E-003;
2.427500000000000E+009;1.715987026691437E-001;-1.055608242750168E-001;-3.173944307491183E-003;1.548847882077098E-003;
2.427666666666667E+009;1.717214286327362E-001;-1.056364253163338E-001;-2.943891566246748E-003;1.670453464612365E-003;
