# Version 1.00
#
freq[Hz];re:Trc1_S11;im:Trc1_S11;re:Trc2_S21;im:Trc2_S21;
2.400000000000000E+009;1.570938825607300E-001;1.122413203120232E-001;-1.304430654272437E-003;1.926287077367306E-003;
2.400166666666667E+009;1.562919616699219E-001;1.099503040313721E-001;-1.057186047546566E-003;2.235166495665908E-003;
2.400333333333334E+009;1.560421139001846E-001;1.076177880167961E-001;-8.938584360294044E-004;2.103631151840091E-003;
2.400500000000000E+009;1.558768600225449E-001;1.050792634487152E-001;-6.944308988749981E-004;2.124800579622388E-003;
2.400666666666667E+009;1.555359959602356E-001;1.026276424527168E-001;-5.976297543384135E-004;2.286318689584732E-003;
2.400833333333334E+009;1.551892012357712E-001;9.975817054510117E-002;-2.912508789449930E-004;2.210524398833513E-003;
2.401000000000000E+009;1.550391465425491E-001;9.670795500278473E-002;-2.631689712870866E-004;2.137659816071391E-003;
2.401166666666667E+009;1.546604931354523E-001;9.393689036369324E-002;8.251791587099433E-005;2.141543664038181E-003;
2.401333333333334E+009;1.548724174499512E-001;9.105183929204941E-002;3.172259312123060E-005;2.024400979280472E-003;
2.401500000000000E+009;1.550471484661102E-001;8.798617869615555E-002;4.038583574583754E-005;1.897609326988459E-003;
2.401666666666667E+009;1.551874130964279E-001;8.472590148448944E-002;-1.744588007568382E-005;1.965696690604091E-003;
2.401833333333334E+009;1.553157120943070E-001;8.198395371437073E-002;2.462989650666714E-004;1.815035473555327E-003;
2.402000000000000E+009;1.558985263109207E-001;7.891578972339630E-002;1.196755620185286E-004;1.605438301339746E-003;
2.402166666666667E+009;1.565155088901520E-001;7.604531943798065E-002;-4.597509814630030E-006;1.625035307370126E-003;
2.402333333333334E+009;1.572565734386444E-001;7.313039153814316E-002;2.890417235903442E-004;1.545869163237512E-003;
2.402500000000000E+009;1.583244353532791E-001;7.018360495567322E-002;3.204764288966544E-005;1.718445681035519E-003;
2.402666666666667E+009;1.594233214855194E-001;6.749542802572250E-002;1.315478730248287E-004;1.628784695640206E-003;
2.402833333333334E+009;1.606206148862839E-001;6.477429717779160E-002;1.459293562220410E-004;1.530108042061329E-003;
2.403000000000000E+009;1.616571843624115E-001;6.192103400826454E-002;9.998640052799601E-006;1.473872223868966E-003;
2.403166666666667E+009;1.635561436414719E-001;5.950241535902023E-002;2.901166453739279E-006;1.708655734546483E-003;
2.403333333333334E+009;1.649485230445862E-001;5.668594688177109E-002;1.073714083759114E-004;1.637174515053630E-003;
2.403500000000000E+009;1.666113734245300E-001;5.441278219223023E-002;-2.775074972305447E-004;1.708828029222786E-003;
2.403666666666667E+009;1.684323102235794E-001;5.205995589494705E-002;-1.630530023248866E-004;2.013814635574818E-003;
2.403833333333334E+009;1.703233271837235E-001;5.001937970519066E-002;-1.339655282208696E-004;1.979764783754945E-003;
2.404000000000000E+009;1.718030869960785E-001;4.779543727636337E-002;2.636007411638275E-005;2.184761688113213E-003;
2.404166666666667E+009;1.737023890018463E-001;4.593691229820252E-002;2.032019110629335E-004;2.292031422257423E-003;
2.404333333333334E+009;1.755690723657608E-001;4.394497349858284E-002;3.721647954080254E-004;2.498381072655320E-003;
2.404500000000000E+009;1.774796992540360E-001;4.223912954330444E-002;4.169566091150045E-004;2.473030239343643E-003;
2.404666666666667E+009;1.794331967830658E-001;4.106360673904419E-002;6.066841888241470E-004;2.485046163201332E-003;
2.404833333333334E+009;1.811943352222443E-001;3.965954855084419E-002;7.226645830087364E-004;2.621394814923406E-003;
2.405000000000000E+009;1.828340291976929E-001;3.880324959754944E-002;1.122839516028762E-003;2.553914673626423E-003;
2.405166666666667E+009;1.846437454223633E-001;3.785399720072746E-002;1.296578906476498E-003;2.378352917730808E-003;
2.405333333333334E+009;1.862309575080872E-001;3.737166523933411E-002;1.383087714202702E-003;2.440236276015639E-003;
2.405500000000000E+009;1.879407316446304E-001;3.667812794446945E-002;1.624635537154973E-003;2.232948318123817E-003;
2.405666666666667E+009;1.896458566188812E-001;3.618034347891808E-002;1.694541424512863E-003;2.138144569471479E-003;
2.405833333333334E+009;1.912070065736771E-001;3.584781289100647E-002;1.876495080068708E-003;2.107433974742889E-003;
2.406000000000000E+009;1.924589574337006E-001;3.568536043167114E-002;2.010490745306015E-003;1.882181852124631E-003;
2.406166666666667E+009;1.937599480152130E-001;3.542065247893333E-002;2.019737614318728E-003;1.655905391089618E-003;
2.406333333333334E+009;1.951013952493668E-001;3.559522703289986E-002;2.219626912847161E-003;1.506997505202889E-003;
2.406500000000000E+009;1.960957050323486E-001;3.574426844716072E-002;2.209126017987728E-003;1.533486414700747E-003;
2.406666666666667E+009;1.969935595989227E-001;3.592595085501671E-002;2.194196218624711E-003;1.378597225993872E-003;
2.406833333333334E+009;1.978515684604645E-001;3.590559586882591E-002;2.263006055727601E-003;1.279091811738908E-003;
2.407000000000000E+009;1.984658986330032E-001;3.640316054224968E-002;2.188717480748892E-003;1.142888213507831E-003;
2.407166666666667E+009;1.990873962640762E-001;3.651078045368195E-002;2.152809174731374E-003;1.136069186031818E-003;
2.407333333333334E+009;1.994059085845947E-001;3.699231147766113E-002;2.159891650080681E-003;9.322504629381001E-004;
2.407500000000000E+009;1.994918435811997E-001;3.746022284030914E-002;2.043760148808360E-003;9.431187063455582E-004;
2.407666666666667E+009;1.998397260904312E-001;3.761523216962814E-002;2.335606375709176E-003;9.335124632343650E-004;
2.407833333333334E+009;1.995537430047989E-001;3.787059336900711E-002;2.210297156125307E-003;7.413292187266052E-004;
2.408000000000000E+009;1.996032595634460E-001;3.791677579283714E-002;2.180473413318396E-003;8.074119105003774E-004;
2.408166666666667E+009;1.991910785436630E-001;3.806868940591812E-002;2.195860957726836E-003;6.142507772892714E-004;
2.408333333333334E+009;1.987638026475906E-001;3.789579123258591E-002;2.268211916089058E-003;6.651029107160866E-004;
2.408500000000000E+009;1.981174200773239E-001;3.808349743485451E-002;2.328741829842329E-003;5.705362418666482E-004;
2.408666666666667E+009;1.974758952856064E-001;3.783980756998062E-002;2.281958470121026E-003;6.744303973391652E-004;
2.408833333333334E+009;1.968513727188110E-001;3.762565925717354E-002;2.270776312798262E-003;4.969691508449614E-004;
2.409000000000000E+009;1.957712769508362E-001;3.695235028862953E-002;2.317851409316063E-003;3.578233008738607E-004;
2.409166666666667E+009;1.948225647211075E-001;3.646560385823250E-002;2.235422609373927E-003;4.092489252798259E-004;
2.409333333333334E+009;1.938377767801285E-001;3.567649796605110E-002;2.322796499356628E-003;3.301845863461494E-004;
2.409500000000000E+009;1.924624890089035E-001;3.484205529093742E-002;2.521377988159657E-003;3.482301835902035E-004;
2.409666666666667E+009;1.914613544940949E-001;3.372699022293091E-002;2.548358868807554E-003;3.243905957788229E-004;
2.409833333333334E+009;1.901694387197495E-001;3.247606381773949E-002;2.403172664344311E-003;2.069845068035647E-004;
2.410000000000000E+009;1.890704631805420E-001;3.117159754037857E-002;2.450596075505018E-003;1.943122770171613E-004;
2.410166666666667E+009;1.876962333917618E-001;2.948378026485443E-002;2.632749499753118E-003;1.816611911635846E-004;
2.410333333333334E+009;1.864407956600189E-001;2.804454788565636E-002;2.769216895103455E-003;-4.458507100935094E-005;
2.410500000000000E+009;1.851281374692917E-001;2.616411074995995E-002;2.723409328609705E-003;5.649808940688672E-007;
2.410666666666667E+009;1.839091032743454E-001;2.405497245490551E-002;2.857972634956241E-003;-6.770531035726890E-005;
2.410833333333334E+009;1.829482316970825E-001;2.200489491224289E-002;3.007277380675077E-003;-1.673099031904712E-004;
2.411000000000000E+009;1.818609386682510E-001;1.997015625238419E-002;3.073506290093064E-003;-3.046451020054519E-004;
2.411166666666667E+009;1.808833330869675E-001;1.783148385584354E-002;3.087254473939538E-003;-5.166722694411874E-004;
2.411333333333334E+009;1.800952404737473E-001;1.520827785134316E-002;3.140969667583704E-003;-5.659454036504030E-004;
2.411500000000000E+009;1.792963445186615E-001;1.266628410667181E-002;3.188513917848468E-003;-8.942520944401622E-004;
2.411666666666667E+009;1.788412183523178E-001;1.045441534370184E-002;2.952222945168614E-003;-9.776944061741233E-004;
2.411833333333334E+009;1.781593263149262E-001;7.903274148702622E-003;3.134300699457526E-003;-1.374987768940628E-003;
2.412000000000000E+009;1.782534718513489E-001;5.253366194665432E-003;3.138231346383691E-003;-1.578366151079536E-003;
2.412166666666667E+009;1.777955442667007E-001;2.638153964653611E-003;2.937683835625649E-003;-1.680744113400579E-003;
2.412333333333334E+009;1.778077334165573E-001;1.668808836257085E-004;2.843854017555714E-003;-2.019074745476246E-003;
2.412500000000000E+009;1.781629770994186E-001;-2.557195024564862E-003;2.729706931859255E-003;-2.128322375938296E-003;
2.412666666666667E+009;1.783422529697418E-001;-5.286369938403368E-003;2.471470274031162E-003;-2.087209839373827E-003;
2.412833333333334E+009;1.788816452026367E-001;-8.004238829016686E-003;2.384688938036561E-003;-2.243583789095283E-003;
2.413000000000000E+009;1.792429685592651E-001;-1.054800953716040E-002;2.146756742149591E-003;-2.464702352881432E-003;
2.413166666666667E+009;1.801322996616364E-001;-1.314852014183998E-002;2.069957787171006E-003;-2.517117420211434E-003;
2.413333333333334E+009;1.810184270143509E-001;-1.582538522779942E-002;1.709218835458159E-003;-2.539349487051368E-003;
2.413500000000000E+009;1.819497942924500E-001;-1.831613481044769E-002;1.655319356359541E-003;-2.523071831092238E-003;
2.413666666666667E+009;1.830179244279862E-001;-2.080591768026352E-002;1.554844202473760E-003;-2.767110010609031E-003;
2.413833333333334E+009;1.840108484029770E-001;-2.318937331438065E-002;1.248115207999945E-003;-2.714456757530570E-003;
2.414000000000000E+009;1.851915419101715E-001;-2.552710473537445E-002;1.110701472498477E-003;-2.567534102126956E-003;
2.414166666666667E+009;1.865026205778122E-001;-2.749716304242611E-002;9.685308323241770E-004;-2.549285534769297E-003;
2.414333333333334E+009;1.876760274171829E-001;-2.979301661252976E-002;8.820989169180393E-004;-2.632892923429608E-003;
2.414500000000000E+009;1.889199912548065E-001;-3.147148713469505E-002;8.273501880466938E-004;-2.452321117743850E-003;
2.414666666666667E+009;1.903485059738159E-001;-3.325247392058373E-002;8.294208091683686E-004;-2.387864748016000E-003;
2.414833333333334E+009;1.916379034519196E-001;-3.484275937080383E-002;6.478278664872050E-004;-2.594269579276443E-003;
2.415000000000000E+009;1.930247098207474E-001;-3.660172969102860E-002;6.760342512279749E-004;-2.538552740588784E-003;
2.415166666666667E+009;1.944402158260346E-001;-3.774489834904671E-002;4.715772520285100E-004;-2.611154690384865E-003;
2.415333333333334E+009;1.957248002290726E-001;-3.896804526448250E-002;3.858928685076535E-004;-2.542628208175302E-003;
2.415500000000000E+009;1.972195804119110E-001;-3.986744210124016E-002;2.634578559082001E-004;-2.576223108917475E-003;
2.415666666666667E+009;1.985307186841965E-001;-4.089710861444473E-002;2.426509308861569E-004;-2.444061217829585E-003;
2.415833333333334E+009;1.996124982833862E-001;-4.153978079557419E-002;1.510831352788955E-004;-2.320580417290330E-003;
2.416000000000000E+009;2.007053047418594E-001;-4.236820340156555E-002;9.615781164029613E-005;-2.491553546860814E-003;
2.416166666666667E+009;2.017813473939896E-001;-4.294786974787712E-002;-8.977912511909381E-005;-2.468683524057269E-003;
2.416333333333334E+009;2.026610076427460E-001;-4.330878332257271E-002;-2.395633782725781E-004;-2.304793568328023E-003;
2.416500000000000E+009;2.034735977649689E-001;-4.355939850211144E-002;-3.061383322346956E-004;-2.239009365439415E-003;
2.416666666666667E+009;2.041328996419907E-001;-4.387225955724716E-002;-2.509415498934686E-004;-2.233941573649645E-003;
2.416833333333334E+009;2.044948339462280E-001;-4.380825161933899E-002;-3.643777454271913E-004;-2.018803497776389E-003;
2.417000000000000E+009;2.049810439348221E-001;-4.391571506857872E-002;-2.476761001162231E-004;-2.110447967424989E-003;
2.417166666666667E+009;2.049925923347473E-001;-4.367852583527565E-002;-5.348189151845872E-004;-2.022608416154981E-003;
2.417333333333334E+009;2.050190567970276E-001;-4.335899651050568E-002;-4.022970970254391E-004;-1.987861935049295E-003;
2.417500000000000E+009;2.050225436687470E-001;-4.324839636683464E-002;-4.670381313189864E-004;-1.970868557691574E-003;
2.417666666666667E+009;2.046730369329453E-001;-4.272961243987083E-002;-3.912859829142690E-004;-1.934728352352977E-003;
2.417833333333334E+009;2.044731527566910E-001;-4.237687215209007E-002;-2.059323596768081E-004;-1.888772356323898E-003;
2.418000000000000E+009;2.041210383176804E-001;-4.185656830668449E-002;-2.351032744627446E-004;-1.730013522319496E-003;
2.418166666666667E+009;2.034714221954346E-001;-4.153744131326675E-002;-3.150074044242501E-004;-1.709499396383762E-003;
2.418333333333334E+009;2.027351111173630E-001;-4.118512943387032E-002;-3.368510224390775E-004;-1.628671772778034E-003;
2.418500000000000E+009;2.018287330865860E-001;-4.090487957000732E-002;-1.570952299516648E-004;-1.854337402619422E-003;
2.418666666666667E+009;2.010914683341980E-001;-4.048780724406242E-002;-1.910750725073740E-004;-1.988394651561976E-003;
2.418833333333334E+009;1.998487710952759E-001;-4.041479155421257E-002;-1.479134225519374E-004;-1.994174439460039E-003;
2.419000000000000E+009;1.985860019922257E-001;-4.019068926572800E-002;-1.444375229766592E-004;-2.122284844517708E-003;
2.419166666666667E+009;1.973915249109268E-001;-4.031733423471451E-002;-1.880083291325718E-004;-2.086153021082282E-003;
2.419333333333334E+009;1.958933174610138E-001;-4.048738628625870E-002;-3.282433608546853E-004;-2.246258314698935E-003;
2.419500000000000E+009;1.944859772920609E-001;-4.062266275286675E-002;-3.923804615624249E-004;-2.236974425613880E-003;
2.419666666666667E+009;1.927817165851593E-001;-4.103370383381844E-002;-5.288223037496209E-004;-2.395886695012450E-003;
2.419833333333334E+009;1.909011602401733E-001;-4.142985865473747E-002;-6.798356771469116E-004;-2.354576252400875E-003;
2.420000000000000E+009;1.893071681261063E-001;-4.205261170864105E-002;-5.811018636450172E-004;-2.345830667763948E-003;
2.420166666666667E+009;1.875602453947067E-001;-4.290123283863068E-002;-8.038416854105890E-004;-2.411907073110342E-003;
2.420333333333334E+009;1.858128607273102E-001;-4.397961497306824E-002;-8.352609002031386E-004;-2.361862454563379E-003;
2.420500000000000E+009;1.839542984962463E-001;-4.493347182869911E-002;-9.575597359798849E-004;-2.292724093422294E-003;
2.420666666666667E+009;1.820008903741837E-001;-4.583228006958962E-002;-1.068319543264806E-003;-2.429157262668014E-003;
2.420833333333334E+009;1.801030486822128E-001;-4.725197330117226E-002;-1.154566649347544E-003;-2.348119625821710E-003;
2.421000000000000E+009;1.783607006072998E-001;-4.877346754074097E-002;-1.150588737800717E-003;-2.347164321690798E-003;
2.421166666666667E+009;1.767107248306274E-001;-5.031856149435043E-002;-1.222251565195620E-003;-2.244728384539485E-003;
2.421333333333334E+009;1.747649461030960E-001;-5.196662992238998E-002;-1.389998244121671E-003;-2.224693540483713E-003;
2.421500000000000E+009;1.731059551239014E-001;-5.387361720204353E-002;-1.601826283149421E-003;-2.284358954057097E-003;
2.421666666666667E+009;1.716375350952148E-001;-5.563141405582428E-002;-1.457565114833415E-003;-2.274689264595509E-003;
2.421833333333334E+009;1.702780127525330E-001;-5.771121755242348E-002;-1.444334513507783E-003;-2.242036163806915E-003;
2.422000000000000E+009;1.688694655895233E-001;-5.985681712627411E-002;-1.517779543064535E-003;-2.265984192490578E-003;
2.422166666666667E+009;1.676395386457443E-001;-6.191789731383324E-002;-1.489888876676559E-003;-2.138716867193580E-003;
2.422333333333334E+009;1.664662361145020E-001;-6.414724886417389E-002;-1.721350359730423E-003;-2.160806674510241E-003;
2.422500000000000E+009;1.652786880731583E-001;-6.618697196245194E-002;-1.868261373601854E-003;-2.137818606570363E-003;
2.422666666666667E+009;1.645661294460297E-001;-6.837718933820725E-002;-2.029167488217354E-003;-2.100584562867880E-003;
2.422833333333334E+009;1.636729240417481E-001;-7.066438347101212E-002;-2.092964248731732E-003;-2.144083846360445E-003;
2.423000000000000E+009;1.630690991878510E-001;-7.295834273099899E-002;-2.261082408949733E-003;-2.249281853437424E-003;
2.423166666666667E+009;1.624368578195572E-001;-7.515329122543335E-002;-2.274317666888237E-003;-2.043805550783873E-003;
2.423333333333334E+009;1.621304303407669E-001;-7.762171328067780E-002;-2.513770246878266E-003;-1.998675521463156E-003;
2.423500000000000E+009;1.618643105030060E-001;-7.962538301944733E-002;-2.574507379904389E-003;-1.989505020901561E-003;
2.423666666666667E+009;1.617770344018936E-001;-8.166935294866562E-002;-2.773278392851353E-003;-2.003520494326949E-003;
2.423833333333334E+009;1.617636382579804E-001;-8.389496803283691E-002;-2.789818448945880E-003;-2.035717014223337E-003;
2.424000000000000E+009;1.618750840425491E-001;-8.593320846557617E-002;-2.843837719410658E-003;-1.760459388606250E-003;
2.424166666666667E+009;1.620285958051682E-001;-8.800251036882401E-002;-3.022665623575449E-003;-1.477304496802390E-003;
2.424333333333334E+009;1.622665375471115E-001;-8.990640938282013E-002;-3.251434070989490E-003;-1.473718439228833E-003;
2.424500000000000E+009;1.626205742359161E-001;-9.183920174837112E-002;-3.356319619342685E-003;-1.421302091330290E-003;
2.424666666666667E+009;1.628942638635635E-001;-9.347378462553024E-002;-3.494500881060958E-003;-1.149713178165257E-003;
2.424833333333334E+009;1.635991930961609E-001;-9.504441171884537E-002;-3.534978954121471E-003;-9.464878239668906E-004;
2.425000000000000E+009;1.641523987054825E-001;-9.649361670017242E-002;-3.759646788239479E-003;-7.315992261283100E-004;
2.425166666666667E+009;1.646666526794434E-001;-9.792678803205490E-002;-3.652892773970962E-003;-4.923075321130455E-004;
2.425333333333334E+009;1.652118265628815E-001;-9.899871796369553E-002;-3.842130536213517E-003;-2.671010443009436E-004;
2.425500000000000E+009;1.659340560436249E-001;-1.002359911799431E-001;-3.782542655244470E-003;-2.738963812589645E-004;
2.425666666666667E+009;1.665207594633102E-001;-1.012254729866982E-001;-3.545692889019847E-003;4.342047031968832E-005;
2.425833333333334E+009;1.670954972505570E-001;-1.022056341171265E-001;-3.775759367272258E-003;9.931468230206519E-005;
2.426000000000000E+009;1.678326576948166E-001;-1.028215438127518E-001;-3.617697628214955E-003;2.214365376858041E-004;
2.426166666666667E+009;1.684617102146149E-001;-1.033681780099869E-001;-3.750188741832972E-003;4.450393607839942E-004;
2.426333333333334E+009;1.689072251319885E-001;-1.039824038743973E-001;-3.658183850347996E-003;7.533191237598658E-004;
2.426500000000000E+009;1.695785224437714E-001;-1.043237298727036E-001;-3.618519054725766E-003;8.851393358781934E-004;
2.426666666666667E+009;1.700967252254486E-001;-1.048296317458153E-001;-3.556437091901898E-003;1.083426643162966E-003;
2.426833333333334E+009;1.707047075033188E-001;-1.050721704959869E-001;-3.452840493991971E-003;1.199997612275183E-003;
2.427000000000000E+009;1.710669398307800E-001;-1.052205413579941E-001;-3.498609643429518E-003;1.402580062858760E-003;
2.427166666666667E+009;1.714472472667694E-001;-1.052291765809059E-001;-3.273931797593832E-003;1.370053039863706E-003;
2.427333333333334E+009;1.715874969959259E-001;-1.054928749799728E-001;-2.992071444168687E-003;1.531119691208005E-003;
2.427500000000000E+009;1.716681122779846E-001;-1.055894717574120E-001;-3.019858151674271E-003;1.727584982290864E-003;
2.427666666666667E+009;1.716593801975250E-001;-1.054750233888626E-001;-2.929784124717116E-003;1.759946229867637E-003;
