# Version 1.00
#
freq[Hz];re:Trc1_S11;im:Trc1_S11;re:Trc2_S21;im:Trc2_S21;
2.400000000000000E+009;1.581054478883743E-001;6.267671287059784E-002;-4.009479656815529E-003;-9.228952112607658E-004;
2.400166666666667E+009;1.580550819635391E-001;6.118231266736984E-002;-3.957064822316170E-003;-6.113468552939594E-004;
2.400333333333334E+009;1.579962074756622E-001;5.918357893824577E-002;-3.894682042300701E-003;-6.725637940689921E-004;
2.400500000000000E+009;1.579027026891708E-001;5.753163620829582E-002;-4.024755675345659E-003;-5.077829700894654E-004;
2.400666666666667E+009;1.577480286359787E-001;5.537474155426025E-002;-4.053208045661449E-003;-4.488182603381574E-004;
2.400833333333334E+009;1.578117161989212E-001;5.332066118717194E-002;-3.850437002256513E-003;-3.146277158521116E-004;
2.401000000000000E+009;1.580338031053543E-001;5.110293626785278E-002;-4.008627962321043E-003;-1.401564368279651E-004;
2.401166666666667E+009;1.581010222434998E-001;4.898900166153908E-002;-3.914805129170418E-003;-8.677237201482058E-005;
2.401333333333334E+009;1.581660509109497E-001;4.714084416627884E-002;-3.879493102431297E-003;1.589581370353699E-004;
2.401500000000000E+009;1.586054265499115E-001;4.483954235911369E-002;-3.847785294055939E-003;1.324080076301470E-004;
2.401666666666667E+009;1.588388830423355E-001;4.311306774616242E-002;-3.775263903662562E-003;2.920982951764017E-004;
2.401833333333334E+009;1.592543423175812E-001;4.082355648279190E-002;-3.758898703381419E-003;2.942968276329339E-004;
2.402000000000000E+009;1.595741361379623E-001;3.895287960767746E-002;-3.781725885346532E-003;5.141508881933987E-004;
2.402166666666667E+009;1.599108278751373E-001;3.669871017336845E-002;-3.827280364930630E-003;5.058640963397920E-004;
2.402333333333334E+009;1.606131792068481E-001;3.479485958814621E-002;-3.777289064601064E-003;5.532196373678744E-004;
2.402500000000000E+009;1.614195704460144E-001;3.313063830137253E-002;-3.959127236157656E-003;6.007351912558079E-004;
2.402666666666667E+009;1.620035171508789E-001;3.131301701068878E-002;-3.862918354570866E-003;8.323141373693943E-004;
2.402833333333334E+009;1.627020686864853E-001;2.978332899510860E-002;-3.801932325586677E-003;1.045644981786609E-003;
2.403000000000000E+009;1.636138260364533E-001;2.801035530865192E-002;-3.704672446474433E-003;8.860494708642364E-004;
2.403166666666667E+009;1.645589619874954E-001;2.631791494786739E-002;-3.685886738821864E-003;1.168283983133733E-003;
2.403333333333334E+009;1.653815954923630E-001;2.485348843038082E-002;-3.808506298810244E-003;1.351116225123406E-003;
2.403500000000000E+009;1.663754582405090E-001;2.344317734241486E-002;-3.680600319057703E-003;1.483993721194565E-003;
2.403666666666667E+009;1.673128604888916E-001;2.184181287884712E-002;-3.726160852238536E-003;1.467840862460434E-003;
2.403833333333334E+009;1.684051454067230E-001;2.070798352360725E-002;-3.774278098717332E-003;1.605810597538948E-003;
2.404000000000000E+009;1.692732125520706E-001;1.959193311631680E-002;-3.692963160574436E-003;1.812060363590717E-003;
2.404166666666667E+009;1.701846420764923E-001;1.843183673918247E-002;-3.512218827381730E-003;1.880675437860191E-003;
2.404333333333334E+009;1.711104661226273E-001;1.750378310680389E-002;-3.437656676396728E-003;2.139852615073323E-003;
2.404500000000000E+009;1.720968335866928E-001;1.629090867936611E-002;-3.434998216107488E-003;2.157022710889578E-003;
2.404666666666667E+009;1.729835420846939E-001;1.567380689084530E-002;-3.239399986341596E-003;2.249435754492879E-003;
2.404833333333334E+009;1.738352477550507E-001;1.482460089027882E-002;-3.164636204019189E-003;2.539151348173618E-003;
2.405000000000000E+009;1.748103052377701E-001;1.397321559488773E-002;-3.063695272430778E-003;2.672454575076699E-003;
2.405166666666667E+009;1.756787896156311E-001;1.339547522366047E-002;-2.788097131997347E-003;2.877089893445373E-003;
2.405333333333334E+009;1.764810234308243E-001;1.278721541166306E-002;-2.717022085562348E-003;2.896518679335713E-003;
2.405500000000000E+009;1.771827936172485E-001;1.244251243770123E-002;-2.717093797400594E-003;2.906880807131529E-003;
2.405666666666667E+009;1.779365092515945E-001;1.197799388319254E-002;-2.387518063187599E-003;3.083551535382867E-003;
2.405833333333334E+009;1.784695386886597E-001;1.155248191207647E-002;-2.126089297235012E-003;3.180302912369371E-003;
2.406000000000000E+009;1.790781766176224E-001;1.118411216884852E-002;-2.252335194498301E-003;3.009418724104762E-003;
2.406166666666667E+009;1.794860512018204E-001;1.077207922935486E-002;-1.971254358068109E-003;3.178203711286187E-003;
2.406333333333334E+009;1.800129860639572E-001;1.051948405802250E-002;-1.697083003818989E-003;3.361704060807824E-003;
2.406500000000000E+009;1.802845299243927E-001;1.019256655126810E-002;-1.715900609269738E-003;3.168493276461959E-003;
2.406666666666667E+009;1.803346276283264E-001;9.875695221126080E-003;-1.524764928035438E-003;3.219451289623976E-003;
2.406833333333334E+009;1.807162761688232E-001;9.652646258473396E-003;-1.462997868657112E-003;3.195618512108922E-003;
2.407000000000000E+009;1.808445155620575E-001;9.287657216191292E-003;-1.287515973672271E-003;3.348843660205603E-003;
2.407166666666667E+009;1.808787286281586E-001;9.097346104681492E-003;-1.214375603012741E-003;3.191540716215968E-003;
2.407333333333334E+009;1.805896908044815E-001;8.550204336643219E-003;-9.449967765249312E-004;3.257143311202526E-003;
2.407500000000000E+009;1.805541217327118E-001;8.242646232247353E-003;-1.036239438690245E-003;3.044283250346780E-003;
2.407666666666667E+009;1.803868710994721E-001;7.921909913420677E-003;-8.492867927998304E-004;3.129762830212712E-003;
2.407833333333334E+009;1.799607425928116E-001;7.146755233407021E-003;-6.469368818216026E-004;2.990452339872718E-003;
2.408000000000000E+009;1.797085404396057E-001;6.534124724566937E-003;-6.112272967584431E-004;3.043342614546418E-003;
2.408166666666667E+009;1.791771501302719E-001;6.170007400214672E-003;-5.056894733570516E-004;2.950063906610012E-003;
2.408333333333334E+009;1.788616627454758E-001;5.357699468731880E-003;-4.317889688536525E-004;2.983465092256665E-003;
2.408500000000000E+009;1.782197356224060E-001;4.580757580697537E-003;-5.222967592999339E-004;2.956556156277657E-003;
2.408666666666667E+009;1.775732189416885E-001;3.703528549522162E-003;-2.728271938394755E-004;2.877164166420698E-003;
2.408833333333334E+009;1.768870204687119E-001;2.623918233439326E-003;-3.036844427697361E-004;2.884213812649250E-003;
2.409000000000000E+009;1.761854887008667E-001;1.694721984677017E-003;-1.597651280462742E-004;2.913033589720726E-003;
2.409166666666667E+009;1.757570058107376E-001;5.851706373505294E-004;3.607331018429250E-005;2.816266380250454E-003;
2.409333333333334E+009;1.749357432126999E-001;-7.782080792821944E-004;1.102696569432737E-005;2.900614170357585E-003;
2.409500000000000E+009;1.742656081914902E-001;-2.096688142046332E-003;-7.641487172804773E-005;2.725708996877074E-003;
2.409666666666667E+009;1.734374761581421E-001;-3.391817212104797E-003;1.472394505981356E-004;2.649361500516534E-003;
2.409833333333334E+009;1.727689057588577E-001;-4.660886712372303E-003;2.256990992464125E-004;2.705705817788839E-003;
2.410000000000000E+009;1.721113324165344E-001;-6.240827962756157E-003;6.044998372090049E-005;2.569977892562747E-003;
2.410166666666667E+009;1.715529561042786E-001;-7.840900681912899E-003;2.051600749837235E-004;2.623872598633170E-003;
2.410333333333334E+009;1.707938462495804E-001;-9.387919679284096E-003;2.522871654946357E-004;2.579289022833109E-003;
2.410500000000000E+009;1.702882200479507E-001;-1.111707463860512E-002;3.078611625824124E-004;2.727692481130362E-003;
2.410666666666667E+009;1.696447283029556E-001;-1.283784955739975E-002;3.133011050522327E-004;2.541938330978155E-003;
2.410833333333334E+009;1.694852560758591E-001;-1.456319540739059E-002;4.808203666470945E-004;2.505284966900945E-003;
2.411000000000000E+009;1.689837723970413E-001;-1.638093963265419E-002;4.359994491096586E-004;2.477639587596059E-003;
2.411166666666667E+009;1.684612929821014E-001;-1.834102720022202E-002;7.063231314532459E-004;2.472036052495241E-003;
2.411333333333334E+009;1.683208197355270E-001;-2.030386403203011E-002;6.551623810082674E-004;2.430766588076949E-003;
2.411500000000000E+009;1.680954098701477E-001;-2.234304510056973E-002;6.775728543289006E-004;2.379078883677721E-003;
2.411666666666667E+009;1.680655777454376E-001;-2.428651973605156E-002;6.824777810834348E-004;2.409007865935564E-003;
2.411833333333334E+009;1.679563373327255E-001;-2.615182660520077E-002;6.111781694926322E-004;2.465742640197277E-003;
2.412000000000000E+009;1.681706160306931E-001;-2.813567221164703E-002;5.489969043992460E-004;2.247829223051667E-003;
2.412166666666667E+009;1.682040393352509E-001;-3.016559220850468E-002;8.477110532112420E-004;2.373749157413840E-003;
2.412333333333334E+009;1.684649884700775E-001;-3.195930644869804E-002;7.708195480518043E-004;2.256538253277540E-003;
2.412500000000000E+009;1.683449894189835E-001;-3.378304094076157E-002;9.400388225913048E-004;2.201995113864541E-003;
2.412666666666667E+009;1.689303964376450E-001;-3.619103133678436E-002;9.298509685322642E-004;2.354085445404053E-003;
2.412833333333334E+009;1.693166643381119E-001;-3.770475834608078E-002;1.053951913490892E-003;2.248608740046620E-003;
2.413000000000000E+009;1.696762293577194E-001;-3.950019180774689E-002;9.923148900270462E-004;2.248961245641112E-003;
2.413166666666667E+009;1.700150668621063E-001;-4.124205559492111E-002;1.191533752717078E-003;2.252843230962753E-003;
2.413333333333334E+009;1.704410463571549E-001;-4.306158050894737E-002;1.222861814312637E-003;2.130371751263738E-003;
2.413500000000000E+009;1.709741652011871E-001;-4.462135583162308E-002;1.305943005718291E-003;2.212554682046175E-003;
2.413666666666667E+009;1.716172099113464E-001;-4.613171145319939E-002;1.406932366080582E-003;2.194559667259455E-003;
2.413833333333334E+009;1.721823215484619E-001;-4.779023304581642E-002;1.448808703571558E-003;1.960795139893889E-003;
2.414000000000000E+009;1.724413782358170E-001;-4.933188110589981E-002;1.633889507502317E-003;2.111657755449414E-003;
2.414166666666667E+009;1.731274873018265E-001;-5.048542842268944E-002;1.587462378665805E-003;1.852739136666060E-003;
2.414333333333334E+009;1.737757921218872E-001;-5.188139900565147E-002;1.580076874233782E-003;1.870086183771491E-003;
2.414500000000000E+009;1.743886917829514E-001;-5.284439027309418E-002;1.804207102395594E-003;1.868106774054468E-003;
2.414666666666667E+009;1.748816072940826E-001;-5.390165001153946E-002;1.795190270058811E-003;1.866427715867758E-003;
2.414833333333334E+009;1.753083914518356E-001;-5.503612384200096E-002;1.987714553251863E-003;1.646930119022727E-003;
2.415000000000000E+009;1.757121831178665E-001;-5.575995892286301E-002;1.923525705933571E-003;1.501093502156436E-003;
2.415166666666667E+009;1.761912256479263E-001;-5.670832842588425E-002;2.002492081373930E-003;1.592355896718800E-003;
2.415333333333334E+009;1.766414791345596E-001;-5.741995573043823E-002;2.130950102582574E-003;1.437729923054576E-003;
2.415500000000000E+009;1.769438385963440E-001;-5.799081176519394E-002;2.182748168706894E-003;1.150798867456615E-003;
2.415666666666667E+009;1.771875768899918E-001;-5.836205556988716E-002;2.374191302806139E-003;1.135672326199710E-003;
2.415833333333334E+009;1.775020360946655E-001;-5.911495536565781E-002;2.206325531005859E-003;1.068590558134019E-003;
2.416000000000000E+009;1.775654852390289E-001;-5.941480398178101E-002;2.243736293166876E-003;1.015246612951160E-003;
2.416166666666667E+009;1.777193695306778E-001;-5.990835279226303E-002;2.323187422007322E-003;7.287326152436435E-004;
2.416333333333334E+009;1.776486635208130E-001;-6.019433587789536E-002;2.089404035359621E-003;7.342304452322424E-004;
2.416500000000000E+009;1.774988621473312E-001;-6.054762005805969E-002;2.314887009561062E-003;5.486795562319458E-004;
2.416666666666667E+009;1.773750036954880E-001;-6.066233664751053E-002;2.220075577497482E-003;5.611975793726742E-004;
2.416833333333334E+009;1.771484017372131E-001;-6.103463470935822E-002;2.219028770923615E-003;3.874404937960208E-004;
2.417000000000000E+009;1.765801310539246E-001;-6.120004132390022E-002;2.049777191132307E-003;2.896382939070463E-004;
2.417166666666667E+009;1.763175427913666E-001;-6.123501807451248E-002;2.014897996559739E-003;1.136542268795893E-004;
2.417333333333334E+009;1.757640540599823E-001;-6.150833889842033E-002;2.072208095341921E-003;2.057887177215889E-004;
2.417500000000000E+009;1.750900894403458E-001;-6.190143525600433E-002;2.021987223997712E-003;-5.285599036142230E-005;
2.417666666666667E+009;1.744233667850494E-001;-6.200074031949043E-002;1.976884203031659E-003;-8.563545270590112E-005;
2.417833333333334E+009;1.736604273319244E-001;-6.223813071846962E-002;1.827728585340083E-003;-1.421971246600151E-004;
2.418000000000000E+009;1.727000474929810E-001;-6.255377829074860E-002;1.784243504516780E-003;-1.666980388108641E-004;
2.418166666666667E+009;1.718482375144959E-001;-6.281699240207672E-002;1.672865822911263E-003;-1.292080996790901E-004;
2.418333333333334E+009;1.710000038146973E-001;-6.316158920526505E-002;1.632558298297226E-003;-3.242777602281421E-004;
2.418500000000000E+009;1.698458045721054E-001;-6.363415718078613E-002;1.523943035863340E-003;-1.934824394993484E-004;
2.418666666666667E+009;1.688160151243210E-001;-6.411410123109818E-002;1.468817354179919E-003;-3.442617016844451E-004;
2.418833333333334E+009;1.675808131694794E-001;-6.464464962482452E-002;1.371974707581103E-003;-3.869021893478930E-004;
2.419000000000000E+009;1.664152890443802E-001;-6.503634899854660E-002;1.428017974831164E-003;-4.023776855319738E-004;
2.419166666666667E+009;1.653223931789398E-001;-6.587955355644226E-002;1.398235792294145E-003;-4.348444053903222E-004;
2.419333333333334E+009;1.639644205570221E-001;-6.637066602706909E-002;1.310233841650188E-003;-2.971066569443792E-004;
2.419500000000000E+009;1.628628224134445E-001;-6.736931949853897E-002;1.163861481472850E-003;-4.183039418421686E-004;
2.419666666666667E+009;1.615674793720245E-001;-6.821914017200470E-002;1.163409906439483E-003;-2.950016641989350E-004;
2.419833333333334E+009;1.603741049766541E-001;-6.907606869935989E-002;1.175980665720999E-003;-4.590280586853623E-004;
2.420000000000000E+009;1.594237983226776E-001;-7.017473876476288E-002;1.032616128213704E-003;-1.812519622035325E-004;
2.420166666666667E+009;1.581631302833557E-001;-7.125996053218842E-002;1.214628340676427E-003;-4.326004709582776E-004;
2.420333333333334E+009;1.571181714534760E-001;-7.249467074871063E-002;9.926854399964213E-004;-1.508916611783207E-004;
2.420500000000000E+009;1.562275141477585E-001;-7.366850227117539E-002;1.043448690325022E-003;-3.298145311418921E-004;
2.420666666666667E+009;1.550649404525757E-001;-7.497423142194748E-002;9.193143923766911E-004;-2.103102451656014E-004;
2.420833333333334E+009;1.541809141635895E-001;-7.638642936944962E-002;9.194390731863678E-004;-2.510157646611333E-004;
2.421000000000000E+009;1.532912105321884E-001;-7.786557078361511E-002;1.044112024828792E-003;-2.494073414709419E-004;
2.421166666666667E+009;1.525223404169083E-001;-7.922652363777161E-002;9.150513797067106E-004;-2.426016289973632E-004;
2.421333333333334E+009;1.519762426614761E-001;-8.076693862676621E-002;9.675338515080512E-004;-2.958191907964647E-004;
2.421500000000000E+009;1.511844992637634E-001;-8.227549493312836E-002;9.464502218179405E-004;-1.995875645661727E-004;
2.421666666666667E+009;1.508077085018158E-001;-8.406186848878861E-002;8.456093491986394E-004;-2.392889582552016E-004;
2.421833333333334E+009;1.502988040447235E-001;-8.571989089250565E-002;8.862740942277014E-004;-3.449615614954382E-004;
2.422000000000000E+009;1.499532312154770E-001;-8.747721463441849E-002;7.956756162457168E-004;-2.861034590750933E-004;
2.422166666666667E+009;1.496862769126892E-001;-8.925376087427139E-002;9.113401756621897E-004;-9.770258475327864E-005;
2.422333333333334E+009;1.496177762746811E-001;-9.086015075445175E-002;8.225837955251336E-004;-3.271981840953231E-004;
2.422500000000000E+009;1.492511481046677E-001;-9.255646169185638E-002;8.489325991831720E-004;-2.291482087457553E-004;
2.422666666666667E+009;1.491758525371552E-001;-9.430330991744995E-002;8.113805088214576E-004;-2.957078395411372E-004;
2.422833333333334E+009;1.494565755128861E-001;-9.599839895963669E-002;8.792408625595272E-004;-3.659656213130802E-004;
2.423000000000000E+009;1.495027244091034E-001;-9.749786555767059E-002;7.253011572174728E-004;-2.925346780102700E-004;
2.423166666666667E+009;1.498244255781174E-001;-9.927962720394135E-002;9.694742620922625E-004;-3.890189400408417E-004;
2.423333333333334E+009;1.500934213399887E-001;-1.007551997900009E-001;9.908414212986827E-004;-3.360667906235904E-004;
2.423500000000000E+009;1.502994745969772E-001;-1.024211198091507E-001;9.189937845803797E-004;-3.440511936787516E-004;
2.423666666666667E+009;1.505260467529297E-001;-1.039468348026276E-001;9.880918078124523E-004;-4.514853935688734E-004;
2.423833333333334E+009;1.511841118335724E-001;-1.054327860474587E-001;8.216847782023251E-004;-4.307976632844657E-004;
2.424000000000000E+009;1.514605730772018E-001;-1.066677346825600E-001;7.189508178271353E-004;-4.693334631156176E-004;
2.424166666666667E+009;1.519191116094589E-001;-1.080247461795807E-001;8.975480450317264E-004;-2.181696327170357E-004;
2.424333333333334E+009;1.527155786752701E-001;-1.093040779232979E-001;9.145381627604365E-004;-3.698258078657091E-004;
2.424500000000000E+009;1.529481261968613E-001;-1.103983148932457E-001;8.065158035606146E-004;-4.132539324928075E-004;
2.424666666666667E+009;1.536826193332672E-001;-1.114004626870155E-001;6.483313627541065E-004;-2.798392088152468E-004;
2.424833333333334E+009;1.539551764726639E-001;-1.125038117170334E-001;8.593439706601203E-004;-5.703094066120684E-004;
2.425000000000000E+009;1.545346677303314E-001;-1.134857684373856E-001;7.928474224172533E-004;-4.654613439925015E-004;
2.425166666666667E+009;1.546462923288345E-001;-1.142821386456490E-001;6.830623606219888E-004;-2.865486021619290E-004;
2.425333333333334E+009;1.552166491746903E-001;-1.150010004639626E-001;7.097031339071691E-004;-3.331511979922652E-004;
2.425500000000000E+009;1.557207256555557E-001;-1.157011985778809E-001;7.373057887889445E-004;-5.086706369183958E-004;
2.425666666666667E+009;1.557906419038773E-001;-1.163378357887268E-001;7.493817247450352E-004;-6.270080339163542E-004;
2.425833333333334E+009;1.561619341373444E-001;-1.168729513883591E-001;6.638164049945772E-004;-6.380620761774480E-004;
2.426000000000000E+009;1.562984734773636E-001;-1.172948852181435E-001;6.802871939726174E-004;-5.302194622345269E-004;
2.426166666666667E+009;1.566409766674042E-001;-1.177402362227440E-001;5.317117902450264E-004;-6.574093131348491E-004;
2.426333333333334E+009;1.565868109464645E-001;-1.181577593088150E-001;5.596721312031150E-004;-4.737994458992034E-004;
2.426500000000000E+009;1.566944122314453E-001;-1.182719394564629E-001;6.752674235031009E-004;-6.277572829276323E-004;
2.426666666666667E+009;1.566189378499985E-001;-1.184465438127518E-001;4.892730503343046E-004;-5.958823021501303E-004;
2.426833333333334E+009;1.564215570688248E-001;-1.185821965336800E-001;6.335054640658200E-004;-4.587493895087391E-004;
2.427000000000000E+009;1.560891270637512E-001;-1.189506649971008E-001;5.618066643364728E-004;-4.753966932184994E-004;
2.427166666666667E+009;1.557788401842117E-001;-1.189280524849892E-001;5.306702805683017E-004;-4.666330059990287E-004;
2.427333333333334E+009;1.552165299654007E-001;-1.190509945154190E-001;6.368844769895077E-004;-4.507143748924136E-004;
2.427500000000000E+009;1.547296345233917E-001;-1.191593110561371E-001;5.263605853542686E-004;-4.037207108922303E-004;
2.427666666666667E+009;1.540030390024185E-001;-1.193267628550530E-001;4.928906564600766E-004;-4.456643364392221E-004;
2.427833333333334E+009;1.532427817583084E-001;-1.194079220294952E-001;4.768163198605180E-004;-3.516612341627479E-004;
