# Version 1.00
#
freq[Hz];re:Trc1_S11;im:Trc1_S11;re:Trc2_S21;im:Trc2_S21;
2.400000000000000E+009;1.582264900207520E-001;6.276544928550720E-002;-3.822669852524996E-003;-9.045405313372612E-004;
2.400166666666667E+009;1.580009162425995E-001;6.104853376746178E-002;-3.960577305406332E-003;-7.910683634690940E-004;
2.400333333333334E+009;1.579836010932922E-001;5.915279686450958E-002;-3.982659429311752E-003;-5.519273690879345E-004;
2.400500000000000E+009;1.577711254358292E-001;5.729489028453827E-002;-3.829386550933123E-003;-4.563200927805156E-004;
2.400666666666667E+009;1.576475203037262E-001;5.528275296092033E-002;-3.917888272553682E-003;-4.279181011952460E-004;
2.400833333333334E+009;1.578795462846756E-001;5.339536070823669E-002;-3.903558477759361E-003;-5.746605456806719E-004;
2.401000000000000E+009;1.580565273761749E-001;5.116732791066170E-002;-3.986786119639874E-003;-2.929779584519565E-004;
2.401166666666667E+009;1.581908315420151E-001;4.921975731849670E-002;-3.856517840176821E-003;-2.064629952656105E-004;
2.401333333333334E+009;1.582314670085907E-001;4.690701141953468E-002;-3.865044098347426E-003;-5.916255395277403E-005;
2.401500000000000E+009;1.586123406887054E-001;4.511127993464470E-002;-3.922037314623594E-003;-4.223600626573898E-005;
2.401666666666667E+009;1.588916331529617E-001;4.305372387170792E-002;-3.962254617363215E-003;1.205108419526368E-004;
2.401833333333334E+009;1.593069434165955E-001;4.080070555210114E-002;-3.838968696072698E-003;2.645000640768558E-004;
2.402000000000000E+009;1.596453189849854E-001;3.892356902360916E-002;-3.947222605347633E-003;3.952911065425724E-004;
2.402166666666667E+009;1.600758284330368E-001;3.673357143998146E-002;-3.746371017768979E-003;4.223584546707571E-004;
2.402333333333334E+009;1.607563346624374E-001;3.488073125481606E-002;-3.899210598319769E-003;5.131918587721884E-004;
2.402500000000000E+009;1.615209728479385E-001;3.314181789755821E-002;-3.788586240261793E-003;6.538371671922505E-004;
2.402666666666667E+009;1.621163040399551E-001;3.146310523152351E-002;-3.814575960859656E-003;8.665289497002959E-004;
2.402833333333334E+009;1.627259254455566E-001;2.968895807862282E-002;-3.739871317520738E-003;8.148003835231066E-004;
2.403000000000000E+009;1.637225896120071E-001;2.794870920479298E-002;-3.783213673159480E-003;9.852885268628597E-004;
2.403166666666667E+009;1.645862758159638E-001;2.643772773444653E-002;-3.602012991905212E-003;1.242915983311832E-003;
2.403333333333334E+009;1.654241681098938E-001;2.486529015004635E-002;-3.597471164539456E-003;1.263391110114753E-003;
2.403500000000000E+009;1.664577275514603E-001;2.352225594222546E-002;-3.589013125747442E-003;1.385643961839378E-003;
2.403666666666667E+009;1.671864837408066E-001;2.199405431747437E-002;-3.629660466685891E-003;1.420738291926682E-003;
2.403833333333334E+009;1.683354377746582E-001;2.066599950194359E-002;-3.430396318435669E-003;1.569857005961239E-003;
2.404000000000000E+009;1.691663563251495E-001;1.954051665961742E-002;-3.715116530656815E-003;1.726810121908784E-003;
2.404166666666667E+009;1.701488345861435E-001;1.846476830542088E-002;-3.580905729904771E-003;1.884974422864616E-003;
2.404333333333334E+009;1.712371259927750E-001;1.746813394129276E-002;-3.462943015620112E-003;1.934828003868461E-003;
2.404500000000000E+009;1.719878613948822E-001;1.629960723221302E-002;-3.414498642086983E-003;2.037491882219911E-003;
2.404666666666667E+009;1.730547696352005E-001;1.553677115589380E-002;-3.342429874464870E-003;2.406365470960736E-003;
2.404833333333334E+009;1.739486008882523E-001;1.472058147192001E-002;-3.144156653434038E-003;2.496495842933655E-003;
2.405000000000000E+009;1.748751550912857E-001;1.404474396258593E-002;-3.224796149879694E-003;2.582265529781580E-003;
2.405166666666667E+009;1.757567375898361E-001;1.338848192244768E-002;-2.935802796855569E-003;2.743535209447146E-003;
2.405333333333334E+009;1.765038818120956E-001;1.281548757106066E-002;-2.856116276234388E-003;2.893510973080993E-003;
2.405500000000000E+009;1.773079484701157E-001;1.226015202701092E-002;-2.690893132239580E-003;2.796109532937408E-003;
2.405666666666667E+009;1.779509633779526E-001;1.188047882169485E-002;-2.580658998340368E-003;2.940287115052342E-003;
2.405833333333334E+009;1.784616112709045E-001;1.154267042875290E-002;-2.348532201722264E-003;3.133755642920733E-003;
2.406000000000000E+009;1.790715754032135E-001;1.094881538301706E-002;-2.216260414570570E-003;3.124198643490672E-003;
2.406166666666667E+009;1.794409453868866E-001;1.079237926751375E-002;-1.988792093470693E-003;3.130616387352347E-003;
2.406333333333334E+009;1.800203472375870E-001;1.061446405947208E-002;-1.855139271356165E-003;2.986490493640304E-003;
2.406500000000000E+009;1.802250593900681E-001;1.015355717390776E-002;-1.746126683428884E-003;3.245791187509894E-003;
2.406666666666667E+009;1.803107261657715E-001;1.000498235225678E-002;-1.610940904356539E-003;3.246990265324712E-003;
2.406833333333334E+009;1.806093752384186E-001;9.545706212520599E-003;-1.337438239715993E-003;3.257038304582238E-003;
2.407000000000000E+009;1.807339936494827E-001;9.262905456125736E-003;-1.403991598635912E-003;3.193264361470938E-003;
2.407166666666667E+009;1.807721406221390E-001;8.970730938017368E-003;-1.080940244719386E-003;3.227251116186380E-003;
2.407333333333334E+009;1.806574314832687E-001;8.585265837609768E-003;-9.963648626580834E-004;3.148944117128849E-003;
2.407500000000000E+009;1.805413663387299E-001;8.202156051993370E-003;-9.648499544709921E-004;3.101412439718843E-003;
2.407666666666667E+009;1.803446263074875E-001;7.778394035995007E-003;-8.031936013139784E-004;3.043853910639882E-003;
2.407833333333334E+009;1.798926740884781E-001;7.193769793957472E-003;-7.223450811579824E-004;3.050747327506542E-003;
2.408000000000000E+009;1.795416027307510E-001;6.566210184246302E-003;-5.710070254281163E-004;3.034808440133929E-003;
2.408166666666667E+009;1.791770309209824E-001;6.122312974184752E-003;-5.086996825411916E-004;3.095462219789624E-003;
2.408333333333334E+009;1.788969635963440E-001;5.441805813461542E-003;-4.296898550819606E-004;2.990431617945433E-003;
2.408500000000000E+009;1.781911849975586E-001;4.478603135794401E-003;-3.533133422024548E-004;3.005671547725797E-003;
2.408666666666667E+009;1.776934862136841E-001;3.625885117799044E-003;-2.401097735855728E-004;2.887526992708445E-003;
2.408833333333334E+009;1.768798828125000E-001;2.669492736458778E-003;-2.649838861543685E-004;2.771738218143582E-003;
2.409000000000000E+009;1.762987375259399E-001;1.910502673126757E-003;-1.809787790989503E-004;2.814869396388531E-003;
2.409166666666667E+009;1.754773706197739E-001;6.389890331774950E-004;-9.065734775504097E-005;2.712651155889034E-003;
2.409333333333334E+009;1.750273406505585E-001;-5.860896199010313E-004;4.634695869754069E-005;2.753348089754582E-003;
2.409500000000000E+009;1.742189228534699E-001;-2.027244307100773E-003;7.596497016493231E-005;2.713390626013279E-003;
2.409666666666667E+009;1.734940707683563E-001;-3.313628491014242E-003;4.228009856888093E-005;2.699770266190171E-003;
2.409833333333334E+009;1.728485226631165E-001;-4.585310816764832E-003;2.715514274314046E-004;2.718388335779309E-003;
2.410000000000000E+009;1.721674948930740E-001;-6.143114063888788E-003;2.317342441529036E-004;2.577679464593530E-003;
2.410166666666667E+009;1.715283840894699E-001;-7.724738214164972E-003;2.859996748156846E-004;2.618612954393029E-003;
2.410333333333334E+009;1.710247099399567E-001;-9.464024566113949E-003;2.764545497484505E-004;2.676354721188545E-003;
2.410500000000000E+009;1.704534590244293E-001;-1.117936056107283E-002;2.469020837452263E-004;2.460766118019819E-003;
2.410666666666667E+009;1.698113083839417E-001;-1.302511990070343E-002;1.980433589778841E-004;2.617503283545375E-003;
2.410833333333334E+009;1.692835539579392E-001;-1.462296862155199E-002;5.479172687046230E-004;2.546702744439244E-003;
2.411000000000000E+009;1.688041538000107E-001;-1.654335856437683E-002;4.693608207162470E-004;2.482407027855516E-003;
2.411166666666667E+009;1.686398833990097E-001;-1.855522021651268E-002;5.005913553759456E-004;2.562344074249268E-003;
2.411333333333334E+009;1.683200597763062E-001;-2.022550627589226E-002;5.452959449030459E-004;2.394106471911073E-003;
2.411500000000000E+009;1.680189371109009E-001;-2.253371290862560E-002;7.064693490974605E-004;2.477432833984494E-003;
2.411666666666667E+009;1.680606305599213E-001;-2.416002564132214E-002;6.116730510257185E-004;2.329046372324228E-003;
2.411833333333334E+009;1.679782569408417E-001;-2.623044513165951E-002;6.828840123489499E-004;2.319105900824070E-003;
2.412000000000000E+009;1.682662665843964E-001;-2.821368910372257E-002;8.305499213747680E-004;2.382925478741527E-003;
2.412166666666667E+009;1.680722087621689E-001;-3.003518097102642E-002;8.315705345012248E-004;2.404764061793685E-003;
2.412333333333334E+009;1.684190034866333E-001;-3.204851597547531E-002;8.072226191870868E-004;2.309405012056232E-003;
2.412500000000000E+009;1.683776229619980E-001;-3.393775969743729E-002;9.320335229858756E-004;2.412714995443821E-003;
2.412666666666667E+009;1.688827574253082E-001;-3.591364249587059E-002;1.030606450513005E-003;2.292563905939460E-003;
2.412833333333334E+009;1.693444252014160E-001;-3.783313184976578E-002;1.127843395806849E-003;2.294085221365094E-003;
2.413000000000000E+009;1.697481572628021E-001;-3.962416574358940E-002;1.049117534421384E-003;2.295594196766615E-003;
2.413166666666667E+009;1.699944287538528E-001;-4.121290519833565E-002;1.115827588364482E-003;2.235024934634566E-003;
2.413333333333334E+009;1.705077737569809E-001;-4.311536252498627E-002;1.317340182140470E-003;2.196640009060502E-003;
2.413500000000000E+009;1.709869801998138E-001;-4.475728422403336E-002;1.268478343263269E-003;2.251038094982505E-003;
2.413666666666667E+009;1.716738343238831E-001;-4.638798162341118E-002;1.415467238985002E-003;1.926059718243778E-003;
2.413833333333334E+009;1.720957607030869E-001;-4.786796867847443E-002;1.516643096692860E-003;1.907220575958490E-003;
2.414000000000000E+009;1.725367456674576E-001;-4.923886805772781E-002;1.527545042335987E-003;1.995310420170426E-003;
2.414166666666667E+009;1.732584238052368E-001;-5.057597905397415E-002;1.590922474861145E-003;1.940899877808988E-003;
2.414333333333334E+009;1.737698167562485E-001;-5.176682397723198E-002;1.714677549898624E-003;2.031798241659999E-003;
2.414500000000000E+009;1.744342297315598E-001;-5.287620052695274E-002;1.849048188887537E-003;1.782914041541517E-003;
2.414666666666667E+009;1.747693866491318E-001;-5.401121079921722E-002;1.840159296989441E-003;1.683469046838582E-003;
2.414833333333334E+009;1.752687841653824E-001;-5.504015088081360E-002;1.924038515426219E-003;1.643282943405211E-003;
2.415000000000000E+009;1.757994443178177E-001;-5.570622533559799E-002;2.048084046691656E-003;1.570858992636204E-003;
2.415166666666667E+009;1.761657595634460E-001;-5.664876848459244E-002;2.074920339509845E-003;1.560205826535821E-003;
2.415333333333334E+009;1.767378896474838E-001;-5.754765495657921E-002;2.106496132910252E-003;1.404202892445028E-003;
2.415500000000000E+009;1.769739091396332E-001;-5.797872319817543E-002;2.192647662013769E-003;1.327188569121063E-003;
2.415666666666667E+009;1.772175580263138E-001;-5.852346494793892E-002;2.119638025760651E-003;1.124433823861182E-003;
2.415833333333334E+009;1.774902045726776E-001;-5.903824418783188E-002;2.273177495226264E-003;9.822401916608214E-004;
2.416000000000000E+009;1.774769574403763E-001;-5.954644083976746E-002;2.241241978481412E-003;9.456381085328758E-004;
2.416166666666667E+009;1.777847260236740E-001;-5.979193747043610E-002;2.191279549151659E-003;8.894603815861046E-004;
2.416333333333334E+009;1.776020526885986E-001;-6.024587899446487E-002;2.155391033738852E-003;5.926016601733863E-004;
2.416500000000000E+009;1.775566339492798E-001;-6.040950492024422E-002;2.264820737764239E-003;5.964890588074923E-004;
2.416666666666667E+009;1.772880703210831E-001;-6.066702678799629E-002;2.135396935045719E-003;4.434964794199914E-004;
2.416833333333334E+009;1.771568059921265E-001;-6.098965555429459E-002;2.167658181861043E-003;3.293018089607358E-004;
2.417000000000000E+009;1.765972226858139E-001;-6.118723377585411E-002;2.213929546996951E-003;1.166189686045982E-004;
2.417166666666667E+009;1.762609630823135E-001;-6.131511181592941E-002;2.109043532982469E-003;1.209595939144492E-004;
2.417333333333334E+009;1.757020801305771E-001;-6.143895909190178E-002;1.991588389500976E-003;1.463241060264409E-004;
2.417500000000000E+009;1.750020682811737E-001;-6.182409450411797E-002;1.775421551428735E-003;6.801522977184504E-005;
2.417666666666667E+009;1.744646281003952E-001;-6.191833689808846E-002;1.802320475690067E-003;-1.629287435207516E-004;
2.417833333333334E+009;1.735575348138809E-001;-6.214474141597748E-002;1.852367306128144E-003;-2.896718215197325E-004;
2.418000000000000E+009;1.727280318737030E-001;-6.263652443885803E-002;1.682973816059530E-003;-1.567156286910176E-004;
2.418166666666667E+009;1.718148142099381E-001;-6.278904527425766E-002;1.599972369149327E-003;-1.974605111172423E-004;
2.418333333333334E+009;1.710360199213028E-001;-6.323885172605515E-002;1.610215171240270E-003;-3.029130166396499E-004;
2.418500000000000E+009;1.698050647974014E-001;-6.356094032526016E-002;1.529130036942661E-003;-3.769330214709044E-004;
2.418666666666667E+009;1.688997447490692E-001;-6.410706788301468E-002;1.426473958417773E-003;-2.413366455584765E-004;
2.418833333333334E+009;1.676783114671707E-001;-6.459193676710129E-002;1.338005298748612E-003;-3.537365701049566E-004;
2.419000000000000E+009;1.663833558559418E-001;-6.505569815635681E-002;1.335137640126050E-003;-3.358944086357951E-004;
2.419166666666667E+009;1.651723086833954E-001;-6.589592993259430E-002;1.255155657418072E-003;-3.057976427953690E-004;
2.419333333333334E+009;1.638906896114349E-001;-6.639825552701950E-002;1.213840325362980E-003;-2.627474314067513E-004;
2.419500000000000E+009;1.627898216247559E-001;-6.740440428256989E-002;1.217228127643466E-003;-3.467080532573164E-004;
2.419666666666667E+009;1.615699529647827E-001;-6.820655614137650E-002;1.136816805228591E-003;-3.078790614381433E-004;
2.419833333333334E+009;1.604134440422058E-001;-6.912375241518021E-002;1.071664970368147E-003;-3.022269229404628E-004;
2.420000000000000E+009;1.594698578119278E-001;-7.014513015747070E-002;1.003803103230894E-003;-3.422563895583153E-004;
2.420166666666667E+009;1.581937074661255E-001;-7.120639830827713E-002;1.159530016593635E-003;-3.230744041502476E-004;
2.420333333333334E+009;1.571581512689591E-001;-7.257501035928726E-002;1.123340683989227E-003;-4.317378625273705E-004;
2.420500000000000E+009;1.562862247228622E-001;-7.374644279479981E-002;9.989686077460647E-004;-2.708710380829871E-004;
2.420666666666667E+009;1.551295369863510E-001;-7.485682517290115E-002;9.962761541828513E-004;-2.667042426764965E-004;
2.420833333333334E+009;1.541992276906967E-001;-7.618863880634308E-002;8.638743893243372E-004;-1.711015065666288E-004;
2.421000000000000E+009;1.532339006662369E-001;-7.768899202346802E-002;9.574981522746384E-004;-1.795624411897734E-004;
2.421166666666667E+009;1.525410413742065E-001;-7.932741194963455E-002;9.826393797993660E-004;-2.258223685203120E-004;
2.421333333333334E+009;1.519295424222946E-001;-8.094633370637894E-002;9.120847098529339E-004;-3.197971673216671E-004;
2.421500000000000E+009;1.512475311756134E-001;-8.243294060230255E-002;8.332998258993030E-004;-2.497779787518084E-004;
2.421666666666667E+009;1.506358236074448E-001;-8.395154029130936E-002;1.037622801959515E-003;-3.591787535697222E-004;
2.421833333333334E+009;1.503830701112747E-001;-8.582548052072525E-002;9.765856666490436E-004;-1.326978526776657E-004;
2.422000000000000E+009;1.498622000217438E-001;-8.745750784873962E-002;7.720880093984306E-004;-1.392431004205719E-004;
2.422166666666667E+009;1.495952159166336E-001;-8.936506509780884E-002;9.107206715270877E-004;-2.678491873666644E-004;
2.422333333333334E+009;1.493528783321381E-001;-9.089681506156921E-002;9.681566734798253E-004;-1.725329930195585E-004;
2.422500000000000E+009;1.492559909820557E-001;-9.263573586940765E-002;9.443404851481319E-004;-3.434232494328171E-004;
2.422666666666667E+009;1.492419987916946E-001;-9.440266340970993E-002;8.669979288242757E-004;-2.461142721585929E-004;
2.422833333333334E+009;1.493838429450989E-001;-9.601526707410812E-002;1.028039492666721E-003;-3.036986163351685E-004;
2.423000000000000E+009;1.495448499917984E-001;-9.759876132011414E-002;8.840524824336171E-004;-4.430600674822927E-004;
2.423166666666667E+009;1.497737467288971E-001;-9.944381564855576E-002;9.320456883870065E-004;-1.480173814343289E-004;
2.423333333333334E+009;1.500437706708908E-001;-1.007323861122131E-001;8.829738362692297E-004;-2.973805821966380E-004;
2.423500000000000E+009;1.503211855888367E-001;-1.024410277605057E-001;8.966296445578337E-004;-3.189906128682196E-004;
2.423666666666667E+009;1.505029499530792E-001;-1.039455384016037E-001;8.500818512402475E-004;-4.242007853463292E-004;
2.423833333333334E+009;1.510688513517380E-001;-1.052825450897217E-001;8.630726370029151E-004;-4.140162782277912E-004;
2.424000000000000E+009;1.514564603567123E-001;-1.067713350057602E-001;8.332881843671203E-004;-3.595439193304628E-004;
2.424166666666667E+009;1.518510431051254E-001;-1.079971119761467E-001;7.532262825407088E-004;-4.144285630900413E-004;
2.424333333333334E+009;1.524650007486343E-001;-1.091501787304878E-001;8.030810276977718E-004;-3.695060440804809E-004;
2.424500000000000E+009;1.529471427202225E-001;-1.103109419345856E-001;9.130170219577849E-004;-3.014128014910966E-004;
2.424666666666667E+009;1.536145210266113E-001;-1.113269925117493E-001;7.031296263448894E-004;-5.726382951252163E-004;
2.424833333333334E+009;1.539103984832764E-001;-1.123960092663765E-001;7.452530553564429E-004;-4.486308898776770E-004;
2.425000000000000E+009;1.544600427150726E-001;-1.132819131016731E-001;7.588746957480907E-004;-3.786792221944779E-004;
2.425166666666667E+009;1.547346264123917E-001;-1.141927316784859E-001;8.662955369800329E-004;-4.357229045126587E-004;
2.425333333333334E+009;1.552342474460602E-001;-1.149661764502525E-001;6.710931193083525E-004;-5.439334199763835E-004;
2.425500000000000E+009;1.556624472141266E-001;-1.157864928245544E-001;8.191515807993710E-004;-4.074226599186659E-004;
2.425666666666667E+009;1.557540744543076E-001;-1.161667704582214E-001;7.036920869722962E-004;-4.694724339060485E-004;
2.425833333333334E+009;1.561019569635391E-001;-1.168403998017311E-001;6.978460005484521E-004;-3.501170431263745E-004;
2.426000000000000E+009;1.564369648694992E-001;-1.173359081149101E-001;5.435871426016092E-004;-6.186075625009835E-004;
2.426166666666667E+009;1.567142158746719E-001;-1.177934557199478E-001;7.677827379666269E-004;-4.174472123850137E-004;
2.426333333333334E+009;1.565167307853699E-001;-1.181297376751900E-001;5.363859818316996E-004;-5.077761597931385E-004;
2.426500000000000E+009;1.565872579813004E-001;-1.183488741517067E-001;6.488977232947946E-004;-6.506619974970818E-004;
2.426666666666667E+009;1.565626859664917E-001;-1.183509379625320E-001;6.874693790450692E-004;-4.807350633200258E-004;
2.426833333333334E+009;1.564074158668518E-001;-1.186875104904175E-001;5.978099070489407E-004;-4.314762481953949E-004;
2.427000000000000E+009;1.560643911361694E-001;-1.188109517097473E-001;5.889918538741767E-004;-5.935980007052422E-004;
2.427166666666667E+009;1.557351052761078E-001;-1.188700273633003E-001;4.507238627411425E-004;-4.751934611704201E-004;
2.427333333333334E+009;1.551826447248459E-001;-1.190037876367569E-001;5.605504848062992E-004;-4.738864954560995E-004;
2.427500000000000E+009;1.548170298337936E-001;-1.191243231296539E-001;6.318512023426592E-004;-4.550321609713137E-004;
2.427666666666667E+009;1.540261656045914E-001;-1.192377060651779E-001;4.305750771891326E-004;-3.186809772159904E-004;
2.427833333333334E+009;1.531858295202255E-001;-1.193593442440033E-001;4.189152678009123E-004;-3.074700944125652E-004;
