# Version 1.00
#
freq[Hz];re:Trc1_S11;im:Trc1_S11;re:Trc2_S21;im:Trc2_S21;
2.400000000000000E+009;1.580177098512650E-001;6.267881393432617E-002;-4.064943175762892E-003;-4.277604166418314E-004;
2.400166666666667E+009;1.580396145582199E-001;6.107091158628464E-002;-3.907040227204561E-003;-7.041132776066661E-004;
2.400333333333334E+009;1.578124016523361E-001;5.910841003060341E-002;-3.947208635509014E-003;-6.683818064630032E-004;
2.400500000000000E+009;1.577797234058380E-001;5.720352008938789E-002;-3.862900659441948E-003;-3.328001475892961E-004;
2.400666666666667E+009;1.576709300279617E-001;5.523943528532982E-002;-3.868376836180687E-003;-3.858330019284040E-004;
2.400833333333334E+009;1.577816307544708E-001;5.338276177644730E-002;-3.967431373894215E-003;-3.427899209782481E-004;
2.401000000000000E+009;1.580289751291275E-001;5.116904154419899E-002;-4.117728210985661E-003;-3.121134359389544E-004;
2.401166666666667E+009;1.580866426229477E-001;4.918232932686806E-002;-3.828943241387606E-003;7.243313302751631E-005;
2.401333333333334E+009;1.582122743129730E-001;4.709154367446899E-002;-3.980481531471014E-003;1.867424871306866E-004;
2.401500000000000E+009;1.585005968809128E-001;4.487211629748344E-002;-3.777649486437440E-003;1.378939759888453E-005;
2.401666666666667E+009;1.589242368936539E-001;4.301805421710014E-002;-3.986308351159096E-003;3.007945779245347E-004;
2.401833333333334E+009;1.593030542135239E-001;4.097376763820648E-002;-3.872630884870887E-003;2.799396752379835E-004;
2.402000000000000E+009;1.595994085073471E-001;3.889670222997665E-002;-3.767145331948996E-003;4.774778499267995E-004;
2.402166666666667E+009;1.600575000047684E-001;3.678369522094727E-002;-3.717070445418358E-003;4.837343585677445E-004;
2.402333333333334E+009;1.606588661670685E-001;3.492740169167519E-002;-3.599217627197504E-003;7.014053990133107E-004;
2.402500000000000E+009;1.613958775997162E-001;3.313418105244637E-002;-3.886157181113958E-003;7.764978217892349E-004;
2.402666666666667E+009;1.622866392135620E-001;3.138854354619980E-002;-3.755927551537752E-003;7.665029261261225E-004;
2.402833333333334E+009;1.627421379089356E-001;2.973657101392746E-002;-3.840930527076125E-003;1.087933196686208E-003;
2.403000000000000E+009;1.635444611310959E-001;2.806476876139641E-002;-3.716541454195976E-003;9.864958701655269E-004;
2.403166666666667E+009;1.645080894231796E-001;2.631273306906223E-002;-3.744803601875901E-003;1.238867174834013E-003;
2.403333333333334E+009;1.654821783304215E-001;2.495487593114376E-002;-3.683949122205377E-003;1.322451978921890E-003;
2.403500000000000E+009;1.663065552711487E-001;2.356444299221039E-002;-3.578243777155876E-003;1.407067407853901E-003;
2.403666666666667E+009;1.672547608613968E-001;2.208654582500458E-002;-3.505128202959895E-003;1.434979611076415E-003;
2.403833333333334E+009;1.684407591819763E-001;2.077162079513073E-002;-3.505934495478869E-003;1.727983122691512E-003;
2.404000000000000E+009;1.691578328609467E-001;1.950090564787388E-002;-3.522484796121717E-003;1.793225063011050E-003;
2.404166666666667E+009;1.702711284160614E-001;1.836798526346684E-002;-3.552958369255066E-003;2.021668478846550E-003;
2.404333333333334E+009;1.711169779300690E-001;1.747904345393181E-002;-3.341327887028456E-003;1.992596313357353E-003;
2.404500000000000E+009;1.720742434263229E-001;1.633423566818237E-002;-3.333611413836479E-003;2.064129337668419E-003;
2.404666666666667E+009;1.730599403381348E-001;1.562700979411602E-002;-3.194817807525396E-003;2.229762729257345E-003;
2.404833333333334E+009;1.738937050104141E-001;1.472552958875895E-002;-3.205374348908663E-003;2.683750120922923E-003;
2.405000000000000E+009;1.747282147407532E-001;1.410988252609968E-002;-2.981691621243954E-003;2.717265626415610E-003;
2.405166666666667E+009;1.756478697061539E-001;1.340424362570047E-002;-2.878842642530799E-003;2.685815095901489E-003;
2.405333333333334E+009;1.764916777610779E-001;1.273060124367476E-002;-2.782886615023017E-003;3.067309036850929E-003;
2.405500000000000E+009;1.772291958332062E-001;1.227842923253775E-002;-2.561541041359305E-003;3.036785637959838E-003;
2.405666666666667E+009;1.779521703720093E-001;1.189090311527252E-002;-2.403315156698227E-003;3.088888013735414E-003;
2.405833333333334E+009;1.784015595912933E-001;1.143830176442862E-002;-2.330960705876350E-003;3.209817921742797E-003;
2.406000000000000E+009;1.790569573640823E-001;1.104105357080698E-002;-2.168682403862476E-003;3.311633598059416E-003;
2.406166666666667E+009;1.794047355651856E-001;1.090118009597063E-002;-1.920497976243496E-003;3.125835908576846E-003;
2.406333333333334E+009;1.801042705774307E-001;1.040066312998533E-002;-1.790029928088188E-003;3.323520300909877E-003;
2.406500000000000E+009;1.802770048379898E-001;1.020608469843864E-002;-1.635612570680678E-003;3.166202921420336E-003;
2.406666666666667E+009;1.803881078958511E-001;9.934020228683949E-003;-1.457795966416597E-003;3.166282316669822E-003;
2.406833333333334E+009;1.806746870279312E-001;9.629987180233002E-003;-1.313412678427994E-003;3.180588828399777E-003;
2.407000000000000E+009;1.807778030633926E-001;9.336491115391254E-003;-1.162053667940199E-003;3.207577392458916E-003;
2.407166666666667E+009;1.808225363492966E-001;8.984939195215702E-003;-1.034495071507990E-003;3.216898534446955E-003;
2.407333333333334E+009;1.806292682886124E-001;8.605841547250748E-003;-9.875068208202720E-004;3.170876298099756E-003;
2.407500000000000E+009;1.804942041635513E-001;8.156857453286648E-003;-7.885727100074291E-004;3.115306841209531E-003;
2.407666666666667E+009;1.803100556135178E-001;7.825380191206932E-003;-8.539648260921240E-004;3.198801539838314E-003;
2.407833333333334E+009;1.798964291810989E-001;7.144533563405275E-003;-5.578485433943570E-004;3.053636057302356E-003;
2.408000000000000E+009;1.796455085277557E-001;6.583333946764469E-003;-4.459874762687832E-004;2.991379704326391E-003;
2.408166666666667E+009;1.791535764932632E-001;6.101748906075954E-003;-4.077718476764858E-004;3.001812146976590E-003;
2.408333333333334E+009;1.788555234670639E-001;5.466841161251068E-003;-3.411303914617747E-004;2.986956620588899E-003;
2.408500000000000E+009;1.782198250293732E-001;4.537775181233883E-003;-3.307201550342143E-004;2.945603337138891E-003;
2.408666666666667E+009;1.777387410402298E-001;3.569757798686624E-003;-3.899833245668560E-004;2.925469307228923E-003;
2.408833333333334E+009;1.769006252288818E-001;2.691140631213784E-003;-9.298109944211319E-005;2.757468493655324E-003;
2.409000000000000E+009;1.762220114469528E-001;1.724541885778308E-003;-1.475046301493421E-004;2.669328125193715E-003;
2.409166666666667E+009;1.755446344614029E-001;6.682167877443135E-004;-2.238471279270016E-005;2.773222280666232E-003;
2.409333333333334E+009;1.750596463680267E-001;-5.908124148845673E-004;-5.896334914723411E-005;2.750819083303213E-003;
2.409500000000000E+009;1.742922812700272E-001;-2.057756297290325E-003;8.176640403689817E-005;2.708227606490254E-003;
2.409666666666667E+009;1.735888719558716E-001;-3.297754796221852E-003;3.775363438762724E-005;2.742635784670711E-003;
2.409833333333334E+009;1.727885454893112E-001;-4.655063617974520E-003;2.447437145747244E-004;2.551262034103274E-003;
2.410000000000000E+009;1.723131239414215E-001;-6.273860577493906E-003;2.352395385969430E-004;2.614057157188654E-003;
2.410166666666667E+009;1.716086566448212E-001;-7.621797267347574E-003;3.637320187408477E-004;2.660204656422138E-003;
2.410333333333334E+009;1.708405315876007E-001;-9.538946673274040E-003;2.303189394297078E-004;2.547313924878836E-003;
2.410500000000000E+009;1.703984290361404E-001;-1.121245045214891E-002;3.984061186201870E-004;2.557596191763878E-003;
2.410666666666667E+009;1.697723269462585E-001;-1.280379761010408E-002;3.585148078855127E-004;2.492337254807353E-003;
2.410833333333334E+009;1.694166213274002E-001;-1.485083531588316E-002;4.373926494736224E-004;2.384540159255266E-003;
2.411000000000000E+009;1.690447777509689E-001;-1.661582663655281E-002;4.514231113716960E-004;2.415105467662215E-003;
2.411166666666667E+009;1.686846315860748E-001;-1.849245280027390E-002;5.880846874788404E-004;2.501959679648280E-003;
2.411333333333334E+009;1.684008538722992E-001;-2.024822868406773E-002;5.113151855766773E-004;2.416034694761038E-003;
2.411500000000000E+009;1.680406481027603E-001;-2.240807935595512E-002;5.834528128616512E-004;2.397842705249786E-003;
2.411666666666667E+009;1.680578440427780E-001;-2.438112534582615E-002;6.737161893397570E-004;2.382018137723208E-003;
2.411833333333334E+009;1.679104268550873E-001;-2.617856673896313E-002;7.442670175805688E-004;2.455542795360088E-003;
2.412000000000000E+009;1.680340319871903E-001;-2.816245891153812E-002;8.210298838093877E-004;2.425413578748703E-003;
2.412166666666667E+009;1.680103838443756E-001;-3.010334260761738E-002;7.437076419591904E-004;2.362986793741584E-003;
2.412333333333334E+009;1.684476435184479E-001;-3.201576694846153E-002;8.057423983700573E-004;2.437716349959374E-003;
2.412500000000000E+009;1.685327291488648E-001;-3.397602960467339E-002;8.284936193376780E-004;2.292577177286148E-003;
2.412666666666667E+009;1.688699871301651E-001;-3.585858643054962E-002;1.184592489153147E-003;2.222404815256596E-003;
2.412833333333334E+009;1.692851781845093E-001;-3.785424679517746E-002;1.088261255063117E-003;2.333798212930560E-003;
2.413000000000000E+009;1.695430278778076E-001;-3.952483087778091E-002;1.276267459616065E-003;2.318828366696835E-003;
2.413166666666667E+009;1.699407845735550E-001;-4.121574014425278E-002;1.284820260480046E-003;2.250297460705042E-003;
2.413333333333334E+009;1.703482568264008E-001;-4.299620538949966E-002;1.301471609622240E-003;2.136030234396458E-003;
2.413500000000000E+009;1.711430996656418E-001;-4.467634111642838E-002;1.510237809270620E-003;2.362981438636780E-003;
2.413666666666667E+009;1.717609614133835E-001;-4.624076187610626E-002;1.382496906444430E-003;2.115862909704447E-003;
2.413833333333334E+009;1.719527691602707E-001;-4.764170944690704E-002;1.559542608447373E-003;2.011169679462910E-003;
2.414000000000000E+009;1.725242137908936E-001;-4.909187555313110E-002;1.526499167084694E-003;1.941147376783192E-003;
2.414166666666667E+009;1.731354147195816E-001;-5.041907727718353E-002;1.714686513878405E-003;1.944776042364538E-003;
2.414333333333334E+009;1.737328916788101E-001;-5.180276557803154E-002;1.678361906670034E-003;1.872356748208404E-003;
2.414500000000000E+009;1.744164079427719E-001;-5.294534564018250E-002;1.858555828221142E-003;1.912883133627474E-003;
2.414666666666667E+009;1.748572587966919E-001;-5.382177233695984E-002;1.818472868762910E-003;1.725119538605213E-003;
2.414833333333334E+009;1.753069311380386E-001;-5.497813597321510E-002;2.061135135591030E-003;1.541718025691807E-003;
2.415000000000000E+009;1.756970882415772E-001;-5.592702329158783E-002;2.103519625961781E-003;1.563820289447904E-003;
2.415166666666667E+009;1.761543303728104E-001;-5.660065263509750E-002;2.101588062942028E-003;1.305138459429145E-003;
2.415333333333334E+009;1.766230762004852E-001;-5.741535127162933E-002;2.255929168313742E-003;1.404377049766481E-003;
2.415500000000000E+009;1.769004315137863E-001;-5.798482894897461E-002;2.298058941960335E-003;1.292176428250969E-003;
2.415666666666667E+009;1.772342324256897E-001;-5.842441320419312E-002;2.225769218057394E-003;9.696898632682860E-004;
2.415833333333334E+009;1.774417161941528E-001;-5.902678519487381E-002;2.163219032809138E-003;1.101169269531965E-003;
2.416000000000000E+009;1.774858683347702E-001;-5.948249623179436E-002;2.224174328148365E-003;8.232906111516058E-004;
2.416166666666667E+009;1.777619123458862E-001;-5.988570302724838E-002;2.248954493552446E-003;7.757206331007183E-004;
2.416333333333334E+009;1.775921136140823E-001;-6.004969403147697E-002;2.182892058044672E-003;6.711092428304255E-004;
2.416500000000000E+009;1.776030659675598E-001;-6.043842434883118E-002;2.240600762888789E-003;3.982056223321706E-004;
2.416666666666667E+009;1.772798299789429E-001;-6.063728034496307E-002;2.197801135480404E-003;4.340769082773477E-004;
2.416833333333334E+009;1.771514862775803E-001;-6.100840494036675E-002;2.196204615756869E-003;3.554889408405870E-004;
2.417000000000000E+009;1.766846776008606E-001;-6.116525083780289E-002;2.150650369003415E-003;3.811643691733480E-004;
2.417166666666667E+009;1.762329488992691E-001;-6.118014827370644E-002;2.095021074637771E-003;2.352304436499253E-004;
2.417333333333334E+009;1.755862087011337E-001;-6.148897111415863E-002;2.089398680254817E-003;5.190200681681745E-005;
2.417500000000000E+009;1.750862449407578E-001;-6.187389791011810E-002;1.963910879567266E-003;1.719041392789222E-005;
2.417666666666667E+009;1.744863241910934E-001;-6.186139211058617E-002;2.026958623901010E-003;-1.204449508804828E-004;
2.417833333333334E+009;1.736995726823807E-001;-6.223744899034500E-002;1.837747171521187E-003;-7.370179082499817E-005;
2.418000000000000E+009;1.727384030818939E-001;-6.265433132648468E-002;1.742566353641450E-003;-2.114618691848591E-004;
2.418166666666667E+009;1.717558950185776E-001;-6.271371245384216E-002;1.837820513173938E-003;-2.575627004262060E-004;
2.418333333333334E+009;1.711337119340897E-001;-6.315950304269791E-002;1.638822024688125E-003;-3.394839004613459E-004;
2.418500000000000E+009;1.699068397283554E-001;-6.355574727058411E-002;1.542479149065912E-003;-3.377090615686029E-004;
2.418666666666667E+009;1.689197123050690E-001;-6.405237317085266E-002;1.415488775819540E-003;-3.608500992413610E-004;
2.418833333333334E+009;1.674977540969849E-001;-6.464865803718567E-002;1.487088506110013E-003;-3.763670101761818E-004;
2.419000000000000E+009;1.663323342800140E-001;-6.524613499641419E-002;1.277533010579646E-003;-4.259825509507209E-004;
2.419166666666667E+009;1.652333438396454E-001;-6.578938663005829E-002;1.301262993365526E-003;-5.173254176042974E-004;
2.419333333333334E+009;1.639670282602310E-001;-6.644189357757568E-002;1.182497711852193E-003;-3.572949499357492E-004;
2.419500000000000E+009;1.627737879753113E-001;-6.735081225633621E-002;1.206906628794968E-003;-4.121710080653429E-004;
2.419666666666667E+009;1.616652607917786E-001;-6.824048608541489E-002;1.190360053442419E-003;-3.306712897028774E-004;
2.419833333333334E+009;1.603276729583740E-001;-6.913470476865768E-002;1.162627711892128E-003;-3.559235483407974E-004;
2.420000000000000E+009;1.593885868787766E-001;-7.026816904544830E-002;1.139044179581106E-003;-3.532841510605067E-004;
2.420166666666667E+009;1.582439392805100E-001;-7.123533636331558E-002;1.144610112532973E-003;-3.883088356815279E-004;
2.420333333333334E+009;1.570464372634888E-001;-7.253769040107727E-002;1.031004474498332E-003;-2.374147297814488E-004;
2.420500000000000E+009;1.561452150344849E-001;-7.356791198253632E-002;9.764264104887843E-004;-2.618984726723284E-004;
2.420666666666667E+009;1.552438884973526E-001;-7.480709999799728E-002;1.000321586616337E-003;-3.317004302516580E-004;
2.420833333333334E+009;1.542693525552750E-001;-7.640429586172104E-002;1.079181558452547E-003;-2.697623276617378E-004;
2.421000000000000E+009;1.532582342624664E-001;-7.786257565021515E-002;8.231807732954621E-004;-3.170863492414355E-004;
2.421166666666667E+009;1.527883261442184E-001;-7.928770035505295E-002;9.142024209722877E-004;-2.190768718719482E-004;
2.421333333333334E+009;1.519428342580795E-001;-8.097440004348755E-002;9.746578289195895E-004;-2.576956467237324E-004;
2.421500000000000E+009;1.512266397476196E-001;-8.246212452650070E-002;8.207894861698151E-004;-1.634946238482371E-004;
2.421666666666667E+009;1.506712138652802E-001;-8.397914469242096E-002;9.432212100364268E-004;-3.402076545171440E-004;
2.421833333333334E+009;1.502942740917206E-001;-8.566752076148987E-002;1.007286366075277E-003;-4.050394927617163E-004;
2.422000000000000E+009;1.499422192573547E-001;-8.751060068607330E-002;9.251492447219789E-004;-2.737389586400241E-004;
2.422166666666667E+009;1.498576104640961E-001;-8.927300572395325E-002;1.030415529385209E-003;-2.301938366144896E-004;
2.422333333333334E+009;1.495994180440903E-001;-9.096004813909531E-002;9.758250089362264E-004;-3.190382267348468E-004;
2.422500000000000E+009;1.491922736167908E-001;-9.249307215213776E-002;8.198317955248058E-004;-3.764369175769389E-004;
2.422666666666667E+009;1.492492258548737E-001;-9.421961009502411E-002;9.037994313985109E-004;-3.621027863118798E-004;
2.422833333333334E+009;1.493493020534515E-001;-9.610876441001892E-002;8.962050196714699E-004;-4.036810714751482E-004;
2.423000000000000E+009;1.494654864072800E-001;-9.767199307680130E-002;7.805479690432549E-004;-4.744969774037600E-004;
2.423166666666667E+009;1.496996879577637E-001;-9.929657727479935E-002;7.075488683767617E-004;-3.957319131586701E-004;
2.423333333333334E+009;1.500548124313355E-001;-1.007695570588112E-001;8.713990100659430E-004;-4.652629140764475E-004;
2.423500000000000E+009;1.503205448389053E-001;-1.024419739842415E-001;8.821894298307598E-004;-4.224351141601801E-004;
2.423666666666667E+009;1.505665332078934E-001;-1.039439141750336E-001;8.597488631494343E-004;-2.982205478474498E-004;
2.423833333333334E+009;1.511117666959763E-001;-1.054923981428146E-001;7.472048746421933E-004;-2.918476820923388E-004;
2.424000000000000E+009;1.514826714992523E-001;-1.066768467426300E-001;8.135814568959177E-004;-4.100636288058013E-004;
2.424166666666667E+009;1.519217193126679E-001;-1.079230606555939E-001;7.469408446922898E-004;-5.043075652793050E-004;
2.424333333333334E+009;1.525890678167343E-001;-1.092360243201256E-001;7.514769677072763E-004;-4.871124983765185E-004;
2.424500000000000E+009;1.530161798000336E-001;-1.104816868901253E-001;9.037671843543649E-004;-4.208323953207582E-004;
2.424666666666667E+009;1.535935401916504E-001;-1.112945154309273E-001;7.950048311613500E-004;-4.301645385567099E-004;
2.424833333333334E+009;1.538979262113571E-001;-1.124793663620949E-001;6.712427129969001E-004;-3.907805948983878E-004;
2.425000000000000E+009;1.544437110424042E-001;-1.134120970964432E-001;6.574200815521181E-004;-5.274307332001627E-004;
2.425166666666667E+009;1.547566354274750E-001;-1.141454800963402E-001;5.472908960655332E-004;-5.223804619163275E-004;
2.425333333333334E+009;1.552193909883499E-001;-1.149755865335465E-001;6.879839347675443E-004;-3.082364564761519E-004;
2.425500000000000E+009;1.556982547044754E-001;-1.157073751091957E-001;6.806797464378178E-004;-4.797380825038999E-004;
2.425666666666667E+009;1.558760106563568E-001;-1.162944063544273E-001;6.620248313993216E-004;-4.995858180336654E-004;
2.425833333333334E+009;1.561954170465469E-001;-1.167369782924652E-001;5.616871640086174E-004;-4.705448227468878E-004;
2.426000000000000E+009;1.563427150249481E-001;-1.174025982618332E-001;6.042413879185915E-004;-6.119198515079916E-004;
2.426166666666667E+009;1.566146612167358E-001;-1.177309900522232E-001;5.761143402196467E-004;-5.606111953966320E-004;
2.426333333333334E+009;1.565486639738083E-001;-1.180197522044182E-001;5.633397377096117E-004;-4.902071086689830E-004;
2.426500000000000E+009;1.566438823938370E-001;-1.183388754725456E-001;6.945653003640473E-004;-4.777054709848017E-004;
2.426666666666667E+009;1.567541062831879E-001;-1.184170171618462E-001;5.530694616027176E-004;-5.667564109899104E-004;
2.426833333333334E+009;1.564239561557770E-001;-1.186555400490761E-001;5.336016183719039E-004;-3.797909594140947E-004;
2.427000000000000E+009;1.561841666698456E-001;-1.189544945955277E-001;5.619181320071220E-004;-5.273799761198461E-004;
2.427166666666667E+009;1.557380855083466E-001;-1.189725622534752E-001;4.584756097756326E-004;-4.964110557921231E-004;
2.427333333333334E+009;1.551746129989624E-001;-1.191019862890244E-001;5.676125292666256E-004;-5.947400350123644E-004;
2.427500000000000E+009;1.548562049865723E-001;-1.191601008176804E-001;7.020035409368575E-004;-3.705676062963903E-004;
2.427666666666667E+009;1.539666205644608E-001;-1.192906498908997E-001;4.461558419279754E-004;-3.195852623321116E-004;
2.427833333333334E+009;1.531906723976135E-001;-1.193419173359871E-001;4.709535278379917E-004;-3.792855713982135E-004;
