# Version 1.00
#
freq[Hz];re:Trc1_S11;im:Trc1_S11;re:Trc2_S21;im:Trc2_S21;
2.400000000000000E+009;1.581878215074539E-001;6.271442770957947E-002;-3.823556471616030E-003;-8.269546087831259E-004;
2.400166666666667E+009;1.580257564783096E-001;6.107624247670174E-002;-3.837968921288848E-003;-8.718395838513970E-004;
2.400333333333334E+009;1.578273773193359E-001;5.930058285593987E-002;-3.916461952030659E-003;-7.242176216095686E-004;
2.400500000000000E+009;1.576362848281860E-001;5.747278407216072E-002;-3.910291474312544E-003;-6.919237202964723E-004;
2.400666666666667E+009;1.577748656272888E-001;5.540930107235909E-002;-3.834901610389352E-003;-5.019230302423239E-004;
2.400833333333334E+009;1.577361673116684E-001;5.348803848028183E-002;-3.982483409345150E-003;-4.377065633889288E-004;
2.401000000000000E+009;1.578792035579681E-001;5.144483596086502E-002;-3.907035104930401E-003;-3.457786515355110E-004;
2.401166666666667E+009;1.580518633127213E-001;4.912954941391945E-002;-3.723945468664169E-003;-1.729532377794385E-004;
2.401333333333334E+009;1.581090539693832E-001;4.702138528227806E-002;-3.851709421724081E-003;-4.195137819351658E-007;
2.401500000000000E+009;1.586329042911530E-001;4.511402547359467E-002;-3.728396957740188E-003;6.398477125912905E-005;
2.401666666666667E+009;1.589946746826172E-001;4.302044957876205E-002;-3.927958663553000E-003;1.510778965894133E-004;
2.401833333333334E+009;1.590803712606430E-001;4.093404114246368E-002;-3.840019926428795E-003;1.192538475152105E-004;
2.402000000000000E+009;1.595963239669800E-001;3.892275691032410E-002;-3.771677846089006E-003;1.741972373565659E-004;
2.402166666666667E+009;1.601713448762894E-001;3.686873242259026E-002;-3.766376990824938E-003;3.944829804822803E-004;
2.402333333333334E+009;1.605753451585770E-001;3.500599041581154E-002;-3.787985304370523E-003;5.807070410810411E-004;
2.402500000000000E+009;1.615476608276367E-001;3.327354788780212E-002;-3.799626138061285E-003;6.172735011205077E-004;
2.402666666666667E+009;1.620725840330124E-001;3.137468546628952E-002;-3.751998068764806E-003;7.640689727850258E-004;
2.402833333333334E+009;1.627136617898941E-001;2.968219295144081E-002;-3.738572122529149E-003;6.504662451334298E-004;
2.403000000000000E+009;1.636842638254166E-001;2.788547612726688E-002;-3.807555418461561E-003;9.483352769166231E-004;
2.403166666666667E+009;1.646163165569305E-001;2.628546953201294E-002;-3.717829240486026E-003;9.026760235428810E-004;
2.403333333333334E+009;1.654399484395981E-001;2.495194412767887E-002;-3.728889627382159E-003;1.209612470120192E-003;
2.403500000000000E+009;1.661864519119263E-001;2.342027239501476E-002;-3.459475934505463E-003;1.160903833806515E-003;
2.403666666666667E+009;1.673200279474258E-001;2.206579037010670E-002;-3.618143033236265E-003;1.328547834418714E-003;
2.403833333333334E+009;1.682740449905396E-001;2.082077413797379E-002;-3.623851109296084E-003;1.585913589224219E-003;
2.404000000000000E+009;1.693069040775299E-001;1.952181756496429E-002;-3.649962367489934E-003;1.680791378021240E-003;
2.404166666666667E+009;1.702114194631577E-001;1.836707815527916E-002;-3.580208634957671E-003;1.873613568022847E-003;
2.404333333333334E+009;1.712155640125275E-001;1.750585809350014E-002;-3.554884111508727E-003;1.950945938006043E-003;
2.404500000000000E+009;1.719581931829453E-001;1.638954877853394E-002;-3.279804717749357E-003;2.156821778044105E-003;
2.404666666666667E+009;1.730294972658157E-001;1.569334045052528E-002;-3.370560007169843E-003;2.150887623429298E-003;
2.404833333333334E+009;1.740357875823975E-001;1.490321476012468E-002;-3.153735538944602E-003;2.447052858769894E-003;
2.405000000000000E+009;1.748348474502564E-001;1.412057876586914E-002;-3.132425248622894E-003;2.458933973684907E-003;
2.405166666666667E+009;1.757053434848785E-001;1.344559714198113E-002;-3.007990075275302E-003;2.803082577884197E-003;
2.405333333333334E+009;1.765333265066147E-001;1.271550823003054E-002;-2.931807888671756E-003;2.747465157881379E-003;
2.405500000000000E+009;1.773089468479157E-001;1.230518519878388E-002;-2.651002025231719E-003;2.909103874117136E-003;
2.405666666666667E+009;1.779758930206299E-001;1.192091032862663E-002;-2.351451199501753E-003;3.046554280444980E-003;
2.405833333333334E+009;1.784756928682327E-001;1.151576917618513E-002;-2.454460598528385E-003;3.105694893747568E-003;
2.406000000000000E+009;1.791171878576279E-001;1.094636321067810E-002;-2.167236525565386E-003;3.026099875569344E-003;
2.406166666666667E+009;1.794197112321854E-001;1.084204576909542E-002;-2.063289284706116E-003;3.188311820849776E-003;
2.406333333333334E+009;1.800707876682282E-001;1.059728115797043E-002;-1.965153496712446E-003;3.211227711290121E-003;
2.406500000000000E+009;1.803949177265167E-001;1.024746242910624E-002;-1.780659076757729E-003;3.151985350996256E-003;
2.406666666666667E+009;1.803339868783951E-001;9.855626150965691E-003;-1.559463096782565E-003;3.312274347990751E-003;
2.406833333333334E+009;1.806126832962036E-001;9.559330530464649E-003;-1.382992486469448E-003;3.280710894614458E-003;
2.407000000000000E+009;1.807532757520676E-001;9.294627234339714E-003;-1.443916582502425E-003;3.168229013681412E-003;
2.407166666666667E+009;1.808952242136002E-001;9.062085300683975E-003;-1.015443587675691E-003;3.092592116445303E-003;
2.407333333333334E+009;1.806887686252594E-001;8.701302111148834E-003;-9.390462073497474E-004;3.275943920016289E-003;
2.407500000000000E+009;1.804272979497910E-001;8.307948708534241E-003;-8.843526011332870E-004;3.069978905841708E-003;
2.407666666666667E+009;1.803000122308731E-001;7.788288407027721E-003;-6.629304261878133E-004;2.985131926834583E-003;
2.407833333333334E+009;1.798510849475861E-001;7.184209302067757E-003;-6.388781475834549E-004;2.865431597456336E-003;
2.408000000000000E+009;1.795366257429123E-001;6.676056887954474E-003;-6.577027961611748E-004;3.090593731030822E-003;
2.408166666666667E+009;1.791720837354660E-001;6.167637649923563E-003;-5.636733840219677E-004;3.126249881461263E-003;
2.408333333333334E+009;1.787769794464111E-001;5.257410928606987E-003;-5.275475559756160E-004;2.961206482723355E-003;
2.408500000000000E+009;1.782834082841873E-001;4.558696877211332E-003;-4.253862425684929E-004;2.906823297962546E-003;
2.408666666666667E+009;1.776865273714066E-001;3.715202445164323E-003;-2.707633248064667E-004;2.894532633945346E-003;
2.408833333333334E+009;1.768823564052582E-001;2.808018354699016E-003;-1.552531321067363E-004;2.891245065256953E-003;
2.409000000000000E+009;1.762678623199463E-001;1.779025536961854E-003;-3.092246770393103E-004;2.784605370834470E-003;
2.409166666666667E+009;1.756103634834290E-001;5.776721518486738E-004;2.614671939227264E-005;2.708607353270054E-003;
2.409333333333334E+009;1.750517338514328E-001;-6.733743357472122E-004;5.428316217148677E-005;2.730882726609707E-003;
2.409500000000000E+009;1.741431802511215E-001;-1.977810636162758E-003;1.777097349986434E-005;2.805366180837154E-003;
2.409666666666667E+009;1.734674274921417E-001;-3.299087518826127E-003;9.867957851383835E-005;2.616500714793801E-003;
2.409833333333334E+009;1.728351116180420E-001;-4.572091624140739E-003;8.222423639381304E-005;2.590409014374018E-003;
2.410000000000000E+009;1.721741259098053E-001;-6.116157863289118E-003;2.414216723991558E-004;2.580604748800397E-003;
2.410166666666667E+009;1.717771887779236E-001;-7.707213517278433E-003;2.115679380949587E-004;2.608737908303738E-003;
2.410333333333334E+009;1.708952784538269E-001;-9.350067935883999E-003;4.433087597135454E-004;2.592866076156497E-003;
2.410500000000000E+009;1.704689562320709E-001;-1.108630746603012E-002;2.078369579976425E-004;2.361875260248780E-003;
2.410666666666667E+009;1.698716133832932E-001;-1.296257041394711E-002;3.460631414782256E-004;2.625980647280812E-003;
2.410833333333334E+009;1.693913489580154E-001;-1.459379401057959E-002;4.343953623902053E-004;2.357420045882464E-003;
2.411000000000000E+009;1.690625995397568E-001;-1.641610078513622E-002;4.545710689853877E-004;2.420014468953013E-003;
2.411166666666667E+009;1.685944348573685E-001;-1.848993264138699E-002;4.310117510613054E-004;2.515523694455624E-003;
2.411333333333334E+009;1.684115827083588E-001;-2.013549394905567E-002;5.540541606023908E-004;2.474536886438727E-003;
2.411500000000000E+009;1.682176440954208E-001;-2.221588790416718E-002;6.978475139476359E-004;2.415332943201065E-003;
2.411666666666667E+009;1.682050824165344E-001;-2.415196597576141E-002;6.271929596550763E-004;2.469523111358285E-003;
2.411833333333334E+009;1.680236309766769E-001;-2.612960524857044E-002;5.284835351631045E-004;2.352664479985833E-003;
2.412000000000000E+009;1.680879443883896E-001;-2.812525816261768E-002;7.389982347376645E-004;2.335631521418691E-003;
2.412166666666667E+009;1.682619303464890E-001;-3.015539422631264E-002;7.113962201401591E-004;2.346028573811054E-003;
2.412333333333334E+009;1.686121374368668E-001;-3.195832669734955E-002;7.743177702650428E-004;2.330332528799772E-003;
2.412500000000000E+009;1.685149818658829E-001;-3.379363566637039E-002;9.805809240788221E-004;2.199226990342140E-003;
2.412666666666667E+009;1.689300239086151E-001;-3.589500114321709E-002;9.642572258599103E-004;2.342367544770241E-003;
2.412833333333334E+009;1.692946851253510E-001;-3.789373487234116E-002;1.021150848828256E-003;2.323618391528726E-003;
2.413000000000000E+009;1.698911935091019E-001;-3.956962004303932E-002;1.107247080653906E-003;2.285924507305026E-003;
2.413166666666667E+009;1.700847744941711E-001;-4.127622768282890E-002;1.215680618770421E-003;2.140888245776296E-003;
2.413333333333334E+009;1.705036312341690E-001;-4.302487149834633E-002;1.275931717827916E-003;2.185345394536853E-003;
2.413500000000000E+009;1.711812615394592E-001;-4.467454925179482E-002;1.329843304120004E-003;2.307669026777148E-003;
2.413666666666667E+009;1.717426031827927E-001;-4.631084203720093E-002;1.424115151166916E-003;2.132062800228596E-003;
2.413833333333334E+009;1.721707880496979E-001;-4.769404232501984E-002;1.403207192197442E-003;1.930961036123335E-003;
2.414000000000000E+009;1.724806725978851E-001;-4.925303906202316E-002;1.606035744771361E-003;1.999110216274858E-003;
2.414166666666667E+009;1.731933057308197E-001;-5.048268288373947E-002;1.671418081969023E-003;2.041693544015288E-003;
2.414333333333334E+009;1.738610714673996E-001;-5.184444785118103E-002;1.607628772035241E-003;1.877642585895956E-003;
2.414500000000000E+009;1.744434833526611E-001;-5.295612663030624E-002;1.954377628862858E-003;1.725498121231794E-003;
2.414666666666667E+009;1.749260127544403E-001;-5.384705215692520E-002;1.953265862539411E-003;1.840364537201822E-003;
2.414833333333334E+009;1.752636879682541E-001;-5.495141074061394E-002;1.931766746565700E-003;1.719073858112097E-003;
2.415000000000000E+009;1.757102757692337E-001;-5.588825792074204E-002;2.067256020382047E-003;1.566422521136701E-003;
2.415166666666667E+009;1.760046929121018E-001;-5.657707527279854E-002;2.041736850515008E-003;1.474599004723132E-003;
2.415333333333334E+009;1.767024844884872E-001;-5.728371813893318E-002;2.217832487076521E-003;1.429273979738355E-003;
2.415500000000000E+009;1.770078837871552E-001;-5.799469724297524E-002;2.134118229150772E-003;1.260621589608491E-003;
2.415666666666667E+009;1.771605610847473E-001;-5.840805917978287E-002;2.232760656625032E-003;1.205735257826746E-003;
2.415833333333334E+009;1.775026917457581E-001;-5.898967385292053E-002;2.179937437176704E-003;1.002741162665188E-003;
2.416000000000000E+009;1.774207949638367E-001;-5.937112495303154E-002;2.340041333809495E-003;8.806398254819214E-004;
2.416166666666667E+009;1.776952296495438E-001;-5.978742241859436E-002;2.240589819848537E-003;7.257466786541045E-004;
2.416333333333334E+009;1.776703596115112E-001;-6.001837179064751E-002;2.296029357239604E-003;5.076373927295208E-004;
2.416500000000000E+009;1.776733547449112E-001;-6.049308553338051E-002;2.266193274408579E-003;5.912207416258752E-004;
2.416666666666667E+009;1.773943454027176E-001;-6.063154339790344E-002;2.237316453829408E-003;6.004957249388099E-004;
2.416833333333334E+009;1.771989315748215E-001;-6.096510961651802E-002;2.202598145231605E-003;2.997544652316719E-004;
2.417000000000000E+009;1.766717731952667E-001;-6.120312958955765E-002;2.136977156624198E-003;3.235691983718425E-004;
2.417166666666667E+009;1.762791275978088E-001;-6.129048764705658E-002;2.084412379190326E-003;1.351709506707266E-004;
2.417333333333334E+009;1.757055968046188E-001;-6.131950765848160E-002;1.949459547176957E-003;8.484282443532720E-005;
2.417500000000000E+009;1.750487834215164E-001;-6.176857650279999E-002;1.859162701293826E-003;9.892155503621325E-005;
2.417666666666667E+009;1.745324879884720E-001;-6.185678392648697E-002;1.765863620676100E-003;-2.950833004433662E-005;
2.417833333333334E+009;1.736075282096863E-001;-6.212216988205910E-002;1.879821880720556E-003;-9.089097875403240E-005;
2.418000000000000E+009;1.728050857782364E-001;-6.242718547582626E-002;1.760539365932345E-003;-2.560558496043086E-004;
2.418166666666667E+009;1.718241572380066E-001;-6.270034611225128E-002;1.680755289271474E-003;-2.416107454337180E-004;
2.418333333333334E+009;1.709677875041962E-001;-6.310033798217773E-002;1.516848104074597E-003;-3.532468981575221E-004;
2.418500000000000E+009;1.698612570762634E-001;-6.351949274539948E-002;1.601321855559945E-003;-2.916548110079020E-004;
2.418666666666667E+009;1.688833832740784E-001;-6.399635225534439E-002;1.495343283750117E-003;-3.434136742725968E-004;
2.418833333333334E+009;1.676006466150284E-001;-6.453835964202881E-002;1.492453389801085E-003;-3.432066296227276E-004;
2.419000000000000E+009;1.664011776447296E-001;-6.522850692272186E-002;1.359649817459285E-003;-4.562146787066013E-004;
2.419166666666667E+009;1.653233170509338E-001;-6.580291688442230E-002;1.381048001348972E-003;-4.431374836713076E-004;
2.419333333333334E+009;1.638608127832413E-001;-6.634562462568283E-002;1.197702600620687E-003;-3.568150859791786E-004;
2.419500000000000E+009;1.628708243370056E-001;-6.725420802831650E-002;1.263826387003064E-003;-2.804377290885896E-004;
2.419666666666667E+009;1.618051677942276E-001;-6.813888996839523E-002;1.192796626128256E-003;-3.796960518229753E-004;
2.419833333333334E+009;1.604459136724472E-001;-6.912850588560104E-002;1.084057497791946E-003;-3.779516264330596E-004;
2.420000000000000E+009;1.592578440904617E-001;-7.021144777536392E-002;1.194207230582833E-003;-4.458467301446945E-004;
2.420166666666667E+009;1.581193208694458E-001;-7.124267518520355E-002;1.035948051139712E-003;-2.514683583285660E-004;
2.420333333333334E+009;1.572140157222748E-001;-7.247283309698105E-002;1.115877181291580E-003;-3.841205034404993E-004;
2.420500000000000E+009;1.561696678400040E-001;-7.360484451055527E-002;9.135282016359270E-004;-2.988472406286746E-004;
2.420666666666667E+009;1.550858616828919E-001;-7.485459744930267E-002;1.167457085102797E-003;-3.655735054053366E-004;
2.420833333333334E+009;1.542289555072784E-001;-7.642514258623123E-002;8.978144032880664E-004;-3.377591492608190E-004;
2.421000000000000E+009;1.532115787267685E-001;-7.787887752056122E-002;9.220872307196260E-004;-3.172586148139089E-004;
2.421166666666667E+009;1.525180041790009E-001;-7.930085808038712E-002;8.756692404858768E-004;-2.597110869828612E-004;
2.421333333333334E+009;1.519495099782944E-001;-8.091003447771072E-002;8.959287079051137E-004;-3.020052390638739E-004;
2.421500000000000E+009;1.513468027114868E-001;-8.241245895624161E-002;9.750914759933949E-004;-1.705332397250459E-004;
2.421666666666667E+009;1.507955938577652E-001;-8.410609513521195E-002;8.133738301694393E-004;-1.303015305893496E-004;
2.421833333333334E+009;1.503891497850418E-001;-8.581395447254181E-002;9.855381213128567E-004;-2.911873161792755E-004;
2.422000000000000E+009;1.498251110315323E-001;-8.752065151929855E-002;9.206984541378915E-004;-2.684565261006355E-004;
2.422166666666667E+009;1.495417654514313E-001;-8.933959901332855E-002;1.054874039255083E-003;-2.050126931862906E-004;
2.422333333333334E+009;1.494971364736557E-001;-9.082610160112381E-002;9.270641021430492E-004;-2.091080095851794E-004;
2.422500000000000E+009;1.492702513933182E-001;-9.231398254632950E-002;7.890074048191309E-004;-2.536397951189429E-004;
2.422666666666667E+009;1.491185277700424E-001;-9.434715658426285E-002;9.586086380295456E-004;-3.795585362240672E-004;
2.422833333333334E+009;1.493454277515411E-001;-9.592489153146744E-002;8.956564706750214E-004;-2.270100376335904E-004;
2.423000000000000E+009;1.494780182838440E-001;-9.769872575998306E-002;9.050972294062376E-004;-3.008294734172523E-004;
2.423166666666667E+009;1.497322767972946E-001;-9.929308295249939E-002;9.550972026772797E-004;-4.637416277546436E-004;
2.423333333333334E+009;1.498997956514359E-001;-1.006675064563751E-001;9.382739663124085E-004;-4.125084378756583E-004;
2.423500000000000E+009;1.502212733030319E-001;-1.023379564285278E-001;8.523609722033143E-004;-3.023520112037659E-004;
2.423666666666667E+009;1.505663692951202E-001;-1.040407046675682E-001;8.744861115701497E-004;-4.187366866972297E-004;
2.423833333333334E+009;1.511341929435730E-001;-1.054484769701958E-001;8.740223129279912E-004;-4.757069109473378E-004;
2.424000000000000E+009;1.513641923666000E-001;-1.066173836588860E-001;8.149601053446531E-004;-3.934647538699210E-004;
2.424166666666667E+009;1.518493741750717E-001;-1.079947277903557E-001;8.138731354847550E-004;-3.485497145447880E-004;
2.424333333333334E+009;1.524507850408554E-001;-1.091871634125710E-001;8.002189570106566E-004;-4.853708087466657E-004;
2.424500000000000E+009;1.528305858373642E-001;-1.104245111346245E-001;7.203948334790766E-004;-3.876393602695316E-004;
2.424666666666667E+009;1.535002738237381E-001;-1.113308742642403E-001;8.329346892423928E-004;-5.143865710124373E-004;
2.424833333333334E+009;1.538328826427460E-001;-1.122567579150200E-001;8.602219750173390E-004;-4.477599868550897E-004;
2.425000000000000E+009;1.544504463672638E-001;-1.133187636733055E-001;7.742635789327323E-004;-4.499445203691721E-004;
2.425166666666667E+009;1.547356694936752E-001;-1.140863746404648E-001;7.404597126878798E-004;-6.165188387967646E-004;
2.425333333333334E+009;1.552201807498932E-001;-1.148408949375153E-001;7.049760897643864E-004;-1.221463753608987E-004;
2.425500000000000E+009;1.557406932115555E-001;-1.156569421291351E-001;8.088235626928508E-004;-4.865124647039920E-004;
2.425666666666667E+009;1.558886766433716E-001;-1.162027865648270E-001;6.811749772168696E-004;-3.206139081157744E-004;
2.425833333333334E+009;1.561297178268433E-001;-1.167302876710892E-001;6.790267070755363E-004;-5.879522068426013E-004;
2.426000000000000E+009;1.564306169748306E-001;-1.172955855727196E-001;6.144252256490290E-004;-5.082549178041518E-004;
2.426166666666667E+009;1.567092984914780E-001;-1.176813244819641E-001;6.491800886578858E-004;-4.992443718947470E-004;
2.426333333333334E+009;1.566476672887802E-001;-1.180035322904587E-001;6.322342087514699E-004;-4.519226495176554E-004;
2.426500000000000E+009;1.566137969493866E-001;-1.183381378650665E-001;6.078083533793688E-004;-4.086732224095613E-004;
2.426666666666667E+009;1.566825956106186E-001;-1.183108985424042E-001;5.435009370557964E-004;-2.908644673880190E-004;
2.426833333333334E+009;1.564307659864426E-001;-1.187532320618630E-001;4.982239333912730E-004;-3.925815399270505E-004;
2.427000000000000E+009;1.561968177556992E-001;-1.189116239547730E-001;5.568260676227510E-004;-3.711540193762630E-004;
2.427166666666667E+009;1.558153182268143E-001;-1.188193410634995E-001;5.559238488785923E-004;-3.440304717514664E-004;
2.427333333333334E+009;1.553517431020737E-001;-1.190405040979385E-001;5.065793520770967E-004;-3.193141892552376E-004;
2.427500000000000E+009;1.549176126718521E-001;-1.190458536148071E-001;6.444061291404069E-004;-2.381988451816142E-004;
2.427666666666667E+009;1.541649997234345E-001;-1.192585080862045E-001;6.191036081872881E-004;-4.036177415400744E-004;
2.427833333333334E+009;1.533174663782120E-001;-1.193648800253868E-001;5.958226975053549E-004;-4.054447927046567E-004;
