# Version 1.00
#
freq[Hz];re:Trc1_S11;im:Trc1_S11;re:Trc2_S21;im:Trc2_S21;
2.400000000000000E+009;1.587815433740616E-001;6.288566440343857E-002;-1.711430144496262E-003;-1.708877389319241E-003;
2.400166666666667E+009;1.587486863136292E-001;6.136135384440422E-002;-1.723511144518852E-003;-1.870148931629956E-003;
2.400333333333334E+009;1.583127677440643E-001;5.943293869495392E-002;-1.609051600098610E-003;-1.765706459991634E-003;
2.400500000000000E+009;1.583094596862793E-001;5.765982717275620E-002;-1.601770403794944E-003;-1.724436413496733E-003;
2.400666666666667E+009;1.581320911645889E-001;5.573018267750740E-002;-1.506587956100702E-003;-1.694928621873260E-003;
2.400833333333334E+009;1.582883298397064E-001;5.393433943390846E-002;-1.674743602052331E-003;-1.639149617403746E-003;
2.401000000000000E+009;1.583472788333893E-001;5.170212686061859E-002;-1.735917525365949E-003;-1.681250985711813E-003;
2.401166666666667E+009;1.586424112319946E-001;4.963179677724838E-002;-1.665261574089527E-003;-1.785186235792935E-003;
2.401333333333334E+009;1.584378629922867E-001;4.767182469367981E-002;-1.903372700326145E-003;-1.709479489363730E-003;
2.401500000000000E+009;1.589494645595551E-001;4.561094194650650E-002;-1.692221616394818E-003;-1.706053852103651E-003;
2.401666666666667E+009;1.591221392154694E-001;4.381950572133064E-002;-1.737885060720146E-003;-1.657045911997557E-003;
2.401833333333334E+009;1.594627946615219E-001;4.151431843638420E-002;-1.690188888460398E-003;-1.748849172145128E-003;
2.402000000000000E+009;1.598576009273529E-001;3.968222066760063E-002;-1.826293766498566E-003;-1.716371160000563E-003;
2.402166666666667E+009;1.601970344781876E-001;3.760965541005135E-002;-1.729054609313607E-003;-1.848656567744911E-003;
2.402333333333334E+009;1.606818139553070E-001;3.572558611631393E-002;-2.046527341008186E-003;-1.724735484458506E-003;
2.402500000000000E+009;1.613797992467880E-001;3.407525271177292E-002;-1.922756549902260E-003;-1.957326661795378E-003;
2.402666666666667E+009;1.619376093149185E-001;3.226601332426071E-002;-2.143450081348419E-003;-1.908490434288979E-003;
2.402833333333334E+009;1.628041714429855E-001;3.037681430578232E-002;-1.992469420656562E-003;-1.815751427784562E-003;
2.403000000000000E+009;1.634857952594757E-001;2.868155576288700E-002;-2.260536886751652E-003;-1.901417854242027E-003;
2.403166666666667E+009;1.643590033054352E-001;2.695840038359165E-002;-2.343572210520506E-003;-1.802182174287736E-003;
2.403333333333334E+009;1.652193218469620E-001;2.563054114580154E-002;-2.335763070732355E-003;-1.767268171533942E-003;
2.403500000000000E+009;1.660311818122864E-001;2.413284964859486E-002;-2.408764325082302E-003;-1.870138687081635E-003;
2.403666666666667E+009;1.670945733785629E-001;2.260932140052319E-002;-2.415353897958994E-003;-1.854144618846476E-003;
2.403833333333334E+009;1.682532578706741E-001;2.126003243029118E-002;-2.676127012819052E-003;-1.802632119506598E-003;
2.404000000000000E+009;1.691571027040482E-001;1.989243738353252E-002;-2.729534171521664E-003;-1.702011097222567E-003;
2.404166666666667E+009;1.699687689542770E-001;1.880255155265331E-002;-2.907134592533112E-003;-1.664857729338110E-003;
2.404333333333334E+009;1.708699613809586E-001;1.771361008286476E-002;-3.143383422866464E-003;-1.624463940970600E-003;
2.404500000000000E+009;1.719085127115250E-001;1.660394296050072E-002;-3.234720556065440E-003;-1.418321509845555E-003;
2.404666666666667E+009;1.727908849716187E-001;1.580246165394783E-002;-3.332721767947078E-003;-1.457385136745870E-003;
2.404833333333334E+009;1.736975014209747E-001;1.497075799852610E-002;-3.417357802391052E-003;-1.279092743061483E-003;
2.405000000000000E+009;1.746610105037689E-001;1.406884007155895E-002;-3.493328345939517E-003;-1.238308730535209E-003;
2.405166666666667E+009;1.754298210144043E-001;1.334308087825775E-002;-3.638089867308736E-003;-1.057596527971327E-003;
2.405333333333334E+009;1.762822717428207E-001;1.261200290173292E-002;-3.710328368470073E-003;-8.983811130747199E-004;
2.405500000000000E+009;1.770972907543182E-001;1.217977050691843E-002;-3.691081888973713E-003;-6.919902516528964E-004;
2.405666666666667E+009;1.779319792985916E-001;1.168475393205881E-002;-3.846721490845084E-003;-6.514778360724449E-004;
2.405833333333334E+009;1.783829331398010E-001;1.134639605879784E-002;-3.892829874530435E-003;-4.644420405384153E-004;
2.406000000000000E+009;1.790138632059097E-001;1.062776986509562E-002;-3.760336665436626E-003;-2.184129407396540E-004;
2.406166666666667E+009;1.794049888849258E-001;1.047148276120424E-002;-3.912928048521280E-003;-5.033927664044313E-005;
2.406333333333334E+009;1.801780760288239E-001;1.014417130500078E-002;-3.771864576265216E-003;-5.240046448307112E-006;
2.406500000000000E+009;1.803234666585922E-001;9.625102393329144E-003;-3.930052276700735E-003;1.796231226762757E-004;
2.406666666666667E+009;1.804415881633759E-001;9.421559050679207E-003;-3.975347615778446E-003;2.583432651590556E-004;
2.406833333333334E+009;1.808869540691376E-001;9.029790759086609E-003;-3.858713898807764E-003;5.220000748522580E-004;
2.407000000000000E+009;1.809603124856949E-001;8.750193752348423E-003;-3.659359412267804E-003;6.286357529461384E-004;
2.407166666666667E+009;1.811225861310959E-001;8.407277986407280E-003;-3.758760634809732E-003;6.379410042427480E-004;
2.407333333333334E+009;1.809824705123901E-001;7.853861898183823E-003;-3.740911139175296E-003;8.004368864931166E-004;
2.407500000000000E+009;1.808094084262848E-001;7.475069724023342E-003;-3.569224383682013E-003;9.664034005254507E-004;
2.407666666666667E+009;1.808293759822846E-001;7.054835557937622E-003;-3.685389878228307E-003;1.004469580948353E-003;
2.407833333333334E+009;1.803948730230331E-001;6.423214916139841E-003;-3.560441778972745E-003;1.288537285290659E-003;
2.408000000000000E+009;1.800970882177353E-001;5.782905500382185E-003;-3.475918900221586E-003;1.144038164056838E-003;
2.408166666666667E+009;1.796185821294785E-001;5.404307041317225E-003;-3.479704260826111E-003;1.288983388803899E-003;
2.408333333333334E+009;1.793904602527618E-001;4.571861587464809E-003;-3.352550789713860E-003;1.342200441285968E-003;
2.408500000000000E+009;1.787450313568115E-001;3.844897495582700E-003;-3.358264220878482E-003;1.351973274722695E-003;
2.408666666666667E+009;1.782379001379013E-001;2.995481016114354E-003;-3.291846718639135E-003;1.502277911640704E-003;
2.408833333333334E+009;1.775852143764496E-001;1.985172508284450E-003;-3.331251209601760E-003;1.608898164704442E-003;
2.409000000000000E+009;1.768621951341629E-001;1.179098384454846E-003;-3.196578705683351E-003;1.812378992326558E-003;
2.409166666666667E+009;1.761916875839233E-001;-3.137646854156628E-005;-3.126917174085975E-003;1.681628171354532E-003;
2.409333333333334E+009;1.756307035684586E-001;-1.298060058616102E-003;-3.261114936321974E-003;1.753532444126904E-003;
2.409500000000000E+009;1.747355461120606E-001;-2.545560942962766E-003;-3.070653416216373E-003;1.753052114509046E-003;
2.409666666666667E+009;1.742985546588898E-001;-3.782055573537946E-003;-2.970879431813955E-003;2.008777111768723E-003;
2.409833333333334E+009;1.733701229095459E-001;-5.099231842905283E-003;-3.276446135714650E-003;2.001814777031541E-003;
2.410000000000000E+009;1.728899627923966E-001;-6.599450483918190E-003;-3.081656293943524E-003;2.224314259365201E-003;
2.410166666666667E+009;1.721754074096680E-001;-7.957067340612412E-003;-2.919429680332542E-003;2.300857799127698E-003;
2.410333333333334E+009;1.713887155056000E-001;-9.585431776940823E-003;-3.058369737118483E-003;2.203215379267931E-003;
2.410500000000000E+009;1.708275973796845E-001;-1.123390998691320E-002;-3.037733025848866E-003;2.265452407300472E-003;
2.410666666666667E+009;1.703106462955475E-001;-1.311636157333851E-002;-3.009602660313249E-003;2.391406102105975E-003;
2.410833333333334E+009;1.698873937129974E-001;-1.478408556431532E-002;-2.921604784205556E-003;2.586119808256626E-003;
2.411000000000000E+009;1.694152951240540E-001;-1.656090654432774E-002;-2.823894843459129E-003;2.523964969441295E-003;
2.411166666666667E+009;1.691175550222397E-001;-1.844723895192146E-002;-2.749177161604166E-003;2.689236309379339E-003;
2.411333333333334E+009;1.686268001794815E-001;-2.010887302458286E-002;-2.892476273700595E-003;2.846519229933620E-003;
2.411500000000000E+009;1.683372557163239E-001;-2.224772237241268E-002;-2.697025192901492E-003;2.916603814810515E-003;
2.411666666666667E+009;1.684716790914536E-001;-2.410957030951977E-002;-2.752905944362283E-003;3.036456182599068E-003;
2.411833333333334E+009;1.682952344417572E-001;-2.587672881782055E-002;-2.706791507080197E-003;3.244786523282528E-003;
2.412000000000000E+009;1.682353019714356E-001;-2.787704579532147E-002;-2.579073421657085E-003;3.240168560296297E-003;
2.412166666666667E+009;1.681643724441528E-001;-2.995785884559155E-002;-2.625958528369665E-003;3.381610615178943E-003;
2.412333333333334E+009;1.685280799865723E-001;-3.166763484477997E-002;-2.453071298077703E-003;3.521893406286836E-003;
2.412500000000000E+009;1.687310189008713E-001;-3.362021967768669E-002;-2.388323657214642E-003;3.444160334765911E-003;
2.412666666666667E+009;1.688920259475708E-001;-3.560274839401245E-002;-2.315888414159417E-003;3.676062216982245E-003;
2.412833333333334E+009;1.692248433828354E-001;-3.734023496508598E-002;-2.185786608606577E-003;3.815214615315199E-003;
2.413000000000000E+009;1.694852262735367E-001;-3.911270201206207E-002;-2.076250035315752E-003;4.061745945364237E-003;
2.413166666666667E+009;1.698559075593948E-001;-4.087611287832260E-002;-1.918875379487872E-003;4.003797192126513E-003;
2.413333333333334E+009;1.701210439205170E-001;-4.267966747283936E-002;-1.846485189162195E-003;4.039124585688114E-003;
2.413500000000000E+009;1.707552373409271E-001;-4.424243792891502E-002;-1.650375197641552E-003;4.311450291424990E-003;
2.413666666666667E+009;1.712697148323059E-001;-4.584696888923645E-002;-1.786448177881539E-003;4.307146649807692E-003;
2.413833333333334E+009;1.718545556068420E-001;-4.737151414155960E-002;-1.336167450062931E-003;4.233839921653271E-003;
2.414000000000000E+009;1.721814125776291E-001;-4.872819408774376E-002;-1.263933954760432E-003;4.575472325086594E-003;
2.414166666666667E+009;1.729681044816971E-001;-5.008057504892349E-002;-1.084909075871110E-003;4.610637202858925E-003;
2.414333333333334E+009;1.733584105968475E-001;-5.148381367325783E-002;-9.058954892680049E-004;4.480743315070868E-003;
2.414500000000000E+009;1.739750504493713E-001;-5.253869667649269E-002;-8.382048690691590E-004;4.555610939860344E-003;
2.414666666666667E+009;1.743451058864594E-001;-5.356272682547569E-002;-6.520039751194418E-004;4.618399310857058E-003;
2.414833333333334E+009;1.749876737594605E-001;-5.457428842782974E-002;-4.005237133242190E-004;4.664229229092598E-003;
2.415000000000000E+009;1.754433810710907E-001;-5.546732619404793E-002;-2.641500323079526E-004;4.588961135596037E-003;
2.415166666666667E+009;1.759216934442520E-001;-5.632728710770607E-002;-6.588121323147789E-005;4.664901643991470E-003;
2.415333333333334E+009;1.764710247516632E-001;-5.722118914127350E-002;4.989558146917261E-005;4.744996316730976E-003;
2.415500000000000E+009;1.767415106296539E-001;-5.773806199431419E-002;3.737925435416400E-004;4.660107195377350E-003;
2.415666666666667E+009;1.769105195999146E-001;-5.835767835378647E-002;4.627754387911409E-004;4.598534666001797E-003;
2.415833333333334E+009;1.773756891489029E-001;-5.898005887866020E-002;6.786917801946402E-004;4.634579177945852E-003;
2.416000000000000E+009;1.773571223020554E-001;-5.950026586651802E-002;7.373781991191208E-004;4.841177258640528E-003;
2.416166666666667E+009;1.775673031806946E-001;-5.984696745872498E-002;9.291936294175685E-004;4.719495307654142E-003;
2.416333333333334E+009;1.776170581579208E-001;-6.022160500288010E-002;1.054217689670622E-003;4.680993035435677E-003;
2.416500000000000E+009;1.776273995637894E-001;-6.069643050432205E-002;1.264669816009700E-003;4.620234947651625E-003;
2.416666666666667E+009;1.774069070816040E-001;-6.074815243482590E-002;1.286088023334742E-003;4.557289648801088E-003;
2.416833333333334E+009;1.772356927394867E-001;-6.129281222820282E-002;1.418843748979271E-003;4.492964129894972E-003;
2.417000000000000E+009;1.767844706773758E-001;-6.140752136707306E-002;1.553574344143271E-003;4.483554046601057E-003;
2.417166666666667E+009;1.764497309923172E-001;-6.168724223971367E-002;1.791973947547376E-003;4.349370021373034E-003;
2.417333333333334E+009;1.760608255863190E-001;-6.191544607281685E-002;1.838793628849089E-003;4.282330628484488E-003;
2.417500000000000E+009;1.753876805305481E-001;-6.228602305054665E-002;1.999261789023876E-003;4.182826261967421E-003;
2.417666666666667E+009;1.748407781124115E-001;-6.243578717112541E-002;2.249474870041013E-003;4.147488158196211E-003;
2.417833333333334E+009;1.741027384996414E-001;-6.252954900264740E-002;2.212187275290489E-003;4.069521091878414E-003;
2.418000000000000E+009;1.732245385646820E-001;-6.303425133228302E-002;2.229612320661545E-003;4.007403273135424E-003;
2.418166666666667E+009;1.721943169832230E-001;-6.330792605876923E-002;2.466998295858502E-003;3.943835850805044E-003;
2.418333333333334E+009;1.714828461408615E-001;-6.376323848962784E-002;2.561665838584304E-003;3.930308390408754E-003;
2.418500000000000E+009;1.704775393009186E-001;-6.417966634035111E-002;2.586993156000972E-003;3.842180361971259E-003;
2.418666666666667E+009;1.695530563592911E-001;-6.464416533708572E-002;2.765370998531580E-003;3.629333106800914E-003;
2.418833333333334E+009;1.682102680206299E-001;-6.512978672981262E-002;2.845261944457889E-003;3.676824504509568E-003;
2.419000000000000E+009;1.670583933591843E-001;-6.561600416898727E-002;2.809547120705247E-003;3.645139513537288E-003;
2.419166666666667E+009;1.658610254526138E-001;-6.643725931644440E-002;3.086566925048828E-003;3.516521770507097E-003;
2.419333333333334E+009;1.647273898124695E-001;-6.692910194396973E-002;3.118289168924093E-003;3.513973671942949E-003;
2.419500000000000E+009;1.636026799678803E-001;-6.787172704935074E-002;3.305073827505112E-003;3.363371593877673E-003;
2.419666666666667E+009;1.623958349227905E-001;-6.883590668439865E-002;3.274582093581557E-003;3.326167352497578E-003;
2.419833333333334E+009;1.611779779195786E-001;-6.946672499179840E-002;3.426614915952086E-003;3.249789820984006E-003;
2.420000000000000E+009;1.600840836763382E-001;-7.054033875465393E-002;3.497467143461108E-003;3.291949396952987E-003;
2.420166666666667E+009;1.589464098215103E-001;-7.161934673786163E-002;3.642262658104301E-003;3.158354433253408E-003;
2.420333333333334E+009;1.579811871051788E-001;-7.284721732139587E-002;3.685730276629329E-003;3.044298849999905E-003;
2.420500000000000E+009;1.568641811609268E-001;-7.393001019954681E-002;3.843424143269658E-003;2.948188688606024E-003;
2.420666666666667E+009;1.558031737804413E-001;-7.515676319599152E-002;3.951383754611015E-003;2.942092251032591E-003;
2.420833333333334E+009;1.548761725425720E-001;-7.678249478340149E-002;4.113417118787766E-003;2.961470279842615E-003;
2.421000000000000E+009;1.539893448352814E-001;-7.805126905441284E-002;4.352638497948647E-003;2.736279508098960E-003;
2.421166666666667E+009;1.531762480735779E-001;-7.952263206243515E-002;4.392656963318586E-003;2.649864647537470E-003;
2.421333333333334E+009;1.524268388748169E-001;-8.113709092140198E-002;4.518787376582623E-003;2.414645859971643E-003;
2.421500000000000E+009;1.516173332929611E-001;-8.258800208568573E-002;4.565788432955742E-003;2.485813573002815E-003;
2.421666666666667E+009;1.511950939893723E-001;-8.421161025762558E-002;4.679096862673760E-003;2.264562761411071E-003;
2.421833333333334E+009;1.506094038486481E-001;-8.594073355197907E-002;4.779573064297438E-003;2.092292066663504E-003;
2.422000000000000E+009;1.502141654491425E-001;-8.753903955221176E-002;4.877373110502958E-003;2.074298448860645E-003;
2.422166666666667E+009;1.499340683221817E-001;-8.935226500034332E-002;5.118033383041620E-003;1.821107696741819E-003;
2.422333333333334E+009;1.495766639709473E-001;-9.099460393190384E-002;5.166172515600920E-003;1.564446254633367E-003;
2.422500000000000E+009;1.494977176189423E-001;-9.250993281602860E-002;5.090666469186544E-003;1.409120508469641E-003;
2.422666666666667E+009;1.493141651153565E-001;-9.433530271053314E-002;5.298523698002100E-003;1.237048185430467E-003;
2.422833333333334E+009;1.493698656558991E-001;-9.604398906230927E-002;5.422640591859818E-003;1.161633525043726E-003;
2.423000000000000E+009;1.495739519596100E-001;-9.765098989009857E-002;5.355739034712315E-003;8.452478214167059E-004;
2.423166666666667E+009;1.497135609388351E-001;-9.942275285720825E-002;5.494073033332825E-003;5.292517598718405E-004;
2.423333333333334E+009;1.499136686325073E-001;-1.008388698101044E-001;5.497415550053120E-003;3.590363485272974E-004;
2.423500000000000E+009;1.501150578260422E-001;-1.024202778935432E-001;5.545955151319504E-003;1.567265862831846E-004;
2.423666666666667E+009;1.502871066331863E-001;-1.040358617901802E-001;5.574271548539400E-003;-1.595469657331705E-004;
2.423833333333334E+009;1.508115679025650E-001;-1.056304275989533E-001;5.506820511072874E-003;-2.796564949676395E-004;
2.424000000000000E+009;1.511445790529251E-001;-1.066833138465881E-001;5.617232061922550E-003;-6.553856655955315E-004;
2.424166666666667E+009;1.515192985534668E-001;-1.081531420350075E-001;5.393353756517172E-003;-7.274372037500143E-004;
2.424333333333334E+009;1.520532816648483E-001;-1.094116196036339E-001;5.392061080783606E-003;-1.017533475533128E-003;
2.424500000000000E+009;1.524901837110519E-001;-1.105586960911751E-001;5.399112123996019E-003;-1.317631336860359E-003;
2.424666666666667E+009;1.529681235551834E-001;-1.115482375025749E-001;5.281337536871433E-003;-1.512322807684541E-003;
2.424833333333334E+009;1.532457172870636E-001;-1.126714348793030E-001;5.199686158448458E-003;-1.643884228542447E-003;
2.425000000000000E+009;1.539184898138046E-001;-1.135534048080444E-001;5.087318830192089E-003;-2.004083478823304E-003;
2.425166666666667E+009;1.540599167346954E-001;-1.143447682261467E-001;4.920735023915768E-003;-2.097840886563063E-003;
2.425333333333334E+009;1.546514183282852E-001;-1.151611730456352E-001;4.892053082585335E-003;-2.348587382584810E-003;
2.425500000000000E+009;1.549746543169022E-001;-1.159595400094986E-001;4.802905488759279E-003;-2.513529034331441E-003;
2.425666666666667E+009;1.550936549901962E-001;-1.165566295385361E-001;4.407887812703848E-003;-2.608955372124910E-003;
2.425833333333334E+009;1.555557250976563E-001;-1.170229390263557E-001;4.345222841948271E-003;-2.721065422520042E-003;
2.426000000000000E+009;1.555853486061096E-001;-1.176027655601502E-001;4.305753856897354E-003;-3.026496386155486E-003;
2.426166666666667E+009;1.560554951429367E-001;-1.179882958531380E-001;3.995343111455441E-003;-2.924083266407251E-003;
2.426333333333334E+009;1.560053229331970E-001;-1.182288378477097E-001;3.869215492159128E-003;-3.157920436933637E-003;
2.426500000000000E+009;1.560874879360199E-001;-1.186442896723747E-001;3.745365189388394E-003;-3.355054184794426E-003;
2.426666666666667E+009;1.561077833175659E-001;-1.186732947826386E-001;3.708792617544532E-003;-3.274471731856465E-003;
2.426833333333334E+009;1.559058427810669E-001;-1.189443320035934E-001;3.485914785414934E-003;-3.370146034285426E-003;
2.427000000000000E+009;1.556796580553055E-001;-1.191739737987518E-001;3.147019306197763E-003;-3.423009533435106E-003;
2.427166666666667E+009;1.552882194519043E-001;-1.191514059901238E-001;3.121563931927085E-003;-3.478959202766419E-003;
2.427333333333334E+009;1.548489332199097E-001;-1.192296743392944E-001;2.992502413690090E-003;-3.677519736811519E-003;
2.427500000000000E+009;1.543900221586227E-001;-1.193679347634316E-001;2.840370172634721E-003;-3.615751629695296E-003;
2.427666666666667E+009;1.537855118513107E-001;-1.195999383926392E-001;2.677782671526074E-003;-3.552150214090943E-003;
