# Version 1.00
#
freq[Hz];re:Trc1_S11;im:Trc1_S11;re:Trc2_S21;im:Trc2_S21;
2.400000000000000E+009;1.585951596498489E-001;6.275136023759842E-002;-1.474700868129730E-003;-1.523195300251246E-003;
2.400166666666667E+009;1.585130840539932E-001;6.125847622752190E-002;-1.570038730278611E-003;-1.548638567328453E-003;
2.400333333333334E+009;1.583209633827210E-001;5.932347476482391E-002;-1.512956689111888E-003;-1.498379511758685E-003;
2.400500000000000E+009;1.583441793918610E-001;5.740911513566971E-002;-1.454916549846530E-003;-1.636294648051262E-003;
2.400666666666667E+009;1.582404077053070E-001;5.575151741504669E-002;-1.600189018063247E-003;-1.558063202537596E-003;
2.400833333333334E+009;1.582788676023483E-001;5.362531542778015E-002;-1.585581921972334E-003;-1.473174197599292E-003;
2.401000000000000E+009;1.582488119602203E-001;5.179533734917641E-002;-1.639873022213578E-003;-1.688883407041431E-003;
2.401166666666667E+009;1.583819240331650E-001;4.967845603823662E-002;-1.461682491935790E-003;-1.555166556499898E-003;
2.401333333333334E+009;1.585058569908142E-001;4.760584235191345E-002;-1.527651911601424E-003;-1.572646782733500E-003;
2.401500000000000E+009;1.587720662355423E-001;4.554406180977821E-002;-1.487358706071973E-003;-1.519632060080767E-003;
2.401666666666667E+009;1.589936167001724E-001;4.357843101024628E-002;-1.463832566514611E-003;-1.525619416497648E-003;
2.401833333333334E+009;1.593687087297440E-001;4.159665480256081E-002;-1.627120655030012E-003;-1.677705789916217E-003;
2.402000000000000E+009;1.596607118844986E-001;3.945065662264824E-002;-1.563355792313814E-003;-1.695917453616858E-003;
2.402166666666667E+009;1.600146144628525E-001;3.758663311600685E-002;-1.587256556376815E-003;-1.605912111699581E-003;
2.402333333333334E+009;1.604630053043366E-001;3.585549816489220E-002;-1.648542005568743E-003;-1.722860033623874E-003;
2.402500000000000E+009;1.613757908344269E-001;3.393841534852982E-002;-1.606314443051815E-003;-1.663494971580803E-003;
2.402666666666667E+009;1.619115769863129E-001;3.208690509200096E-002;-1.731677213683724E-003;-1.765386783517897E-003;
2.402833333333334E+009;1.626577675342560E-001;3.055282868444920E-002;-1.909448765218258E-003;-1.844125567004085E-003;
2.403000000000000E+009;1.633903831243515E-001;2.863256819546223E-002;-1.935851294547319E-003;-1.806103740818799E-003;
2.403166666666667E+009;1.643040776252747E-001;2.714002877473831E-002;-1.981045817956328E-003;-1.845497754402459E-003;
2.403333333333334E+009;1.653144210577011E-001;2.575606480240822E-002;-1.981470035389066E-003;-1.964241266250610E-003;
2.403500000000000E+009;1.658542752265930E-001;2.414301969110966E-002;-2.212676219642162E-003;-2.055092249065638E-003;
2.403666666666667E+009;1.670597195625305E-001;2.257996052503586E-002;-2.349305665120482E-003;-1.950996462255716E-003;
2.403833333333334E+009;1.679026782512665E-001;2.141350135207176E-002;-2.457899507135153E-003;-1.925930264405906E-003;
2.404000000000000E+009;1.689001023769379E-001;2.015745453536511E-002;-2.667334862053394E-003;-1.958205364644527E-003;
2.404166666666667E+009;1.698580980300903E-001;1.889671757817268E-002;-2.790881553664804E-003;-1.787791959941387E-003;
2.404333333333334E+009;1.708426922559738E-001;1.783228851854801E-002;-2.891091397032142E-003;-1.705315778963268E-003;
2.404500000000000E+009;1.716107428073883E-001;1.669008657336235E-002;-3.063553245738149E-003;-1.756025361828506E-003;
2.404666666666667E+009;1.726556718349457E-001;1.599212735891342E-002;-3.218497848138213E-003;-1.614009146578610E-003;
2.404833333333334E+009;1.737034618854523E-001;1.496168319135904E-002;-3.212733892723918E-003;-1.591274631209672E-003;
2.405000000000000E+009;1.745561659336090E-001;1.419907528907061E-002;-3.377394052222371E-003;-1.292489585466683E-003;
2.405166666666667E+009;1.755398362874985E-001;1.355502288788557E-002;-3.610426094383001E-003;-1.167923910543323E-003;
2.405333333333334E+009;1.762664020061493E-001;1.263887528330088E-002;-3.569505643099546E-003;-1.259362208656967E-003;
2.405500000000000E+009;1.769604533910751E-001;1.240088418126106E-002;-3.614608198404312E-003;-8.471772889606655E-004;
2.405666666666667E+009;1.777362674474716E-001;1.164462603628635E-002;-3.661271184682846E-003;-7.277815602719784E-004;
2.405833333333334E+009;1.783156991004944E-001;1.144505199044943E-002;-3.961292095482349E-003;-5.746215465478599E-004;
2.406000000000000E+009;1.790821403264999E-001;1.070930156856775E-002;-3.845912870019674E-003;-6.001463043503463E-004;
2.406166666666667E+009;1.794252246618271E-001;1.046683639287949E-002;-3.893101122230291E-003;-4.098505887668580E-004;
2.406333333333334E+009;1.800142675638199E-001;1.019541639834642E-002;-3.829964436590672E-003;-1.883062795968726E-004;
2.406500000000000E+009;1.802631765604019E-001;9.744605049490929E-003;-3.845593426376581E-003;3.000652031914797E-005;
2.406666666666667E+009;1.805467903614044E-001;9.375850670039654E-003;-3.774325130507350E-003;2.009199815802276E-004;
2.406833333333334E+009;1.807566285133362E-001;9.085087105631828E-003;-3.737474558874965E-003;3.540511534083635E-004;
2.407000000000000E+009;1.809272170066834E-001;8.845209144055843E-003;-3.767729504033923E-003;3.965400974266231E-004;
2.407166666666667E+009;1.811868697404862E-001;8.528351783752441E-003;-3.712311387062073E-003;4.750530351884663E-004;
2.407333333333334E+009;1.808916181325913E-001;7.984537631273270E-003;-3.736819606274366E-003;7.282179431058466E-004;
2.407500000000000E+009;1.808607876300812E-001;7.610805798321962E-003;-3.730023512616754E-003;6.848138873465359E-004;
2.407666666666667E+009;1.807255148887634E-001;7.221753243356943E-003;-3.598491894081235E-003;7.678457186557353E-004;
2.407833333333334E+009;1.803389042615891E-001;6.614450365304947E-003;-3.539209486916661E-003;9.233520249836147E-004;
2.408000000000000E+009;1.801421642303467E-001;5.920352879911661E-003;-3.388708224520087E-003;1.041743438690901E-003;
2.408166666666667E+009;1.796288341283798E-001;5.429573357105255E-003;-3.597187809646130E-003;1.045775483362377E-003;
2.408333333333334E+009;1.794756054878235E-001;4.639449529349804E-003;-3.520852187648416E-003;1.145324436947703E-003;
2.408500000000000E+009;1.788323074579239E-001;3.805553074926138E-003;-3.628400387242436E-003;1.316287205554545E-003;
2.408666666666667E+009;1.782509237527847E-001;3.097306471318007E-003;-3.374224063009024E-003;1.407061587087810E-003;
2.408833333333334E+009;1.774222254753113E-001;2.082353923469782E-003;-3.469928866252303E-003;1.378968590870500E-003;
2.409000000000000E+009;1.769298315048218E-001;1.239039585925639E-003;-3.341924864798784E-003;1.510167261585593E-003;
2.409166666666667E+009;1.762967258691788E-001;7.238903344841674E-005;-3.261920996010304E-003;1.605311292223632E-003;
2.409333333333334E+009;1.755865067243576E-001;-1.201689126901329E-003;-3.304642857983708E-003;1.635834691114724E-003;
2.409500000000000E+009;1.747869998216629E-001;-2.470521256327629E-003;-3.159483429044485E-003;1.717653824016452E-003;
2.409666666666667E+009;1.741212606430054E-001;-3.720866749063134E-003;-3.151440760120750E-003;1.906586345285177E-003;
2.409833333333334E+009;1.733539551496506E-001;-5.086383316665888E-003;-3.215506440028548E-003;1.888356520794332E-003;
2.410000000000000E+009;1.728078573942184E-001;-6.556980311870575E-003;-3.134452505037189E-003;1.973464619368315E-003;
2.410166666666667E+009;1.720991134643555E-001;-7.971607148647308E-003;-3.035457804799080E-003;2.083586296066642E-003;
2.410333333333334E+009;1.714621186256409E-001;-9.629459120333195E-003;-3.168354742228985E-003;2.137893578037620E-003;
2.410500000000000E+009;1.709553003311157E-001;-1.123623084276915E-002;-2.995823277160525E-003;2.095135161653161E-003;
2.410666666666667E+009;1.703237444162369E-001;-1.314553990960121E-002;-2.923975931480527E-003;2.384809544309974E-003;
2.410833333333334E+009;1.697719693183899E-001;-1.468256581574678E-002;-3.028554143384099E-003;2.360386773943901E-003;
2.411000000000000E+009;1.693988293409348E-001;-1.645809598267078E-002;-3.013074165210128E-003;2.470501931384206E-003;
2.411166666666667E+009;1.690917462110519E-001;-1.844961568713188E-002;-2.766182180494070E-003;2.659011399373412E-003;
2.411333333333334E+009;1.686869710683823E-001;-2.012051455676556E-002;-2.938174642622471E-003;2.680511446669698E-003;
2.411500000000000E+009;1.684166491031647E-001;-2.235762216150761E-002;-2.806670498102903E-003;2.789638703688979E-003;
2.411666666666667E+009;1.682981103658676E-001;-2.408724278211594E-002;-2.897215308621526E-003;2.986866282299161E-003;
2.411833333333334E+009;1.683524101972580E-001;-2.595495246350765E-002;-2.738866489380598E-003;3.035640111193061E-003;
2.412000000000000E+009;1.682840287685394E-001;-2.797784097492695E-002;-2.773379208520055E-003;3.094052663072944E-003;
2.412166666666667E+009;1.681558042764664E-001;-2.981632947921753E-002;-2.649558009579778E-003;3.173642093315721E-003;
2.412333333333334E+009;1.684221774339676E-001;-3.173647448420525E-002;-2.634525997564197E-003;3.343834308907390E-003;
2.412500000000000E+009;1.686208844184876E-001;-3.357177227735519E-002;-2.540008863434196E-003;3.597676521167159E-003;
2.412666666666667E+009;1.687414795160294E-001;-3.554655611515045E-002;-2.351403469219804E-003;3.573785535991192E-003;
2.412833333333334E+009;1.692051589488983E-001;-3.725821524858475E-002;-2.210982609540224E-003;3.685617353767157E-003;
2.413000000000000E+009;1.694821417331696E-001;-3.903734683990479E-002;-2.236446365714073E-003;4.036138765513897E-003;
2.413166666666667E+009;1.698088496923447E-001;-4.095119237899780E-002;-2.014752943068743E-003;3.975544590502977E-003;
2.413333333333334E+009;1.701100319623947E-001;-4.257993772625923E-002;-1.902753137983382E-003;4.128349944949150E-003;
2.413500000000000E+009;1.706766039133072E-001;-4.421569779515266E-002;-1.848688232712448E-003;4.215540364384651E-003;
2.413666666666667E+009;1.712384521961212E-001;-4.574801400303841E-002;-1.673661405220628E-003;4.298760555684567E-003;
2.413833333333334E+009;1.716834157705307E-001;-4.727279394865036E-002;-1.475617522373796E-003;4.433568101376295E-003;
2.414000000000000E+009;1.722095012664795E-001;-4.873606562614441E-002;-1.529278699308634E-003;4.385150969028473E-003;
2.414166666666667E+009;1.729634851217270E-001;-4.996595159173012E-002;-1.281812787055969E-003;4.401685670018196E-003;
2.414333333333334E+009;1.733804196119309E-001;-5.129401013255119E-002;-1.117245294153690E-003;4.425515420734882E-003;
2.414500000000000E+009;1.739748567342758E-001;-5.253423005342484E-002;-8.150374051183462E-004;4.722693469375372E-003;
2.414666666666667E+009;1.745447963476181E-001;-5.353293195366859E-002;-6.313662161119282E-004;4.665086977183819E-003;
2.414833333333334E+009;1.748192161321640E-001;-5.469195917248726E-002;-4.941912484355271E-004;4.641374573111534E-003;
2.415000000000000E+009;1.754750013351440E-001;-5.556392669677734E-002;-2.286457311129198E-004;4.695813637226820E-003;
2.415166666666667E+009;1.757273226976395E-001;-5.634929984807968E-002;-1.865640806499869E-004;4.797519650310278E-003;
2.415333333333334E+009;1.763725131750107E-001;-5.722543597221375E-002;7.789551455061883E-005;4.579351749271154E-003;
2.415500000000000E+009;1.766600757837296E-001;-5.775272846221924E-002;8.889559103408828E-005;4.644362255930901E-003;
2.415666666666667E+009;1.769643723964691E-001;-5.838704481720924E-002;4.047669062856585E-004;4.839473403990269E-003;
2.415833333333334E+009;1.773060113191605E-001;-5.901346728205681E-002;5.630685482174158E-004;4.680169746279717E-003;
2.416000000000000E+009;1.774138957262039E-001;-5.937807634472847E-002;7.433056598529220E-004;4.615854471921921E-003;
2.416166666666667E+009;1.776419132947922E-001;-5.996846407651901E-002;9.197542094625533E-004;4.708934109658003E-003;
2.416333333333334E+009;1.776606887578964E-001;-6.028407812118530E-002;9.804024593904614E-004;4.735315218567848E-003;
2.416500000000000E+009;1.775857061147690E-001;-6.057706847786903E-002;1.254758914001286E-003;4.523920826613903E-003;
2.416666666666667E+009;1.773663759231567E-001;-6.081611663103104E-002;1.319268019869924E-003;4.426843021064997E-003;
2.416833333333334E+009;1.772849112749100E-001;-6.122707575559616E-002;1.454131444916129E-003;4.420003853738308E-003;
2.417000000000000E+009;1.768942028284073E-001;-6.143978610634804E-002;1.536993891932070E-003;4.458946641534567E-003;
2.417166666666667E+009;1.764576286077499E-001;-6.149842962622643E-002;1.624393742531538E-003;4.392381291836500E-003;
2.417333333333334E+009;1.760120391845703E-001;-6.186821311712265E-002;1.893862965516746E-003;4.221182782202959E-003;
2.417500000000000E+009;1.753917187452316E-001;-6.232756003737450E-002;1.991263125091791E-003;4.166499245911837E-003;
2.417666666666667E+009;1.747042387723923E-001;-6.228556483983994E-002;2.103789243847132E-003;4.072495270520449E-003;
2.417833333333334E+009;1.740564703941345E-001;-6.282928586006165E-002;2.185680903494358E-003;4.040009342133999E-003;
2.418000000000000E+009;1.732107698917389E-001;-6.305874884128571E-002;2.138405339792371E-003;3.950841259211302E-003;
2.418166666666667E+009;1.723555326461792E-001;-6.325180083513260E-002;2.589893760159612E-003;3.972858190536499E-003;
2.418333333333334E+009;1.715873181819916E-001;-6.369750946760178E-002;2.571502700448036E-003;3.893836401402950E-003;
2.418500000000000E+009;1.703856736421585E-001;-6.415662169456482E-002;2.503108931705356E-003;3.785227192565799E-003;
2.418666666666667E+009;1.693839132785797E-001;-6.459612399339676E-002;2.552005695179105E-003;3.774578450247645E-003;
2.418833333333334E+009;1.681763380765915E-001;-6.510155647993088E-002;2.793563529849052E-003;3.597375936806202E-003;
2.419000000000000E+009;1.669801175594330E-001;-6.571047008037567E-002;2.858174033463001E-003;3.735790960490704E-003;
2.419166666666667E+009;1.660130172967911E-001;-6.629766523838043E-002;2.990357810631394E-003;3.666502889245749E-003;
2.419333333333334E+009;1.646614670753479E-001;-6.683171540498734E-002;3.065634984523058E-003;3.433679696172476E-003;
2.419500000000000E+009;1.635096371173859E-001;-6.787387281656265E-002;3.213833319023252E-003;3.423827467486262E-003;
2.419666666666667E+009;1.623488962650299E-001;-6.879998743534088E-002;3.278381424024701E-003;3.349524224177003E-003;
2.419833333333334E+009;1.611586213111877E-001;-6.959268450737000E-002;3.384746611118317E-003;3.266464918851852E-003;
2.420000000000000E+009;1.600357443094254E-001;-7.065092772245407E-002;3.398680128157139E-003;3.200846724212170E-003;
2.420166666666667E+009;1.590194255113602E-001;-7.163667678833008E-002;3.442191518843174E-003;3.302538301795721E-003;
2.420333333333334E+009;1.578425318002701E-001;-7.276488095521927E-002;3.713916987180710E-003;3.128611482679844E-003;
2.420500000000000E+009;1.568547338247299E-001;-7.398581504821777E-002;3.819148056209087E-003;3.092682454735041E-003;
2.420666666666667E+009;1.558130979537964E-001;-7.523350417613983E-002;3.871097229421139E-003;2.930031623691320E-003;
2.420833333333334E+009;1.546431183815002E-001;-7.663738727569580E-002;4.068430513143539E-003;2.958115190267563E-003;
2.421000000000000E+009;1.538739502429962E-001;-7.799581438302994E-002;4.154130816459656E-003;2.683208091184497E-003;
2.421166666666667E+009;1.531434804201126E-001;-7.951636612415314E-002;4.276708234101534E-003;2.708648331463337E-003;
2.421333333333334E+009;1.526295095682144E-001;-8.100824058055878E-002;4.312635865062475E-003;2.558200620114803E-003;
2.421500000000000E+009;1.517209112644196E-001;-8.256202936172485E-002;4.400805104523897E-003;2.227494725957513E-003;
2.421666666666667E+009;1.512902081012726E-001;-8.413255214691162E-002;4.710710141807795E-003;2.357934368774295E-003;
2.421833333333334E+009;1.505260020494461E-001;-8.582314103841782E-002;4.627847112715244E-003;1.964130206033588E-003;
2.422000000000000E+009;1.502800136804581E-001;-8.747883141040802E-002;4.852601327002049E-003;2.051058458164334E-003;
2.422166666666667E+009;1.498143970966339E-001;-8.925344794988632E-002;4.873313475400209E-003;1.872881432063878E-003;
2.422333333333334E+009;1.496832519769669E-001;-9.093216061592102E-002;4.950484726577997E-003;1.630898565053940E-003;
2.422500000000000E+009;1.494558304548264E-001;-9.240885078907013E-002;5.145265255123377E-003;1.331061124801636E-003;
2.422666666666667E+009;1.493336111307144E-001;-9.421234577894211E-002;5.221512634307146E-003;1.147405826486647E-003;
2.422833333333334E+009;1.493756473064423E-001;-9.596055001020432E-002;5.290261935442686E-003;1.103410846553743E-003;
2.423000000000000E+009;1.496154069900513E-001;-9.759763628244400E-002;5.285534076392651E-003;8.100011618807912E-004;
2.423166666666667E+009;1.499052941799164E-001;-9.919285029172897E-002;5.298440810292959E-003;6.035577389411628E-004;
2.423333333333334E+009;1.499052941799164E-001;-1.005944162607193E-001;5.385510157793760E-003;3.859713033307344E-004;
2.423500000000000E+009;1.502298563718796E-001;-1.023146584630013E-001;5.318739451467991E-003;3.887745697284117E-005;
2.423666666666667E+009;1.503610312938690E-001;-1.039076596498489E-001;5.355637520551682E-003;-4.075723700225353E-005;
2.423833333333334E+009;1.508992165327072E-001;-1.053154394030571E-001;5.444943439215422E-003;-2.045230648946017E-004;
2.424000000000000E+009;1.511918753385544E-001;-1.066950708627701E-001;5.501929670572281E-003;-6.409840425476432E-004;
2.424166666666667E+009;1.515426486730576E-001;-1.080120578408241E-001;5.360610317438841E-003;-7.783472537994385E-004;
2.424333333333334E+009;1.521930098533630E-001;-1.092776879668236E-001;5.469065159559250E-003;-9.486198541708291E-004;
2.424500000000000E+009;1.525914371013641E-001;-1.104416400194168E-001;5.288224667310715E-003;-1.159540144726634E-003;
2.424666666666667E+009;1.531293243169785E-001;-1.113811358809471E-001;5.157401319593191E-003;-1.230839756317437E-003;
2.424833333333334E+009;1.534208655357361E-001;-1.124915555119515E-001;5.072088912129402E-003;-1.670838217251003E-003;
2.425000000000000E+009;1.538570672273636E-001;-1.134861186146736E-001;4.924022126942873E-003;-1.807732624001801E-003;
2.425166666666667E+009;1.541935652494431E-001;-1.142886430025101E-001;4.929813090711832E-003;-1.905332319438458E-003;
2.425333333333334E+009;1.546641141176224E-001;-1.150662675499916E-001;4.740979988127947E-003;-2.129847183823586E-003;
2.425500000000000E+009;1.550813317298889E-001;-1.157921329140663E-001;4.674056544899941E-003;-2.410306828096509E-003;
2.425666666666667E+009;1.552659571170807E-001;-1.164246723055840E-001;4.475431516766548E-003;-2.493577077984810E-003;
2.425833333333334E+009;1.555709689855576E-001;-1.169346943497658E-001;4.290154669433832E-003;-2.708208048716188E-003;
2.426000000000000E+009;1.557995080947876E-001;-1.174885183572769E-001;4.081279970705509E-003;-2.795154927298427E-003;
2.426166666666667E+009;1.560936123132706E-001;-1.180119663476944E-001;4.023017361760140E-003;-2.927816007286310E-003;
2.426333333333334E+009;1.560484766960144E-001;-1.182696074247360E-001;3.742306726053357E-003;-2.932692412286997E-003;
2.426500000000000E+009;1.561400443315506E-001;-1.184996291995049E-001;3.630132880061865E-003;-3.211413277313113E-003;
2.426666666666667E+009;1.562432646751404E-001;-1.186105161905289E-001;3.491736715659499E-003;-3.146745963022113E-003;
2.426833333333334E+009;1.560572683811188E-001;-1.188387870788574E-001;3.406306495890021E-003;-3.116571577265859E-003;
2.427000000000000E+009;1.556852906942368E-001;-1.190656498074532E-001;3.136650659143925E-003;-3.332434222102165E-003;
2.427166666666667E+009;1.554705500602722E-001;-1.190992444753647E-001;2.970655215904117E-003;-3.441201290115714E-003;
2.427333333333334E+009;1.549391597509384E-001;-1.193199232220650E-001;2.937155077233911E-003;-3.306883154436946E-003;
2.427500000000000E+009;1.545437872409821E-001;-1.193816959857941E-001;2.721322933211923E-003;-3.369478508830071E-003;
2.427666666666667E+009;1.538242846727371E-001;-1.195361092686653E-001;2.778085414320231E-003;-3.352640662342310E-003;
