# Version 1.00
#
freq[Hz];re:Trc1_S11;im:Trc1_S11;re:Trc2_S21;im:Trc2_S21;
2.400000000000000E+009;1.634265333414078E-001;5.170452594757080E-002;4.635337390936911E-004;5.466611124575138E-003;
2.400166666666667E+009;1.634449958801270E-001;5.019523948431015E-002;4.946406115777791E-004;5.664555821567774E-003;
2.400333333333334E+009;1.632509976625443E-001;4.841857403516769E-002;5.921170231886208E-004;5.770061630755663E-003;
2.400500000000000E+009;1.634977459907532E-001;4.655645787715912E-002;8.040659595280886E-004;5.776222329586744E-003;
2.400666666666667E+009;1.631993353366852E-001;4.475009068846703E-002;1.099020824767649E-003;5.853649228811264E-003;
2.400833333333334E+009;1.633691936731339E-001;4.299264028668404E-002;1.089771743863821E-003;5.835894495248795E-003;
2.401000000000000E+009;1.633114665746689E-001;4.109237343072891E-002;1.328998245298863E-003;5.892216227948666E-003;
2.401166666666667E+009;1.634700894355774E-001;3.916634619235992E-002;1.499147503636777E-003;5.874746479094029E-003;
2.401333333333334E+009;1.636056452989578E-001;3.715680167078972E-002;1.838958007283509E-003;5.993285216391087E-003;
2.401500000000000E+009;1.638545393943787E-001;3.512745723128319E-002;2.167626516893506E-003;6.024746224284172E-003;
2.401666666666667E+009;1.639335155487061E-001;3.340419009327889E-002;2.507185796275735E-003;6.093969102948904E-003;
2.401833333333334E+009;1.641375720500946E-001;3.135829418897629E-002;2.545785857364535E-003;5.938892718404532E-003;
2.402000000000000E+009;1.642775833606720E-001;2.934527397155762E-002;2.982209436595440E-003;6.010691635310650E-003;
2.402166666666667E+009;1.647346168756485E-001;2.733625657856464E-002;3.287829924374819E-003;5.821248050779104E-003;
2.402333333333334E+009;1.650746166706085E-001;2.573267742991447E-002;3.693767590448260E-003;5.835621152073145E-003;
2.402500000000000E+009;1.656995415687561E-001;2.383243106305599E-002;3.954016137868166E-003;5.768886767327786E-003;
2.402666666666667E+009;1.661805063486099E-001;2.216203138232231E-002;4.204612690955401E-003;5.392116494476795E-003;
2.402833333333334E+009;1.666801124811173E-001;2.057544328272343E-002;4.469418898224831E-003;5.420628935098648E-003;
2.403000000000000E+009;1.673168092966080E-001;1.882174238562584E-002;4.783038981258869E-003;5.200979765504599E-003;
2.403166666666667E+009;1.679683625698090E-001;1.719653233885765E-002;5.225980188697577E-003;4.987454507499933E-003;
2.403333333333334E+009;1.686520725488663E-001;1.581282354891300E-002;5.319625604897738E-003;4.762367811053991E-003;
2.403500000000000E+009;1.692232042551041E-001;1.424865983426571E-002;5.690888967365027E-003;4.620534833520651E-003;
2.403666666666667E+009;1.699194610118866E-001;1.272112131118774E-002;6.103035062551498E-003;4.105740226805210E-003;
2.403833333333334E+009;1.708674281835556E-001;1.157622132450342E-002;6.069859955459833E-003;4.021581262350082E-003;
2.404000000000000E+009;1.715852022171021E-001;1.023357547819614E-002;6.462706252932549E-003;3.662297967821360E-003;
2.404166666666667E+009;1.723643541336060E-001;8.992590010166168E-003;6.393662653863430E-003;3.190485527738929E-003;
2.404333333333334E+009;1.729278117418289E-001;8.015672676265240E-003;6.625458132475615E-003;2.926064422354102E-003;
2.404500000000000E+009;1.736440807580948E-001;6.860385648906231E-003;6.714887917041779E-003;2.548108110204339E-003;
2.404666666666667E+009;1.743845492601395E-001;5.918980110436678E-003;6.977964192628861E-003;2.261501271277666E-003;
2.404833333333334E+009;1.750635057687759E-001;5.173251498490572E-003;7.017296738922596E-003;2.023062901571393E-003;
2.405000000000000E+009;1.758523881435394E-001;4.086266737431288E-003;6.817036308348179E-003;1.768751884810627E-003;
2.405166666666667E+009;1.763996630907059E-001;3.500455990433693E-003;6.857658736407757E-003;1.307831844314933E-003;
2.405333333333334E+009;1.770513653755188E-001;2.689053537324071E-003;6.843875627964735E-003;8.477083756588399E-004;
2.405500000000000E+009;1.775370091199875E-001;2.279157983139157E-003;6.940624210983515E-003;6.216359906829894E-004;
2.405666666666667E+009;1.780691146850586E-001;1.880706287920475E-003;6.726597901433706E-003;3.687199205160141E-004;
2.405833333333334E+009;1.784557104110718E-001;1.205218140967190E-003;6.715212948620319E-003;-3.969177123508416E-005;
2.406000000000000E+009;1.790262311697006E-001;6.551431724801660E-004;6.781934294849634E-003;-2.860637905541807E-004;
2.406166666666667E+009;1.792488396167755E-001;5.066049634478986E-004;6.608129478991032E-003;-5.679450114257634E-004;
2.406333333333334E+009;1.797076910734177E-001;1.391038822475821E-004;6.389869842678309E-003;-8.183666504919529E-004;
2.406500000000000E+009;1.798989921808243E-001;-4.101033264305443E-004;6.440895609557629E-003;-1.190967275761068E-003;
2.406666666666667E+009;1.797967106103897E-001;-5.931338528171182E-004;6.122659891843796E-003;-1.217045588418841E-003;
2.406833333333334E+009;1.801735460758209E-001;-8.858020300976932E-004;6.198219023644924E-003;-1.523602637462318E-003;
2.407000000000000E+009;1.802500486373901E-001;-1.448840950615704E-003;5.977602209895849E-003;-1.639458583667874E-003;
2.407166666666667E+009;1.801842451095581E-001;-1.626949640922248E-003;5.804664921015501E-003;-1.845252583734691E-003;
2.407333333333334E+009;1.800456345081329E-001;-2.144012367352843E-003;5.577148403972387E-003;-1.837306655943394E-003;
2.407500000000000E+009;1.799113303422928E-001;-2.510394668206573E-003;5.581101402640343E-003;-2.334265504032373E-003;
2.407666666666667E+009;1.795416921377182E-001;-2.963608596473932E-003;5.606496240943670E-003;-2.390647074207664E-003;
2.407833333333334E+009;1.792814433574677E-001;-3.537583397701383E-003;5.223432555794716E-003;-2.679883036762476E-003;
2.408000000000000E+009;1.789297163486481E-001;-4.182582721114159E-003;5.208870861679316E-003;-2.726185601204634E-003;
2.408166666666667E+009;1.785540580749512E-001;-4.575551953166723E-003;4.994750022888184E-003;-2.923097228631377E-003;
2.408333333333334E+009;1.782306581735611E-001;-5.234499461948872E-003;4.902435466647148E-003;-3.201962215825915E-003;
2.408500000000000E+009;1.776526123285294E-001;-5.982005037367344E-003;4.724623169749975E-003;-3.100085537880659E-003;
2.408666666666667E+009;1.771902441978455E-001;-6.881001871079207E-003;4.406468942761421E-003;-3.276490839198232E-003;
2.408833333333334E+009;1.763399392366409E-001;-7.775305770337582E-003;4.256809130311012E-003;-3.230873961001635E-003;
2.409000000000000E+009;1.757731288671494E-001;-8.530841208994389E-003;4.086176399141550E-003;-3.361930605024099E-003;
2.409166666666667E+009;1.750603020191193E-001;-9.648971259593964E-003;3.924213349819183E-003;-3.348867641761899E-003;
2.409333333333334E+009;1.745229661464691E-001;-1.073491573333740E-002;3.864466678351164E-003;-3.667864715680480E-003;
2.409500000000000E+009;1.736683994531632E-001;-1.215185970067978E-002;3.673357656225562E-003;-3.513770410791040E-003;
2.409666666666667E+009;1.730168610811234E-001;-1.340779941529036E-002;3.480426967144013E-003;-3.602760378271341E-003;
2.409833333333334E+009;1.722796559333801E-001;-1.460843347012997E-002;3.376814303919673E-003;-3.779185004532337E-003;
2.410000000000000E+009;1.716798096895218E-001;-1.592278480529785E-002;3.255342133343220E-003;-3.863779827952385E-003;
2.410166666666667E+009;1.710515171289444E-001;-1.738959923386574E-002;3.230218542739749E-003;-3.693112405017018E-003;
2.410333333333334E+009;1.703920513391495E-001;-1.894818060100079E-002;3.033013781532645E-003;-3.636227222159505E-003;
2.410500000000000E+009;1.697430014610291E-001;-2.038937434554100E-002;2.913056407123804E-003;-3.751957323402166E-003;
2.410666666666667E+009;1.690645813941956E-001;-2.209674194455147E-002;2.754990244284272E-003;-3.758919890969992E-003;
2.410833333333334E+009;1.687886118888855E-001;-2.386223897337914E-002;2.822626614943147E-003;-3.779204096645117E-003;
2.411000000000000E+009;1.682298630475998E-001;-2.558762766420841E-002;2.556800609454513E-003;-3.790677757933736E-003;
2.411166666666667E+009;1.677820980548859E-001;-2.776090614497662E-002;2.545903436839581E-003;-3.991033416241407E-003;
2.411333333333334E+009;1.674544215202332E-001;-2.936052903532982E-002;2.469124505296350E-003;-3.930972889065743E-003;
2.411500000000000E+009;1.669421941041946E-001;-3.137863054871559E-002;2.387295942753553E-003;-3.996415529400110E-003;
2.411666666666667E+009;1.667610853910446E-001;-3.305470198392868E-002;2.325075212866068E-003;-4.034493584185839E-003;
2.411833333333334E+009;1.665896177291870E-001;-3.492222353816032E-002;2.150251064449549E-003;-4.222801886498928E-003;
2.412000000000000E+009;1.666772365570068E-001;-3.681086003780365E-002;2.157969633117318E-003;-4.153809975832701E-003;
2.412166666666667E+009;1.665692925453186E-001;-3.895660117268562E-002;2.055289223790169E-003;-4.205431323498488E-003;
2.412333333333334E+009;1.665881723165512E-001;-4.078159481287003E-002;1.906659104861319E-003;-4.401868674904108E-003;
2.412500000000000E+009;1.663817018270493E-001;-4.253427684307098E-002;1.816511037759483E-003;-4.414963535964489E-003;
2.412666666666667E+009;1.667063087224960E-001;-4.463941231369972E-002;1.722729764878750E-003;-4.363902844488621E-003;
2.412833333333334E+009;1.668839305639267E-001;-4.627524688839912E-002;1.468500006012619E-003;-4.501221235841513E-003;
2.413000000000000E+009;1.669958084821701E-001;-4.803895577788353E-002;1.400986220687628E-003;-4.636419937014580E-003;
2.413166666666667E+009;1.671445220708847E-001;-4.988420382142067E-002;1.234395545907319E-003;-4.608863964676857E-003;
2.413333333333334E+009;1.673453748226166E-001;-5.167578533291817E-002;1.084062387235463E-003;-4.763912875205278E-003;
2.413500000000000E+009;1.679133921861649E-001;-5.344403907656670E-002;8.423046092502773E-004;-4.753569141030312E-003;
2.413666666666667E+009;1.682611554861069E-001;-5.493360012769699E-002;6.578202010132372E-004;-4.825235344469547E-003;
2.413833333333334E+009;1.685654968023300E-001;-5.629862099885941E-002;6.548985256813467E-004;-4.891922231763601E-003;
2.414000000000000E+009;1.688559651374817E-001;-5.773682147264481E-002;4.090061411261559E-004;-4.877557978034020E-003;
2.414166666666667E+009;1.695467233657837E-001;-5.906338244676590E-002;1.848794199759141E-004;-4.927071277052164E-003;
2.414333333333334E+009;1.699683368206024E-001;-6.039468944072723E-002;-1.139815321948845E-005;-4.790271632373333E-003;
2.414500000000000E+009;1.704287379980087E-001;-6.151591613888741E-002;-8.621301094535738E-005;-4.886607639491558E-003;
2.414666666666667E+009;1.706466972827911E-001;-6.258279830217362E-002;-4.087596316821873E-004;-4.781537223607302E-003;
2.414833333333334E+009;1.711156517267227E-001;-6.375440955162048E-002;-4.441250930540264E-004;-4.913096781820059E-003;
2.415000000000000E+009;1.716067939996719E-001;-6.457614898681641E-002;-6.786760641261935E-004;-4.749877378344536E-003;
2.415166666666667E+009;1.717734783887863E-001;-6.541776657104492E-002;-8.335504680871964E-004;-4.621773026883602E-003;
2.415333333333334E+009;1.723044365644455E-001;-6.638286262750626E-002;-9.555486030876637E-004;-4.597892053425312E-003;
2.415500000000000E+009;1.725628376007080E-001;-6.682412326335907E-002;-1.225311658345163E-003;-4.626977257430553E-003;
2.415666666666667E+009;1.727804690599442E-001;-6.745520979166031E-002;-1.281169592402875E-003;-4.554283805191517E-003;
2.415833333333334E+009;1.730622947216034E-001;-6.808602064847946E-002;-1.503266394138336E-003;-4.550151526927948E-003;
2.416000000000000E+009;1.730856001377106E-001;-6.849231570959091E-002;-1.603259472176433E-003;-4.446608945727348E-003;
2.416166666666667E+009;1.732722371816635E-001;-6.891363114118576E-002;-1.835196395404637E-003;-4.355736542493105E-003;
2.416333333333334E+009;1.733037680387497E-001;-6.923423707485199E-002;-1.968263182789087E-003;-4.050118383020163E-003;
2.416500000000000E+009;1.732326149940491E-001;-6.971849501132965E-002;-2.070000162348151E-003;-4.109427798539400E-003;
2.416666666666667E+009;1.729360669851303E-001;-6.991002708673477E-002;-2.221994567662478E-003;-4.054690711200237E-003;
2.416833333333334E+009;1.728030890226364E-001;-7.027605175971985E-002;-2.294420264661312E-003;-3.963320981711149E-003;
2.417000000000000E+009;1.723901182413101E-001;-7.047745585441589E-002;-2.378036733716726E-003;-3.735034028068185E-003;
2.417166666666667E+009;1.718467324972153E-001;-7.060535997152329E-002;-2.562436042353511E-003;-3.675491083413363E-003;
2.417333333333334E+009;1.715983748435974E-001;-7.077251374721527E-002;-2.589909126982093E-003;-3.722474444657564E-003;
2.417500000000000E+009;1.709156334400177E-001;-7.124087214469910E-002;-2.715826733037829E-003;-3.394242376089096E-003;
2.417666666666667E+009;1.703919619321823E-001;-7.125493139028549E-002;-2.740225056186318E-003;-3.297237446531653E-003;
2.417833333333334E+009;1.696458756923676E-001;-7.149365544319153E-002;-2.785177901387215E-003;-3.247804939746857E-003;
2.418000000000000E+009;1.686892956495285E-001;-7.185872644186020E-002;-2.986854640766978E-003;-2.940633101388812E-003;
2.418166666666667E+009;1.678106188774109E-001;-7.201769948005676E-002;-2.971342531964183E-003;-2.907110378146172E-003;
2.418333333333334E+009;1.671845614910126E-001;-7.233606278896332E-002;-3.042359137907624E-003;-2.922857645899057E-003;
2.418500000000000E+009;1.659903526306152E-001;-7.261989265680313E-002;-2.989604137837887E-003;-2.861371729522944E-003;
2.418666666666667E+009;1.650593429803848E-001;-7.318623363971710E-002;-3.105887910351157E-003;-2.769428305327892E-003;
2.418833333333334E+009;1.637865006923676E-001;-7.358784228563309E-002;-3.166225971654058E-003;-2.507543424144387E-003;
2.419000000000000E+009;1.626554876565933E-001;-7.416763901710510E-002;-3.422412090003490E-003;-2.388341119512916E-003;
2.419166666666667E+009;1.615343689918518E-001;-7.475434243679047E-002;-3.150919685140252E-003;-2.313186181709170E-003;
2.419333333333334E+009;1.601670533418655E-001;-7.523309439420700E-002;-3.379217116162181E-003;-2.311309566721320E-003;
2.419500000000000E+009;1.590972691774368E-001;-7.612791657447815E-002;-3.527609864249826E-003;-2.129416214302182E-003;
2.419666666666667E+009;1.577575802803040E-001;-7.676161080598831E-002;-3.424901748076081E-003;-1.955371350049973E-003;
2.419833333333334E+009;1.565766334533691E-001;-7.763463258743286E-002;-3.445853013545275E-003;-1.895424793474376E-003;
2.420000000000000E+009;1.554195731878281E-001;-7.858241349458695E-002;-3.587156999856234E-003;-1.813353621400893E-003;
2.420166666666667E+009;1.542479842901230E-001;-7.949157804250717E-002;-3.485978581011295E-003;-1.702095032669604E-003;
2.420333333333334E+009;1.530799269676209E-001;-8.069011569023132E-002;-3.613344393670559E-003;-1.608105842024088E-003;
2.420500000000000E+009;1.520784050226212E-001;-8.154433220624924E-002;-3.642513183876872E-003;-1.554229296743870E-003;
2.420666666666667E+009;1.509385555982590E-001;-8.292602002620697E-002;-3.760025138035417E-003;-1.386574469506741E-003;
2.420833333333334E+009;1.498641669750214E-001;-8.421482145786285E-002;-3.745599649846554E-003;-1.358733628876507E-003;
2.421000000000000E+009;1.487333923578262E-001;-8.575784415006638E-002;-3.807787550613284E-003;-1.249047927558422E-003;
2.421166666666667E+009;1.480361670255661E-001;-8.702269941568375E-002;-3.731698729097843E-003;-1.091021695174277E-003;
2.421333333333334E+009;1.472641378641129E-001;-8.860477060079575E-002;-3.636203240603209E-003;-9.727615397423506E-004;
2.421500000000000E+009;1.463002264499664E-001;-8.999199420213699E-002;-3.637069137766957E-003;-1.029802369885147E-003;
2.421666666666667E+009;1.456604450941086E-001;-9.172730147838593E-002;-3.440697677433491E-003;-6.888885400258005E-004;
2.421833333333334E+009;1.451175212860107E-001;-9.321933239698410E-002;-3.753085155040026E-003;-7.401630864478648E-004;
2.422000000000000E+009;1.445191353559494E-001;-9.480664879083633E-002;-3.722433466464281E-003;-4.406096122693270E-004;
2.422166666666667E+009;1.440236717462540E-001;-9.670744836330414E-002;-3.774824086576700E-003;-4.480709321796894E-004;
2.422333333333334E+009;1.437652707099915E-001;-9.840065240859985E-002;-3.699352731928229E-003;-2.907883899752051E-004;
2.422500000000000E+009;1.432311087846756E-001;-9.988769888877869E-002;-3.615154884755611E-003;-1.322161260759458E-004;
2.422666666666667E+009;1.430484354496002E-001;-1.016692742705345E-001;-3.597295377403498E-003;-1.157476144726388E-004;
2.422833333333334E+009;1.429691612720490E-001;-1.034644991159439E-001;-3.541131038218737E-003;-6.283727998379618E-005;
2.423000000000000E+009;1.429431140422821E-001;-1.051025688648224E-001;-3.799301804974675E-003;8.510571933584288E-005;
2.423166666666667E+009;1.429833918809891E-001;-1.068608611822128E-001;-3.577886149287224E-003;1.906524557853118E-004;
2.423333333333334E+009;1.432095468044281E-001;-1.082117259502411E-001;-3.664165036752820E-003;2.565578033681959E-004;
2.423500000000000E+009;1.431768983602524E-001;-1.100827753543854E-001;-3.546789754182100E-003;4.492527514230460E-004;
2.423666666666667E+009;1.433392167091370E-001;-1.116746068000794E-001;-3.436875063925982E-003;3.972359118051827E-004;
2.423833333333334E+009;1.435582488775253E-001;-1.130765974521637E-001;-3.304489422589541E-003;6.142350612208247E-004;
2.424000000000000E+009;1.438744664192200E-001;-1.145314425230026E-001;-3.426729468628764E-003;8.527343743480742E-004;
2.424166666666667E+009;1.440553814172745E-001;-1.158867701888084E-001;-3.363280557096005E-003;8.440446108579636E-004;
2.424333333333334E+009;1.445079296827316E-001;-1.172272637486458E-001;-3.297258168458939E-003;8.596524130553007E-004;
2.424500000000000E+009;1.449902206659317E-001;-1.185290887951851E-001;-3.337578382343054E-003;1.109599252231419E-003;
2.424666666666667E+009;1.454177349805832E-001;-1.194009929895401E-001;-3.265410196036100E-003;1.280822325497866E-003;
2.424833333333334E+009;1.456456929445267E-001;-1.206079721450806E-001;-3.076374530792236E-003;1.275700284168124E-003;
2.425000000000000E+009;1.460277140140533E-001;-1.216522008180618E-001;-3.048210404813290E-003;1.370047451928258E-003;
2.425166666666667E+009;1.462267637252808E-001;-1.224154606461525E-001;-3.043519100174308E-003;1.559922704473138E-003;
2.425333333333334E+009;1.466685682535172E-001;-1.232991442084312E-001;-2.879198407754302E-003;1.548412605188787E-003;
2.425500000000000E+009;1.469879597425461E-001;-1.241081878542900E-001;-2.891707001253963E-003;1.679767505265772E-003;
2.425666666666667E+009;1.472367346286774E-001;-1.246244460344315E-001;-2.764872275292873E-003;1.656444510444999E-003;
2.425833333333334E+009;1.474489420652390E-001;-1.252706944942474E-001;-2.769598504528403E-003;1.736265956424177E-003;
2.426000000000000E+009;1.475569307804108E-001;-1.258056610822678E-001;-2.707416191697121E-003;1.882619573734701E-003;
2.426166666666667E+009;1.479997187852860E-001;-1.261604726314545E-001;-2.461822004988790E-003;1.851300126872957E-003;
2.426333333333334E+009;1.478785872459412E-001;-1.264606267213821E-001;-2.313963603228331E-003;1.896570087410510E-003;
2.426500000000000E+009;1.479223072528839E-001;-1.267211735248566E-001;-2.284174785017967E-003;2.127040643244982E-003;
2.426666666666667E+009;1.480216085910797E-001;-1.267964094877243E-001;-2.227439312264323E-003;2.011402975767851E-003;
2.426833333333334E+009;1.479135304689407E-001;-1.270440369844437E-001;-2.160602714866400E-003;2.067425288259983E-003;
2.427000000000000E+009;1.474914103746414E-001;-1.272191852331162E-001;-1.868494553491473E-003;2.127165207639337E-003;
2.427166666666667E+009;1.472103744745255E-001;-1.272674798965454E-001;-1.972788013517857E-003;2.106312662363052E-003;
2.427333333333334E+009;1.466965228319168E-001;-1.271618902683258E-001;-1.937215216457844E-003;2.050379058346152E-003;
2.427500000000000E+009;1.464838385581970E-001;-1.272674798965454E-001;-1.706305076368153E-003;2.088364446535707E-003;
2.427666666666667E+009;1.456883251667023E-001;-1.272130161523819E-001;-1.783447805792093E-003;2.063266467303038E-003;
