# Version 1.00
#
freq[Hz];re:Trc1_S11;im:Trc1_S11;re:Trc2_S21;im:Trc2_S21;
2.400000000000000E+009;1.567366123199463E-001;1.059924438595772E-001;8.014542050659657E-003;-4.936366342008114E-003;
2.400166666666667E+009;1.567527949810028E-001;1.037029325962067E-001;7.927582599222660E-003;-5.193364340811968E-003;
2.400333333333334E+009;1.569472700357437E-001;1.014312282204628E-001;7.805595640093088E-003;-5.527778062969446E-003;
2.400500000000000E+009;1.571298837661743E-001;9.878787398338318E-002;7.687159348279238E-003;-5.821277853101492E-003;
2.400666666666667E+009;1.574683338403702E-001;9.647651016712189E-002;7.459715474396944E-003;-6.144372280687094E-003;
2.400833333333334E+009;1.575310528278351E-001;9.374181181192398E-002;7.269135210663080E-003;-6.359302438795567E-003;
2.401000000000000E+009;1.581229865550995E-001;9.096595644950867E-002;7.054845802485943E-003;-6.689120084047318E-003;
2.401166666666667E+009;1.581683009862900E-001;8.851237595081329E-002;6.920059211552143E-003;-6.886417977511883E-003;
2.401333333333334E+009;1.586333960294724E-001;8.571156859397888E-002;6.676380522549152E-003;-7.245243061333895E-003;
2.401500000000000E+009;1.591924130916596E-001;8.310664445161820E-002;6.373339332640171E-003;-7.440909743309021E-003;
2.401666666666667E+009;1.596122831106186E-001;8.027367293834686E-002;6.299525965005159E-003;-7.521357387304306E-003;
2.401833333333334E+009;1.602815240621567E-001;7.773449271917343E-002;6.053897552192211E-003;-7.825120352208614E-003;
2.402000000000000E+009;1.610398590564728E-001;7.496349513530731E-002;5.633050575852394E-003;-7.933779619634152E-003;
2.402166666666667E+009;1.617724597454071E-001;7.259888201951981E-002;5.584530998021364E-003;-8.247065357863903E-003;
2.402333333333334E+009;1.626657843589783E-001;7.022580504417419E-002;5.272349342703819E-003;-8.704013191163540E-003;
2.402500000000000E+009;1.640588641166687E-001;6.778550893068314E-002;4.903348162770271E-003;-8.812082931399345E-003;
2.402666666666667E+009;1.649397909641266E-001;6.579855084419251E-002;4.694971721619368E-003;-9.036865085363388E-003;
2.402833333333334E+009;1.662562638521195E-001;6.325862556695938E-002;4.529670812189579E-003;-9.221615269780159E-003;
2.403000000000000E+009;1.676027923822403E-001;6.117822974920273E-002;4.089863039553165E-003;-9.593764320015907E-003;
2.403166666666667E+009;1.691377907991409E-001;5.906920507550240E-002;3.874950576573610E-003;-9.673382155597210E-003;
2.403333333333334E+009;1.703591942787170E-001;5.689395219087601E-002;3.582402830943465E-003;-9.824726730585098E-003;
2.403500000000000E+009;1.720812618732452E-001;5.516817048192024E-002;3.152901073917747E-003;-9.977071546018124E-003;
2.403666666666667E+009;1.736595332622528E-001;5.342069640755653E-002;2.845599316060543E-003;-1.017531752586365E-002;
2.403833333333334E+009;1.752019524574280E-001;5.160001665353775E-002;2.387159969657660E-003;-1.045117527246475E-002;
2.404000000000000E+009;1.765801906585693E-001;4.969217255711556E-002;1.792609109543264E-003;-1.041782461106777E-002;
2.404166666666667E+009;1.781290173530579E-001;4.835839197039604E-002;1.604886492714286E-003;-1.070762705057859E-002;
2.404333333333334E+009;1.794443428516388E-001;4.678541794419289E-002;1.125630689784885E-003;-1.076554227620363E-002;
2.404500000000000E+009;1.809159815311432E-001;4.534373804926872E-002;5.591133376583457E-004;-1.087131537497044E-002;
2.404666666666667E+009;1.824676096439362E-001;4.423498362302780E-002;1.140676031354815E-004;-1.108397543430328E-002;
2.404833333333334E+009;1.838083863258362E-001;4.321585223078728E-002;-1.913171727210283E-004;-1.092209573835135E-002;
2.405000000000000E+009;1.849538981914520E-001;4.237568005919457E-002;-1.025227014906704E-003;-1.088486704975367E-002;
2.405166666666667E+009;1.861763596534729E-001;4.164100065827370E-002;-1.613929285667837E-003;-1.094643119722605E-002;
2.405333333333334E+009;1.874283254146576E-001;4.101448506116867E-002;-1.951233716681600E-003;-1.075085345655680E-002;
2.405500000000000E+009;1.885297447443008E-001;4.053815454244614E-002;-2.478475216776133E-003;-1.056273560971022E-002;
2.405666666666667E+009;1.896347552537918E-001;3.991056606173515E-002;-3.105215262621641E-003;-1.044491585344076E-002;
2.405833333333334E+009;1.907255202531815E-001;3.964982926845551E-002;-3.475595032796264E-003;-1.001356542110443E-002;
2.406000000000000E+009;1.915008574724197E-001;3.926350176334381E-002;-3.854750888422132E-003;-9.957632981240749E-003;
2.406166666666667E+009;1.921755224466324E-001;3.892782330513001E-002;-4.173223860561848E-003;-9.659552015364170E-003;
2.406333333333334E+009;1.930075883865356E-001;3.878005966544151E-002;-4.575537052005529E-003;-9.316791780292988E-003;
2.406500000000000E+009;1.936849504709244E-001;3.861035406589508E-002;-4.765712190419436E-003;-9.007160551846027E-003;
2.406666666666667E+009;1.942439526319504E-001;3.860377520322800E-002;-4.999321419745684E-003;-8.687044493854046E-003;
2.406833333333334E+009;1.945198178291321E-001;3.855652362108231E-002;-5.465337540954351E-003;-8.421708829700947E-003;
2.407000000000000E+009;1.949281245470047E-001;3.857619687914848E-002;-5.538147874176502E-003;-8.142733946442604E-003;
2.407166666666667E+009;1.951104998588562E-001;3.825999423861504E-002;-5.745912436395884E-003;-7.903264835476875E-003;
2.407333333333334E+009;1.951397210359573E-001;3.821644932031632E-002;-5.967558827251196E-003;-7.459798362106085E-003;
2.407500000000000E+009;1.950563788414002E-001;3.813391551375389E-002;-6.107953842729330E-003;-7.334674708545208E-003;
2.407666666666667E+009;1.951409131288528E-001;3.782290220260620E-002;-6.177735980600119E-003;-7.156521547585726E-003;
2.407833333333334E+009;1.946881264448166E-001;3.750933706760407E-002;-6.556983571499586E-003;-6.814025808125734E-003;
2.408000000000000E+009;1.946423649787903E-001;3.723804652690888E-002;-6.656987592577934E-003;-6.361185107380152E-003;
2.408166666666667E+009;1.941650360822678E-001;3.684115409851074E-002;-6.693657487630844E-003;-6.103653926402330E-003;
2.408333333333334E+009;1.937137693166733E-001;3.615594655275345E-002;-6.914276629686356E-003;-5.908233113586903E-003;
2.408500000000000E+009;1.931245177984238E-001;3.582965210080147E-002;-6.870933342725039E-003;-5.647408310323954E-003;
2.408666666666667E+009;1.927431076765060E-001;3.506951779127121E-002;-6.983160506933928E-003;-5.308620166033506E-003;
2.408833333333334E+009;1.919493675231934E-001;3.435152024030685E-002;-7.183456793427467E-003;-5.015302915126085E-003;
2.409000000000000E+009;1.911501586437225E-001;3.320081904530525E-002;-7.055059541016817E-003;-4.575819708406925E-003;
2.409166666666667E+009;1.905165910720825E-001;3.211650997400284E-002;-7.046750746667385E-003;-4.487091209739447E-003;
2.409333333333334E+009;1.897365450859070E-001;3.107438236474991E-002;-7.176069077104330E-003;-4.324791952967644E-003;
2.409500000000000E+009;1.888269186019898E-001;2.971882931888104E-002;-7.003855891525745E-003;-4.100176505744457E-003;
2.409666666666667E+009;1.879709810018539E-001;2.817149274051189E-002;-7.021153345704079E-003;-3.928952384740114E-003;
2.409833333333334E+009;1.871705353260040E-001;2.675369381904602E-002;-7.064206525683403E-003;-3.710576100274921E-003;
2.410000000000000E+009;1.863628178834915E-001;2.528285793960095E-002;-7.103641517460346E-003;-3.429038450121880E-003;
2.410166666666667E+009;1.856291294097900E-001;2.356205321848393E-002;-6.936248857527971E-003;-3.319248789921403E-003;
2.410333333333334E+009;1.846986860036850E-001;2.186352945864201E-002;-7.048539351671934E-003;-3.282632678747177E-003;
2.410500000000000E+009;1.838354021310806E-001;2.007801644504070E-002;-7.052388973534107E-003;-3.082680283114314E-003;
2.410666666666667E+009;1.832389980554581E-001;1.775393076241016E-002;-7.088808342814446E-003;-2.794090192764998E-003;
2.410833333333334E+009;1.825992316007614E-001;1.565180532634258E-002;-7.035903632640839E-003;-2.892565447837114E-003;
2.411000000000000E+009;1.819831877946854E-001;1.362455449998379E-002;-7.038920652121306E-003;-2.673424547538161E-003;
2.411166666666667E+009;1.814069449901581E-001;1.165531668812037E-002;-7.205853704363108E-003;-2.436962677165866E-003;
2.411333333333334E+009;1.811100393533707E-001;9.148838929831982E-003;-7.031027693301439E-003;-2.361412858590484E-003;
2.411500000000000E+009;1.807071715593338E-001;7.264024112373591E-003;-7.326500024646521E-003;-2.443474484607577E-003;
2.411666666666667E+009;1.807800680398941E-001;4.828666802495718E-003;-7.182201370596886E-003;-2.245887648314238E-003;
2.411833333333334E+009;1.805782169103622E-001;2.721871715039015E-003;-7.280180230736733E-003;-2.055848250165582E-003;
2.412000000000000E+009;1.806225776672363E-001;3.221719234716147E-004;-7.162295747548342E-003;-1.941333524882793E-003;
2.412166666666667E+009;1.807938367128372E-001;-1.854088855907321E-003;-7.310880348086357E-003;-1.703058835119009E-003;
2.412333333333334E+009;1.810469925403595E-001;-4.146118182688952E-003;-7.381295319646597E-003;-1.564031932502985E-003;
2.412500000000000E+009;1.815997660160065E-001;-6.262913811951876E-003;-7.512981072068214E-003;-1.584324287250638E-003;
2.412666666666667E+009;1.820212304592133E-001;-8.747329004108906E-003;-7.674848660826683E-003;-1.450850861147046E-003;
2.412833333333334E+009;1.827739328145981E-001;-1.079174317419529E-002;-7.751473691314459E-003;-1.239782082848251E-003;
2.413000000000000E+009;1.833828091621399E-001;-1.303287129849196E-002;-7.817850448191166E-003;-1.069605816155672E-003;
2.413166666666667E+009;1.840222775936127E-001;-1.482699718326330E-002;-7.901892066001892E-003;-1.001415424980223E-003;
2.413333333333334E+009;1.851612925529480E-001;-1.709410175681114E-002;-8.021461777389050E-003;-6.794575019739568E-004;
2.413500000000000E+009;1.859652996063232E-001;-1.914970017969608E-002;-8.236044086515904E-003;-4.945952096022666E-004;
2.413666666666667E+009;1.868388652801514E-001;-2.117467299103737E-002;-8.289294317364693E-003;-3.249771543778479E-004;
2.413833333333334E+009;1.880179196596146E-001;-2.307408489286900E-002;-8.348446339368820E-003;4.461912612896413E-005;
2.414000000000000E+009;1.889696568250656E-001;-2.488232776522636E-002;-8.475987240672112E-003;2.944987791124731E-004;
2.414166666666667E+009;1.899380534887314E-001;-2.644963376224041E-002;-8.405863307416439E-003;6.268487777560949E-004;
2.414333333333334E+009;1.910511255264282E-001;-2.836451493203640E-002;-8.455125615000725E-003;8.173185051418841E-004;
2.414500000000000E+009;1.922949850559235E-001;-2.968499623239040E-002;-8.458322845399380E-003;1.108923694118857E-003;
2.414666666666667E+009;1.932328492403030E-001;-3.110476210713387E-002;-8.601704612374306E-003;1.385207520797849E-003;
2.414833333333334E+009;1.943277120590210E-001;-3.234828263521195E-002;-8.520469069480896E-003;1.728954957798123E-003;
2.415000000000000E+009;1.952698379755020E-001;-3.368455171585083E-002;-8.573858067393303E-003;2.131381770595908E-003;
2.415166666666667E+009;1.963508576154709E-001;-3.479441255331039E-002;-8.458447642624378E-003;2.178131369873881E-003;
2.415333333333334E+009;1.972414553165436E-001;-3.569322079420090E-002;-8.399854414165020E-003;2.629155525937676E-003;
2.415500000000000E+009;1.982395350933075E-001;-3.634854406118393E-002;-8.371802978217602E-003;2.814573934301734E-003;
2.415666666666667E+009;1.991066038608551E-001;-3.730160370469093E-002;-8.371214382350445E-003;3.226256696507335E-003;
2.415833333333334E+009;1.997882276773453E-001;-3.802146390080452E-002;-8.298666216433048E-003;3.611817024648190E-003;
2.416000000000000E+009;2.004188746213913E-001;-3.869210183620453E-002;-8.245497010648251E-003;3.867795458063483E-003;
2.416166666666667E+009;2.011106908321381E-001;-3.929924964904785E-002;-8.074720390141010E-003;4.288690630346537E-003;
2.416333333333334E+009;2.016112059354782E-001;-3.965599462389946E-002;-7.917738519608975E-003;4.748250823467970E-003;
2.416500000000000E+009;2.019067108631134E-001;-4.005581140518189E-002;-7.750283461064100E-003;4.880053922533989E-003;
2.416666666666667E+009;2.021272480487824E-001;-4.051544517278671E-002;-7.562178187072277E-003;5.360926967114210E-003;
2.416833333333334E+009;2.022477984428406E-001;-4.058714956045151E-002;-7.419844157993794E-003;5.493619479238987E-003;
2.417000000000000E+009;2.022008448839188E-001;-4.093101993203163E-002;-6.990071386098862E-003;5.739621818065643E-003;
2.417166666666667E+009;2.019156068563461E-001;-4.097928851842880E-002;-7.007009349763393E-003;6.137303542345762E-003;
2.417333333333334E+009;2.016513049602509E-001;-4.103465005755425E-002;-6.622812710702419E-003;6.264490075409412E-003;
2.417500000000000E+009;2.012501507997513E-001;-4.116343334317207E-002;-6.379673723131418E-003;6.561123766005039E-003;
2.417666666666667E+009;2.007944583892822E-001;-4.111096635460854E-002;-6.084793247282505E-003;6.854681298136711E-003;
2.417833333333334E+009;2.002962529659271E-001;-4.103964194655418E-002;-5.826223175972700E-003;6.805185694247484E-003;
2.418000000000000E+009;1.997115463018417E-001;-4.115449637174606E-002;-5.687845870852470E-003;7.074142340570688E-003;
2.418166666666667E+009;1.988737583160400E-001;-4.131098091602325E-002;-5.266828928142786E-003;7.289330009371042E-003;
2.418333333333334E+009;1.980354934930801E-001;-4.129434004426003E-002;-4.985656123608351E-003;7.381708361208439E-003;
2.418500000000000E+009;1.970403641462326E-001;-4.138608649373055E-002;-4.812659230083227E-003;7.512866985052824E-003;
2.418666666666667E+009;1.962726712226868E-001;-4.158870503306389E-002;-4.686762578785420E-003;7.576478179544210E-003;
2.418833333333334E+009;1.950843781232834E-001;-4.198326542973518E-002;-4.459575284272432E-003;7.716594729572535E-003;
2.419000000000000E+009;1.938309818506241E-001;-4.218482598662376E-002;-4.164820536971092E-003;7.881928235292435E-003;
2.419166666666667E+009;1.926685124635696E-001;-4.253503307700157E-002;-3.802755149081349E-003;7.934969849884510E-003;
2.419333333333334E+009;1.913532614707947E-001;-4.327770322561264E-002;-3.687463467940688E-003;8.040688931941986E-003;
2.419500000000000E+009;1.900420039892197E-001;-4.374216496944428E-002;-3.298955271020532E-003;8.237910456955433E-003;
2.419666666666667E+009;1.885121613740921E-001;-4.465559497475624E-002;-3.064470831304789E-003;8.360031992197037E-003;
2.419833333333334E+009;1.870619058609009E-001;-4.536856710910797E-002;-2.702486002817750E-003;8.319546468555927E-003;
2.420000000000000E+009;1.858180612325668E-001;-4.643132537603378E-002;-2.481916686519980E-003;8.454250171780586E-003;
2.420166666666667E+009;1.841730177402496E-001;-4.733074828982353E-002;-2.217709086835384E-003;8.471462875604630E-003;
2.420333333333334E+009;1.827979832887650E-001;-4.865117743611336E-002;-1.918788882903755E-003;8.543279021978378E-003;
2.420500000000000E+009;1.812055110931397E-001;-5.004952475428581E-002;-1.612017396837473E-003;8.701958693563938E-003;
2.420666666666667E+009;1.798308342695236E-001;-5.101981014013290E-002;-1.112686935812235E-003;8.536378853023052E-003;
2.420833333333334E+009;1.783623993396759E-001;-5.249748751521111E-002;-1.016483758576214E-003;8.632847107946873E-003;
2.421000000000000E+009;1.770289242267609E-001;-5.408975481987000E-002;-6.997501477599144E-004;8.674246259033680E-003;
2.421166666666667E+009;1.757738590240479E-001;-5.584649369120598E-002;-3.896562266163528E-004;8.577856235206127E-003;
2.421333333333334E+009;1.740879565477371E-001;-5.726439878344536E-002;-1.708510244498029E-004;8.514708839356899E-003;
2.421500000000000E+009;1.731302738189697E-001;-5.908054113388062E-002;-1.717763370834291E-005;8.514311164617539E-003;
2.421666666666667E+009;1.720231473445892E-001;-6.090122461318970E-002;2.637688885442913E-004;8.293331600725651E-003;
2.421833333333334E+009;1.710699796676636E-001;-6.260085105895996E-002;4.827817901968956E-004;8.283817209303379E-003;
2.422000000000000E+009;1.698364317417145E-001;-6.436210125684738E-002;9.152677957899869E-004;8.180608041584492E-003;
2.422166666666667E+009;1.690952479839325E-001;-6.622672826051712E-002;1.197107019834220E-003;8.074096404016018E-003;
2.422333333333334E+009;1.680957525968552E-001;-6.833572685718536E-002;1.404957263730466E-003;8.061382919549942E-003;
2.422500000000000E+009;1.674545407295227E-001;-7.003730535507202E-002;1.522567938081920E-003;7.869545370340347E-003;
2.422666666666667E+009;1.667724549770355E-001;-7.187896221876144E-002;1.689935801550746E-003;7.831080816686153E-003;
2.422833333333334E+009;1.663765162229538E-001;-7.368478924036026E-002;2.031992189586163E-003;7.687838748097420E-003;
2.423000000000000E+009;1.658588945865631E-001;-7.579361647367477E-002;2.185314195230603E-003;7.773593533784151E-003;
2.423166666666667E+009;1.656354218721390E-001;-7.757704704999924E-002;2.482710173353553E-003;7.751438766717911E-003;
2.423333333333334E+009;1.653158068656921E-001;-7.940930873155594E-002;2.559749642387033E-003;7.397857960313559E-003;
2.423500000000000E+009;1.651271432638168E-001;-8.111435920000076E-002;2.905987203121185E-003;7.583513390272856E-003;
2.423666666666667E+009;1.652196496725082E-001;-8.290294557809830E-002;3.129340009763837E-003;7.308484055101872E-003;
2.423833333333334E+009;1.651583909988403E-001;-8.452975749969482E-002;3.344206837937236E-003;7.424392737448216E-003;
2.424000000000000E+009;1.652643978595734E-001;-8.632694184780121E-002;3.584439167752862E-003;7.241274230182171E-003;
2.424166666666667E+009;1.653523892164230E-001;-8.771049231290817E-002;3.923570737242699E-003;6.962430663406849E-003;
2.424333333333334E+009;1.654133349657059E-001;-8.916721493005753E-002;4.125903826206923E-003;6.901824846863747E-003;
2.424500000000000E+009;1.657559573650360E-001;-9.080570936203003E-002;4.334270488470793E-003;6.581012159585953E-003;
2.424666666666667E+009;1.658815443515778E-001;-9.212911874055862E-002;4.587270785123110E-003;6.579345092177391E-003;
2.424833333333334E+009;1.664120554924011E-001;-9.340558201074600E-002;4.861363675445318E-003;6.135923322290182E-003;
2.425000000000000E+009;1.666634827852249E-001;-9.454282373189926E-002;5.015337374061346E-003;5.947374273091555E-003;
2.425166666666667E+009;1.667508035898209E-001;-9.563141316175461E-002;5.058626178652048E-003;5.680995061993599E-003;
2.425333333333334E+009;1.671015024185181E-001;-9.669359028339386E-002;5.301456898450851E-003;5.428361240774393E-003;
2.425500000000000E+009;1.672967821359634E-001;-9.764709323644638E-002;5.385086871683598E-003;5.216459278017283E-003;
2.425666666666667E+009;1.677508205175400E-001;-9.824889153242111E-002;5.443671718239784E-003;4.918330349028111E-003;
2.425833333333334E+009;1.679073125123978E-001;-9.925752878189087E-002;5.550797563046217E-003;4.658999387174845E-003;
2.426000000000000E+009;1.682785600423813E-001;-9.968345612287521E-002;5.560427904129028E-003;4.654883407056332E-003;
2.426166666666667E+009;1.686069816350937E-001;-1.002371162176132E-001;5.769247654825449E-003;4.307654220610857E-003;
2.426333333333334E+009;1.684286892414093E-001;-1.008538305759430E-001;5.792788695544004E-003;4.161994438618422E-003;
2.426500000000000E+009;1.688453406095505E-001;-1.011359319090843E-001;5.759748164564371E-003;3.897188464179635E-003;
2.426666666666667E+009;1.690200567245483E-001;-1.016675531864166E-001;5.777335725724697E-003;3.793748561292887E-003;
2.426833333333334E+009;1.691699028015137E-001;-1.019353196024895E-001;5.924372002482414E-003;3.547734813764691E-003;
2.427000000000000E+009;1.691455245018005E-001;-1.022509709000588E-001;5.849818233400583E-003;3.392402315512300E-003;
2.427166666666667E+009;1.691154539585114E-001;-1.025049090385437E-001;6.024072878062725E-003;3.063018200919032E-003;
2.427333333333334E+009;1.690846234560013E-001;-1.028774753212929E-001;6.042642518877983E-003;2.961811609566212E-003;
2.427500000000000E+009;1.686450988054276E-001;-1.032369658350945E-001;6.069525610655546E-003;2.771092113107443E-003;
2.427666666666667E+009;1.685004234313965E-001;-1.033761501312256E-001;6.073997821658850E-003;2.624637214466929E-003;
