# Version 1.00
#
freq[Hz];re:Trc1_S11;im:Trc1_S11;re:Trc2_S21;im:Trc2_S21;
2.400000000000000E+009;1.569686830043793E-001;1.056141480803490E-001;8.181092329323292E-003;-4.701254423707724E-003;
2.400166666666667E+009;1.569105237722397E-001;1.034610420465469E-001;8.100569248199463E-003;-5.077351815998554E-003;
2.400333333333334E+009;1.574099361896515E-001;1.009935140609741E-001;7.946423254907131E-003;-5.409723147749901E-003;
2.400500000000000E+009;1.572626233100891E-001;9.848144650459290E-002;7.561423350125551E-003;-5.707511212676764E-003;
2.400666666666667E+009;1.577059626579285E-001;9.625418484210968E-002;7.552981842309237E-003;-5.970566067844629E-003;
2.400833333333334E+009;1.578352451324463E-001;9.322720766067505E-002;7.512329146265984E-003;-6.239058915525675E-003;
2.401000000000000E+009;1.582181602716446E-001;9.064459055662155E-002;7.050646003335714E-003;-6.431037560105324E-003;
2.401166666666667E+009;1.583758145570755E-001;8.787084370851517E-002;7.101223804056644E-003;-6.863487418740988E-003;
2.401333333333334E+009;1.587209105491638E-001;8.531131595373154E-002;6.731045432388783E-003;-7.027972023934126E-003;
2.401500000000000E+009;1.594495028257370E-001;8.244165778160095E-002;6.596292834728956E-003;-7.286970503628254E-003;
2.401666666666667E+009;1.596490889787674E-001;7.988353818655014E-002;6.291300989687443E-003;-7.481103297322989E-003;
2.401833333333334E+009;1.603634357452393E-001;7.733942568302155E-002;6.041610613465309E-003;-7.695422042161226E-003;
2.402000000000000E+009;1.611139923334122E-001;7.476563006639481E-002;5.767081864178181E-003;-7.842915132641792E-003;
2.402166666666667E+009;1.620964854955673E-001;7.234522700309753E-002;5.707636009901762E-003;-8.293576538562775E-003;
2.402333333333334E+009;1.628983467817307E-001;6.959958374500275E-002;5.404507741332054E-003;-8.451519533991814E-003;
2.402500000000000E+009;1.640057414770126E-001;6.746098399162293E-002;5.170849151909351E-003;-8.775630965828896E-003;
2.402666666666667E+009;1.650811731815338E-001;6.522061675786972E-002;4.799584392458201E-003;-8.988079614937306E-003;
2.402833333333334E+009;1.661716252565384E-001;6.286969780921936E-002;4.507004749029875E-003;-9.204895235598087E-003;
2.403000000000000E+009;1.674943715333939E-001;6.069658696651459E-002;4.110736306756735E-003;-9.272387251257896E-003;
2.403166666666667E+009;1.690493971109390E-001;5.879785493016243E-002;3.971384838223457E-003;-9.484924376010895E-003;
2.403333333333334E+009;1.703751683235169E-001;5.663048848509789E-002;3.694615792483091E-003;-9.787558577954769E-003;
2.403500000000000E+009;1.720979213714600E-001;5.463569983839989E-002;3.176934318616986E-003;-1.010090578347445E-002;
2.403666666666667E+009;1.736370623111725E-001;5.286942422389984E-002;2.878613770008087E-003;-1.020863838493824E-002;
2.403833333333334E+009;1.750875562429428E-001;5.118970200419426E-002;2.480173017829657E-003;-1.039836183190346E-002;
2.404000000000000E+009;1.762408465147018E-001;4.940976947546005E-002;2.147033344954252E-003;-1.053915359079838E-002;
2.404166666666667E+009;1.780602782964706E-001;4.806264117360115E-002;1.758171943947673E-003;-1.067015808075666E-002;
2.404333333333334E+009;1.793844401836395E-001;4.651688039302826E-002;1.137629966251552E-003;-1.082277297973633E-002;
2.404500000000000E+009;1.808918267488480E-001;4.491420462727547E-002;6.064804620109499E-004;-1.095857378095388E-002;
2.404666666666667E+009;1.823563426733017E-001;4.393226653337479E-002;2.402903919573873E-004;-1.087235938757658E-002;
2.404833333333334E+009;1.837425231933594E-001;4.271237552165985E-002;-2.404363767709583E-004;-1.108649093657732E-002;
2.405000000000000E+009;1.848758459091187E-001;4.204984381794930E-002;-1.018106820993125E-003;-1.107078790664673E-002;
2.405166666666667E+009;1.861052066087723E-001;4.129920899868012E-002;-1.273033209145069E-003;-1.105088088661432E-002;
2.405333333333334E+009;1.872106045484543E-001;4.057225584983826E-002;-1.835771254263818E-003;-1.082132291048765E-002;
2.405500000000000E+009;1.883832365274429E-001;4.006712138652802E-002;-2.295783720910549E-003;-1.073195319622755E-002;
2.405666666666667E+009;1.893928200006485E-001;3.962576389312744E-002;-2.823213580995798E-003;-1.041695568710566E-002;
2.405833333333334E+009;1.904343068599701E-001;3.940955549478531E-002;-3.152068238705397E-003;-1.013527624309063E-002;
2.406000000000000E+009;1.912284791469574E-001;3.905815631151199E-002;-3.807661589235067E-003;-9.676299989223480E-003;
2.406166666666667E+009;1.919958442449570E-001;3.866881132125855E-002;-4.130874760448933E-003;-9.781996719539166E-003;
2.406333333333334E+009;1.929019242525101E-001;3.865101188421249E-002;-4.412644077092409E-003;-9.289546869695187E-003;
2.406500000000000E+009;1.936212033033371E-001;3.821550309658051E-002;-5.005419719964266E-003;-9.239982813596726E-003;
2.406666666666667E+009;1.939030587673187E-001;3.893816471099854E-002;-4.724700469523668E-003;-8.664319291710854E-003;
2.406833333333334E+009;1.944129914045334E-001;3.804863244295120E-002;-5.391601473093033E-003;-8.743941783905029E-003;
2.407000000000000E+009;1.944931000471115E-001;3.825700283050537E-002;-5.424617789685726E-003;-8.092450909316540E-003;
2.407166666666667E+009;1.947386860847473E-001;3.771149367094040E-002;-5.771102383732796E-003;-7.676389999687672E-003;
2.407333333333334E+009;1.947094202041626E-001;3.772989660501480E-002;-6.145934574306011E-003;-7.650613784790039E-003;
2.407500000000000E+009;1.948614269495010E-001;3.767355158925057E-002;-6.085333880037069E-003;-7.381479255855084E-003;
2.407666666666667E+009;1.947920322418213E-001;3.757742792367935E-002;-6.064805667847395E-003;-7.044651545584202E-003;
2.407833333333334E+009;1.943182498216629E-001;3.714957460761070E-002;-6.652114912867546E-003;-6.984403822571039E-003;
2.408000000000000E+009;1.940784305334091E-001;3.667751327157021E-002;-7.055075839161873E-003;-6.617760285735130E-003;
2.408166666666667E+009;1.937847435474396E-001;3.655126690864563E-002;-6.582044530659914E-003;-6.325041875243187E-003;
2.408333333333334E+009;1.933934390544891E-001;3.594870492815971E-002;-6.672681309282780E-003;-6.135802716016769E-003;
2.408500000000000E+009;1.928123235702515E-001;3.546864539384842E-002;-6.957176141440868E-003;-5.654164589941502E-003;
2.408666666666667E+009;1.922511160373688E-001;3.496673703193665E-002;-6.846080068498850E-003;-5.435124505311251E-003;
2.408833333333334E+009;1.917655616998673E-001;3.402955830097199E-002;-7.182567846029997E-003;-5.180971696972847E-003;
2.409000000000000E+009;1.909299939870834E-001;3.291799128055573E-002;-6.967307534068823E-003;-4.840644076466560E-003;
2.409166666666667E+009;1.902691423892975E-001;3.200661018490791E-002;-7.103931624442339E-003;-4.575762432068586E-003;
2.409333333333334E+009;1.895264387130737E-001;3.098434396088123E-002;-7.121111731976271E-003;-4.300717264413834E-003;
2.409500000000000E+009;1.884490549564362E-001;2.960512042045593E-002;-6.912455428391695E-003;-4.188884515315294E-003;
2.409666666666667E+009;1.877651959657669E-001;2.824964374303818E-002;-6.899771746248007E-003;-4.167762584984303E-003;
2.409833333333334E+009;1.869034916162491E-001;2.679293043911457E-002;-6.915668025612831E-003;-3.790546441450715E-003;
2.410000000000000E+009;1.860548108816147E-001;2.520762383937836E-002;-7.079833187162876E-003;-3.636104986071587E-003;
2.410166666666667E+009;1.851633936166763E-001;2.327556163072586E-002;-7.035300601273775E-003;-3.461512271314859E-003;
2.410333333333334E+009;1.845398098230362E-001;2.169193141162396E-002;-7.037974428385496E-003;-3.435345832258463E-003;
2.410500000000000E+009;1.836031079292297E-001;1.972832717001438E-002;-6.957162637263537E-003;-3.243554150685668E-003;
2.410666666666667E+009;1.828127205371857E-001;1.774957403540611E-002;-7.031206041574478E-003;-3.051953390240669E-003;
2.410833333333334E+009;1.823868006467819E-001;1.575094647705555E-002;-7.079405244439840E-003;-2.969873370602727E-003;
2.411000000000000E+009;1.816950887441635E-001;1.357064209878445E-002;-7.137090899050236E-003;-2.842095680534840E-003;
2.411166666666667E+009;1.813102960586548E-001;1.147275045514107E-002;-7.192694582045078E-003;-2.561780391260982E-003;
2.411333333333334E+009;1.808739900588989E-001;9.107640944421291E-003;-7.333446294069290E-003;-2.669016132131219E-003;
2.411500000000000E+009;1.805660426616669E-001;6.924286019057035E-003;-7.283789105713368E-003;-2.405509585514665E-003;
2.411666666666667E+009;1.804773211479187E-001;4.874991253018379E-003;-7.165442220866680E-003;-2.210156759247184E-003;
2.411833333333334E+009;1.801618337631226E-001;2.727463375777006E-003;-7.223143707960844E-003;-2.180657815188170E-003;
2.412000000000000E+009;1.804815232753754E-001;1.461090287193656E-004;-7.404095958918333E-003;-2.022885251790285E-003;
2.412166666666667E+009;1.805822402238846E-001;-1.766328001394868E-003;-7.348674349486828E-003;-2.009708900004625E-003;
2.412333333333334E+009;1.807939112186432E-001;-4.156095907092094E-003;-7.479400839656591E-003;-1.845531398430467E-003;
2.412500000000000E+009;1.811093389987946E-001;-6.404682993888855E-003;-7.602139841765165E-003;-1.436722464859486E-003;
2.412666666666667E+009;1.816285401582718E-001;-8.652386255562306E-003;-7.627800107002258E-003;-1.445933827199042E-003;
2.412833333333334E+009;1.823747307062149E-001;-1.082308217883110E-002;-7.800106890499592E-003;-1.399554428644478E-003;
2.413000000000000E+009;1.830329596996307E-001;-1.291030831634998E-002;-8.001336827874184E-003;-1.246673171408474E-003;
2.413166666666667E+009;1.838923543691635E-001;-1.495703496038914E-002;-8.020678535103798E-003;-1.058482332155109E-003;
2.413333333333334E+009;1.847650408744812E-001;-1.725600101053715E-002;-8.154323324561119E-003;-8.012930629774928E-004;
2.413500000000000E+009;1.855729967355728E-001;-1.908538863062859E-002;-8.285928517580032E-003;-5.881470278836787E-004;
2.413666666666667E+009;1.866924911737442E-001;-2.108964137732983E-002;-8.358457125723362E-003;-2.894221106544137E-004;
2.413833333333334E+009;1.877024471759796E-001;-2.299048751592636E-002;-8.439538069069386E-003;-1.226415624842048E-004;
2.414000000000000E+009;1.885674595832825E-001;-2.472910843789578E-002;-8.298321627080441E-003;1.664065202930942E-004;
2.414166666666667E+009;1.897067129611969E-001;-2.652849256992340E-002;-8.648387156426907E-003;4.056960460729897E-004;
2.414333333333334E+009;1.907654404640198E-001;-2.827780321240425E-002;-8.573703467845917E-003;7.292503723874688E-004;
2.414500000000000E+009;1.920066326856613E-001;-2.949846722185612E-002;-8.589782752096653E-003;9.986878139898181E-004;
2.414666666666667E+009;1.928824484348297E-001;-3.090443834662437E-002;-8.548600599169731E-003;1.389430835843086E-003;
2.414833333333334E+009;1.939489841461182E-001;-3.225308284163475E-002;-8.578011766076088E-003;1.770056551322341E-003;
2.415000000000000E+009;1.948735564947128E-001;-3.360475972294807E-002;-8.557806722819805E-003;1.914052059873939E-003;
2.415166666666667E+009;1.960066556930542E-001;-3.470910340547562E-002;-8.602038025856018E-003;2.216005232185125E-003;
2.415333333333334E+009;1.970308125019074E-001;-3.549478203058243E-002;-8.509855717420578E-003;2.539239823818207E-003;
2.415500000000000E+009;1.979210972785950E-001;-3.620375320315361E-002;-8.458745665848255E-003;2.861358458176255E-003;
2.415666666666667E+009;1.989196240901947E-001;-3.715356066823006E-002;-8.486412465572357E-003;3.164344234392047E-003;
2.415833333333334E+009;1.995785683393478E-001;-3.784275799989700E-002;-8.284084498882294E-003;3.591590560972691E-003;
2.416000000000000E+009;2.002185583114624E-001;-3.840117529034615E-002;-8.313511498272419E-003;3.804331179708242E-003;
2.416166666666667E+009;2.008010149002075E-001;-3.909854218363762E-002;-8.260726928710938E-003;4.188370425254107E-003;
2.416333333333334E+009;2.012578845024109E-001;-3.938445821404457E-002;-7.930515334010124E-003;4.581108223646879E-003;
2.416500000000000E+009;2.016840726137161E-001;-3.983054682612419E-002;-7.715149782598019E-003;4.941119812428951E-003;
2.416666666666667E+009;2.018066942691803E-001;-4.028223454952240E-002;-7.637926843017340E-003;5.330676212906838E-003;
2.416833333333334E+009;2.020114958286285E-001;-4.036225005984306E-002;-7.509313523769379E-003;5.611568689346314E-003;
2.417000000000000E+009;2.019412219524384E-001;-4.062716290354729E-002;-7.166699506342411E-003;5.798315629363060E-003;
2.417166666666667E+009;2.016752213239670E-001;-4.077153280377388E-002;-6.958343554288149E-003;6.196021568030119E-003;
2.417333333333334E+009;2.014939337968826E-001;-4.064046964049339E-002;-6.801309064030647E-003;6.265204399824143E-003;
2.417500000000000E+009;2.011979371309280E-001;-4.095062240958214E-002;-6.334234960377216E-003;6.526895333081484E-003;
2.417666666666667E+009;2.005778998136520E-001;-4.080221801996231E-002;-6.152548361569643E-003;6.711480207741261E-003;
2.417833333333334E+009;2.001426219940186E-001;-4.081494733691216E-002;-5.984744522720575E-003;6.867748685181141E-003;
2.418000000000000E+009;1.995447278022766E-001;-4.075998067855835E-002;-5.788641050457954E-003;7.075438275933266E-003;
2.418166666666667E+009;1.986257731914520E-001;-4.095357283949852E-002;-5.341588053852320E-003;7.044360041618347E-003;
2.418333333333334E+009;1.978853046894074E-001;-4.095456004142761E-002;-5.210020579397678E-003;7.378311827778816E-003;
2.418500000000000E+009;1.969390064477921E-001;-4.114970192313194E-002;-4.987402819097042E-003;7.549716625362635E-003;
2.418666666666667E+009;1.961077600717545E-001;-4.121579602360725E-002;-4.637308418750763E-003;7.524549495428801E-003;
2.418833333333334E+009;1.947774440050125E-001;-4.144204407930374E-002;-4.544423427432776E-003;7.707014214247465E-003;
2.419000000000000E+009;1.936497241258621E-001;-4.181437566876411E-002;-4.187222570180893E-003;7.823877036571503E-003;
2.419166666666667E+009;1.926187127828598E-001;-4.243297502398491E-002;-3.954633604735136E-003;8.064769208431244E-003;
2.419333333333334E+009;1.912687867879868E-001;-4.305471107363701E-002;-3.642087569460273E-003;8.164059370756149E-003;
2.419500000000000E+009;1.898662000894547E-001;-4.340394958853722E-002;-3.414160804823041E-003;8.141341619193554E-003;
2.419666666666667E+009;1.885240972042084E-001;-4.439919441938400E-002;-3.121556248515844E-003;8.365762419998646E-003;
2.419833333333334E+009;1.870684176683426E-001;-4.520834982395172E-002;-2.899954328313470E-003;8.389100432395935E-003;
2.420000000000000E+009;1.857243627309799E-001;-4.602788388729096E-002;-2.520422684028745E-003;8.449130691587925E-003;
2.420166666666667E+009;1.841523647308350E-001;-4.712652787566185E-002;-2.325094537809491E-003;8.551928214728832E-003;
2.420333333333334E+009;1.828494518995285E-001;-4.835175350308418E-002;-1.975183608010411E-003;8.534925989806652E-003;
2.420500000000000E+009;1.811515688896179E-001;-4.965220764279366E-002;-1.724155154079199E-003;8.611897006630898E-003;
2.420666666666667E+009;1.798076927661896E-001;-5.073022469878197E-002;-1.463527558371425E-003;8.573048748075962E-003;
2.420833333333334E+009;1.782752722501755E-001;-5.223261564970017E-002;-1.087672077119350E-003;8.512742817401886E-003;
2.421000000000000E+009;1.769681721925736E-001;-5.368949100375176E-002;-8.586600306443870E-004;8.557780645787716E-003;
2.421166666666667E+009;1.758170127868652E-001;-5.540244281291962E-002;-5.009255837649107E-004;8.579505607485771E-003;
2.421333333333334E+009;1.742880940437317E-001;-5.682848393917084E-002;-2.081577986245975E-004;8.583566173911095E-003;
2.421500000000000E+009;1.730629950761795E-001;-5.871257185935974E-002;3.209651549695991E-005;8.439158089458942E-003;
2.421666666666667E+009;1.719242334365845E-001;-6.041769683361054E-002;2.175754780182615E-004;8.452070876955986E-003;
2.421833333333334E+009;1.710507869720459E-001;-6.214084476232529E-002;5.611963570117950E-004;8.220484480261803E-003;
2.422000000000000E+009;1.698953807353973E-001;-6.385495513677597E-002;7.725583855062723E-004;8.215040899813175E-003;
2.422166666666667E+009;1.692252308130264E-001;-6.598602980375290E-002;9.708123980090022E-004;8.071439340710640E-003;
2.422333333333334E+009;1.682010740041733E-001;-6.781580299139023E-002;1.223329920321703E-003;8.047273382544518E-003;
2.422500000000000E+009;1.675960570573807E-001;-6.958304345607758E-002;1.499167294241488E-003;7.969780825078487E-003;
2.422666666666667E+009;1.670251786708832E-001;-7.153326272964478E-002;1.697632018476725E-003;7.697330787777901E-003;
2.422833333333334E+009;1.665396988391876E-001;-7.347067445516586E-002;1.855389564298093E-003;7.684801705181599E-003;
2.423000000000000E+009;1.659323573112488E-001;-7.540711760520935E-002;2.201193012297154E-003;7.793713361024857E-003;
2.423166666666667E+009;1.656560450792313E-001;-7.718932628631592E-002;2.401381731033325E-003;7.575311232358217E-003;
2.423333333333334E+009;1.655293703079224E-001;-7.902670651674271E-002;2.447283128276467E-003;7.567791268229485E-003;
2.423500000000000E+009;1.655113399028778E-001;-8.066567033529282E-002;2.830766141414642E-003;7.577315438538790E-003;
2.423666666666667E+009;1.654653102159500E-001;-8.253285288810730E-002;3.072563791647553E-003;7.595821749418974E-003;
2.423833333333334E+009;1.653952151536942E-001;-8.417883515357971E-002;3.203641157597303E-003;7.292013615369797E-003;
2.424000000000000E+009;1.654902547597885E-001;-8.598567545413971E-002;3.437120234593749E-003;7.331603672355413E-003;
2.424166666666667E+009;1.656036376953125E-001;-8.742783218622208E-002;3.793599549680948E-003;7.243914529681206E-003;
2.424333333333334E+009;1.657965928316116E-001;-8.893821388483048E-002;4.109256900846958E-003;6.892009172588587E-003;
2.424500000000000E+009;1.659730672836304E-001;-9.046600759029388E-002;4.246427211910486E-003;6.698087789118290E-003;
2.424666666666667E+009;1.661137044429779E-001;-9.181337803602219E-002;4.568579606711865E-003;6.601139437407255E-003;
2.424833333333334E+009;1.667061597108841E-001;-9.307998418807983E-002;4.775843117386103E-003;6.342732813209295E-003;
2.425000000000000E+009;1.669601202011108E-001;-9.436230361461639E-002;4.953144583851099E-003;6.162971723824740E-003;
2.425166666666667E+009;1.671146005392075E-001;-9.542442113161087E-002;5.043381359428167E-003;5.989031400531530E-003;
2.425333333333334E+009;1.673942804336548E-001;-9.634649008512497E-002;5.263683386147022E-003;5.633703432977200E-003;
2.425500000000000E+009;1.677030324935913E-001;-9.740865230560303E-002;5.433019716292620E-003;5.276004318147898E-003;
2.425666666666667E+009;1.679566055536270E-001;-9.798633307218552E-002;5.490357521921396E-003;5.050824489444494E-003;
2.425833333333334E+009;1.682827323675156E-001;-9.891078621149063E-002;5.761167034506798E-003;4.826797638088465E-003;
2.426000000000000E+009;1.685016453266144E-001;-9.946539998054504E-002;5.534262862056494E-003;4.586648195981979E-003;
2.426166666666667E+009;1.688965260982513E-001;-1.000586077570915E-001;5.621038377285004E-003;4.389889072626829E-003;
2.426333333333334E+009;1.687908917665482E-001;-1.006762683391571E-001;5.694075953215361E-003;4.287998192012310E-003;
2.426500000000000E+009;1.692259609699249E-001;-1.010389551520348E-001;5.811627954244614E-003;3.949313890188932E-003;
2.426666666666667E+009;1.692981719970703E-001;-1.014823466539383E-001;5.704407114535570E-003;3.816186217591167E-003;
2.426833333333334E+009;1.695378571748734E-001;-1.018491014838219E-001;5.884350743144751E-003;3.751725191250444E-003;
2.427000000000000E+009;1.694449186325073E-001;-1.022032946348190E-001;6.100270897150040E-003;3.482094034552574E-003;
2.427166666666667E+009;1.694512963294983E-001;-1.023956984281540E-001;6.043372675776482E-003;3.390630939975381E-003;
2.427333333333334E+009;1.694023013114929E-001;-1.028367578983307E-001;6.044401787221432E-003;3.292398061603308E-003;
2.427500000000000E+009;1.691493839025497E-001;-1.031794175505638E-001;6.262928713113070E-003;3.047985490411520E-003;
2.427666666666667E+009;1.688207387924194E-001;-1.034224554896355E-001;6.230654194951057E-003;2.863866742700338E-003;
