# Version 1.00
#
freq[Hz];re:Trc1_S11;im:Trc1_S11;re:Trc2_S21;im:Trc2_S21;
2.400000000000000E+009;1.570039689540863E-001;1.057452112436295E-001;8.122422732412815E-003;-4.853635560721159E-003;
2.400166666666667E+009;1.569589376449585E-001;1.033196747303009E-001;8.056612685322762E-003;-5.105256568640471E-003;
2.400333333333334E+009;1.571489423513413E-001;1.012211218476296E-001;7.805839180946350E-003;-5.368837621062994E-003;
2.400500000000000E+009;1.572666764259338E-001;9.848991036415100E-002;7.784025743603706E-003;-5.748726427555084E-003;
2.400666666666667E+009;1.576486527919769E-001;9.623643755912781E-002;7.672489155083895E-003;-6.109496578574181E-003;
2.400833333333334E+009;1.578246653079987E-001;9.346348792314529E-002;7.349491119384766E-003;-6.349716335535049E-003;
2.401000000000000E+009;1.581604033708572E-001;9.068785607814789E-002;7.282624952495098E-003;-6.667803041636944E-003;
2.401166666666667E+009;1.583538055419922E-001;8.815228939056397E-002;6.968358531594276E-003;-6.856368854641914E-003;
2.401333333333334E+009;1.588538885116577E-001;8.540245890617371E-002;6.765051744878292E-003;-7.138018961995840E-003;
2.401500000000000E+009;1.593746542930603E-001;8.267147094011307E-002;6.560737267136574E-003;-7.445880211889744E-003;
2.401666666666667E+009;1.598058789968491E-001;8.004161715507507E-002;6.392085459083319E-003;-7.642481941729784E-003;
2.401833333333334E+009;1.602587401866913E-001;7.733333855867386E-002;6.195358000695705E-003;-7.754698395729065E-003;
2.402000000000000E+009;1.611975431442261E-001;7.481539994478226E-002;5.731424316763878E-003;-7.971297949552536E-003;
2.402166666666667E+009;1.619627177715302E-001;7.250452786684036E-002;5.634763743728399E-003;-8.265208452939987E-003;
2.402333333333334E+009;1.627828180789948E-001;7.002957165241242E-002;5.432951264083386E-003;-8.414680138230324E-003;
2.402500000000000E+009;1.639380902051926E-001;6.755197048187256E-002;5.090358201414347E-003;-8.787387050688267E-003;
2.402666666666667E+009;1.649985760450363E-001;6.530167907476425E-002;4.914918914437294E-003;-8.975244127213955E-003;
2.402833333333334E+009;1.663448065519333E-001;6.309381127357483E-002;4.579809028655291E-003;-9.213944897055626E-003;
2.403000000000000E+009;1.675650179386139E-001;6.084637716412544E-002;4.164049867540598E-003;-9.278273209929466E-003;
2.403166666666667E+009;1.691463887691498E-001;5.878514423966408E-002;3.944801166653633E-003;-9.578905999660492E-003;
2.403333333333334E+009;1.705396622419357E-001;5.667585134506226E-002;3.578989999368787E-003;-9.808865375816822E-003;
2.403500000000000E+009;1.721656471490860E-001;5.478282272815704E-002;3.222040366381407E-003;-1.014007162302733E-002;
2.403666666666667E+009;1.736387461423874E-001;5.293805524706841E-002;2.756065689027309E-003;-1.015495136380196E-002;
2.403833333333334E+009;1.750102490186691E-001;5.121904984116554E-002;2.628822112455964E-003;-1.039476413279772E-002;
2.404000000000000E+009;1.763153523206711E-001;4.951477423310280E-002;2.127844840288162E-003;-1.043550111353397E-002;
2.404166666666667E+009;1.780254691839218E-001;4.815718159079552E-002;1.624484546482563E-003;-1.071815658360720E-002;
2.404333333333334E+009;1.794375032186508E-001;4.645857959985733E-002;1.157459802925587E-003;-1.072918623685837E-002;
2.404500000000000E+009;1.809330135583878E-001;4.526020213961601E-002;7.783449254930019E-004;-1.098454091697931E-002;
2.404666666666667E+009;1.822358369827271E-001;4.388394579291344E-002;2.333572192583233E-004;-1.089877914637327E-002;
2.404833333333334E+009;1.837092041969299E-001;4.280206561088562E-002;-3.466529597062618E-004;-1.109520625323057E-002;
2.405000000000000E+009;1.848046779632568E-001;4.218831285834312E-002;-9.304616833105683E-004;-1.108532212674618E-002;
2.405166666666667E+009;1.861744374036789E-001;4.133620485663414E-002;-1.390309887938201E-003;-1.094598881900311E-002;
2.405333333333334E+009;1.872603893280029E-001;4.086983203887940E-002;-1.891316962428391E-003;-1.081380899995565E-002;
2.405500000000000E+009;1.886151880025864E-001;4.023129492998123E-002;-2.480720169842243E-003;-1.058715768158436E-002;
2.405666666666667E+009;1.895007789134979E-001;3.966120257973671E-002;-2.746743150055409E-003;-1.051254384219647E-002;
2.405833333333334E+009;1.906317323446274E-001;3.936025872826576E-002;-3.353552427142859E-003;-1.017972640693188E-002;
2.406000000000000E+009;1.913531571626663E-001;3.905341401696205E-002;-3.723991801962256E-003;-9.826331399381161E-003;
2.406166666666667E+009;1.920096725225449E-001;3.874834626913071E-002;-4.204042721539736E-003;-9.829135611653328E-003;
2.406333333333334E+009;1.929550766944885E-001;3.875450789928436E-002;-4.484764300286770E-003;-9.301571175456047E-003;
2.406500000000000E+009;1.940086930990219E-001;3.922726958990097E-002;-3.977035172283649E-003;-9.199408814311028E-003;
2.406666666666667E+009;1.946236640214920E-001;3.855666518211365E-002;-4.708746913820505E-003;-9.392329491674900E-003;
2.406833333333334E+009;1.944673955440521E-001;3.859131038188934E-002;-4.812027793377638E-003;-8.286057971417904E-003;
2.407000000000000E+009;1.950485110282898E-001;3.789851069450378E-002;-5.980522371828556E-003;-8.584233000874519E-003;
2.407166666666667E+009;1.951081007719040E-001;3.771089762449265E-002;-5.895313341170549E-003;-8.022921159863472E-003;
2.407333333333334E+009;1.949838995933533E-001;3.799490258097649E-002;-5.937327165156603E-003;-7.572384551167488E-003;
2.407500000000000E+009;1.948265433311462E-001;3.799356147646904E-002;-6.079867482185364E-003;-7.197143044322729E-003;
2.407666666666667E+009;1.951249986886978E-001;3.790747374296188E-002;-5.996634252369404E-003;-7.463322486728430E-003;
2.407833333333334E+009;1.944415569305420E-001;3.734873607754707E-002;-6.509633269160986E-003;-6.687286309897900E-003;
2.408000000000000E+009;1.944187432527542E-001;3.708024695515633E-002;-6.559850182384253E-003;-6.568200886249542E-003;
2.408166666666667E+009;1.938829571008682E-001;3.659363090991974E-002;-6.678579375147820E-003;-6.311974022537470E-003;
2.408333333333334E+009;1.935469061136246E-001;3.606754913926125E-002;-6.608128082007170E-003;-6.091295275837183E-003;
2.408500000000000E+009;1.928962916135788E-001;3.557897359132767E-002;-6.816186010837555E-003;-5.637690890580416E-003;
2.408666666666667E+009;1.924303174018860E-001;3.494251146912575E-002;-6.948957685381174E-003;-5.484344437718391E-003;
2.408833333333334E+009;1.918813735246658E-001;3.390330821275711E-002;-7.178424857556820E-003;-5.118430592119694E-003;
2.409000000000000E+009;1.910777390003204E-001;3.303769230842590E-002;-7.088400423526764E-003;-4.915195517241955E-003;
2.409166666666667E+009;1.904108226299286E-001;3.208627179265022E-002;-7.125505711883307E-003;-4.636310040950775E-003;
2.409333333333334E+009;1.895384192466736E-001;3.098698146641254E-002;-7.017096038907766E-003;-4.309863783419132E-003;
2.409500000000000E+009;1.886262148618698E-001;2.957900799810886E-002;-7.008739747107029E-003;-4.128424450755119E-003;
2.409666666666667E+009;1.878712028264999E-001;2.831236459314823E-002;-6.901073735207319E-003;-3.933916334062815E-003;
2.409833333333334E+009;1.870015114545822E-001;2.677041850984097E-002;-7.030331995338202E-003;-3.773709060624242E-003;
2.410000000000000E+009;1.861756294965744E-001;2.502627670764923E-002;-7.016388699412346E-003;-3.649456193670631E-003;
2.410166666666667E+009;1.853091269731522E-001;2.334998920559883E-002;-7.040046621114016E-003;-3.569117514416575E-003;
2.410333333333334E+009;1.845345646142960E-001;2.166029810905457E-002;-6.920963525772095E-003;-3.302308730781078E-003;
2.410500000000000E+009;1.837028712034226E-001;1.989731378853321E-002;-7.028259336948395E-003;-3.203421831130981E-003;
2.410666666666667E+009;1.830100119113922E-001;1.751905307173729E-002;-7.007642649114132E-003;-3.079738933593035E-003;
2.410833333333334E+009;1.824877560138702E-001;1.568464003503323E-002;-7.110176607966423E-003;-2.737184287980199E-003;
2.411000000000000E+009;1.818652153015137E-001;1.349888090044260E-002;-7.155391853302717E-003;-2.769754035398364E-003;
2.411166666666667E+009;1.813946813344955E-001;1.153798028826714E-002;-7.112320046871901E-003;-2.472615102306008E-003;
2.411333333333334E+009;1.810381114482880E-001;9.219836443662643E-003;-7.096339017152786E-003;-2.622470026835799E-003;
2.411500000000000E+009;1.806530654430389E-001;6.923024542629719E-003;-7.223310880362988E-003;-2.373889088630676E-003;
2.411666666666667E+009;1.806421428918839E-001;4.906723275780678E-003;-7.295826915651560E-003;-2.159204101189971E-003;
2.411833333333334E+009;1.803693324327469E-001;2.682248596101999E-003;-7.240685168653727E-003;-2.064481144770980E-003;
2.412000000000000E+009;1.805079728364945E-001;3.272777539677918E-004;-7.417516317218542E-003;-1.972271129488945E-003;
2.412166666666667E+009;1.806122660636902E-001;-1.736366655677557E-003;-7.417374756187201E-003;-1.923139556311071E-003;
2.412333333333334E+009;1.810700893402100E-001;-4.107882268726826E-003;-7.463656831532717E-003;-1.606362755410373E-003;
2.412500000000000E+009;1.813780367374420E-001;-6.318181753158569E-003;-7.712859194725752E-003;-1.543327118270099E-003;
2.412666666666667E+009;1.817952990531921E-001;-8.697825483977795E-003;-7.789115887135267E-003;-1.504623796790838E-003;
2.412833333333334E+009;1.825865358114243E-001;-1.081136614084244E-002;-7.668545469641686E-003;-1.392934238538146E-003;
2.413000000000000E+009;1.832912862300873E-001;-1.277052424848080E-002;-7.800339721143246E-003;-1.180810155346990E-003;
2.413166666666667E+009;1.839260309934616E-001;-1.500957831740379E-002;-7.931181229650974E-003;-7.953840540722013E-004;
2.413333333333334E+009;1.849414557218552E-001;-1.717305742204189E-002;-8.201979100704193E-003;-8.130676578730345E-004;
2.413500000000000E+009;1.855829358100891E-001;-1.912962086498737E-002;-8.207440376281738E-003;-4.057236074004322E-004;
2.413666666666667E+009;1.868758350610733E-001;-2.123511955142021E-002;-8.252604864537716E-003;-2.283826615894213E-004;
2.413833333333334E+009;1.877233982086182E-001;-2.300069108605385E-002;-8.392048999667168E-003;-3.345649020047858E-005;
2.414000000000000E+009;1.887428313493729E-001;-2.482146024703980E-002;-8.562154136598110E-003;1.346634671790525E-004;
2.414166666666667E+009;1.898102909326553E-001;-2.650689706206322E-002;-8.587958291172981E-003;7.012343266978860E-004;
2.414333333333334E+009;1.908292919397354E-001;-2.836816571652889E-002;-8.579554967582226E-003;9.034855174832046E-004;
2.414500000000000E+009;1.917359828948975E-001;-2.966556139290333E-002;-8.510090410709381E-003;1.162496046163142E-003;
2.414666666666667E+009;1.929558962583542E-001;-3.111131861805916E-002;-8.615388534963131E-003;1.451526070013642E-003;
2.414833333333334E+009;1.939108520746231E-001;-3.236520662903786E-002;-8.646809495985508E-003;1.677133259363473E-003;
2.415000000000000E+009;1.948829591274262E-001;-3.358094394207001E-002;-8.460269309580326E-003;1.977395266294479E-003;
2.415166666666667E+009;1.960882246494293E-001;-3.471657261252403E-002;-8.522679097950459E-003;2.371724229305983E-003;
2.415333333333334E+009;1.969053447246552E-001;-3.576714545488358E-002;-8.499664254486561E-003;2.594043966382742E-003;
2.415500000000000E+009;1.979038864374161E-001;-3.635220602154732E-002;-8.470454253256321E-003;2.782308030873537E-003;
2.415666666666667E+009;1.986734867095947E-001;-3.725938871502876E-002;-8.377581834793091E-003;3.202690975740552E-003;
2.415833333333334E+009;1.995644867420197E-001;-3.789279609918594E-002;-8.371413685381413E-003;3.521003527566791E-003;
2.416000000000000E+009;2.001098841428757E-001;-3.841063752770424E-002;-8.315734565258026E-003;4.063881468027830E-003;
2.416166666666667E+009;2.008211314678192E-001;-3.910197317600250E-002;-8.256837725639343E-003;4.243889823555946E-003;
2.416333333333334E+009;2.013076841831207E-001;-3.954213112592697E-002;-7.923852652311325E-003;4.695296287536621E-003;
2.416500000000000E+009;2.017170339822769E-001;-3.993381559848785E-002;-7.868289016187191E-003;4.787671379745007E-003;
2.416666666666667E+009;2.018285095691681E-001;-4.037926718592644E-002;-7.626231294125319E-003;5.196064244955778E-003;
2.416833333333334E+009;2.018893212080002E-001;-4.055287688970566E-002;-7.596577052026987E-003;5.535853561013937E-003;
2.417000000000000E+009;2.020949721336365E-001;-4.073383286595345E-002;-7.195405662059784E-003;5.744946654886007E-003;
2.417166666666667E+009;2.016922384500504E-001;-4.082277789711952E-002;-7.006773725152016E-003;5.953581538051367E-003;
2.417333333333334E+009;2.014867216348648E-001;-4.085917770862579E-002;-6.735849194228649E-003;6.293327081948519E-003;
2.417500000000000E+009;2.010935693979263E-001;-4.096078500151634E-002;-6.305016577243805E-003;6.549275480210781E-003;
2.417666666666667E+009;2.004950493574143E-001;-4.094982892274857E-002;-6.112532690167427E-003;6.733285728842020E-003;
2.417833333333334E+009;2.000781893730164E-001;-4.092432558536530E-002;-5.892274901270866E-003;6.803412921726704E-003;
2.418000000000000E+009;1.994428038597107E-001;-4.084847867488861E-002;-5.830922629684210E-003;7.029960397630930E-003;
2.418166666666667E+009;1.986384838819504E-001;-4.106961190700531E-002;-5.575559101998806E-003;7.185304537415505E-003;
2.418333333333334E+009;1.978578418493271E-001;-4.095847532153130E-002;-5.193076096475124E-003;7.445105817168951E-003;
2.418500000000000E+009;1.968184262514114E-001;-4.125200584530830E-002;-4.819441586732864E-003;7.398341316729784E-003;
2.418666666666667E+009;1.959734708070755E-001;-4.134222120046616E-002;-4.854277241975069E-003;7.602173369377852E-003;
2.418833333333334E+009;1.948734521865845E-001;-4.164090752601624E-002;-4.491081926971674E-003;7.712305057793856E-003;
2.419000000000000E+009;1.936905831098557E-001;-4.199724644422531E-002;-4.243024624884129E-003;8.093002252280712E-003;
2.419166666666667E+009;1.925927549600601E-001;-4.236764088273048E-002;-3.893254557624459E-003;7.961876690387726E-003;
2.419333333333334E+009;1.912194043397903E-001;-4.311253502964973E-002;-3.610349493101239E-003;8.175032213330269E-003;
2.419500000000000E+009;1.899437457323074E-001;-4.361208900809288E-002;-3.291878383606672E-003;8.146740496158600E-003;
2.419666666666667E+009;1.884137541055679E-001;-4.454276338219643E-002;-3.160111838951707E-003;8.339612744748592E-003;
2.419833333333334E+009;1.869909465312958E-001;-4.520403221249580E-002;-2.843213267624378E-003;8.358302526175976E-003;
2.420000000000000E+009;1.856341511011124E-001;-4.611825570464134E-002;-2.596454694867134E-003;8.460421115159988E-003;
2.420166666666667E+009;1.842277795076370E-001;-4.709357768297195E-002;-2.293254714459181E-003;8.477409370243549E-003;
2.420333333333334E+009;1.826356351375580E-001;-4.839441552758217E-002;-1.999719534069300E-003;8.475779555737972E-003;
2.420500000000000E+009;1.813477724790573E-001;-4.975652694702148E-002;-1.623905729502440E-003;8.601332083344460E-003;
2.420666666666667E+009;1.796594262123108E-001;-5.080445110797882E-002;-1.371481455862522E-003;8.717125281691551E-003;
2.420833333333334E+009;1.782119423151016E-001;-5.231208726763725E-002;-1.094097970053554E-003;8.646974340081215E-003;
2.421000000000000E+009;1.770023554563522E-001;-5.378152430057526E-002;-7.538115605711937E-004;8.557081222534180E-003;
2.421166666666667E+009;1.756597310304642E-001;-5.541561543941498E-002;-4.768682993017137E-004;8.605960756540299E-003;
2.421333333333334E+009;1.741971820592880E-001;-5.692463740706444E-002;-1.548867439851165E-004;8.437622338533402E-003;
2.421500000000000E+009;1.731460243463516E-001;-5.889111384749413E-002;1.597074588062242E-004;8.483763784170151E-003;
2.421666666666667E+009;1.717643290758133E-001;-6.059972941875458E-002;2.879608073271811E-004;8.334792219102383E-003;
2.421833333333334E+009;1.709520816802979E-001;-6.231474503874779E-002;4.155780188739300E-004;8.218180388212204E-003;
2.422000000000000E+009;1.697581261396408E-001;-6.399269402027130E-002;8.759063202887774E-004;8.048836141824722E-003;
2.422166666666667E+009;1.690608114004135E-001;-6.590513885021210E-002;9.073019027709961E-004;8.118688128888607E-003;
2.422333333333334E+009;1.680297255516052E-001;-6.782088428735733E-002;1.224391511641443E-003;8.103472180664539E-003;
2.422500000000000E+009;1.673906594514847E-001;-6.973605602979660E-002;1.582168391905725E-003;7.883279584348202E-003;
2.422666666666667E+009;1.667895019054413E-001;-7.152366638183594E-002;1.644578762352467E-003;7.946384139358997E-003;
2.422833333333334E+009;1.664265543222427E-001;-7.339044660329819E-002;1.946498290635645E-003;7.842412218451500E-003;
2.423000000000000E+009;1.660239994525909E-001;-7.533837854862213E-002;2.070530783385038E-003;7.776379119604826E-003;
2.423166666666667E+009;1.657219976186752E-001;-7.703011482954025E-002;2.390431240200996E-003;7.583543192595244E-003;
2.423333333333334E+009;1.654902547597885E-001;-7.919199764728546E-002;2.686434425413609E-003;7.611731998622417E-003;
2.423500000000000E+009;1.654699146747589E-001;-8.074573427438736E-002;2.777744084596634E-003;7.498297374695540E-003;
2.423666666666667E+009;1.654171645641327E-001;-8.263976871967316E-002;3.023063996806741E-003;7.532835006713867E-003;
2.423833333333334E+009;1.652221679687500E-001;-8.424439281225205E-002;3.364349249750376E-003;7.236557547003031E-003;
2.424000000000000E+009;1.653807759284973E-001;-8.589169383049011E-002;3.553824499249458E-003;7.381699047982693E-003;
2.424166666666667E+009;1.654482334852219E-001;-8.747431635856628E-002;3.738531609997153E-003;7.027288898825645E-003;
2.424333333333334E+009;1.656486392021179E-001;-8.889289200305939E-002;4.176359623670578E-003;6.948732770979404E-003;
2.424500000000000E+009;1.659374386072159E-001;-9.066881239414215E-002;4.244551062583923E-003;6.634317338466644E-003;
2.424666666666667E+009;1.659782081842423E-001;-9.190947562456131E-002;4.575564060360193E-003;6.579060573130846E-003;
2.424833333333334E+009;1.666353046894074E-001;-9.317377954721451E-002;4.756512120366097E-003;6.358656566590071E-003;
2.425000000000000E+009;1.667532771825790E-001;-9.430312365293503E-002;4.927684552967548E-003;5.920387804508209E-003;
2.425166666666667E+009;1.669862419366837E-001;-9.532873332500458E-002;4.950502421706915E-003;5.740549881011248E-003;
2.425333333333334E+009;1.672686040401459E-001;-9.634312987327576E-002;5.368439946323633E-003;5.505860783159733E-003;
2.425500000000000E+009;1.676682233810425E-001;-9.743752330541611E-002;5.419744644314051E-003;5.221814848482609E-003;
2.425666666666667E+009;1.678968369960785E-001;-9.804481267929077E-002;5.509621929377317E-003;5.031342152506113E-003;
2.425833333333334E+009;1.679615378379822E-001;-9.896157681941986E-002;5.550793372094631E-003;4.825009964406490E-003;
2.426000000000000E+009;1.684265583753586E-001;-9.942934662103653E-002;5.633229855448008E-003;4.615248180925846E-003;
2.426166666666667E+009;1.687859892845154E-001;-1.000173985958099E-001;5.693729501217604E-003;4.441911820322275E-003;
2.426333333333334E+009;1.688405275344849E-001;-1.006303578615189E-001;5.749472882598639E-003;4.332824610173702E-003;
2.426500000000000E+009;1.690481007099152E-001;-1.010498329997063E-001;5.874265450984240E-003;4.155525006353855E-003;
2.426666666666667E+009;1.692743152379990E-001;-1.014786958694458E-001;5.916596390306950E-003;3.871313529089093E-003;
2.426833333333334E+009;1.695011556148529E-001;-1.018443405628204E-001;5.918996874243021E-003;3.748540533706546E-003;
2.427000000000000E+009;1.693975180387497E-001;-1.022035107016563E-001;5.915824323892593E-003;3.520746016874909E-003;
2.427166666666667E+009;1.693671941757202E-001;-1.024693772196770E-001;6.110368762165308E-003;3.539962694048882E-003;
2.427333333333334E+009;1.692415773868561E-001;-1.028029024600983E-001;5.963913165032864E-003;3.108746604993939E-003;
2.427500000000000E+009;1.689734011888504E-001;-1.030996888875961E-001;6.163502577692270E-003;2.907602582126856E-003;
2.427666666666667E+009;1.687317192554474E-001;-1.033807992935181E-001;6.191545166075230E-003;2.806124277412891E-003;
