# Version 1.00
#
freq[Hz];re:Trc1_S11;im:Trc1_S11;re:Trc2_S21;im:Trc2_S21;
2.400000000000000E+009;1.566629707813263E-001;1.058076396584511E-001;7.982935756444931E-003;-4.825752694159746E-003;
2.400166666666667E+009;1.566757708787918E-001;1.035354882478714E-001;7.900656200945377E-003;-5.373037885874510E-003;
2.400333333333334E+009;1.569770276546478E-001;1.011352539062500E-001;7.877279072999954E-003;-5.573004018515348E-003;
2.400500000000000E+009;1.572281569242477E-001;9.851095825433731E-002;7.724760565906763E-003;-5.813618656247854E-003;
2.400666666666667E+009;1.572619527578354E-001;9.612801671028137E-002;7.527388166636229E-003;-6.256387103348970E-003;
2.400833333333334E+009;1.576842069625855E-001;9.342300146818161E-002;7.187345530837774E-003;-6.545861251652241E-003;
2.401000000000000E+009;1.579127609729767E-001;9.076090902090073E-002;6.991423200815916E-003;-6.683999672532082E-003;
2.401166666666667E+009;1.581054627895355E-001;8.804314583539963E-002;6.860412657260895E-003;-6.903258152306080E-003;
2.401333333333334E+009;1.586719751358032E-001;8.547920733690262E-002;6.719037890434265E-003;-7.369196973741055E-003;
2.401500000000000E+009;1.591847985982895E-001;8.270058035850525E-002;6.326586939394474E-003;-7.440546527504921E-003;
2.401666666666667E+009;1.595857590436935E-001;8.004549890756607E-002;6.271721795201302E-003;-7.675859145820141E-003;
2.401833333333334E+009;1.601356714963913E-001;7.752596586942673E-002;5.970824975520372E-003;-8.008676581084728E-003;
2.402000000000000E+009;1.610284000635147E-001;7.493425905704498E-002;5.771053023636341E-003;-8.125718683004379E-003;
2.402166666666667E+009;1.618087142705917E-001;7.261632382869721E-002;5.716490559279919E-003;-8.456627838313580E-003;
2.402333333333334E+009;1.626985222101212E-001;6.993857026100159E-002;5.267946515232325E-003;-8.565727621316910E-003;
2.402500000000000E+009;1.639462262392044E-001;6.756649911403656E-002;4.814529791474342E-003;-8.837549947202206E-003;
2.402666666666667E+009;1.648754626512528E-001;6.535486876964569E-002;4.547887481749058E-003;-9.231294505298138E-003;
2.402833333333334E+009;1.660346984863281E-001;6.300681829452515E-002;4.365497734397650E-003;-9.278317913413048E-003;
2.403000000000000E+009;1.674340516328812E-001;6.092607975006104E-002;3.849088214337826E-003;-9.638497605919838E-003;
2.403166666666667E+009;1.689553856849670E-001;5.888125672936440E-002;3.720269072800875E-003;-9.661755524575710E-003;
2.403333333333334E+009;1.702062636613846E-001;5.662980303168297E-002;3.506668610498309E-003;-9.974821470677853E-003;
2.403500000000000E+009;1.719281077384949E-001;5.489940568804741E-002;3.243694081902504E-003;-1.012593600898981E-002;
2.403666666666667E+009;1.734259575605393E-001;5.312053486704826E-002;2.664864761754870E-003;-1.028835028409958E-002;
2.403833333333334E+009;1.749065369367600E-001;5.116501823067665E-002;2.270908094942570E-003;-1.046804059296846E-002;
2.404000000000000E+009;1.763820499181747E-001;4.951531067490578E-002;1.911101862788200E-003;-1.055232435464859E-002;
2.404166666666667E+009;1.778322309255600E-001;4.809990525245667E-002;1.471741124987602E-003;-1.063542254269123E-002;
2.404333333333334E+009;1.793320924043655E-001;4.643833264708519E-002;1.013184548355639E-003;-1.091934088617563E-002;
2.404500000000000E+009;1.806544959545136E-001;4.519943892955780E-002;5.498637910932303E-004;-1.093395333737135E-002;
2.404666666666667E+009;1.822231560945511E-001;4.426707699894905E-002;1.365349016850814E-004;-1.111534424126148E-002;
2.404833333333334E+009;1.835319697856903E-001;4.296517744660378E-002;-3.707715659402311E-004;-1.092779263854027E-002;
2.405000000000000E+009;1.846705079078674E-001;4.209026321768761E-002;-1.001614378765225E-003;-1.104611530900002E-002;
2.405166666666667E+009;1.859486848115921E-001;4.140238836407661E-002;-1.501643098890781E-003;-1.095304172486067E-002;
2.405333333333334E+009;1.869925558567047E-001;4.101365804672241E-002;-2.007466973736882E-003;-1.084844209253788E-002;
2.405500000000000E+009;1.882715076208115E-001;4.036211594939232E-002;-2.457338385283947E-003;-1.059710420668125E-002;
2.405666666666667E+009;1.893193870782852E-001;3.986288607120514E-002;-2.989043248817325E-003;-1.048596482723951E-002;
2.405833333333334E+009;1.902526021003723E-001;3.955009579658508E-002;-3.322295611724258E-003;-1.019395701587200E-002;
2.406000000000000E+009;1.910974830389023E-001;3.928726539015770E-002;-3.892134176567197E-003;-1.004396006464958E-002;
2.406166666666667E+009;1.919038891792297E-001;3.899862989783287E-002;-4.159264266490936E-003;-9.649211540818214E-003;
2.406333333333334E+009;1.927344202995300E-001;3.880832716822624E-002;-4.686381202191114E-003;-9.358901530504227E-003;
2.406500000000000E+009;1.932244300842285E-001;3.878819197416306E-002;-4.901627544313669E-003;-9.049638174474239E-003;
2.406666666666667E+009;1.937485933303833E-001;3.867843747138977E-002;-5.232928320765495E-003;-8.751042187213898E-003;
2.406833333333334E+009;1.942915469408035E-001;3.855647146701813E-002;-5.494054406881332E-003;-8.463009260594845E-003;
2.407000000000000E+009;1.944310814142227E-001;3.860316425561905E-002;-5.530982743948698E-003;-8.180045522749424E-003;
2.407166666666667E+009;1.948131769895554E-001;3.827046975493431E-002;-5.797754973173142E-003;-7.904394529759884E-003;
2.407333333333334E+009;1.948356479406357E-001;3.829165175557137E-002;-5.927249323576689E-003;-7.601995952427387E-003;
2.407500000000000E+009;1.946673840284348E-001;3.815726563334465E-002;-6.329589989036322E-003;-7.391253020614386E-003;
2.407666666666667E+009;1.947353035211563E-001;3.794925287365913E-002;-6.422428414225578E-003;-7.003743201494217E-003;
2.407833333333334E+009;1.942308843135834E-001;3.764851018786430E-002;-6.445456296205521E-003;-6.814431864768267E-003;
2.408000000000000E+009;1.941557079553604E-001;3.732695057988167E-002;-6.782673299312592E-003;-6.562761031091213E-003;
2.408166666666667E+009;1.937233656644821E-001;3.681116178631783E-002;-6.862421985715628E-003;-6.177918985486031E-003;
2.408333333333334E+009;1.933665424585342E-001;3.628727421164513E-002;-7.111388724297285E-003;-5.933338776230812E-003;
2.408500000000000E+009;1.927705258131027E-001;3.574330359697342E-002;-7.051890250295401E-003;-5.591912660747767E-003;
2.408666666666667E+009;1.922839581966400E-001;3.524219989776611E-002;-7.237521000206471E-003;-5.470095202326775E-003;
2.408833333333334E+009;1.916006654500961E-001;3.434251248836517E-002;-7.273077499121428E-003;-4.880152177065611E-003;
2.409000000000000E+009;1.908961534500122E-001;3.326224163174629E-002;-7.070237305015326E-003;-4.762251395732164E-003;
2.409166666666667E+009;1.899935007095337E-001;3.224866464734078E-002;-7.121390197426081E-003;-4.448346327990294E-003;
2.409333333333334E+009;1.893261522054672E-001;3.124283626675606E-002;-7.184863090515137E-003;-4.295401740819216E-003;
2.409500000000000E+009;1.883785873651505E-001;2.989028021693230E-002;-7.256191689521074E-003;-3.952435217797756E-003;
2.409666666666667E+009;1.874758601188660E-001;2.846163697540760E-002;-7.244854234158993E-003;-3.806331194937229E-003;
2.409833333333334E+009;1.866393983364105E-001;2.705062553286552E-002;-7.176700979471207E-003;-3.607604885473847E-003;
2.410000000000000E+009;1.858499199151993E-001;2.529598399996758E-002;-7.083829957991839E-003;-3.468571696430445E-003;
2.410166666666667E+009;1.850312650203705E-001;2.377005852758884E-002;-7.141636684536934E-003;-3.408006625249982E-003;
2.410333333333334E+009;1.841522455215454E-001;2.197530306875706E-002;-7.006864994764328E-003;-3.163597313687205E-003;
2.410500000000000E+009;1.836165338754654E-001;2.020590193569660E-002;-7.176568266004324E-003;-3.078143345192075E-003;
2.410666666666667E+009;1.826350837945938E-001;1.803438179194927E-002;-7.166362833231688E-003;-2.996929455548525E-003;
2.410833333333334E+009;1.821985840797424E-001;1.601243205368519E-002;-7.190669421106577E-003;-2.806648379191756E-003;
2.411000000000000E+009;1.815203875303268E-001;1.391342841088772E-002;-7.138669025152922E-003;-2.548226853832603E-003;
2.411166666666667E+009;1.810451000928879E-001;1.193363778293133E-002;-7.133956532925367E-003;-2.531141741201282E-003;
2.411333333333334E+009;1.808763891458511E-001;9.507079608738422E-003;-7.129457779228687E-003;-2.430980792269111E-003;
2.411500000000000E+009;1.805281937122345E-001;7.454961538314819E-003;-7.250247523188591E-003;-2.283375943079591E-003;
2.411666666666667E+009;1.804676055908203E-001;5.241444334387779E-003;-7.189967669546604E-003;-1.982381567358971E-003;
2.411833333333334E+009;1.801952272653580E-001;3.076778026297689E-003;-7.352418266236782E-003;-2.031046198680997E-003;
2.412000000000000E+009;1.804215312004089E-001;6.095535936765373E-004;-7.354672998189926E-003;-1.802803250029683E-003;
2.412166666666667E+009;1.807505041360855E-001;-1.331432373262942E-003;-7.300443481653929E-003;-1.729251816868782E-003;
2.412333333333334E+009;1.807183027267456E-001;-3.759461687877774E-003;-7.553076837211847E-003;-1.674614730291069E-003;
2.412500000000000E+009;1.812707483768463E-001;-6.071470212191343E-003;-7.566691376268864E-003;-1.570695545524359E-003;
2.412666666666667E+009;1.819454878568649E-001;-8.117243647575378E-003;-7.757112849503756E-003;-1.324076903983951E-003;
2.412833333333334E+009;1.824352592229843E-001;-1.036741118878126E-002;-7.700197398662567E-003;-1.074579311534762E-003;
2.413000000000000E+009;1.830533146858215E-001;-1.253252942115068E-002;-7.970631122589111E-003;-1.083315699361265E-003;
2.413166666666667E+009;1.840874552726746E-001;-1.454647444188595E-002;-8.109595626592636E-003;-6.913940887898207E-004;
2.413333333333334E+009;1.850015372037888E-001;-1.670397445559502E-002;-8.120167069137096E-003;-6.271198508329690E-004;
2.413500000000000E+009;1.857293397188187E-001;-1.886895298957825E-002;-8.296622894704342E-003;-3.600697382353246E-004;
2.413666666666667E+009;1.868992596864700E-001;-2.070148847997189E-002;-8.270816877484322E-003;-1.642129936954007E-004;
2.413833333333334E+009;1.878776103258133E-001;-2.248829975724220E-002;-8.195861242711544E-003;4.045764944748953E-005;
2.414000000000000E+009;1.888790279626846E-001;-2.449398674070835E-002;-8.541355840861797E-003;5.630275700241327E-004;
2.414166666666667E+009;1.899571120738983E-001;-2.615954540669918E-002;-8.488489314913750E-003;6.691106245853007E-004;
2.414333333333334E+009;1.910095065832138E-001;-2.801699750125408E-002;-8.522716350853443E-003;7.277629338204861E-004;
2.414500000000000E+009;1.920950263738632E-001;-2.929810993373394E-002;-8.478229865431786E-003;1.353875501081348E-003;
2.414666666666667E+009;1.931253522634506E-001;-3.064464963972569E-002;-8.474783971905708E-003;1.640023663640022E-003;
2.414833333333334E+009;1.941564530134201E-001;-3.203096613287926E-002;-8.525320328772068E-003;1.899744500406086E-003;
2.415000000000000E+009;1.952055841684341E-001;-3.313971310853958E-002;-8.508128114044666E-003;2.103351987898350E-003;
2.415166666666667E+009;1.963339895009995E-001;-3.425538912415505E-002;-8.580924011766911E-003;2.315500052645803E-003;
2.415333333333334E+009;1.973753571510315E-001;-3.522632643580437E-002;-8.407871238887310E-003;2.740554977208376E-003;
2.415500000000000E+009;1.982669830322266E-001;-3.580989316105843E-002;-8.504947647452354E-003;3.014119574800134E-003;
2.415666666666667E+009;1.991041004657745E-001;-3.691099584102631E-002;-8.351234719157219E-003;3.302799537777901E-003;
2.415833333333334E+009;2.000107616186142E-001;-3.742072731256485E-002;-8.253606967628002E-003;3.658960107713938E-003;
2.416000000000000E+009;2.005140036344528E-001;-3.819069266319275E-002;-8.168935775756836E-003;3.985919989645481E-003;
2.416166666666667E+009;2.012207061052322E-001;-3.883328288793564E-002;-8.149974048137665E-003;4.446981009095907E-003;
2.416333333333334E+009;2.017743140459061E-001;-3.913815692067146E-002;-8.048439398407936E-003;4.700887016952038E-003;
2.416500000000000E+009;2.019893079996109E-001;-3.957612067461014E-002;-7.869828492403030E-003;5.031674634665251E-003;
2.416666666666667E+009;2.022745609283447E-001;-4.006485268473625E-002;-7.516530342400074E-003;5.272872745990753E-003;
2.416833333333334E+009;2.022904604673386E-001;-4.014825448393822E-002;-7.453223690390587E-003;5.572364199906588E-003;
2.417000000000000E+009;2.024604976177216E-001;-4.052287712693214E-002;-7.090402301400900E-003;5.995325744152069E-003;
2.417166666666667E+009;2.021332830190659E-001;-4.053580760955811E-002;-6.940400227904320E-003;6.103174295276403E-003;
2.417333333333334E+009;2.019669413566589E-001;-4.051719978451729E-002;-6.417526397854090E-003;6.511073093861342E-003;
2.417500000000000E+009;2.015157192945480E-001;-4.065810516476631E-002;-6.303229834884405E-003;6.635966245085001E-003;
2.417666666666667E+009;2.010538578033447E-001;-4.070080816745758E-002;-6.049460265785456E-003;6.763950921595097E-003;
2.417833333333334E+009;2.006357610225678E-001;-4.069608077406883E-002;-5.716308951377869E-003;6.987039465457201E-003;
2.418000000000000E+009;1.998548060655594E-001;-4.062156379222870E-002;-5.442223977297545E-003;7.252993527799845E-003;
2.418166666666667E+009;1.992923170328140E-001;-4.078422486782074E-002;-5.115722771733999E-003;7.194330915808678E-003;
2.418333333333334E+009;1.983154416084290E-001;-4.078005254268646E-002;-5.025757942348719E-003;7.410897873342037E-003;
2.418500000000000E+009;1.974496394395828E-001;-4.095793515443802E-002;-4.803203977644444E-003;7.470175158232451E-003;
2.418666666666667E+009;1.965485513210297E-001;-4.099438339471817E-002;-4.523973912000656E-003;7.659297436475754E-003;
2.418833333333334E+009;1.953821778297424E-001;-4.138106107711792E-002;-4.192014690488577E-003;7.812666706740856E-003;
2.419000000000000E+009;1.941123008728027E-001;-4.179474711418152E-002;-3.933117259293795E-003;7.985519245266914E-003;
2.419166666666667E+009;1.929825693368912E-001;-4.224910587072372E-002;-3.749582916498184E-003;8.066568523645401E-003;
2.419333333333334E+009;1.917710155248642E-001;-4.285716637969017E-002;-3.431093646213412E-003;8.128456771373749E-003;
2.419500000000000E+009;1.904110163450241E-001;-4.343727603554726E-002;-3.183271968737245E-003;8.233114145696163E-003;
2.419666666666667E+009;1.890322268009186E-001;-4.438565298914909E-002;-2.946837106719613E-003;8.396867662668228E-003;
2.419833333333334E+009;1.876057833433151E-001;-4.509636014699936E-002;-2.744496567174792E-003;8.486004546284676E-003;
2.420000000000000E+009;1.862179934978485E-001;-4.618924856185913E-002;-2.275932347401977E-003;8.450821973383427E-003;
2.420166666666667E+009;1.847452223300934E-001;-4.704386368393898E-002;-1.958851702511311E-003;8.680270984768868E-003;
2.420333333333334E+009;1.832643449306488E-001;-4.851092025637627E-002;-1.812068279832602E-003;8.530149236321449E-003;
2.420500000000000E+009;1.816785335540772E-001;-4.969154670834541E-002;-1.523834303952754E-003;8.576142601668835E-003;
2.420666666666667E+009;1.803755015134811E-001;-5.080047994852066E-002;-1.255770213901997E-003;8.642363362014294E-003;
2.420833333333334E+009;1.787829548120499E-001;-5.236672610044479E-002;-1.106771524064243E-003;8.677256293594837E-003;
2.421000000000000E+009;1.775251626968384E-001;-5.390224978327751E-002;-5.581445293501020E-004;8.512688800692558E-003;
2.421166666666667E+009;1.760391294956207E-001;-5.547532811760902E-002;-2.867398143280298E-004;8.470084518194199E-003;
2.421333333333334E+009;1.746726632118225E-001;-5.692640691995621E-002;-1.249523775186390E-004;8.652738295495510E-003;
2.421500000000000E+009;1.735634654760361E-001;-5.888625606894493E-002;1.854626025306061E-004;8.474321104586124E-003;
2.421666666666667E+009;1.723976582288742E-001;-6.052865087985992E-002;4.087125416845083E-004;8.414259180426598E-003;
2.421833333333334E+009;1.713777184486389E-001;-6.230575218796730E-002;7.314077229239047E-004;8.319701068103313E-003;
2.422000000000000E+009;1.704088300466538E-001;-6.415404379367828E-002;9.050795924849808E-004;8.245663717389107E-003;
2.422166666666667E+009;1.695218980312347E-001;-6.611450016498566E-002;1.092761754989624E-003;8.219078183174133E-003;
2.422333333333334E+009;1.685783416032791E-001;-6.817473471164703E-002;1.402258989401162E-003;8.075869642198086E-003;
2.422500000000000E+009;1.680004894733429E-001;-6.989382952451706E-002;1.701398636214435E-003;7.844180800020695E-003;
2.422666666666667E+009;1.672157049179077E-001;-7.174396514892578E-002;1.857503433711827E-003;7.879171520471573E-003;
2.422833333333334E+009;1.668191403150559E-001;-7.365889102220535E-002;1.982080284506083E-003;7.768059149384499E-003;
2.423000000000000E+009;1.664388924837112E-001;-7.561165839433670E-002;2.231228398159146E-003;7.783890236169100E-003;
2.423166666666667E+009;1.661390662193298E-001;-7.741227746009827E-002;2.563104731962085E-003;7.542487699538469E-003;
2.423333333333334E+009;1.659140735864639E-001;-7.945783436298370E-002;2.621154300868511E-003;7.431429345160723E-003;
2.423500000000000E+009;1.658304780721664E-001;-8.104044198989868E-002;2.794801490381360E-003;7.457031868398190E-003;
2.423666666666667E+009;1.657400429248810E-001;-8.275480568408966E-002;3.220361657440662E-003;7.366519887000322E-003;
2.423833333333334E+009;1.656374037265778E-001;-8.451738953590393E-002;3.323249286040664E-003;7.168543990701437E-003;
2.424000000000000E+009;1.657178848981857E-001;-8.619678765535355E-002;3.701120382174850E-003;7.194824051111937E-003;
2.424166666666667E+009;1.658711135387421E-001;-8.770056068897247E-002;3.901221789419651E-003;7.087752223014832E-003;
2.424333333333334E+009;1.660248637199402E-001;-8.914263546466827E-002;4.221544135361910E-003;6.888245698064566E-003;
2.424500000000000E+009;1.663254350423813E-001;-9.090518206357956E-002;4.391842987388372E-003;6.672434043139219E-003;
2.424666666666667E+009;1.664357483386993E-001;-9.235128015279770E-002;4.660297650843859E-003;6.328676827251911E-003;
2.424833333333334E+009;1.668631434440613E-001;-9.348006546497345E-002;4.863142035901547E-003;6.136223208159208E-003;
2.425000000000000E+009;1.671088337898254E-001;-9.471508115530014E-002;5.177767481654882E-003;5.924048833549023E-003;
2.425166666666667E+009;1.673033833503723E-001;-9.586074948310852E-002;5.254796706140041E-003;5.635119508951902E-003;
2.425333333333334E+009;1.674398928880692E-001;-9.682465344667435E-002;5.528587382286787E-003;5.248940084129572E-003;
2.425500000000000E+009;1.678636074066162E-001;-9.774654358625412E-002;5.430711433291435E-003;5.176068749278784E-003;
2.425666666666667E+009;1.681079566478729E-001;-9.846458584070206E-002;5.469655618071556E-003;4.885295405983925E-003;
2.425833333333334E+009;1.683353185653687E-001;-9.943383187055588E-002;5.599613767117262E-003;4.691278561949730E-003;
2.426000000000000E+009;1.686443090438843E-001;-9.986105561256409E-002;5.625998135656118E-003;4.493204876780510E-003;
2.426166666666667E+009;1.689354330301285E-001;-1.005266681313515E-001;5.651062354445458E-003;4.269022494554520E-003;
2.426333333333334E+009;1.689101904630661E-001;-1.010756045579910E-001;5.798378959298134E-003;4.110151901841164E-003;
2.426500000000000E+009;1.692566871643066E-001;-1.013566851615906E-001;5.788568407297134E-003;4.073075484484434E-003;
2.426666666666667E+009;1.694559454917908E-001;-1.018200367689133E-001;5.845387466251850E-003;3.735161852091551E-003;
2.426833333333334E+009;1.695839911699295E-001;-1.022735461592674E-001;5.962505005300045E-003;3.557518823072314E-003;
2.427000000000000E+009;1.695449799299240E-001;-1.026725918054581E-001;5.931401625275612E-003;3.346004756167531E-003;
2.427166666666667E+009;1.695408225059509E-001;-1.028463542461395E-001;5.954687949270010E-003;3.101564478129149E-003;
2.427333333333334E+009;1.693681776523590E-001;-1.032980233430862E-001;6.130879279226065E-003;3.088063793256879E-003;
2.427500000000000E+009;1.689832508563995E-001;-1.034624651074410E-001;6.183776073157787E-003;2.738798502832651E-003;
2.427666666666667E+009;1.687277406454086E-001;-1.036695688962936E-001;6.093848031014204E-003;2.534488681703806E-003;
