# Version 1.00
#
freq[Hz];re:Trc1_S11;im:Trc1_S11;re:Trc2_S21;im:Trc2_S21;
2.400000000000000E+009;1.712098270654678E-001;3.982344269752502E-002;2.714901929721236E-003;2.254069782793522E-003;
2.400166666666667E+009;1.718219518661499E-001;3.952620923519135E-002;2.738112583756447E-003;2.147320890799165E-003;
2.400333333333334E+009;1.723122596740723E-001;3.893421962857246E-002;2.748909406363964E-003;1.980097964406014E-003;
2.400500000000000E+009;1.727370917797089E-001;3.826192393898964E-002;2.834422979503870E-003;1.917091081850231E-003;
2.400666666666667E+009;1.729799658060074E-001;3.746867924928665E-002;2.786376746371388E-003;1.804656465537846E-003;
2.400833333333334E+009;1.733842790126801E-001;3.726132586598396E-002;3.120646579191089E-003;1.522199716418982E-003;
2.401000000000000E+009;1.735061407089233E-001;3.640700131654739E-002;2.929266309365630E-003;1.452186028473079E-003;
2.401166666666667E+009;1.737436354160309E-001;3.574610501527786E-002;3.015037858858705E-003;1.335278386250138E-003;
2.401333333333334E+009;1.735952645540237E-001;3.522916883230209E-002;3.180420026183128E-003;1.055139233358204E-003;
2.401500000000000E+009;1.736491620540619E-001;3.437551110982895E-002;3.011306980624795E-003;9.390108170919120E-004;
2.401666666666667E+009;1.735716909170151E-001;3.404574841260910E-002;2.981121884658933E-003;7.183325942605734E-004;
2.401833333333334E+009;1.733993142843247E-001;3.310492634773254E-002;3.018778981640935E-003;6.259754300117493E-004;
2.402000000000000E+009;1.730576157569885E-001;3.231405466794968E-002;3.095027524977922E-003;5.678340676240623E-004;
2.402166666666667E+009;1.727903932332993E-001;3.161775320768356E-002;2.940915524959564E-003;2.356923796469346E-004;
2.402333333333334E+009;1.725142151117325E-001;3.081560321152210E-002;2.818652428686619E-003;5.167846757103689E-005;
2.402500000000000E+009;1.724937409162521E-001;3.001620061695576E-002;2.818746725097299E-003;-6.671289156656712E-005;
2.402666666666667E+009;1.723113358020783E-001;2.906849421560764E-002;2.634236356243491E-003;-1.945967378560454E-004;
2.402833333333334E+009;1.718372851610184E-001;2.800508029758930E-002;2.413754351437092E-003;-3.432886442169547E-004;
2.403000000000000E+009;1.715012192726135E-001;2.693182043731213E-002;2.330243121832609E-003;-6.326875300146639E-004;
2.403166666666667E+009;1.711112111806870E-001;2.573670260608196E-002;2.216893015429378E-003;-7.425469812005758E-004;
2.403333333333334E+009;1.707443743944168E-001;2.485289610922337E-002;1.963158836588264E-003;-6.134419236332178E-004;
2.403500000000000E+009;1.703702211380005E-001;2.329432405531406E-002;1.730144140310586E-003;-8.543429430574179E-004;
2.403666666666667E+009;1.700831353664398E-001;2.182062901556492E-002;1.797268982045353E-003;-6.600414053536952E-004;
2.403833333333334E+009;1.699313819408417E-001;2.049555256962776E-002;1.436201855540276E-003;-7.484580273739994E-004;
2.404000000000000E+009;1.694570034742355E-001;1.917081326246262E-002;1.084772520698607E-003;-7.217464153654873E-004;
2.404166666666667E+009;1.691040843725205E-001;1.769441738724709E-002;1.154370605945587E-003;-6.341531407088041E-004;
2.404333333333334E+009;1.687310785055161E-001;1.620505563914776E-002;9.637138573452830E-004;-4.653739451896399E-004;
2.404500000000000E+009;1.686187684535980E-001;1.447086501866579E-002;8.567183976992965E-004;-4.103210812900215E-004;
2.404666666666667E+009;1.683683246374130E-001;1.290440373122692E-002;8.535354281775653E-004;-2.597166749183089E-004;
2.404833333333334E+009;1.681633293628693E-001;1.118522137403488E-002;6.450748187489808E-004;-1.086167903849855E-004;
2.405000000000000E+009;1.680848896503449E-001;9.501354768872261E-003;8.090719347819686E-004;7.099986396497116E-005;
2.405166666666667E+009;1.680161207914352E-001;7.578623481094837E-003;7.399785681627691E-004;6.845821917522699E-005;
2.405333333333334E+009;1.679290384054184E-001;5.572313908487558E-003;7.518546772189438E-004;2.810104924719781E-004;
2.405500000000000E+009;1.678127795457840E-001;4.051944706588984E-003;8.407187997363508E-004;3.854875394608825E-004;
2.405666666666667E+009;1.678336411714554E-001;2.136999741196632E-003;8.388305432163179E-004;5.452882614918053E-004;
2.405833333333334E+009;1.676713228225708E-001;2.980572462547571E-004;1.010369160212576E-003;5.953456275165081E-004;
2.406000000000000E+009;1.678855121135712E-001;-1.696152961812913E-003;1.024358323775232E-003;6.423273589462042E-004;
2.406166666666667E+009;1.676630526781082E-001;-3.292206907644868E-003;1.192515948787332E-003;6.897848215885460E-004;
2.406333333333334E+009;1.679342538118362E-001;-5.138655193150044E-003;1.154734287410975E-003;7.215181249193847E-004;
2.406500000000000E+009;1.679673343896866E-001;-7.064155302941799E-003;1.297190086916089E-003;7.410997059196234E-004;
2.406666666666667E+009;1.677881330251694E-001;-8.718417957425118E-003;1.397779211401939E-003;6.947648362256587E-004;
2.406833333333334E+009;1.678635478019714E-001;-1.054465863853693E-002;1.520196790806949E-003;8.153144735842943E-004;
2.407000000000000E+009;1.679016351699829E-001;-1.210882235318422E-002;1.752946292981505E-003;8.215685957111418E-004;
2.407166666666667E+009;1.681132167577744E-001;-1.365378685295582E-002;1.842199824750423E-003;7.689366466365755E-004;
2.407333333333334E+009;1.680323779582977E-001;-1.524404156953096E-002;2.110252156853676E-003;9.335210197605193E-004;
2.407500000000000E+009;1.679811775684357E-001;-1.655957289040089E-002;1.953376922756434E-003;7.276296382769942E-004;
2.407666666666667E+009;1.682438403367996E-001;-1.781694218516350E-002;2.068707719445229E-003;7.234248332679272E-004;
2.407833333333334E+009;1.681475192308426E-001;-1.911420747637749E-002;2.195547102019191E-003;6.072483374737203E-004;
2.408000000000000E+009;1.683992445468903E-001;-2.020708285272121E-002;2.347737550735474E-003;4.174261703155935E-004;
2.408166666666667E+009;1.684737950563431E-001;-2.104759588837624E-002;2.481890143826604E-003;3.997056046500802E-004;
2.408333333333334E+009;1.687991470098496E-001;-2.192470431327820E-002;2.480922732502222E-003;3.149961121380329E-004;
2.408500000000000E+009;1.689591407775879E-001;-2.298086509108543E-002;2.515323227271438E-003;1.670441706664860E-004;
2.408666666666667E+009;1.694311946630478E-001;-2.369993366301060E-002;2.772569190710783E-003;2.674114330147859E-005;
2.408833333333334E+009;1.696320623159409E-001;-2.441605366766453E-002;2.745921490713954E-003;-6.637553451582789E-005;
2.409000000000000E+009;1.699596196413040E-001;-2.519510127604008E-002;2.903815126046538E-003;-3.713363839779049E-004;
2.409166666666667E+009;1.704552471637726E-001;-2.592402696609497E-002;2.870168071240187E-003;-3.487424401100725E-004;
2.409333333333334E+009;1.709455251693726E-001;-2.685583196580410E-002;2.901827450841665E-003;-5.761721986345947E-004;
2.409500000000000E+009;1.710283160209656E-001;-2.754251845180988E-002;2.851528814062476E-003;-7.688452606089413E-004;
2.409666666666667E+009;1.713287532329559E-001;-2.809615619480610E-002;2.843754831701517E-003;-8.536956738680601E-004;
2.409833333333334E+009;1.714450567960739E-001;-2.874269708991051E-002;2.892215037718415E-003;-1.017698086798191E-003;
2.410000000000000E+009;1.718385815620422E-001;-2.942451648414135E-002;2.882066182792187E-003;-1.259339042007923E-003;
2.410166666666667E+009;1.719698905944824E-001;-3.013583458960056E-002;2.603753469884396E-003;-1.211999799124897E-003;
2.410333333333334E+009;1.717980802059174E-001;-3.093952871859074E-002;2.626802539452910E-003;-1.495387987233698E-003;
2.410500000000000E+009;1.719256490468979E-001;-3.150067478418350E-002;2.640497172251344E-003;-1.324616489000619E-003;
2.410666666666667E+009;1.717487871646881E-001;-3.212547674775124E-002;2.573832171037793E-003;-1.551839057356119E-003;
2.410833333333334E+009;1.717050224542618E-001;-3.281639143824577E-002;2.625194378197193E-003;-1.571920351125300E-003;
2.411000000000000E+009;1.714424639940262E-001;-3.339173644781113E-002;2.484144875779748E-003;-1.743183820508421E-003;
2.411166666666667E+009;1.712166517972946E-001;-3.397526964545250E-002;2.662849146872759E-003;-1.859206473454833E-003;
2.411333333333334E+009;1.707769930362701E-001;-3.477069735527039E-002;2.455596346408129E-003;-1.810712856240571E-003;
2.411500000000000E+009;1.705188602209091E-001;-3.545610234141350E-002;2.449325751513243E-003;-1.894585555419326E-003;
2.411666666666667E+009;1.702340990304947E-001;-3.599129244685173E-002;2.418882446363568E-003;-2.001676242798567E-003;
2.411833333333334E+009;1.698075681924820E-001;-3.659150376915932E-002;2.497154753655195E-003;-2.197924070060253E-003;
2.412000000000000E+009;1.693956553936005E-001;-3.731723502278328E-002;2.508220961317420E-003;-2.310234820470214E-003;
2.412166666666667E+009;1.688708066940308E-001;-3.808915987610817E-002;2.337010577321053E-003;-2.389494096860290E-003;
2.412333333333334E+009;1.685066968202591E-001;-3.867850452661514E-002;2.514160471037030E-003;-2.476440276950598E-003;
2.412500000000000E+009;1.678564846515656E-001;-3.952353075146675E-002;2.365713240578771E-003;-2.722656121477485E-003;
2.412666666666667E+009;1.674426347017288E-001;-4.037290066480637E-002;2.280456712469459E-003;-2.911659888923168E-003;
2.412833333333334E+009;1.666370332241058E-001;-4.155544564127922E-002;2.189577789977193E-003;-3.130782162770629E-003;
2.413000000000000E+009;1.661121547222138E-001;-4.232494905591011E-002;2.095501171424985E-003;-3.184544388204813E-003;
2.413166666666667E+009;1.654436737298966E-001;-4.336639121174812E-002;1.879541785456240E-003;-3.534559626132250E-003;
2.413333333333334E+009;1.646141558885574E-001;-4.453221336007118E-002;1.683007809333503E-003;-3.602475859224796E-003;
2.413500000000000E+009;1.640604287385941E-001;-4.555167257785797E-002;1.372124883346260E-003;-3.761149710044265E-003;
2.413666666666667E+009;1.633372753858566E-001;-4.640892148017883E-002;1.197466626763344E-003;-3.943214192986488E-003;
2.413833333333334E+009;1.627447605133057E-001;-4.751366749405861E-002;9.780949912965298E-004;-3.898260882124305E-003;
2.414000000000000E+009;1.618373990058899E-001;-4.873113334178925E-002;5.818219506181777E-004;-3.883151104673743E-003;
2.414166666666667E+009;1.613174378871918E-001;-4.984162375330925E-002;4.692746151704341E-004;-3.907124046236277E-003;
2.414333333333334E+009;1.607960313558579E-001;-5.102771148085594E-002;1.604607532499358E-004;-3.955555148422718E-003;
2.414500000000000E+009;1.603949368000031E-001;-5.211609974503517E-002;1.925969081639778E-005;-3.923445940017700E-003;
2.414666666666667E+009;1.598441451787949E-001;-5.334216728806496E-002;-1.957121858140454E-004;-3.930211067199707E-003;
2.414833333333334E+009;1.595153510570526E-001;-5.451009795069695E-002;-4.860408371314406E-004;-3.701220266520977E-003;
2.415000000000000E+009;1.590541452169418E-001;-5.569956824183464E-002;-5.964378360658884E-004;-3.606171812862158E-003;
2.415166666666667E+009;1.587153375148773E-001;-5.699597671627998E-002;-7.220778497867286E-004;-3.429826581850648E-003;
2.415333333333334E+009;1.585849076509476E-001;-5.849194154143333E-002;-8.658891892991960E-004;-3.410970093682408E-003;
2.415500000000000E+009;1.583301126956940E-001;-5.975809320807457E-002;-9.845618624240160E-004;-3.186416579410434E-003;
2.415666666666667E+009;1.580478847026825E-001;-6.118904054164887E-002;-9.768279269337654E-004;-3.054063534364104E-003;
2.415833333333334E+009;1.578930467367172E-001;-6.274044513702393E-002;-1.138251041993499E-003;-2.970022382214665E-003;
2.416000000000000E+009;1.575906872749329E-001;-6.414616107940674E-002;-1.131763099692762E-003;-2.971554640680552E-003;
2.416166666666667E+009;1.576096415519714E-001;-6.571315228939056E-002;-1.185245928354561E-003;-2.817348111420870E-003;
2.416333333333334E+009;1.573823988437653E-001;-6.700582802295685E-002;-1.072664745151997E-003;-2.775329165160656E-003;
2.416500000000000E+009;1.571451872587204E-001;-6.856133043766022E-002;-1.275909016840160E-003;-2.764453878626227E-003;
2.416666666666667E+009;1.568556278944016E-001;-6.993650645017624E-002;-1.275998889468610E-003;-2.521807327866554E-003;
2.416833333333334E+009;1.567829102277756E-001;-7.143261283636093E-002;-1.342042814940214E-003;-2.604604233056307E-003;
2.417000000000000E+009;1.564599126577377E-001;-7.280708849430084E-002;-1.398545806296170E-003;-2.613600343465805E-003;
2.417166666666667E+009;1.563042849302292E-001;-7.386453449726105E-002;-1.408815500326455E-003;-2.420238684862852E-003;
2.417333333333334E+009;1.560255587100983E-001;-7.502077519893646E-002;-1.577177899889648E-003;-2.459606854245067E-003;
2.417500000000000E+009;1.559384167194367E-001;-7.619988173246384E-002;-1.641654060222209E-003;-2.473522676154971E-003;
2.417666666666667E+009;1.559813916683197E-001;-7.712189853191376E-002;-1.758207916282117E-003;-2.356754383072257E-003;
2.417833333333334E+009;1.557567864656448E-001;-7.808945327997208E-002;-1.794770592823625E-003;-2.421051962301135E-003;
2.418000000000000E+009;1.556543558835983E-001;-7.917194813489914E-002;-1.925485208630562E-003;-2.452148124575615E-003;
2.418166666666667E+009;1.555178016424179E-001;-7.990520447492600E-002;-1.837246818467975E-003;-2.272786339744926E-003;
2.418333333333334E+009;1.558000594377518E-001;-8.077673614025116E-002;-2.156469272449613E-003;-2.062296727672219E-003;
2.418500000000000E+009;1.555827856063843E-001;-8.146305382251740E-002;-2.147230552509427E-003;-2.126333070918918E-003;
2.418666666666667E+009;1.556783765554428E-001;-8.227989077568054E-002;-2.328656846657395E-003;-1.949233701452613E-003;
2.418833333333334E+009;1.553893089294434E-001;-8.309005945920944E-002;-2.252096775919199E-003;-1.975889084860683E-003;
2.419000000000000E+009;1.552508622407913E-001;-8.367516845464706E-002;-2.390493638813496E-003;-1.783672953024507E-003;
2.419166666666667E+009;1.553145796060562E-001;-8.434680849313736E-002;-2.553269965574145E-003;-1.625075819902122E-003;
2.419333333333334E+009;1.548612415790558E-001;-8.461561053991318E-002;-2.490797545760870E-003;-1.532764174044132E-003;
2.419500000000000E+009;1.548507362604141E-001;-8.533213287591934E-002;-2.534291939809918E-003;-1.468342961743474E-003;
2.419666666666667E+009;1.546863913536072E-001;-8.586426079273224E-002;-2.646039472892880E-003;-1.272212015464902E-003;
2.419833333333334E+009;1.543838232755661E-001;-8.604055643081665E-002;-2.590814139693975E-003;-1.188147231005132E-003;
2.420000000000000E+009;1.541919410228729E-001;-8.656303584575653E-002;-2.655259333550930E-003;-1.087286276742816E-003;
2.420166666666667E+009;1.540313810110092E-001;-8.678892254829407E-002;-2.630111528560519E-003;-8.617941639386118E-004;
2.420333333333334E+009;1.538219302892685E-001;-8.721061795949936E-002;-2.533250255510211E-003;-5.947938188910484E-004;
2.420500000000000E+009;1.537251025438309E-001;-8.745815604925156E-002;-2.542521338909864E-003;-4.712046647910029E-004;
2.420666666666667E+009;1.531694829463959E-001;-8.758417516946793E-002;-2.468602498993278E-003;-3.760295512620360E-004;
2.420833333333334E+009;1.527666598558426E-001;-8.805582672357559E-002;-2.350526629015803E-003;-3.942099574487656E-004;
2.421000000000000E+009;1.523128449916840E-001;-8.853970468044281E-002;-2.153006149455905E-003;-6.586410017916933E-005;
2.421166666666667E+009;1.519395262002945E-001;-8.884517848491669E-002;-2.200790448114276E-003;-6.850461068097502E-005;
2.421333333333334E+009;1.517097949981690E-001;-8.947476744651794E-002;-1.962528098374605E-003;-6.573577593371738E-006;
2.421500000000000E+009;1.509069353342056E-001;-8.977235853672028E-002;-1.814245129935443E-003;2.548176562413573E-004;
2.421666666666667E+009;1.503855139017105E-001;-9.033254534006119E-002;-1.848947606049478E-003;2.861057582776994E-004;
2.421833333333334E+009;1.498395055532455E-001;-9.089076519012451E-002;-1.462131738662720E-003;2.119354758178815E-004;
2.422000000000000E+009;1.491320133209229E-001;-9.132289141416550E-002;-1.480732345953584E-003;3.667065175250173E-005;
2.422166666666667E+009;1.482944190502167E-001;-9.212117642164230E-002;-1.351870014332235E-003;-3.470293086138554E-005;
2.422333333333334E+009;1.475307792425156E-001;-9.271021932363510E-002;-1.334944856353104E-003;-2.111267385771498E-004;
2.422500000000000E+009;1.467697620391846E-001;-9.317974746227264E-002;-1.274513197131455E-003;-2.193141554016620E-004;
2.422666666666667E+009;1.458159983158112E-001;-9.387712925672531E-002;-1.211961614899337E-003;-2.978947304654867E-004;
2.422833333333334E+009;1.450988054275513E-001;-9.468370676040649E-002;-1.130351098254323E-003;-4.883306100964546E-004;
2.423000000000000E+009;1.441731005907059E-001;-9.535179287195206E-002;-1.110239652916789E-003;-6.720442906953394E-004;
2.423166666666667E+009;1.434045135974884E-001;-9.622406214475632E-002;-1.262045581825078E-003;-7.180341635830700E-004;
2.423333333333334E+009;1.425692886114121E-001;-9.694084525108337E-002;-1.414422178640962E-003;-9.750125464051962E-004;
2.423500000000000E+009;1.415516585111618E-001;-9.789331257343292E-002;-1.419023144990206E-003;-1.035438384860754E-003;
2.423666666666667E+009;1.406247615814209E-001;-9.887490421533585E-002;-1.474168268032372E-003;-1.229714602231979E-003;
2.423833333333334E+009;1.398541182279587E-001;-9.991092979907990E-002;-1.535063842311502E-003;-1.049829064868391E-003;
2.424000000000000E+009;1.388587653636932E-001;-1.005978360772133E-001;-1.740829320624471E-003;-1.229274319484830E-003;
2.424166666666667E+009;1.380709558725357E-001;-1.018145456910133E-001;-1.871295622549951E-003;-1.465530251152813E-003;
2.424333333333334E+009;1.372778564691544E-001;-1.027481257915497E-001;-2.081430284306407E-003;-1.469558686949313E-003;
2.424500000000000E+009;1.365062743425369E-001;-1.039064228534699E-001;-2.262246329337359E-003;-1.316520036198199E-003;
2.424666666666667E+009;1.358897686004639E-001;-1.048150137066841E-001;-2.485630800947547E-003;-1.317211659625173E-003;
2.424833333333334E+009;1.349192261695862E-001;-1.060318425297737E-001;-2.759447088465095E-003;-1.308960956521332E-003;
2.425000000000000E+009;1.343343704938889E-001;-1.073417514562607E-001;-2.964763902127743E-003;-9.884802857413888E-004;
2.425166666666667E+009;1.334450393915176E-001;-1.083850339055061E-001;-3.024112200364471E-003;-1.019402174279094E-003;
2.425333333333334E+009;1.328495889902115E-001;-1.095242723822594E-001;-3.367337863892317E-003;-8.560033165849745E-004;
2.425500000000000E+009;1.323562413454056E-001;-1.108546778559685E-001;-3.418590873479843E-003;-6.974887801334262E-004;
2.425666666666667E+009;1.316881477832794E-001;-1.120339781045914E-001;-3.695443272590637E-003;-4.439988697413355E-004;
2.425833333333334E+009;1.311568617820740E-001;-1.132746487855911E-001;-3.855488263070583E-003;-9.398294787388295E-005;
2.426000000000000E+009;1.305873095989227E-001;-1.144657433032990E-001;-3.816616721451283E-003;7.316972914850339E-005;
2.426166666666667E+009;1.303787082433701E-001;-1.157000586390495E-001;-3.878737566992641E-003;3.704921109601855E-004;
2.426333333333334E+009;1.297610402107239E-001;-1.168332397937775E-001;-3.856322495266795E-003;8.094310760498047E-004;
2.426500000000000E+009;1.294490545988083E-001;-1.179307326674461E-001;-3.938813228160143E-003;1.132798613980413E-003;
2.426666666666667E+009;1.292074620723724E-001;-1.189943403005600E-001;-3.726779250428081E-003;1.382420188747346E-003;
2.426833333333334E+009;1.288382261991501E-001;-1.200739443302155E-001;-3.662776201963425E-003;1.690769102424383E-003;
2.427000000000000E+009;1.285177618265152E-001;-1.210743263363838E-001;-3.434324637055397E-003;1.909309881739318E-003;
2.427166666666667E+009;1.281778067350388E-001;-1.219119802117348E-001;-3.226296976208687E-003;2.141216769814491E-003;
2.427333333333334E+009;1.279952079057694E-001;-1.228241547942162E-001;-2.980417804792523E-003;2.326312707737088E-003;
2.427500000000000E+009;1.279699951410294E-001;-1.238248646259308E-001;-2.912006573751569E-003;2.457242226228118E-003;
2.427666666666667E+009;1.277246326208115E-001;-1.245903745293617E-001;-2.587339142337441E-003;2.506176708266139E-003;
