# Version 1.00
#
freq[Hz];re:Trc1_S11;im:Trc1_S11;re:Trc2_S21;im:Trc2_S21;
2.400000000000000E+009;1.682817637920380E-001;4.012166336178780E-002;1.619943184778094E-003;2.037333790212870E-003;
2.400166666666667E+009;1.690019667148590E-001;3.960682079195976E-002;1.738347113132477E-003;2.069751964882016E-003;
2.400333333333334E+009;1.696125715970993E-001;3.849470242857933E-002;1.928956713527441E-003;2.089360496029258E-003;
2.400500000000000E+009;1.700485050678253E-001;3.792401403188705E-002;1.974118640646339E-003;1.986597431823611E-003;
2.400666666666667E+009;1.705896705389023E-001;3.704267367720604E-002;1.866685226559639E-003;1.987423282116652E-003;
2.400833333333334E+009;1.710853427648544E-001;3.633585199713707E-002;2.104649785906076E-003;1.868089195340872E-003;
2.401000000000000E+009;1.713032275438309E-001;3.540256991982460E-002;2.146478043869138E-003;1.546373707242310E-003;
2.401166666666667E+009;1.715134978294373E-001;3.450826928019524E-002;2.344338456168771E-003;1.679070992395282E-003;
2.401333333333334E+009;1.718279719352722E-001;3.391209617257118E-002;2.353040035814047E-003;1.436947844922543E-003;
2.401500000000000E+009;1.721050143241882E-001;3.322497382760048E-002;2.075079130008817E-003;1.341967494226992E-003;
2.401666666666667E+009;1.721881031990051E-001;3.240781649947166E-002;2.163443015888333E-003;1.324970391578972E-003;
2.401833333333334E+009;1.722466200590134E-001;3.140207380056381E-002;2.182155614718795E-003;1.184491207823157E-003;
2.402000000000000E+009;1.722733974456787E-001;3.091426379978657E-002;2.191277453675866E-003;1.015834044665098E-003;
2.402166666666667E+009;1.723754256963730E-001;2.986267954111099E-002;2.020565792918205E-003;9.970425162464380E-004;
2.402333333333334E+009;1.723107695579529E-001;2.903845533728600E-002;1.737352344207466E-003;1.021056668832898E-003;
2.402500000000000E+009;1.724799871444702E-001;2.829339168965817E-002;1.847856212407351E-003;1.112745841965079E-003;
2.402666666666667E+009;1.723060756921768E-001;2.728249505162239E-002;1.772079034708440E-003;1.227117958478630E-003;
2.402833333333334E+009;1.722827702760696E-001;2.647215314209461E-002;1.770987175405026E-003;1.204069238156080E-003;
2.403000000000000E+009;1.723313480615616E-001;2.543311379849911E-002;1.756355748511851E-003;1.264161430299282E-003;
2.403166666666667E+009;1.720560789108276E-001;2.453229203820229E-002;1.892018597573042E-003;1.487684436142445E-003;
2.403333333333334E+009;1.719083338975906E-001;2.356581762433052E-002;1.893500215373933E-003;1.709169591777027E-003;
2.403500000000000E+009;1.717886477708817E-001;2.239912003278732E-002;2.072544302791357E-003;1.703434740193188E-003;
2.403666666666667E+009;1.716715544462204E-001;2.108148857951164E-002;2.304889960214496E-003;1.805228763259947E-003;
2.403833333333334E+009;1.715771406888962E-001;1.983401551842690E-002;2.714200410991907E-003;1.748963724821806E-003;
2.404000000000000E+009;1.713954806327820E-001;1.873149536550045E-002;2.831754507496953E-003;1.772498595528305E-003;
2.404166666666667E+009;1.711293756961823E-001;1.735399849712849E-002;2.888381946831942E-003;1.874020788818598E-003;
2.404333333333334E+009;1.708546727895737E-001;1.597929932177067E-002;3.370969323441386E-003;1.813574461266398E-003;
2.404500000000000E+009;1.707936674356461E-001;1.453325338661671E-002;3.509027883410454E-003;1.818780670873821E-003;
2.404666666666667E+009;1.706420630216599E-001;1.321011688560247E-002;3.833128139376640E-003;1.251552836038172E-003;
2.404833333333334E+009;1.704522967338562E-001;1.168989390134811E-002;3.965109121054411E-003;1.278290757909417E-003;
2.405000000000000E+009;1.702570915222168E-001;1.008896995335817E-002;4.222643561661243E-003;1.008679857477546E-003;
2.405166666666667E+009;1.702365428209305E-001;8.665073662996292E-003;4.404171369969845E-003;7.283142185769975E-004;
2.405333333333334E+009;1.700527667999268E-001;6.874574813991785E-003;4.514818545430899E-003;5.305829690769315E-004;
2.405500000000000E+009;1.700149625539780E-001;5.261962767690420E-003;4.744796082377434E-003;1.086666088667698E-004;
2.405666666666667E+009;1.697909086942673E-001;3.887040540575981E-003;4.752134438604116E-003;-2.360089129069820E-004;
2.405833333333334E+009;1.696297973394394E-001;2.136637922376394E-003;5.010056775063276E-003;-5.080720875412226E-004;
2.406000000000000E+009;1.696041822433472E-001;3.054058761335909E-004;5.133365746587515E-003;-8.148409542627633E-004;
2.406166666666667E+009;1.694111824035645E-001;-1.308140810579062E-003;4.866103176027536E-003;-1.379172550514340E-003;
2.406333333333334E+009;1.693408191204071E-001;-2.927488880231977E-003;4.734407179057598E-003;-1.593545195646584E-003;
2.406500000000000E+009;1.690901368856430E-001;-4.505715798586607E-003;4.508004989475012E-003;-2.079501515254378E-003;
2.406666666666667E+009;1.687441617250443E-001;-6.171473301947117E-003;4.482791293412447E-003;-2.212055493146181E-003;
2.406833333333334E+009;1.686932295560837E-001;-7.828012108802795E-003;4.127356223762035E-003;-2.567918738350272E-003;
2.407000000000000E+009;1.685110330581665E-001;-9.299370460212231E-003;4.125551786273718E-003;-2.799371490254998E-003;
2.407166666666667E+009;1.684850752353668E-001;-1.075068674981594E-002;3.654367290437222E-003;-3.052168758586049E-003;
2.407333333333334E+009;1.682900041341782E-001;-1.231115218251944E-002;3.485374152660370E-003;-3.229458117857575E-003;
2.407500000000000E+009;1.679623126983643E-001;-1.375088002532721E-002;3.202749649062753E-003;-3.453944576904178E-003;
2.407666666666667E+009;1.679140180349350E-001;-1.490020193159580E-002;2.794906729832292E-003;-3.553065704181790E-003;
2.407833333333334E+009;1.677688956260681E-001;-1.634733937680721E-002;2.503249328583479E-003;-3.777021542191505E-003;
2.408000000000000E+009;1.677977442741394E-001;-1.763401180505753E-002;2.263606991618872E-003;-3.750342642888427E-003;
2.408166666666667E+009;1.676336377859116E-001;-1.842977106571198E-002;1.955778570845723E-003;-3.667966928333044E-003;
2.408333333333334E+009;1.679389774799347E-001;-1.947222836315632E-002;1.655831350944936E-003;-3.627986880019307E-003;
2.408500000000000E+009;1.679638028144836E-001;-2.047876641154289E-002;1.480377279222012E-003;-3.624026663601399E-003;
2.408666666666667E+009;1.680811941623688E-001;-2.151198685169220E-002;1.207286724820733E-003;-3.508880967274308E-003;
2.408833333333334E+009;1.681194454431534E-001;-2.239333651959896E-002;1.034419867210090E-003;-3.490498755127192E-003;
2.409000000000000E+009;1.683484166860580E-001;-2.322900295257568E-002;7.594350608997047E-004;-3.244619583711028E-003;
2.409166666666667E+009;1.687176972627640E-001;-2.423103339970112E-002;7.263955194503069E-004;-3.156675491482019E-003;
2.409333333333334E+009;1.689025461673737E-001;-2.518705837428570E-002;5.511083872988820E-004;-3.103545634075999E-003;
2.409500000000000E+009;1.690237820148468E-001;-2.622088976204395E-002;4.356037534307689E-004;-2.904040040448308E-003;
2.409666666666667E+009;1.692609041929245E-001;-2.712550945580006E-002;3.349827311467379E-004;-2.865178510546684E-003;
2.409833333333334E+009;1.693542748689652E-001;-2.779479324817658E-002;2.274848520755768E-004;-2.908401889726520E-003;
2.410000000000000E+009;1.697409898042679E-001;-2.866150438785553E-002;2.450245665386319E-004;-2.791521372273564E-003;
2.410166666666667E+009;1.698451787233353E-001;-2.953988872468472E-002;1.894553497550078E-005;-2.707164734601975E-003;
2.410333333333334E+009;1.699693053960800E-001;-3.023567236959934E-002;-1.601159056008328E-005;-2.561917528510094E-003;
2.410500000000000E+009;1.700378656387329E-001;-3.142409771680832E-002;-1.394858118146658E-004;-2.597456797957420E-003;
2.410666666666667E+009;1.701295524835587E-001;-3.232262656092644E-002;-1.694698730716482E-004;-2.430030377581716E-003;
2.410833333333334E+009;1.702027916908264E-001;-3.289880231022835E-002;-1.648550678510219E-004;-2.092388691380620E-003;
2.411000000000000E+009;1.700381338596344E-001;-3.384481370449066E-002;-8.803532546153292E-005;-2.181404037401080E-003;
2.411166666666667E+009;1.699299514293671E-001;-3.475479781627655E-002;-2.414571354165673E-004;-2.036356600001454E-003;
2.411333333333334E+009;1.698772311210632E-001;-3.553745895624161E-002;-4.397202064865269E-005;-1.822709571570158E-003;
2.411500000000000E+009;1.695937365293503E-001;-3.660040348768234E-002;1.124938353314064E-005;-1.934153027832508E-003;
2.411666666666667E+009;1.695658713579178E-001;-3.725960105657578E-002;1.288872736040503E-004;-1.796428579837084E-003;
2.411833333333334E+009;1.693551093339920E-001;-3.788925334811211E-002;1.204774671350606E-004;-1.720516826026142E-003;
2.412000000000000E+009;1.691852658987045E-001;-3.888104856014252E-002;4.283231392037123E-004;-1.672961981967092E-003;
2.412166666666667E+009;1.686761528253555E-001;-3.974838927388191E-002;2.010688185691834E-004;-1.789458561688662E-003;
2.412333333333334E+009;1.687123030424118E-001;-4.059853032231331E-002;3.657123306766152E-004;-1.740301144309342E-003;
2.412500000000000E+009;1.681033670902252E-001;-4.136313498020172E-002;5.900596152059734E-004;-1.999935833737254E-003;
2.412666666666667E+009;1.676413565874100E-001;-4.271027073264122E-002;5.273341666907072E-004;-1.902041491121054E-003;
2.412833333333334E+009;1.674025207757950E-001;-4.351280257105827E-002;4.608707386069000E-004;-2.126000355929136E-003;
2.413000000000000E+009;1.670382022857666E-001;-4.420230537652969E-002;7.196677033789456E-004;-2.320270286872983E-003;
2.413166666666667E+009;1.664816439151764E-001;-4.498982429504395E-002;6.015053368173540E-004;-2.406120765954256E-003;
2.413333333333334E+009;1.657109260559082E-001;-4.619626328349114E-002;5.170059157535434E-004;-2.492731669917703E-003;
2.413500000000000E+009;1.653167456388474E-001;-4.703458026051521E-002;4.527037672232837E-004;-2.573960693553090E-003;
2.413666666666667E+009;1.647705286741257E-001;-4.796832799911499E-002;4.095967451576144E-004;-2.609270391985774E-003;
2.413833333333334E+009;1.640797108411789E-001;-4.894665628671646E-002;1.721981680020690E-004;-2.808873541653156E-003;
2.414000000000000E+009;1.635865271091461E-001;-4.978688061237335E-002;-4.948267815052532E-005;-2.905231667682529E-003;
2.414166666666667E+009;1.631503403186798E-001;-5.080192908644676E-002;-2.460711984895170E-004;-2.945807063952088E-003;
2.414333333333334E+009;1.627346277236939E-001;-5.173667892813683E-002;-2.407238207524642E-004;-3.092141123488545E-003;
2.414500000000000E+009;1.622282117605209E-001;-5.273695290088654E-002;-2.689691609703004E-004;-3.049099817872047E-003;
2.414666666666667E+009;1.617261469364166E-001;-5.358533933758736E-002;-5.592773086391389E-004;-2.952393377199769E-003;
2.414833333333334E+009;1.613741070032120E-001;-5.457167327404022E-002;-7.316773990169168E-004;-2.934693824499846E-003;
2.415000000000000E+009;1.610931158065796E-001;-5.554419755935669E-002;-8.941051783040166E-004;-2.968108514323831E-003;
2.415166666666667E+009;1.607514619827271E-001;-5.670178681612015E-002;-9.775252547115088E-004;-2.793838270008564E-003;
2.415333333333334E+009;1.605449169874191E-001;-5.787949264049530E-002;-1.055979053489864E-003;-2.807421609759331E-003;
2.415500000000000E+009;1.603243052959442E-001;-5.899522081017494E-002;-1.017492380924523E-003;-2.821394940838218E-003;
2.415666666666667E+009;1.598529666662216E-001;-6.011445820331574E-002;-1.282681128941476E-003;-2.810041187331080E-003;
2.415833333333334E+009;1.597448736429215E-001;-6.140917912125588E-002;-1.460865605622530E-003;-2.721168100833893E-003;
2.416000000000000E+009;1.593763381242752E-001;-6.275748461484909E-002;-1.417183666490018E-003;-2.571121323853731E-003;
2.416166666666667E+009;1.592757701873779E-001;-6.394953280687332E-002;-1.482424093410373E-003;-2.599374391138554E-003;
2.416333333333334E+009;1.590065956115723E-001;-6.522440165281296E-002;-1.579834264703095E-003;-2.467572456225753E-003;
2.416500000000000E+009;1.586181372404099E-001;-6.657501310110092E-002;-1.580492244102061E-003;-2.497814130038023E-003;
2.416666666666667E+009;1.582617461681366E-001;-6.773244589567184E-002;-1.593405497260392E-003;-2.536262618377805E-003;
2.416833333333334E+009;1.579690128564835E-001;-6.919100880622864E-002;-1.681040273979306E-003;-2.506973920390010E-003;
2.417000000000000E+009;1.574593335390091E-001;-7.042444497346878E-002;-1.772796618752182E-003;-2.432717476040125E-003;
2.417166666666667E+009;1.572829484939575E-001;-7.146444171667099E-002;-2.118604257702828E-003;-2.556890947744250E-003;
2.417333333333334E+009;1.569572687149048E-001;-7.247047871351242E-002;-2.082814928144217E-003;-2.391755813732743E-003;
2.417500000000000E+009;1.565634608268738E-001;-7.366393506526947E-002;-2.222224371507764E-003;-2.299296669661999E-003;
2.417666666666667E+009;1.564129292964935E-001;-7.447544485330582E-002;-2.429179847240448E-003;-2.319863997399807E-003;
2.417833333333334E+009;1.560354530811310E-001;-7.543694227933884E-002;-2.394437557086349E-003;-2.220165915787220E-003;
2.418000000000000E+009;1.557710468769074E-001;-7.652913779020309E-002;-2.513315062969923E-003;-2.157378941774368E-003;
2.418166666666667E+009;1.554839760065079E-001;-7.729529589414597E-002;-2.608802402392030E-003;-2.017686376348138E-003;
2.418333333333334E+009;1.555613130331039E-001;-7.827571779489517E-002;-2.768605481833220E-003;-1.725670183077455E-003;
2.418500000000000E+009;1.551188826560974E-001;-7.911663502454758E-002;-2.888497198000550E-003;-1.943412702530623E-003;
2.418666666666667E+009;1.551260799169540E-001;-7.995796948671341E-002;-2.853911370038986E-003;-1.673018909059465E-003;
2.418833333333334E+009;1.548172682523727E-001;-8.077341318130493E-002;-2.919354941695929E-003;-1.425533904694021E-003;
2.419000000000000E+009;1.544642597436905E-001;-8.155751228332520E-002;-3.050372703000903E-003;-1.229254645295441E-003;
2.419166666666667E+009;1.542914062738419E-001;-8.235344290733337E-002;-3.108450444415212E-003;-1.278245472349227E-003;
2.419333333333334E+009;1.539384424686432E-001;-8.282394707202911E-002;-3.219267586246133E-003;-1.177598838694394E-003;
2.419500000000000E+009;1.537549346685410E-001;-8.383715897798538E-002;-3.193123731762171E-003;-9.211121359840035E-004;
2.419666666666667E+009;1.536631584167481E-001;-8.455240726470947E-002;-3.133662976324558E-003;-9.080154122784734E-004;
2.419833333333334E+009;1.533922702074051E-001;-8.504966646432877E-002;-3.241739235818386E-003;-7.299873395822942E-004;
2.420000000000000E+009;1.532128006219864E-001;-8.553618192672730E-002;-3.292193403467536E-003;-5.507071618922055E-004;
2.420166666666667E+009;1.528222262859345E-001;-8.622648566961289E-002;-3.147837240248919E-003;-3.269942244514823E-004;
2.420333333333334E+009;1.526652872562408E-001;-8.688487857580185E-002;-3.043641103431583E-003;-1.148393130279146E-004;
2.420500000000000E+009;1.525296568870544E-001;-8.715751767158508E-002;-3.087804652750492E-003;-2.489634207449853E-004;
2.420666666666667E+009;1.520681232213974E-001;-8.781468868255615E-002;-3.146473551169038E-003;-2.054451906587929E-004;
2.420833333333334E+009;1.518343687057495E-001;-8.843849599361420E-002;-2.865223214030266E-003;6.854311504866928E-005;
2.421000000000000E+009;1.515312343835831E-001;-8.909961581230164E-002;-2.896049991250038E-003;1.173638884210959E-004;
2.421166666666667E+009;1.510599255561829E-001;-8.962514251470566E-002;-2.873785328119993E-003;1.368733355775476E-004;
2.421333333333334E+009;1.507690101861954E-001;-9.033446758985519E-002;-2.843193477019668E-003;2.309913543285802E-004;
2.421500000000000E+009;1.501768976449966E-001;-9.091826528310776E-002;-2.726182574406266E-003;1.982699177460745E-004;
2.421666666666667E+009;1.497015655040741E-001;-9.150991588830948E-002;-2.718014642596245E-003;4.549190052784979E-004;
2.421833333333334E+009;1.491273343563080E-001;-9.222915023565292E-002;-2.658711513504386E-003;2.549491473473609E-004;
2.422000000000000E+009;1.485562771558762E-001;-9.278796613216400E-002;-2.662291983142495E-003;3.761828120332211E-004;
2.422166666666667E+009;1.479955315589905E-001;-9.358035773038864E-002;-2.861251588910818E-003;4.459743795450777E-004;
2.422333333333334E+009;1.473384052515030E-001;-9.416276216506958E-002;-2.740860451012850E-003;5.238391458988190E-004;
2.422500000000000E+009;1.468288749456406E-001;-9.472318738698959E-002;-2.724584192037582E-003;5.751026910729706E-004;
2.422666666666667E+009;1.460659950971603E-001;-9.541320055723190E-002;-2.655394375324249E-003;5.229604430496693E-004;
2.422833333333334E+009;1.454672664403915E-001;-9.638786315917969E-002;-2.693125978112221E-003;6.555663421750069E-004;
2.423000000000000E+009;1.447495818138123E-001;-9.697211533784866E-002;-2.911817748099566E-003;6.441198056563735E-004;
2.423166666666667E+009;1.441336572170258E-001;-9.769409894943237E-002;-2.812589518725872E-003;6.970148533582687E-004;
2.423333333333334E+009;1.434997767210007E-001;-9.850563853979111E-002;-2.755740191787481E-003;7.240928243845701E-004;
2.423500000000000E+009;1.427589356899262E-001;-9.929997473955154E-002;-2.882217522710562E-003;6.678346544504166E-004;
2.423666666666667E+009;1.418830603361130E-001;-1.003021970391274E-001;-2.825285308063030E-003;1.041779527440667E-003;
2.423833333333334E+009;1.414167284965515E-001;-1.011891216039658E-001;-2.971855923533440E-003;9.438943234272301E-004;
2.424000000000000E+009;1.405821293592453E-001;-1.018265113234520E-001;-2.932105213403702E-003;1.240901998244226E-003;
2.424166666666667E+009;1.397520601749420E-001;-1.027404665946960E-001;-2.996721304953098E-003;1.394774648360908E-003;
2.424333333333334E+009;1.390909999608994E-001;-1.036112010478973E-001;-3.049525897949934E-003;1.443838817067444E-003;
2.424500000000000E+009;1.384641975164414E-001;-1.046399325132370E-001;-2.952520735561848E-003;1.631579827517271E-003;
2.424666666666667E+009;1.379738152027130E-001;-1.053366214036942E-001;-2.910889685153961E-003;1.808548229746521E-003;
2.424833333333334E+009;1.371511071920395E-001;-1.063083559274674E-001;-2.881339285522699E-003;1.979740103706718E-003;
2.425000000000000E+009;1.365012079477310E-001;-1.073700115084648E-001;-2.877330873161554E-003;2.142273820936680E-003;
2.425166666666667E+009;1.357163935899735E-001;-1.082787215709686E-001;-2.689929446205497E-003;2.209512749686837E-003;
2.425333333333334E+009;1.352589130401611E-001;-1.093845739960671E-001;-2.480460563674569E-003;2.431838307529688E-003;
2.425500000000000E+009;1.346193104982376E-001;-1.103531718254089E-001;-2.404646482318640E-003;2.558904932811856E-003;
2.425666666666667E+009;1.339512169361115E-001;-1.113714799284935E-001;-2.132260240614414E-003;2.440155949443579E-003;
2.425833333333334E+009;1.333873271942139E-001;-1.123473942279816E-001;-2.043160842731595E-003;2.751600695773959E-003;
2.426000000000000E+009;1.328568458557129E-001;-1.135698556900024E-001;-1.960026798769832E-003;2.666515065357089E-003;
2.426166666666667E+009;1.325386017560959E-001;-1.144296228885651E-001;-1.880357507616282E-003;2.775090746581554E-003;
2.426333333333334E+009;1.318199336528778E-001;-1.153742447495461E-001;-1.807412831112742E-003;2.652226248756051E-003;
2.426500000000000E+009;1.314434111118317E-001;-1.164090707898140E-001;-1.525072613731027E-003;2.864376874640584E-003;
2.426666666666667E+009;1.310993283987045E-001;-1.172102689743042E-001;-1.477889134548605E-003;2.736837603151798E-003;
2.426833333333334E+009;1.305924654006958E-001;-1.181518808007240E-001;-1.352606224827468E-003;2.886830130591989E-003;
2.427000000000000E+009;1.300924420356751E-001;-1.192013844847679E-001;-1.301488839089871E-003;2.969495253637433E-003;
2.427166666666667E+009;1.296904087066650E-001;-1.199968084692955E-001;-1.058735069818795E-003;2.941783983260393E-003;
2.427333333333334E+009;1.292997598648071E-001;-1.207805648446083E-001;-9.710571612231433E-004;3.135791979730129E-003;
2.427500000000000E+009;1.291414946317673E-001;-1.215477138757706E-001;-9.340837132185698E-004;2.964443992823362E-003;
2.427666666666667E+009;1.287602335214615E-001;-1.224661469459534E-001;-6.925875786691904E-004;2.910705050453544E-003;
