# Version 1.00
#
freq[Hz];re:Trc1_S11;im:Trc1_S11;re:Trc2_S21;im:Trc2_S21;
2.400000000000000E+009;1.550943553447723E-001;1.066910997033119E-001;4.039742518216372E-003;-4.523969721049070E-003;
2.400166666666667E+009;1.551153510808945E-001;1.042358502745628E-001;3.794715274125338E-003;-4.604306537657976E-003;
2.400333333333334E+009;1.552156805992127E-001;1.019566282629967E-001;3.788773668929935E-003;-4.708000924438238E-003;
2.400500000000000E+009;1.551187038421631E-001;9.935187548398972E-002;3.794338554143906E-003;-4.675527568906546E-003;
2.400666666666667E+009;1.553334295749664E-001;9.677598625421524E-002;3.748361719772220E-003;-4.707388114184141E-003;
2.400833333333334E+009;1.553813070058823E-001;9.411349892616272E-002;3.686589887365699E-003;-4.823390860110521E-003;
2.401000000000000E+009;1.555800437927246E-001;9.108819067478180E-002;3.553318092599511E-003;-5.058262031525374E-003;
2.401166666666667E+009;1.557449251413345E-001;8.835811167955399E-002;3.551269648596644E-003;-5.086429882794619E-003;
2.401333333333334E+009;1.560849696397781E-001;8.550522476434708E-002;3.385333577170968E-003;-5.239468067884445E-003;
2.401500000000000E+009;1.565659940242767E-001;8.272017538547516E-002;3.362942021340132E-003;-5.325651261955500E-003;
2.401666666666667E+009;1.570029407739639E-001;7.989048957824707E-002;3.226898377761245E-003;-5.605625454336405E-003;
2.401833333333334E+009;1.573643088340759E-001;7.730205357074738E-002;2.926895860582590E-003;-5.752523429691792E-003;
2.402000000000000E+009;1.582913398742676E-001;7.454764842987061E-002;2.789844525977969E-003;-6.019704509526491E-003;
2.402166666666667E+009;1.590548455715179E-001;7.196606695652008E-002;2.584641799330711E-003;-6.082264240831137E-003;
2.402333333333334E+009;1.601243466138840E-001;6.930834800004959E-002;2.373948926106095E-003;-6.273247301578522E-003;
2.402500000000000E+009;1.612485498189926E-001;6.671971082687378E-002;2.031960524618626E-003;-6.449352484196425E-003;
2.402666666666667E+009;1.624904572963715E-001;6.445852667093277E-002;1.906979246996343E-003;-6.586648523807526E-003;
2.402833333333334E+009;1.637361496686935E-001;6.195523589849472E-002;1.571146072819829E-003;-6.675740238279104E-003;
2.403000000000000E+009;1.651724129915237E-001;5.960040539503098E-002;1.132612698711455E-003;-6.918311584740877E-003;
2.403166666666667E+009;1.668524444103241E-001;5.751528963446617E-002;8.249680395238102E-004;-6.824074313044548E-003;
2.403333333333334E+009;1.683510988950729E-001;5.533055216073990E-002;4.510762228164822E-004;-6.925817113369703E-003;
2.403500000000000E+009;1.698305308818817E-001;5.339720100164414E-002;1.495503529440612E-004;-6.916055455803871E-003;
2.403666666666667E+009;1.717508584260941E-001;5.163314566016197E-002;-2.805244293995202E-004;-6.754337809979916E-003;
2.403833333333334E+009;1.734230667352676E-001;4.963748529553413E-002;-6.889736396260560E-004;-6.583062466233969E-003;
2.404000000000000E+009;1.747618913650513E-001;4.773015901446343E-002;-9.100038441829383E-004;-6.327004637569189E-003;
2.404166666666667E+009;1.765873879194260E-001;4.658148437738419E-002;-1.266009174287319E-003;-6.304172333329916E-003;
2.404333333333334E+009;1.781447082757950E-001;4.499852284789085E-002;-1.356394845061004E-003;-6.076968740671873E-003;
2.404500000000000E+009;1.797197312116623E-001;4.367097467184067E-002;-1.533558592200279E-003;-5.925476551055908E-003;
2.404666666666667E+009;1.813293099403381E-001;4.259497672319412E-002;-1.703167450614274E-003;-5.701169371604919E-003;
2.404833333333334E+009;1.830098778009415E-001;4.144487157464027E-002;-1.841701217927039E-003;-5.693097133189440E-003;
2.405000000000000E+009;1.842566877603531E-001;4.083498939871788E-002;-2.014257945120335E-003;-5.243957042694092E-003;
2.405166666666667E+009;1.857694983482361E-001;4.008122533559799E-002;-2.007049741223455E-003;-5.254819989204407E-003;
2.405333333333334E+009;1.871091425418854E-001;3.970040753483772E-002;-2.096025040373206E-003;-5.161134060472250E-003;
2.405500000000000E+009;1.885751634836197E-001;3.914190083742142E-002;-2.175847534090281E-003;-5.000248085707426E-003;
2.405666666666667E+009;1.896824240684509E-001;3.871645778417587E-002;-2.144432161003351E-003;-4.858875647187233E-003;
2.405833333333334E+009;1.910670399665833E-001;3.843316808342934E-002;-2.299989340826869E-003;-4.663120489567518E-003;
2.406000000000000E+009;1.919464021921158E-001;3.833246976137161E-002;-2.400030614808202E-003;-4.717885516583920E-003;
2.406166666666667E+009;1.930186599493027E-001;3.818962350487709E-002;-2.558920998126268E-003;-4.641034640371800E-003;
2.406333333333334E+009;1.939509361982346E-001;3.807446360588074E-002;-2.579094143584371E-003;-4.639810416847467E-003;
2.406500000000000E+009;1.945445835590363E-001;3.818652406334877E-002;-2.510666614398360E-003;-4.407864529639483E-003;
2.406666666666667E+009;1.951984316110611E-001;3.798997402191162E-002;-2.627027686685324E-003;-4.372850991785526E-003;
2.406833333333334E+009;1.957885324954987E-001;3.802185505628586E-002;-2.602300606667996E-003;-4.225797019898891E-003;
2.407000000000000E+009;1.960193067789078E-001;3.812136128544807E-002;-2.712594578042626E-003;-4.160264041274786E-003;
2.407166666666667E+009;1.965074688196182E-001;3.800336644053459E-002;-2.747422549873591E-003;-4.118839744478464E-003;
2.407333333333334E+009;1.964363604784012E-001;3.805569186806679E-002;-2.847757656127214E-003;-4.123211372643709E-003;
2.407500000000000E+009;1.962578594684601E-001;3.802550584077835E-002;-2.860127249732614E-003;-4.145987797528505E-003;
2.407666666666667E+009;1.963231563568115E-001;3.794051334261894E-002;-2.872070297598839E-003;-4.078176803886890E-003;
2.407833333333334E+009;1.958675086498261E-001;3.770650550723076E-002;-3.163979854434729E-003;-3.915168344974518E-003;
2.408000000000000E+009;1.958144456148148E-001;3.755536675453186E-002;-3.185266628861427E-003;-3.948494326323271E-003;
2.408166666666667E+009;1.950789541006088E-001;3.699018061161041E-002;-3.215316915884614E-003;-3.942358773201704E-003;
2.408333333333334E+009;1.947100013494492E-001;3.653593361377716E-002;-3.379454603418708E-003;-3.813670948147774E-003;
2.408500000000000E+009;1.940998136997223E-001;3.617856279015541E-002;-3.535290947183967E-003;-3.827575128525496E-003;
2.408666666666667E+009;1.933880746364594E-001;3.556989505887032E-002;-3.557176329195499E-003;-3.901336574926972E-003;
2.408833333333334E+009;1.927741765975952E-001;3.467476740479469E-002;-3.684670664370060E-003;-3.612926462665200E-003;
2.409000000000000E+009;1.918949037790299E-001;3.383887186646462E-002;-3.804997308179736E-003;-3.683358896523714E-003;
2.409166666666667E+009;1.909065395593643E-001;3.264343738555908E-002;-3.904250683262944E-003;-3.663046285510063E-003;
2.409333333333334E+009;1.900458335876465E-001;3.183033689856529E-002;-4.046190530061722E-003;-3.482048166915774E-003;
2.409500000000000E+009;1.888884156942368E-001;3.046444803476334E-002;-4.273782949894667E-003;-3.310157684609294E-003;
2.409666666666667E+009;1.878919899463654E-001;2.903260290622711E-002;-4.337950609624386E-003;-2.983868587762117E-003;
2.409833333333334E+009;1.868901401758194E-001;2.755764871835709E-002;-4.417089279741049E-003;-2.927007386460900E-003;
2.410000000000000E+009;1.859124153852463E-001;2.586626820266247E-002;-4.539540037512779E-003;-2.743004821240902E-003;
2.410166666666667E+009;1.848929524421692E-001;2.406068518757820E-002;-4.494863562285900E-003;-2.583161927759647E-003;
2.410333333333334E+009;1.839000731706619E-001;2.210571989417076E-002;-4.579904954880476E-003;-2.298239618539810E-003;
2.410500000000000E+009;1.830439120531082E-001;2.040915191173554E-002;-4.594735335558653E-003;-2.331494586542249E-003;
2.410666666666667E+009;1.823021769523621E-001;1.801988668739796E-002;-4.583717323839665E-003;-1.999441767111421E-003;
2.410833333333334E+009;1.815522164106369E-001;1.597124710679054E-002;-4.431612789630890E-003;-2.052555792033672E-003;
2.411000000000000E+009;1.807768493890762E-001;1.367490459233522E-002;-4.527482204139233E-003;-1.977932406589389E-003;
2.411166666666667E+009;1.801946312189102E-001;1.136426161974669E-002;-4.491172265261412E-003;-1.937685417942703E-003;
2.411333333333334E+009;1.796760857105255E-001;9.010868147015572E-003;-4.537379834800959E-003;-1.851262524724007E-003;
2.411500000000000E+009;1.792232394218445E-001;6.496789865195751E-003;-4.667142871767283E-003;-1.701744855381548E-003;
2.411666666666667E+009;1.791353225708008E-001;4.197400994598866E-003;-4.697498865425587E-003;-1.684751943685114E-003;
2.411833333333334E+009;1.787481456995010E-001;1.953431172296405E-003;-4.704256076365709E-003;-1.594363013282418E-003;
2.412000000000000E+009;1.788984239101410E-001;-6.995684234425426E-004;-4.727156832814217E-003;-1.611692481674254E-003;
2.412166666666667E+009;1.790163964033127E-001;-2.955700969323516E-003;-4.788242280483246E-003;-1.435411046259105E-003;
2.412333333333334E+009;1.790725290775299E-001;-5.261194892227650E-003;-4.766858182847500E-003;-1.434258185327053E-003;
2.412500000000000E+009;1.796423196792603E-001;-7.687492296099663E-003;-4.913900047540665E-003;-1.410886412486434E-003;
2.412666666666667E+009;1.799569725990295E-001;-1.015813183039427E-002;-4.982433747500181E-003;-1.186114037409425E-003;
2.412833333333334E+009;1.807755976915360E-001;-1.261284574866295E-002;-5.146611016243696E-003;-1.200759084895253E-003;
2.413000000000000E+009;1.813151985406876E-001;-1.494969055056572E-002;-5.251184105873108E-003;-1.135964877903462E-003;
2.413166666666667E+009;1.822543591260910E-001;-1.702232658863068E-002;-5.350284744054079E-003;-8.144101593643427E-004;
2.413333333333334E+009;1.833693087100983E-001;-1.943776011466980E-002;-5.454597063362598E-003;-8.422396495006979E-004;
2.413500000000000E+009;1.840790808200836E-001;-2.157706208527088E-002;-5.672198720276356E-003;-5.423153634183109E-004;
2.413666666666667E+009;1.851776242256165E-001;-2.373472973704338E-002;-5.810069385915995E-003;-2.860105596482754E-004;
2.413833333333334E+009;1.862897425889969E-001;-2.565984986722469E-002;-5.898497533053160E-003;-3.740102329174988E-005;
2.414000000000000E+009;1.873313784599304E-001;-2.770679816603661E-002;-5.816774908453226E-003;1.615479559404776E-004;
2.414166666666667E+009;1.884564757347107E-001;-2.940101549029350E-002;-5.965672899037600E-003;4.942800733260810E-004;
2.414333333333334E+009;1.896184235811234E-001;-3.123985789716244E-002;-6.001034751534462E-003;7.710953359492123E-004;
2.414500000000000E+009;1.907785087823868E-001;-3.263691440224648E-002;-6.011187564581633E-003;8.610584773123264E-004;
2.414666666666667E+009;1.919494569301605E-001;-3.420253470540047E-002;-5.837234668433666E-003;1.234388560988009E-003;
2.414833333333334E+009;1.930206120014191E-001;-3.566723316907883E-002;-5.783165339380503E-003;1.578407711349428E-003;
2.415000000000000E+009;1.940625607967377E-001;-3.677354380488396E-002;-5.721596069633961E-003;1.748693292029202E-003;
2.415166666666667E+009;1.952913254499435E-001;-3.786561638116837E-002;-5.659550894051790E-003;2.065400127321482E-003;
2.415333333333334E+009;1.963670998811722E-001;-3.874825313687325E-002;-5.497079808264971E-003;2.166932448744774E-003;
2.415500000000000E+009;1.974125206470490E-001;-3.937673196196556E-002;-5.240866448730230E-003;2.645698375999928E-003;
2.415666666666667E+009;1.984229385852814E-001;-4.025926440954208E-002;-5.246343556791544E-003;2.660408616065979E-003;
2.415833333333334E+009;1.992412954568863E-001;-4.077849537134171E-002;-5.153147503733635E-003;2.909830538555980E-003;
2.416000000000000E+009;2.000571787357330E-001;-4.144040495157242E-002;-5.036776885390282E-003;3.008532803505659E-003;
2.416166666666667E+009;2.005294710397720E-001;-4.190745204687119E-002;-4.923000931739807E-003;3.309404943138361E-003;
2.416333333333334E+009;2.013057470321655E-001;-4.229729995131493E-002;-4.463769029825926E-003;3.443365218117833E-003;
2.416500000000000E+009;2.017365396022797E-001;-4.247437790036202E-002;-4.531967919319868E-003;3.663123585283756E-003;
2.416666666666667E+009;2.020232677459717E-001;-4.276064038276672E-002;-4.320004489272833E-003;3.787102177739143E-003;
2.416833333333334E+009;2.020795494318008E-001;-4.290989041328430E-002;-3.999050706624985E-003;3.825219348073006E-003;
2.417000000000000E+009;2.022852599620819E-001;-4.304764419794083E-002;-3.849497996270657E-003;3.962222021073103E-003;
2.417166666666667E+009;2.019001990556717E-001;-4.297301545739174E-002;-3.649275982752442E-003;4.083170089870691E-003;
2.417333333333334E+009;2.017215043306351E-001;-4.280627518892288E-002;-3.510190872475505E-003;4.107413813471794E-003;
2.417500000000000E+009;2.013811767101288E-001;-4.279631376266480E-002;-3.113325219601393E-003;4.253359511494637E-003;
2.417666666666667E+009;2.008573114871979E-001;-4.263152182102203E-002;-2.966890810057521E-003;4.279853776097298E-003;
2.417833333333334E+009;2.004393786191940E-001;-4.257846623659134E-002;-2.873606048524380E-003;4.129454493522644E-003;
2.418000000000000E+009;1.996428072452545E-001;-4.231390357017517E-002;-2.573948586359620E-003;4.239775706082583E-003;
2.418166666666667E+009;1.988996565341950E-001;-4.231940582394600E-002;-2.384865656495094E-003;4.068498499691486E-003;
2.418333333333334E+009;1.979656368494034E-001;-4.214387387037277E-002;-2.263087313622236E-003;4.121340811252594E-003;
2.418500000000000E+009;1.969640403985977E-001;-4.227259010076523E-002;-2.106466563418508E-003;4.217411391437054E-003;
2.418666666666667E+009;1.959754675626755E-001;-4.222196340560913E-002;-2.015644451603293E-003;4.159885924309492E-003;
2.418833333333334E+009;1.946255415678024E-001;-4.225024208426476E-002;-1.785460510291159E-003;3.981437068432570E-003;
2.419000000000000E+009;1.933101117610931E-001;-4.260964319109917E-002;-1.689416123554111E-003;3.863087855279446E-003;
2.419166666666667E+009;1.921228617429733E-001;-4.294367879629135E-002;-1.746261375956237E-003;3.896552370861173E-003;
2.419333333333334E+009;1.907233744859695E-001;-4.342826455831528E-002;-1.622913405299187E-003;3.749732859432697E-003;
2.419500000000000E+009;1.893858909606934E-001;-4.378254711627960E-002;-1.469851587899029E-003;3.893525106832385E-003;
2.419666666666667E+009;1.877399086952210E-001;-4.457298666238785E-002;-1.429956522770226E-003;3.816143143922091E-003;
2.419833333333334E+009;1.861848086118698E-001;-4.533940181136131E-002;-1.375354942865670E-003;3.886521095409989E-003;
2.420000000000000E+009;1.847362965345383E-001;-4.615474492311478E-002;-1.443073851987720E-003;3.828336484730244E-003;
2.420166666666667E+009;1.830631196498871E-001;-4.720820859074593E-002;-1.340972259640694E-003;3.800563048571348E-003;
2.420333333333334E+009;1.815334260463715E-001;-4.842264205217362E-002;-1.239279285073280E-003;3.834678558632731E-003;
2.420500000000000E+009;1.798242777585983E-001;-4.967863485217094E-002;-1.154667930677533E-003;3.868252038955689E-003;
2.420666666666667E+009;1.783435195684433E-001;-5.071683973073959E-002;-1.183717395178974E-003;3.851913614198566E-003;
2.420833333333334E+009;1.767853498458862E-001;-5.238290876150131E-002;-1.046421239152551E-003;3.878698218613863E-003;
2.421000000000000E+009;1.752782315015793E-001;-5.397561937570572E-002;-1.107957912608981E-003;3.856339491903782E-003;
2.421166666666667E+009;1.738579422235489E-001;-5.554609000682831E-002;-8.689665701240301E-004;3.885034238919616E-003;
2.421333333333334E+009;1.723429262638092E-001;-5.715023726224899E-002;-9.390956838615239E-004;3.864114871248603E-003;
2.421500000000000E+009;1.709578782320023E-001;-5.901289731264114E-002;-7.752684177830815E-004;3.768441732972860E-003;
2.421666666666667E+009;1.699123680591583E-001;-6.090454012155533E-002;-8.710347465239465E-004;3.887841012328863E-003;
2.421833333333334E+009;1.687328666448593E-001;-6.260702759027481E-002;-7.703365408815444E-004;3.826460102573037E-003;
2.422000000000000E+009;1.676191985607147E-001;-6.450161337852478E-002;-7.703318842686713E-004;3.868001978844404E-003;
2.422166666666667E+009;1.668377667665482E-001;-6.669998914003372E-002;-6.541419425047934E-004;3.905146848410368E-003;
2.422333333333334E+009;1.658559590578079E-001;-6.862061470746994E-002;-6.440310971811414E-004;3.927247133105993E-003;
2.422500000000000E+009;1.648687869310379E-001;-7.034643739461899E-002;-4.894320736639202E-004;4.004544578492641E-003;
2.422666666666667E+009;1.644535660743713E-001;-7.239914685487747E-002;-3.819554112851620E-004;3.853653790429235E-003;
2.422833333333334E+009;1.637965291738510E-001;-7.440096884965897E-002;-2.552516816649586E-004;3.990171477198601E-003;
2.423000000000000E+009;1.635067313909531E-001;-7.649770379066467E-002;-1.693898520898074E-004;3.976468462496996E-003;
2.423166666666667E+009;1.629718244075775E-001;-7.829528301954269E-002;-1.555822673253715E-004;3.975996747612953E-003;
2.423333333333334E+009;1.628052592277527E-001;-8.032000809907913E-002;-3.076033317483962E-004;3.868546569719911E-003;
2.423500000000000E+009;1.626769751310349E-001;-8.205778896808624E-002;2.171785854443442E-005;3.901721443980932E-003;
2.423666666666667E+009;1.628140658140183E-001;-8.382779359817505E-002;1.443315341020934E-005;3.882798133417964E-003;
2.423833333333334E+009;1.624963134527206E-001;-8.561190962791443E-002;-1.692072692094371E-005;3.860296448692679E-003;
2.424000000000000E+009;1.628609001636505E-001;-8.730348944664002E-002;1.504714455222711E-004;3.918814007192850E-003;
2.424166666666667E+009;1.628015488386154E-001;-8.879758417606354E-002;1.798135344870389E-004;3.950429614633322E-003;
2.424333333333334E+009;1.630622148513794E-001;-9.026418626308441E-002;3.036393900401890E-004;3.911603242158890E-003;
2.424500000000000E+009;1.634231954813004E-001;-9.187021851539612E-002;2.180433366447687E-004;4.015384707599878E-003;
2.424666666666667E+009;1.636372208595276E-001;-9.317726641893387E-002;2.832955797202885E-004;4.016714636236429E-003;
2.424833333333334E+009;1.641523689031601E-001;-9.444225579500198E-002;5.079104448668659E-004;4.178239032626152E-003;
2.425000000000000E+009;1.645197272300720E-001;-9.562431275844574E-002;6.129951798357070E-004;4.085759632289410E-003;
2.425166666666667E+009;1.648312509059906E-001;-9.676437824964523E-002;7.497296319343150E-004;4.169331397861242E-003;
2.425333333333334E+009;1.652458608150482E-001;-9.767303615808487E-002;7.495679310522974E-004;4.256284795701504E-003;
2.425500000000000E+009;1.656208485364914E-001;-9.852510690689087E-002;8.897316874936223E-004;4.352345596998930E-003;
2.425666666666667E+009;1.660471558570862E-001;-9.929644316434860E-002;1.055908389389515E-003;4.455395042896271E-003;
2.425833333333334E+009;1.663724929094315E-001;-1.001641824841499E-001;1.139764557592571E-003;4.450911656022072E-003;
2.426000000000000E+009;1.667915433645248E-001;-1.004463732242584E-001;1.352350576780736E-003;4.287757910788059E-003;
2.426166666666667E+009;1.671999245882034E-001;-1.009925007820129E-001;1.387616503052414E-003;4.478693939745426E-003;
2.426333333333334E+009;1.672805249691010E-001;-1.014966368675232E-001;1.594976638443768E-003;4.474346991628408E-003;
2.426500000000000E+009;1.676882207393646E-001;-1.018137708306313E-001;1.802689395844936E-003;4.324431531131268E-003;
2.426666666666667E+009;1.678826808929443E-001;-1.021383330225945E-001;2.023223787546158E-003;4.390864167362452E-003;
2.426833333333334E+009;1.680651754140854E-001;-1.023452654480934E-001;2.015695208683610E-003;4.304897971451283E-003;
2.427000000000000E+009;1.680500209331513E-001;-1.026430800557137E-001;2.327253110706806E-003;4.354401025921106E-003;
2.427166666666667E+009;1.681499034166336E-001;-1.026336997747421E-001;2.450348343700171E-003;4.139597062021494E-003;
2.427333333333334E+009;1.679428815841675E-001;-1.029929518699646E-001;2.643970539793372E-003;4.226507619023323E-003;
2.427500000000000E+009;1.676296889781952E-001;-1.031849011778832E-001;2.819314831867814E-003;4.124611616134644E-003;
2.427666666666667E+009;1.673586815595627E-001;-1.032834425568581E-001;2.993643749505281E-003;4.148424603044987E-003;
