# Version 1.00
#
freq[Hz];re:Trc1_S11;im:Trc1_S11;re:Trc2_S21;im:Trc2_S21;
2.400000000000000E+009;1.553542017936707E-001;1.066586077213287E-001;4.004614893347025E-003;-4.519927315413952E-003;
2.400166666666667E+009;1.550382077693939E-001;1.042911708354950E-001;3.894849680364132E-003;-4.518617410212755E-003;
2.400333333333334E+009;1.551244109869003E-001;1.019595712423325E-001;3.913659602403641E-003;-4.698271863162518E-003;
2.400500000000000E+009;1.552544832229614E-001;9.918776154518127E-002;3.698682179674506E-003;-4.567335825413466E-003;
2.400666666666667E+009;1.552779227495194E-001;9.668339043855667E-002;3.736355807632208E-003;-4.633435979485512E-003;
2.400833333333334E+009;1.552864909172058E-001;9.397833049297333E-002;3.767796093598008E-003;-4.821080714464188E-003;
2.401000000000000E+009;1.554761230945587E-001;9.105322510004044E-002;3.559650387614965E-003;-5.086905788630247E-003;
2.401166666666667E+009;1.556369960308075E-001;8.838301897048950E-002;3.492994699627161E-003;-5.115976557135582E-003;
2.401333333333334E+009;1.561171859502792E-001;8.549243211746216E-002;3.427546471357346E-003;-5.348789971321821E-003;
2.401500000000000E+009;1.565162688493729E-001;8.273295313119888E-002;3.238898236304522E-003;-5.312676541507244E-003;
2.401666666666667E+009;1.568552851676941E-001;7.984620332717896E-002;3.271665656939149E-003;-5.627642385661602E-003;
2.401833333333334E+009;1.574243903160095E-001;7.726391404867172E-002;2.970269881188870E-003;-5.708065349608660E-003;
2.402000000000000E+009;1.583246737718582E-001;7.443888485431671E-002;2.689476124942303E-003;-6.052987650036812E-003;
2.402166666666667E+009;1.590837091207504E-001;7.188929617404938E-002;2.728982130065560E-003;-6.032991688698530E-003;
2.402333333333334E+009;1.601048856973648E-001;6.917191296815872E-002;2.246280200779438E-003;-6.232387386262417E-003;
2.402500000000000E+009;1.612456291913986E-001;6.679183244705200E-002;2.226696349680424E-003;-6.401531863957644E-003;
2.402666666666667E+009;1.623100638389587E-001;6.446167081594467E-002;1.865647500380874E-003;-6.753205787390471E-003;
2.402833333333334E+009;1.637954711914063E-001;6.202975288033485E-002;1.433698344044387E-003;-6.628848146647215E-003;
2.403000000000000E+009;1.650558859109879E-001;5.972410365939140E-002;1.238898956216872E-003;-6.791051011532545E-003;
2.403166666666667E+009;1.668881326913834E-001;5.762727186083794E-002;8.984310552477837E-004;-6.868183147162199E-003;
2.403333333333334E+009;1.681424081325531E-001;5.536080524325371E-002;4.297768755350262E-004;-6.864925846457481E-003;
2.403500000000000E+009;1.699779033660889E-001;5.328462272882462E-002;1.558444055262953E-004;-6.732319016009569E-003;
2.403666666666667E+009;1.716870367527008E-001;5.142033472657204E-002;-2.959561243187636E-004;-6.773659493774176E-003;
2.403833333333334E+009;1.734139919281006E-001;4.959278926253319E-002;-5.144507740624249E-004;-6.552081555128098E-003;
2.404000000000000E+009;1.747484654188156E-001;4.769060015678406E-002;-8.620608714409173E-004;-6.469317246228457E-003;
2.404166666666667E+009;1.766283512115479E-001;4.642733559012413E-002;-1.211321330629289E-003;-6.365352775901556E-003;
2.404333333333334E+009;1.780885010957718E-001;4.495240375399590E-002;-1.449345611035824E-003;-6.065044086426497E-003;
2.404500000000000E+009;1.796768903732300E-001;4.350787401199341E-002;-1.517510390840471E-003;-5.889956839382649E-003;
2.404666666666667E+009;1.813444048166275E-001;4.241003468632698E-002;-1.582514494657517E-003;-5.652126856148243E-003;
2.404833333333334E+009;1.829110234975815E-001;4.138610512018204E-002;-1.709482399746776E-003;-5.634840577840805E-003;
2.405000000000000E+009;1.842368692159653E-001;4.082171618938446E-002;-1.741992076858878E-003;-5.376247223466635E-003;
2.405166666666667E+009;1.857585310935974E-001;4.009675234556198E-002;-1.947045209817588E-003;-5.244370084255934E-003;
2.405333333333334E+009;1.871086508035660E-001;3.944361954927445E-002;-2.016943646594882E-003;-5.059733521193266E-003;
2.405500000000000E+009;1.886148005723953E-001;3.915311768651009E-002;-2.030122093856335E-003;-5.043408367782831E-003;
2.405666666666667E+009;1.898218244314194E-001;3.865412995219231E-002;-2.119448268786073E-003;-4.913736600428820E-003;
2.405833333333334E+009;1.908636242151260E-001;3.843453899025917E-002;-2.175291534513235E-003;-4.655507858842611E-003;
2.406000000000000E+009;1.919021755456924E-001;3.818778321146965E-002;-2.396214986220002E-003;-4.634621553122997E-003;
2.406166666666667E+009;1.929999589920044E-001;3.793705627322197E-002;-2.386823529377580E-003;-4.754471126943827E-003;
2.406333333333334E+009;1.938313394784927E-001;3.798340633511543E-002;-2.329492708668113E-003;-4.723395220935345E-003;
2.406500000000000E+009;1.945987790822983E-001;3.805677220225334E-002;-2.564996713772416E-003;-4.565300419926643E-003;
2.406666666666667E+009;1.952516585588455E-001;3.803458064794540E-002;-2.455109730362892E-003;-4.427683539688587E-003;
2.406833333333334E+009;1.957139968872070E-001;3.794147819280624E-002;-2.637880621477962E-003;-4.355960991233587E-003;
2.407000000000000E+009;1.959649324417114E-001;3.811283037066460E-002;-2.793441759422422E-003;-4.256465006619692E-003;
2.407166666666667E+009;1.963922232389450E-001;3.789842873811722E-002;-2.718069124966860E-003;-4.261914175003767E-003;
2.407333333333334E+009;1.963120400905609E-001;3.793971240520477E-002;-2.840143395587802E-003;-4.182597156614065E-003;
2.407500000000000E+009;1.962948143482208E-001;3.802746534347534E-002;-2.988426946103573E-003;-4.227011464536190E-003;
2.407666666666667E+009;1.963113099336624E-001;3.786598891019821E-002;-3.047103527933359E-003;-4.023798741400242E-003;
2.407833333333334E+009;1.958911269903183E-001;3.766976669430733E-002;-2.920776372775435E-003;-3.916354849934578E-003;
2.408000000000000E+009;1.958852112293243E-001;3.749030828475952E-002;-3.157282713800669E-003;-3.994291182607412E-003;
2.408166666666667E+009;1.951477229595184E-001;3.720545396208763E-002;-3.191434778273106E-003;-3.982297144830227E-003;
2.408333333333334E+009;1.947399079799652E-001;3.658885881304741E-002;-3.363662399351597E-003;-3.980915527790785E-003;
2.408500000000000E+009;1.940474659204483E-001;3.625089302659035E-002;-3.463921369984746E-003;-3.859124612063170E-003;
2.408666666666667E+009;1.935000717639923E-001;3.562389686703682E-002;-3.459416097030044E-003;-3.703258698806167E-003;
2.408833333333334E+009;1.928260624408722E-001;3.474567085504532E-002;-3.792325966060162E-003;-3.835784969851375E-003;
2.409000000000000E+009;1.917706131935120E-001;3.383962064981461E-002;-3.928867634385824E-003;-3.696696367114782E-003;
2.409166666666667E+009;1.907673925161362E-001;3.285634145140648E-002;-4.042851738631725E-003;-3.550546942278743E-003;
2.409333333333334E+009;1.899030357599258E-001;3.176369145512581E-002;-4.089192021638155E-003;-3.426005365327001E-003;
2.409500000000000E+009;1.888642460107803E-001;3.039242140948772E-002;-4.188505001366139E-003;-3.340164897963405E-003;
2.409666666666667E+009;1.879209429025650E-001;2.893500588834286E-002;-4.452572669833899E-003;-3.126097377389669E-003;
2.409833333333334E+009;1.868977546691895E-001;2.758138440549374E-002;-4.445061087608337E-003;-2.986875595524907E-003;
2.410000000000000E+009;1.857455372810364E-001;2.586229145526886E-002;-4.475675057619810E-003;-2.716661663725972E-003;
2.410166666666667E+009;1.847706884145737E-001;2.387320250272751E-002;-4.639179911464453E-003;-2.799483016133308E-003;
2.410333333333334E+009;1.838693171739578E-001;2.226031571626663E-002;-4.559084307402372E-003;-2.372729126363993E-003;
2.410500000000000E+009;1.829580217599869E-001;2.020703069865704E-002;-4.560299217700958E-003;-2.405927516520023E-003;
2.410666666666667E+009;1.821123957633972E-001;1.803594827651978E-002;-4.517251625657082E-003;-2.241056412458420E-003;
2.410833333333334E+009;1.816173344850540E-001;1.581637933850288E-002;-4.586052149534226E-003;-2.024193061515689E-003;
2.411000000000000E+009;1.808449327945709E-001;1.360998861491680E-002;-4.646657500416040E-003;-1.933090155944228E-003;
2.411166666666667E+009;1.800700277090073E-001;1.145544834434986E-002;-4.566171672195196E-003;-1.949916593730450E-003;
2.411333333333334E+009;1.796256452798843E-001;9.114997461438179E-003;-4.464356694370508E-003;-1.800601487047970E-003;
2.411500000000000E+009;1.790851354598999E-001;6.643968168646097E-003;-4.584310576319695E-003;-1.762728672474623E-003;
2.411666666666667E+009;1.790630072355270E-001;4.189915955066681E-003;-4.575045779347420E-003;-1.689597731456161E-003;
2.411833333333334E+009;1.787378191947937E-001;1.971141668036580E-003;-4.642587620764971E-003;-1.604718272574246E-003;
2.412000000000000E+009;1.788783222436905E-001;-6.885170587338507E-004;-4.618218168616295E-003;-1.554224989376962E-003;
2.412166666666667E+009;1.789247989654541E-001;-2.895452547818422E-003;-4.736708942800760E-003;-1.366627169772983E-003;
2.412333333333334E+009;1.790577918291092E-001;-5.403215531259775E-003;-4.818714689463377E-003;-1.525283791124821E-003;
2.412500000000000E+009;1.796944886445999E-001;-7.674393709748983E-003;-4.952373448759317E-003;-1.357275992631912E-003;
2.412666666666667E+009;1.800725460052490E-001;-1.021190453320742E-002;-5.010925233364105E-003;-1.275242539122701E-003;
2.412833333333334E+009;1.806520521640778E-001;-1.262017525732517E-002;-5.209201015532017E-003;-1.130403950810432E-003;
2.413000000000000E+009;1.815962046384811E-001;-1.499014906585217E-002;-5.206834990531206E-003;-8.940527332015336E-004;
2.413166666666667E+009;1.822022348642349E-001;-1.703179627656937E-002;-5.238510202616453E-003;-9.801187552511692E-004;
2.413333333333334E+009;1.831054240465164E-001;-1.936981454491615E-002;-5.491879303008318E-003;-7.547915447503328E-004;
2.413500000000000E+009;1.840564906597138E-001;-2.156045101583004E-002;-5.810623988509178E-003;-5.023844423703849E-004;
2.413666666666667E+009;1.853181421756744E-001;-2.373821288347244E-002;-5.781617946922779E-003;-2.623650652822107E-004;
2.413833333333334E+009;1.862081289291382E-001;-2.575277164578438E-002;-5.868426058441401E-003;-9.784102439880371E-005;
2.414000000000000E+009;1.873076111078262E-001;-2.762361243367195E-002;-5.865729879587889E-003;2.867049770429730E-004;
2.414166666666667E+009;1.883685588836670E-001;-2.935696206986904E-002;-5.935009568929672E-003;4.031035932712257E-004;
2.414333333333334E+009;1.895838379859924E-001;-3.126539662480354E-002;-6.032371427863836E-003;7.739199791103602E-004;
2.414500000000000E+009;1.906996965408325E-001;-3.273458406329155E-002;-5.972272716462612E-003;1.177618280053139E-003;
2.414666666666667E+009;1.919173300266266E-001;-3.417189419269562E-002;-5.991435144096613E-003;1.236267620697618E-003;
2.414833333333334E+009;1.930157840251923E-001;-3.541722893714905E-002;-5.876283627003431E-003;1.523947808891535E-003;
2.415000000000000E+009;1.939965188503265E-001;-3.671433031558991E-002;-5.763579625636339E-003;1.821298734284937E-003;
2.415166666666667E+009;1.952095031738281E-001;-3.786291554570198E-002;-5.632479675114155E-003;2.043633488938212E-003;
2.415333333333334E+009;1.963393241167069E-001;-3.872193768620491E-002;-5.619682837277651E-003;2.255485160276294E-003;
2.415500000000000E+009;1.972945183515549E-001;-3.946899622678757E-002;-5.418609362095594E-003;2.476278459653258E-003;
2.415666666666667E+009;1.984062194824219E-001;-4.032958298921585E-002;-5.346046760678291E-003;2.741766627877951E-003;
2.415833333333334E+009;1.991549879312515E-001;-4.072840139269829E-002;-5.182163324207068E-003;2.833121921867132E-003;
2.416000000000000E+009;2.000074833631516E-001;-4.129338264465332E-002;-5.049479659646750E-003;3.128236625343561E-003;
2.416166666666667E+009;2.006326019763947E-001;-4.188556969165802E-002;-4.903498105704784E-003;3.271229099482298E-003;
2.416333333333334E+009;2.013014554977417E-001;-4.223538935184479E-002;-4.701563622802496E-003;3.602820914238691E-003;
2.416500000000000E+009;2.017863392829895E-001;-4.237749800086021E-002;-4.525793716311455E-003;3.520029131323099E-003;
2.416666666666667E+009;2.020662873983383E-001;-4.290433973073959E-002;-4.268725868314505E-003;3.743532812222838E-003;
2.416833333333334E+009;2.020362466573715E-001;-4.286224395036697E-002;-4.068498499691486E-003;3.742036875337362E-003;
2.417000000000000E+009;2.023086994886398E-001;-4.312398284673691E-002;-3.831185167655349E-003;3.969265613704920E-003;
2.417166666666667E+009;2.018562555313110E-001;-4.299805313348770E-002;-3.670965088531375E-003;4.133389797061682E-003;
2.417333333333334E+009;2.016751766204834E-001;-4.276417195796967E-002;-3.504246240481734E-003;4.088702145963907E-003;
2.417500000000000E+009;2.013304680585861E-001;-4.287294298410416E-002;-3.234534524381161E-003;4.068606533110142E-003;
2.417666666666667E+009;2.008890658617020E-001;-4.273112118244171E-002;-3.079662332311273E-003;4.055427853018045E-003;
2.417833333333334E+009;2.003331333398819E-001;-4.257876798510552E-002;-2.832634840160608E-003;4.315426107496023E-003;
2.418000000000000E+009;1.997603476047516E-001;-4.233419150114059E-002;-2.764243399724364E-003;4.226010758429766E-003;
2.418166666666667E+009;1.988467425107956E-001;-4.222949221730232E-002;-2.418356249108911E-003;3.994900267571211E-003;
2.418333333333334E+009;1.978878676891327E-001;-4.216887056827545E-002;-2.330488758161664E-003;4.181087482720614E-003;
2.418500000000000E+009;1.968971937894821E-001;-4.217387363314629E-002;-2.026458969339728E-003;4.163293633610010E-003;
2.418666666666667E+009;1.960234791040421E-001;-4.226726666092873E-002;-1.974629703909159E-003;4.163417033851147E-003;
2.418833333333334E+009;1.945689022541046E-001;-4.222286865115166E-002;-1.865469850599766E-003;4.021419677883387E-003;
2.419000000000000E+009;1.934065520763397E-001;-4.259220883250237E-002;-1.779128564521670E-003;4.002020228654146E-003;
2.419166666666667E+009;1.921946257352829E-001;-4.287910088896751E-002;-1.871881308034062E-003;3.891973989084363E-003;
2.419333333333334E+009;1.908060610294342E-001;-4.336024820804596E-002;-1.723473309539259E-003;3.953626845031977E-003;
2.419500000000000E+009;1.891991049051285E-001;-4.387899115681648E-002;-1.492517883889377E-003;3.872982924804092E-003;
2.419666666666667E+009;1.878039985895157E-001;-4.471388831734657E-002;-1.487670931965113E-003;3.852355526760221E-003;
2.419833333333334E+009;1.861691325902939E-001;-4.528741911053658E-002;-1.436264486983419E-003;3.728542476892471E-003;
2.420000000000000E+009;1.846615672111511E-001;-4.629570245742798E-002;-1.432383782230318E-003;4.064870066940785E-003;
2.420166666666667E+009;1.831650584936142E-001;-4.717361181974411E-002;-1.224945299327374E-003;3.797679906710982E-003;
2.420333333333334E+009;1.814856827259064E-001;-4.836453869938850E-002;-1.301832729950547E-003;3.825189312919974E-003;
2.420500000000000E+009;1.800519227981567E-001;-4.959413409233093E-002;-1.331099541857839E-003;3.890408435836434E-003;
2.420666666666667E+009;1.783523112535477E-001;-5.092002078890801E-002;-1.165743684396148E-003;3.843243466690183E-003;
2.420833333333334E+009;1.767763942480087E-001;-5.230870470404625E-002;-1.116936909966171E-003;3.818297525867820E-003;
2.421000000000000E+009;1.753118187189102E-001;-5.387546494603157E-002;-1.106701442040503E-003;3.815246513113380E-003;
2.421166666666667E+009;1.739228516817093E-001;-5.556179210543633E-002;-9.063575416803360E-004;3.914809320122004E-003;
2.421333333333334E+009;1.722971498966217E-001;-5.709077045321465E-002;-9.615131421014667E-004;3.813969437032938E-003;
2.421500000000000E+009;1.711338460445404E-001;-5.893031135201454E-002;-7.921247743070126E-004;3.760510124266148E-003;
2.421666666666667E+009;1.698918491601944E-001;-6.074107438325882E-002;-8.604106260463595E-004;3.836438991129398E-003;
2.421833333333334E+009;1.687033921480179E-001;-6.264144182205200E-002;-7.858282187953591E-004;3.869454376399517E-003;
2.422000000000000E+009;1.677070260047913E-001;-6.446798890829086E-002;-6.149521213956177E-004;3.851997433230281E-003;
2.422166666666667E+009;1.667768061161041E-001;-6.664076447486877E-002;-5.256351432763040E-004;3.773998701944947E-003;
2.422333333333334E+009;1.657647788524628E-001;-6.868060678243637E-002;-6.684326217509806E-004;3.806932363659143E-003;
2.422500000000000E+009;1.649979352951050E-001;-7.034526020288467E-002;-5.224405322223902E-004;3.873518668115139E-003;
2.422666666666667E+009;1.643699109554291E-001;-7.246080785989761E-002;-5.364656681194902E-004;3.971809986978769E-003;
2.422833333333334E+009;1.637710332870483E-001;-7.450418174266815E-002;-4.748450592160225E-004;3.946890123188496E-003;
2.423000000000000E+009;1.634088009595871E-001;-7.642773538827896E-002;-3.650703001767397E-004;3.957508131861687E-003;
2.423166666666667E+009;1.628615856170654E-001;-7.844025641679764E-002;-2.548240008763969E-004;4.019189160317183E-003;
2.423333333333334E+009;1.627570092678070E-001;-8.037659525871277E-002;-1.919814530992881E-004;3.925084136426449E-003;
2.423500000000000E+009;1.626493632793427E-001;-8.195384591817856E-002;-8.078858809312806E-005;4.058733116835356E-003;
2.423666666666667E+009;1.627011597156525E-001;-8.390582352876663E-002;1.395345316268504E-004;3.965573851019144E-003;
2.423833333333334E+009;1.625166833400726E-001;-8.558824658393860E-002;6.856403342681006E-005;4.043125547468662E-003;
2.424000000000000E+009;1.627591401338577E-001;-8.733001351356506E-002;8.534733933629468E-005;3.921639174222946E-003;
2.424166666666667E+009;1.627963930368424E-001;-8.876498043537140E-002;2.546999603509903E-004;4.032625351101160E-003;
2.424333333333334E+009;1.631565839052200E-001;-9.018340706825256E-002;1.806581421988085E-004;4.050086252391338E-003;
2.424500000000000E+009;1.633763015270233E-001;-9.206141531467438E-002;2.230766403954476E-004;3.923009149730206E-003;
2.424666666666667E+009;1.636521667242050E-001;-9.315172582864761E-002;3.212074516341090E-004;4.157560877501965E-003;
2.424833333333334E+009;1.643457561731339E-001;-9.452293068170548E-002;4.073992313351482E-004;4.233112093061209E-003;
2.425000000000000E+009;1.646620482206345E-001;-9.562066197395325E-002;6.249995203688741E-004;4.306398332118988E-003;
2.425166666666667E+009;1.649073660373688E-001;-9.669990092515945E-002;4.694945819210261E-004;4.155423957854509E-003;
2.425333333333334E+009;1.652797907590866E-001;-9.758533537387848E-002;8.462562109343708E-004;4.361703991889954E-003;
2.425500000000000E+009;1.656443923711777E-001;-9.863517433404923E-002;9.120726608671248E-004;4.451785702258349E-003;
2.425666666666667E+009;1.660267412662506E-001;-9.926056861877441E-002;1.001929282210767E-003;4.375197459012270E-003;
2.425833333333334E+009;1.664250642061234E-001;-9.996115416288376E-002;1.207925262860954E-003;4.415778443217278E-003;
2.426000000000000E+009;1.667820513248444E-001;-1.004339680075645E-001;1.283692079596221E-003;4.462264012545347E-003;
2.426166666666667E+009;1.671164482831955E-001;-1.010226905345917E-001;1.380071393214166E-003;4.343531094491482E-003;
2.426333333333334E+009;1.672984957695007E-001;-1.014447659254074E-001;1.526996609754860E-003;4.348774440586567E-003;
2.426500000000000E+009;1.677026599645615E-001;-1.017983332276344E-001;1.692076562903822E-003;4.421102348715067E-003;
2.426666666666667E+009;1.678411364555359E-001;-1.021218746900559E-001;1.907740603201091E-003;4.468167666345835E-003;
2.426833333333334E+009;1.681284904479981E-001;-1.023890301585197E-001;2.105659106746316E-003;4.379380494356155E-003;
2.427000000000000E+009;1.680176407098770E-001;-1.026189699769020E-001;2.275079255923629E-003;4.324451554566622E-003;
2.427166666666667E+009;1.680506914854050E-001;-1.026539951562882E-001;2.477189060300589E-003;4.137183539569378E-003;
2.427333333333334E+009;1.680037230253220E-001;-1.030182912945747E-001;2.566952956840396E-003;4.173708613961935E-003;
2.427500000000000E+009;1.676538288593292E-001;-1.032239422202110E-001;2.781630726531148E-003;4.145856015384197E-003;
2.427666666666667E+009;1.673421263694763E-001;-1.032531633973122E-001;2.870972966775298E-003;4.186163656413555E-003;
