# Version 1.00
#
freq[Hz];re:Trc1_S11;im:Trc1_S11;re:Trc2_S21;im:Trc2_S21;
2.400000000000000E+009;1.688376367092133E-001;4.582146182656288E-002;-4.820410162210465E-003;-3.197007812559605E-003;
2.400166666666667E+009;1.699572205543518E-001;4.471208900213242E-002;-4.861912224441767E-003;-3.143605310469866E-003;
2.400333333333334E+009;1.708717644214630E-001;4.364620521664619E-002;-4.888675175607204E-003;-2.991015324369073E-003;
2.400500000000000E+009;1.719574630260468E-001;4.252495989203453E-002;-5.262305028736591E-003;-2.981472993269563E-003;
2.400666666666667E+009;1.726811826229096E-001;4.160621389746666E-002;-5.633261986076832E-003;-2.803306095302105E-003;
2.400833333333334E+009;1.737746149301529E-001;4.096376895904541E-002;-5.675765685737133E-003;-2.629535738378763E-003;
2.401000000000000E+009;1.744359284639359E-001;4.009035974740982E-002;-5.898276343941689E-003;-2.587161958217621E-003;
2.401166666666667E+009;1.751181334257126E-001;3.938114643096924E-002;-6.201507989317179E-003;-2.372878836467862E-003;
2.401333333333334E+009;1.759334504604340E-001;3.856029734015465E-002;-6.299977190792561E-003;-2.069113077595830E-003;
2.401500000000000E+009;1.767300069332123E-001;3.811810165643692E-002;-6.692629307508469E-003;-1.686951029114425E-003;
2.401666666666667E+009;1.771695166826248E-001;3.750728443264961E-002;-6.952035240828991E-003;-1.523505314253271E-003;
2.401833333333334E+009;1.778939515352249E-001;3.681119531393051E-002;-7.065201643854380E-003;-1.084348186850548E-003;
2.402000000000000E+009;1.780613064765930E-001;3.627095744013786E-002;-7.126443088054657E-003;-8.025777060538530E-004;
2.402166666666667E+009;1.784669756889343E-001;3.563939779996872E-002;-7.205277215689421E-003;-4.954330506734550E-004;
2.402333333333334E+009;1.788178831338882E-001;3.493700176477432E-002;-7.497117388993502E-003;1.000558404484764E-004;
2.402500000000000E+009;1.794682890176773E-001;3.454182296991348E-002;-7.539396639913321E-003;4.893230507150292E-004;
2.402666666666667E+009;1.797201782464981E-001;3.386607021093369E-002;-7.558031938970089E-003;9.964699856936932E-004;
2.402833333333334E+009;1.795965582132340E-001;3.329802304506302E-002;-7.490598130971193E-003;1.264594378881156E-003;
2.403000000000000E+009;1.796899288892746E-001;3.263903036713600E-002;-7.545308209955692E-003;1.783507876098156E-003;
2.403166666666667E+009;1.797676235437393E-001;3.175926208496094E-002;-7.253381423652172E-003;2.282790839672089E-003;
2.403333333333334E+009;1.796076446771622E-001;3.103947266936302E-002;-7.424007635563612E-003;2.643962856382132E-003;
2.403500000000000E+009;1.794296503067017E-001;3.012901917099953E-002;-7.084731012582779E-003;3.095588413998485E-003;
2.403666666666667E+009;1.791403293609619E-001;2.926883287727833E-002;-6.779581308364868E-003;3.434404963627458E-003;
2.403833333333334E+009;1.789569109678268E-001;2.812124602496624E-002;-6.476097740232945E-003;3.755759214982390E-003;
2.404000000000000E+009;1.787983775138855E-001;2.702230215072632E-002;-6.361905951052904E-003;4.215118475258350E-003;
2.404166666666667E+009;1.784914135932922E-001;2.592422813177109E-002;-6.040877662599087E-003;4.585075657814741E-003;
2.404333333333334E+009;1.777932643890381E-001;2.491942420601845E-002;-5.564072169363499E-003;4.768148064613342E-003;
2.404500000000000E+009;1.773761808872223E-001;2.332976460456848E-002;-5.207458976656199E-003;5.171792581677437E-003;
2.404666666666667E+009;1.769471317529678E-001;2.194512449204922E-002;-4.808408673852682E-003;5.129691679030657E-003;
2.404833333333334E+009;1.763610392808914E-001;2.071895450353622E-002;-4.271410405635834E-003;5.378703121095896E-003;
2.405000000000000E+009;1.759657412767410E-001;1.911792904138565E-002;-3.942172043025494E-003;5.638691596686840E-003;
2.405166666666667E+009;1.755132228136063E-001;1.757452264428139E-002;-3.704689210280776E-003;5.582173820585012E-003;
2.405333333333334E+009;1.749850213527679E-001;1.576792262494564E-002;-3.311335342004895E-003;5.721626803278923E-003;
2.405500000000000E+009;1.746675372123718E-001;1.426074746996164E-002;-2.842851681634784E-003;5.599804222583771E-003;
2.405666666666667E+009;1.742613017559052E-001;1.259451452642679E-002;-2.620009938254952E-003;5.649197380989790E-003;
2.405833333333334E+009;1.738254576921463E-001;1.075738202780485E-002;-2.307377289980650E-003;5.631184205412865E-003;
2.406000000000000E+009;1.735870540142059E-001;8.855126798152924E-003;-2.014935249462724E-003;5.617874674499035E-003;
2.406166666666667E+009;1.732891947031021E-001;7.068462204188108E-003;-1.794428331777453E-003;5.362455733120441E-003;
2.406333333333334E+009;1.732611656188965E-001;4.983826074749231E-003;-1.389210345223546E-003;5.237411241978407E-003;
2.406500000000000E+009;1.730177700519562E-001;2.966132713481784E-003;-1.273739617317915E-003;5.255864001810551E-003;
2.406666666666667E+009;1.728078573942184E-001;1.070905243977904E-003;-1.105217379517853E-003;4.995496012270451E-003;
2.406833333333334E+009;1.729139983654022E-001;-1.144321286119521E-003;-9.373307693749666E-004;5.036911927163601E-003;
2.407000000000000E+009;1.729371696710587E-001;-3.177108941599727E-003;-8.018023218028247E-004;4.857540130615234E-003;
2.407166666666667E+009;1.731794774532318E-001;-5.248016212135553E-003;-6.626296089962125E-004;4.828128498047590E-003;
2.407333333333334E+009;1.732697933912277E-001;-7.464536465704441E-003;-5.414932384155691E-004;4.745089448988438E-003;
2.407500000000000E+009;1.734041273593903E-001;-9.460846893489361E-003;-4.543225804809481E-004;4.542359616607428E-003;
2.407666666666667E+009;1.736169606447220E-001;-1.159891393035650E-002;-4.219144757371396E-004;4.508887417614460E-003;
2.407833333333334E+009;1.738108545541763E-001;-1.381228677928448E-002;-3.950737300328910E-004;4.482791759073734E-003;
2.408000000000000E+009;1.741763949394226E-001;-1.601625606417656E-002;-1.004252044367604E-004;4.393385723233223E-003;
2.408166666666667E+009;1.746484488248825E-001;-1.783644035458565E-002;-4.935007746098563E-005;4.448050167411566E-003;
2.408333333333334E+009;1.751525402069092E-001;-1.993696764111519E-002;3.625521685535205E-006;4.456789232790470E-003;
2.408500000000000E+009;1.754262745380402E-001;-2.192408777773380E-002;1.430103584425524E-004;4.357279743999243E-003;
2.408666666666667E+009;1.758986562490463E-001;-2.387997694313526E-002;2.444594865664840E-004;4.355634097009897E-003;
2.408833333333334E+009;1.761412173509598E-001;-2.560693770647049E-002;3.812755458056927E-004;4.172267392277718E-003;
2.409000000000000E+009;1.765037029981613E-001;-2.718219161033630E-002;3.907557984348387E-004;4.197814036160708E-003;
2.409166666666667E+009;1.769690811634064E-001;-2.897710725665093E-002;5.811070441268385E-004;4.162250086665154E-003;
2.409333333333334E+009;1.774437576532364E-001;-3.044455870985985E-002;7.983485120348632E-004;4.058284685015678E-003;
2.409500000000000E+009;1.777065247297287E-001;-3.188072890043259E-002;9.260004735551775E-004;4.048286471515894E-003;
2.409666666666667E+009;1.781303584575653E-001;-3.294737637042999E-002;8.718849276192486E-004;4.011488519608975E-003;
2.409833333333334E+009;1.786141842603684E-001;-3.401693701744080E-002;1.087417360395193E-003;3.857533447444439E-003;
2.410000000000000E+009;1.791812628507614E-001;-3.493870794773102E-002;1.253962051123381E-003;3.814370837062597E-003;
2.410166666666667E+009;1.795017123222351E-001;-3.589269891381264E-002;1.262210193090141E-003;3.729503136128187E-003;
2.410333333333334E+009;1.798031330108643E-001;-3.681542724370956E-002;1.237807213328779E-003;3.641515737399459E-003;
2.410500000000000E+009;1.802739500999451E-001;-3.761013597249985E-002;1.463333843275905E-003;3.572051879018545E-003;
2.410666666666667E+009;1.807277202606201E-001;-3.840240836143494E-002;1.632477971725166E-003;3.485879162326455E-003;
2.410833333333334E+009;1.811024248600006E-001;-3.888814896345139E-002;1.616541063413024E-003;3.372587263584137E-003;
2.411000000000000E+009;1.812691539525986E-001;-3.943923488259316E-002;1.664591254666448E-003;3.410223405808210E-003;
2.411166666666667E+009;1.814579814672470E-001;-4.013146832585335E-002;1.687470707111061E-003;3.419416025280953E-003;
2.411333333333334E+009;1.817765533924103E-001;-4.038508236408234E-002;1.743068336509168E-003;3.311258275061846E-003;
2.411500000000000E+009;1.816105395555496E-001;-4.123524576425552E-002;1.743355067446828E-003;3.152945311740041E-003;
2.411666666666667E+009;1.818213909864426E-001;-4.136959835886955E-002;1.797809149138629E-003;3.158973064273596E-003;
2.411833333333334E+009;1.815365403890610E-001;-4.184662550687790E-002;1.929481630213559E-003;3.068245947360992E-003;
2.412000000000000E+009;1.815428733825684E-001;-4.241310805082321E-002;2.002479508519173E-003;2.895194338634610E-003;
2.412166666666667E+009;1.811891049146652E-001;-4.272467643022537E-002;2.037383848801255E-003;3.031540894880891E-003;
2.412333333333334E+009;1.808963268995285E-001;-4.280000180006027E-002;2.162348013371229E-003;2.921996172517538E-003;
2.412500000000000E+009;1.802956461906433E-001;-4.305497184395790E-002;2.131398301571608E-003;2.932797186076641E-003;
2.412666666666667E+009;1.797917634248734E-001;-4.370081424713135E-002;2.102378290146589E-003;2.645703498274088E-003;
2.412833333333334E+009;1.792258769273758E-001;-4.408930242061615E-002;2.236867323517799E-003;2.814569277688861E-003;
2.413000000000000E+009;1.785369366407394E-001;-4.426210373640060E-002;2.442459575831890E-003;2.638505771756172E-003;
2.413166666666667E+009;1.774781644344330E-001;-4.469484090805054E-002;2.494783140718937E-003;2.517091808840632E-003;
2.413333333333334E+009;1.767132878303528E-001;-4.512615874409676E-002;2.590760821476579E-003;2.397038042545319E-003;
2.413500000000000E+009;1.757515966892242E-001;-4.570006206631661E-002;2.493452047929168E-003;2.520259236916900E-003;
2.413666666666667E+009;1.747645884752274E-001;-4.615897312760353E-002;2.602735534310341E-003;2.434743335470557E-003;
2.413833333333334E+009;1.736065596342087E-001;-4.669370129704475E-002;2.744498429819942E-003;2.520988229662180E-003;
2.414000000000000E+009;1.723819375038147E-001;-4.751789942383766E-002;2.738215262070298E-003;2.333607757464051E-003;
2.414166666666667E+009;1.713236719369888E-001;-4.801022633910179E-002;2.830291166901588E-003;2.227061195299029E-003;
2.414333333333334E+009;1.701805442571640E-001;-4.890045523643494E-002;2.927252789959312E-003;2.037715166807175E-003;
2.414500000000000E+009;1.692692041397095E-001;-4.970544576644898E-002;3.039172850549221E-003;2.003034111112356E-003;
2.414666666666667E+009;1.678306609392166E-001;-5.045342072844505E-002;3.112309379503131E-003;2.072748960927129E-003;
2.414833333333334E+009;1.664352864027023E-001;-5.170400813221932E-002;3.178098937496543E-003;1.791930757462978E-003;
2.415000000000000E+009;1.652733683586121E-001;-5.263645946979523E-002;3.179658669978380E-003;1.633139676414430E-003;
2.415166666666667E+009;1.641394644975662E-001;-5.385733395814896E-002;3.193990327417851E-003;1.607461483217776E-003;
2.415333333333334E+009;1.631319224834442E-001;-5.521397292613983E-002;3.134400583803654E-003;1.469074515625835E-003;
2.415500000000000E+009;1.619086116552353E-001;-5.643201991915703E-002;3.314996371045709E-003;1.305680838413537E-003;
2.415666666666667E+009;1.607853621244431E-001;-5.788453295826912E-002;3.282615449279547E-003;1.149536459706724E-003;
2.415833333333334E+009;1.597240120172501E-001;-5.946876481175423E-002;3.217917867004871E-003;1.032006577588618E-003;
2.416000000000000E+009;1.585211902856827E-001;-6.107961013913155E-002;3.087395802140236E-003;9.608556865714490E-004;
2.416166666666667E+009;1.577416509389877E-001;-6.287702918052673E-002;3.078043693676591E-003;7.216316880658269E-004;
2.416333333333334E+009;1.566446125507355E-001;-6.461816281080246E-002;2.884203568100929E-003;7.390640676021576E-004;
2.416500000000000E+009;1.557315140962601E-001;-6.653166562318802E-002;3.076521912589669E-003;5.921655683778226E-004;
2.416666666666667E+009;1.549514979124069E-001;-6.826098263263702E-002;2.877386985346675E-003;4.631930787581950E-004;
2.416833333333334E+009;1.542023122310638E-001;-7.028757780790329E-002;3.055450739338994E-003;3.424707101657987E-004;
2.417000000000000E+009;1.531474888324738E-001;-7.216658443212509E-002;2.651448594406247E-003;4.274235107004643E-004;
2.417166666666667E+009;1.524650156497955E-001;-7.407936453819275E-002;2.762118354439735E-003;4.831617698073387E-004;
2.417333333333334E+009;1.519856601953507E-001;-7.587732374668121E-002;2.796126529574394E-003;3.099640016444027E-004;
2.417500000000000E+009;1.512825638055801E-001;-7.795630395412445E-002;2.648150781169534E-003;3.027308557648212E-004;
2.417666666666667E+009;1.509440392255783E-001;-7.971139997243881E-002;2.848427742719650E-003;4.319600702729076E-004;
2.417833333333334E+009;1.504269689321518E-001;-8.149791508913040E-002;2.695675240829587E-003;3.014105022884905E-004;
2.418000000000000E+009;1.499742120504379E-001;-8.350731432437897E-002;2.643004059791565E-003;3.402884758543223E-004;
2.418166666666667E+009;1.496901661157608E-001;-8.505655825138092E-002;2.853230340406299E-003;2.364231477258727E-004;
2.418333333333334E+009;1.497777253389359E-001;-8.678667992353439E-002;2.774910535663366E-003;2.547884359955788E-004;
2.418500000000000E+009;1.494582444429398E-001;-8.842560648918152E-002;2.854666206985712E-003;3.667334094643593E-004;
2.418666666666667E+009;1.494307219982147E-001;-8.999883383512497E-002;2.846537390723825E-003;1.067120392690413E-004;
2.418833333333334E+009;1.491365581750870E-001;-9.128227829933167E-002;2.875270787626505E-003;1.177629019366577E-004;
2.419000000000000E+009;1.492270231246948E-001;-9.261808544397354E-002;2.885079244151712E-003;1.094144681701437E-004;
2.419166666666667E+009;1.493629813194275E-001;-9.387969970703125E-002;2.839448628947139E-003;-1.100583267543698E-005;
2.419333333333334E+009;1.493734270334244E-001;-9.474659711122513E-002;2.702345838770270E-003;-1.242902799276635E-004;
2.419500000000000E+009;1.495431661605835E-001;-9.595709294080734E-002;2.930244198068976E-003;-8.911596523830667E-005;
2.419666666666667E+009;1.497323662042618E-001;-9.697092324495316E-002;3.016047412529588E-003;-2.618476282805204E-004;
2.419833333333334E+009;1.499885171651840E-001;-9.765592217445374E-002;2.910719718784094E-003;-1.915579196065664E-004;
2.420000000000000E+009;1.503121107816696E-001;-9.828696399927139E-002;2.887239679694176E-003;-1.640222908463329E-004;
2.420166666666667E+009;1.505401581525803E-001;-9.880443662405014E-002;2.882728353142738E-003;-1.856341987149790E-004;
2.420333333333334E+009;1.510032415390015E-001;-9.929504990577698E-002;2.824986120685935E-003;-2.804339455906302E-004;
2.420500000000000E+009;1.511797606945038E-001;-9.954452514648438E-002;2.806154778227210E-003;-2.631282841321081E-004;
2.420666666666667E+009;1.514855474233627E-001;-9.977915138006210E-002;2.842211164534092E-003;-2.974979288410395E-004;
2.420833333333334E+009;1.516846120357513E-001;-1.000227779150009E-001;2.861789660528302E-003;-1.756044075591490E-004;
2.421000000000000E+009;1.518402248620987E-001;-1.003021225333214E-001;2.971886424347758E-003;-2.983642625622451E-004;
2.421166666666667E+009;1.522938013076782E-001;-1.002557203173637E-001;3.000306664034724E-003;-2.598022983875126E-004;
2.421333333333334E+009;1.524343043565750E-001;-1.003405079245567E-001;3.189941402524710E-003;-4.276857944205403E-004;
2.421500000000000E+009;1.524630337953568E-001;-1.001025736331940E-001;3.221977036446333E-003;-5.659199086949229E-004;
2.421666666666667E+009;1.525801867246628E-001;-1.001037657260895E-001;3.283506026491523E-003;-6.150706904008985E-004;
2.421833333333334E+009;1.525133103132248E-001;-9.975776076316834E-002;3.352464409545064E-003;-7.490006391890347E-004;
2.422000000000000E+009;1.522613465785980E-001;-9.963284432888031E-002;3.503501648083329E-003;-7.765899063088000E-004;
2.422166666666667E+009;1.519990861415863E-001;-9.954013675451279E-002;3.461269894614816E-003;-9.480793378315866E-004;
2.422333333333334E+009;1.516798734664917E-001;-9.921212494373322E-002;3.710535820573568E-003;-1.177699421532452E-003;
2.422500000000000E+009;1.512113511562347E-001;-9.893850237131119E-002;3.564775222912431E-003;-1.294711371883750E-003;
2.422666666666667E+009;1.505846530199051E-001;-9.862788021564484E-002;3.638512222096324E-003;-1.431124866940081E-003;
2.422833333333334E+009;1.497822254896164E-001;-9.836494177579880E-002;3.692063270136714E-003;-1.646267832256854E-003;
2.423000000000000E+009;1.490202844142914E-001;-9.811268746852875E-002;3.689510747790337E-003;-1.816912088543177E-003;
2.423166666666667E+009;1.483688801527023E-001;-9.777638316154480E-002;3.688797587528825E-003;-2.037115860730410E-003;
2.423333333333334E+009;1.472424119710922E-001;-9.723196923732758E-002;3.643036354333162E-003;-2.112254733219743E-003;
2.423500000000000E+009;1.461108028888702E-001;-9.708572924137116E-002;3.689668141305447E-003;-2.401397796347737E-003;
2.423666666666667E+009;1.448341608047485E-001;-9.689269214868546E-002;3.434784011915326E-003;-2.681467216461897E-003;
2.423833333333334E+009;1.438560038805008E-001;-9.654214978218079E-002;3.566929837688804E-003;-2.654423238709569E-003;
2.424000000000000E+009;1.424709111452103E-001;-9.617137163877487E-002;3.393425839021802E-003;-2.893959404900670E-003;
2.424166666666667E+009;1.410137712955475E-001;-9.622322022914887E-002;3.457199083641172E-003;-3.049043472856283E-003;
2.424333333333334E+009;1.398123502731323E-001;-9.607582539319992E-002;3.179083811119199E-003;-3.254563547670841E-003;
2.424500000000000E+009;1.383615732192993E-001;-9.603685140609741E-002;3.295094706118107E-003;-3.587597282603383E-003;
2.424666666666667E+009;1.369909048080444E-001;-9.602066874504089E-002;3.232855815440416E-003;-3.779848571866751E-003;
2.424833333333334E+009;1.355412751436234E-001;-9.627031534910202E-002;3.021302167326212E-003;-3.902581054717302E-003;
2.425000000000000E+009;1.340557783842087E-001;-9.662128239870071E-002;2.843007910996676E-003;-4.087411798536778E-003;
2.425166666666667E+009;1.324343830347061E-001;-9.703230112791061E-002;2.650880720466375E-003;-4.113214090466499E-003;
2.425333333333334E+009;1.310240775346756E-001;-9.741538763046265E-002;2.412630710750818E-003;-4.313898738473654E-003;
2.425500000000000E+009;1.297186166048050E-001;-9.817538410425186E-002;2.159354276955128E-003;-4.382218234241009E-003;
2.425666666666667E+009;1.280561834573746E-001;-9.894165396690369E-002;2.057611942291260E-003;-4.543787799775600E-003;
2.425833333333334E+009;1.267306804656982E-001;-9.973086416721344E-002;1.859738375060260E-003;-4.713765811175108E-003;
2.426000000000000E+009;1.252384036779404E-001;-1.008267104625702E-001;1.527998014353216E-003;-4.817957524210215E-003;
2.426166666666667E+009;1.242430582642555E-001;-1.019152179360390E-001;1.456880127079785E-003;-5.112133454531431E-003;
2.426333333333334E+009;1.227776184678078E-001;-1.031278520822525E-001;1.151981297880411E-003;-4.902604967355728E-003;
2.426500000000000E+009;1.215796470642090E-001;-1.043535098433495E-001;8.773110457696021E-004;-4.886616487056017E-003;
2.426666666666667E+009;1.204959154129028E-001;-1.057311967015266E-001;6.103710038587451E-004;-4.797055851668119E-003;
2.426833333333334E+009;1.193116754293442E-001;-1.071305647492409E-001;4.290613869670779E-004;-5.002036225050688E-003;
2.427000000000000E+009;1.183136850595474E-001;-1.087722480297089E-001;8.360788342542946E-005;-4.954157397150993E-003;
2.427166666666667E+009;1.173932254314423E-001;-1.101915687322617E-001;-1.361791946692392E-004;-4.845987539738417E-003;
2.427333333333334E+009;1.163766458630562E-001;-1.119082942605019E-001;-3.281742683611810E-004;-4.786111880093813E-003;
2.427500000000000E+009;1.157860606908798E-001;-1.136034205555916E-001;-4.230355843901634E-004;-4.613530356436968E-003;
2.427666666666667E+009;1.149326115846634E-001;-1.153743937611580E-001;-4.882279026787728E-004;-4.638750571757555E-003;
2.427833333333334E+009;1.141551360487938E-001;-1.170226112008095E-001;-9.460071451030672E-004;-4.412878770381212E-003;
