# Version 1.00
#
freq[Hz];re:Trc1_S11;im:Trc1_S11;re:Trc2_S21;im:Trc2_S21;
2.400000000000000E+009;1.688201129436493E-001;4.565107077360153E-002;-4.637644160538912E-003;-3.399275476112962E-003;
2.400166666666667E+009;1.699622422456741E-001;4.469786956906319E-002;-4.749895073473454E-003;-3.120767651125789E-003;
2.400333333333334E+009;1.706633567810059E-001;4.351760074496269E-002;-4.964949097484350E-003;-3.120350884273648E-003;
2.400500000000000E+009;1.715800166130066E-001;4.257998615503311E-002;-5.204462446272373E-003;-3.006480634212494E-003;
2.400666666666667E+009;1.726590394973755E-001;4.150729998946190E-002;-5.401948932558298E-003;-2.902703126892448E-003;
2.400833333333334E+009;1.735654622316361E-001;4.086206108331680E-002;-5.580712575465441E-003;-2.702819881960750E-003;
2.401000000000000E+009;1.744067966938019E-001;3.994500264525414E-002;-5.976101383566856E-003;-2.611222909763455E-003;
2.401166666666667E+009;1.752027422189713E-001;3.949061408638954E-002;-6.086581852287054E-003;-2.375283278524876E-003;
2.401333333333334E+009;1.757759302854538E-001;3.869033604860306E-002;-6.318482570350170E-003;-1.980357570573688E-003;
2.401500000000000E+009;1.766643226146698E-001;3.799216821789742E-002;-6.481968332082033E-003;-1.853030524216592E-003;
2.401666666666667E+009;1.771233230829239E-001;3.740328550338745E-002;-6.694368086755276E-003;-1.519336365163326E-003;
2.401833333333334E+009;1.775522083044052E-001;3.688705712556839E-002;-7.051393855363131E-003;-1.262844074517489E-003;
2.402000000000000E+009;1.780541092157364E-001;3.631852939724922E-002;-7.208833936601877E-003;-9.334142669104040E-004;
2.402166666666667E+009;1.785685420036316E-001;3.553771600127220E-002;-7.241983432322741E-003;-5.651613464578986E-004;
2.402333333333334E+009;1.787953525781632E-001;3.505611792206764E-002;-7.442370057106018E-003;-1.633129577385262E-004;
2.402500000000000E+009;1.792661547660828E-001;3.441551700234413E-002;-7.478210609406233E-003;3.665132680907846E-004;
2.402666666666667E+009;1.795967817306519E-001;3.397926315665245E-002;-7.614139001816511E-003;8.644529734738171E-004;
2.402833333333334E+009;1.795154958963394E-001;3.328914940357208E-002;-7.461906876415014E-003;1.340744900517166E-003;
2.403000000000000E+009;1.798041164875031E-001;3.262848407030106E-002;-7.634939625859261E-003;1.794514944776893E-003;
2.403166666666667E+009;1.797704696655273E-001;3.174486011266708E-002;-7.284485734999180E-003;2.172200474888086E-003;
2.403333333333334E+009;1.796029210090637E-001;3.117766790091991E-002;-7.267799694091082E-003;2.657509641721845E-003;
2.403500000000000E+009;1.794202923774719E-001;3.019203245639801E-002;-7.054501678794622E-003;2.996831433847547E-003;
2.403666666666667E+009;1.792693734169006E-001;2.909603342413902E-002;-6.757702678442001E-003;3.483555046841502E-003;
2.403833333333334E+009;1.789288371801376E-001;2.809540182352066E-002;-6.540544331073761E-003;3.756234887987375E-003;
2.404000000000000E+009;1.785379350185394E-001;2.698683924973011E-002;-6.396789103746414E-003;4.228268750011921E-003;
2.404166666666667E+009;1.782606542110443E-001;2.585697174072266E-002;-5.991746671497822E-003;4.595069680362940E-003;
2.404333333333334E+009;1.777179092168808E-001;2.479738928377628E-002;-5.747054703533649E-003;4.918341524899006E-003;
2.404500000000000E+009;1.773204654455185E-001;2.339932322502136E-002;-5.101566668599844E-003;5.059789400547743E-003;
2.404666666666667E+009;1.769073754549027E-001;2.211283706128597E-002;-4.898102022707462E-003;5.256408359855413E-003;
2.404833333333334E+009;1.763699501752853E-001;2.061227150261402E-002;-4.508313257247210E-003;5.406078882515431E-003;
2.405000000000000E+009;1.759769767522812E-001;1.918139867484570E-002;-3.991492558270693E-003;5.554919131100178E-003;
2.405166666666667E+009;1.753658652305603E-001;1.759979128837585E-002;-3.735029604285955E-003;5.554696545004845E-003;
2.405333333333334E+009;1.751355081796646E-001;1.585723832249641E-002;-3.289033891633153E-003;5.786012858152390E-003;
2.405500000000000E+009;1.747314780950546E-001;1.426684856414795E-002;-2.848917152732611E-003;5.615117494016886E-003;
2.405666666666667E+009;1.741873919963837E-001;1.259569823741913E-002;-2.559863496571779E-003;5.766849033534527E-003;
2.405833333333334E+009;1.737511157989502E-001;1.084628328680992E-002;-2.284358022734523E-003;5.650063510984182E-003;
2.406000000000000E+009;1.736175864934921E-001;8.824455551803112E-003;-1.923549571074545E-003;5.486766807734966E-003;
2.406166666666667E+009;1.731842905282974E-001;7.078597787767649E-003;-1.658004010096192E-003;5.445770453661680E-003;
2.406333333333334E+009;1.732798218727112E-001;4.980995319783688E-003;-1.470983261242509E-003;5.306694190949202E-003;
2.406500000000000E+009;1.729993075132370E-001;3.020253265276551E-003;-1.157198916189373E-003;5.424484144896269E-003;
2.406666666666667E+009;1.727705746889114E-001;1.035766676068306E-003;-1.074604690074921E-003;5.083521828055382E-003;
2.406833333333334E+009;1.727181375026703E-001;-1.016948372125626E-003;-9.686787961982191E-004;4.939637146890163E-003;
2.407000000000000E+009;1.729512661695480E-001;-3.102595917880535E-003;-7.642085547558963E-004;4.893051460385323E-003;
2.407166666666667E+009;1.730355769395828E-001;-5.249311216175556E-003;-6.600161432288587E-004;4.635958001017571E-003;
2.407333333333334E+009;1.731696873903275E-001;-7.326410617679358E-003;-6.675649783574045E-004;4.694886039942503E-003;
2.407500000000000E+009;1.733942776918411E-001;-9.443818591535091E-003;-4.721474542748183E-004;4.668097477406263E-003;
2.407666666666667E+009;1.737250834703445E-001;-1.154293119907379E-002;-3.711532335728407E-004;4.498837515711784E-003;
2.407833333333334E+009;1.738645583391190E-001;-1.368193887174130E-002;-3.246626583859325E-004;4.457496572285891E-003;
2.408000000000000E+009;1.743109226226807E-001;-1.593844592571259E-002;-1.704128662822768E-004;4.589731339365244E-003;
2.408166666666667E+009;1.747003644704819E-001;-1.778955198824406E-002;-4.455633825273253E-005;4.457358736544848E-003;
2.408333333333334E+009;1.752860844135284E-001;-1.985188759863377E-002;-7.659957191208378E-005;4.347881302237511E-003;
2.408500000000000E+009;1.755633354187012E-001;-2.194759063422680E-002;9.220466017723084E-005;4.321432672441006E-003;
2.408666666666667E+009;1.757533997297287E-001;-2.386859431862831E-002;2.933152718469501E-004;4.318698775023222E-003;
2.408833333333334E+009;1.761385798454285E-001;-2.555045112967491E-002;5.023604026064277E-004;4.327678587287664E-003;
2.409000000000000E+009;1.766033917665482E-001;-2.706791646778584E-002;7.091298466548324E-004;4.336266312748194E-003;
2.409166666666667E+009;1.769696772098541E-001;-2.885106205940247E-002;6.410140777006745E-004;4.154178779572249E-003;
2.409333333333334E+009;1.775107979774475E-001;-3.030934929847717E-002;5.883144331164658E-004;4.030632786452770E-003;
2.409500000000000E+009;1.778074949979782E-001;-3.172198310494423E-002;8.282933267764747E-004;4.212914500385523E-003;
2.409666666666667E+009;1.780847907066345E-001;-3.312350809574127E-002;9.902679594233632E-004;3.940569702535868E-003;
2.409833333333334E+009;1.784704625606537E-001;-3.379327431321144E-002;1.023249002173543E-003;3.932127729058266E-003;
2.410000000000000E+009;1.791179925203323E-001;-3.505567088723183E-002;1.186200533993542E-003;3.842438803985715E-003;
2.410166666666667E+009;1.795804947614670E-001;-3.591021522879601E-002;1.240214100107551E-003;3.679691581055522E-003;
2.410333333333334E+009;1.800389736890793E-001;-3.684754669666290E-002;1.430661999620497E-003;3.783309599384666E-003;
2.410500000000000E+009;1.803463548421860E-001;-3.759282454848290E-002;1.363411894999445E-003;3.684857627376914E-003;
2.410666666666667E+009;1.806959211826325E-001;-3.841592743992806E-002;1.491205417551100E-003;3.557002870365977E-003;
2.410833333333334E+009;1.812154054641724E-001;-3.905320167541504E-002;1.574955647811294E-003;3.541837912052870E-003;
2.411000000000000E+009;1.814645230770111E-001;-3.940965607762337E-002;1.688386430032551E-003;3.316238988190889E-003;
2.411166666666667E+009;1.815212666988373E-001;-4.006708040833473E-002;1.714122947305441E-003;3.283035475760698E-003;
2.411333333333334E+009;1.816820055246353E-001;-4.045082256197929E-002;1.808357192203403E-003;3.464679466560483E-003;
2.411500000000000E+009;1.816887855529785E-001;-4.109425470232964E-002;1.773189636878669E-003;3.108454402536154E-003;
2.411666666666667E+009;1.817797422409058E-001;-4.153653979301453E-002;1.927267876453698E-003;3.274840768426657E-003;
2.411833333333334E+009;1.816874295473099E-001;-4.178117588162422E-002;1.770368893630803E-003;3.151074284687638E-003;
2.412000000000000E+009;1.815297156572342E-001;-4.226830974221230E-002;1.829821732826531E-003;2.988893073052168E-003;
2.412166666666667E+009;1.812497675418854E-001;-4.273619875311852E-002;1.905082608573139E-003;2.967714797705412E-003;
2.412333333333334E+009;1.811218261718750E-001;-4.294860735535622E-002;2.127346582710743E-003;3.009447827935219E-003;
2.412500000000000E+009;1.802784353494644E-001;-4.322997480630875E-002;2.073949435725808E-003;2.841999521479011E-003;
2.412666666666667E+009;1.798630505800247E-001;-4.371048510074616E-002;2.250671386718750E-003;2.899996470659971E-003;
2.412833333333334E+009;1.792239099740982E-001;-4.417296871542931E-002;2.226758748292923E-003;2.720523858442903E-003;
2.413000000000000E+009;1.786223351955414E-001;-4.445947334170342E-002;2.228711266070604E-003;2.674743067473173E-003;
2.413166666666667E+009;1.775448471307755E-001;-4.465835541486740E-002;2.369701629504561E-003;2.592968055978417E-003;
2.413333333333334E+009;1.766526103019714E-001;-4.527175053954125E-002;2.498956630006433E-003;2.693029353395104E-003;
2.413500000000000E+009;1.756576895713806E-001;-4.578742384910584E-002;2.601063810288906E-003;2.632221207022667E-003;
2.413666666666667E+009;1.748421490192413E-001;-4.635794833302498E-002;2.647184533998370E-003;2.397422911599279E-003;
2.413833333333334E+009;1.735508590936661E-001;-4.669154062867165E-002;2.660778583958745E-003;2.453536028042436E-003;
2.414000000000000E+009;1.724082529544830E-001;-4.757692292332649E-002;2.890313044190407E-003;2.362139523029327E-003;
2.414166666666667E+009;1.713537126779556E-001;-4.796859622001648E-002;2.918069483712316E-003;2.214872743934393E-003;
2.414333333333334E+009;1.700256019830704E-001;-4.889960214495659E-002;2.847324358299375E-003;2.047221176326275E-003;
2.414500000000000E+009;1.690980792045593E-001;-4.973520711064339E-002;3.033371176570654E-003;1.981220208108425E-003;
2.414666666666667E+009;1.678615659475327E-001;-5.053576827049255E-002;3.019930794835091E-003;1.940738526172936E-003;
2.414833333333334E+009;1.665429174900055E-001;-5.157789587974548E-002;3.108934033662081E-003;1.880437601357698E-003;
2.415000000000000E+009;1.653144359588623E-001;-5.268986150622368E-002;3.280394012108445E-003;1.538224169053137E-003;
2.415166666666667E+009;1.641254276037216E-001;-5.399772897362709E-002;3.335419110953808E-003;1.553373644128442E-003;
2.415333333333334E+009;1.631140708923340E-001;-5.529575422406197E-002;3.152019809931517E-003;1.451662974432111E-003;
2.415500000000000E+009;1.619985103607178E-001;-5.659491568803787E-002;3.356064902618527E-003;1.445378526113927E-003;
2.415666666666667E+009;1.607494950294495E-001;-5.809251219034195E-002;3.432343015447259E-003;1.159929088316858E-003;
2.415833333333334E+009;1.598366200923920E-001;-5.955670773983002E-002;3.213192103430629E-003;1.139260595664382E-003;
2.416000000000000E+009;1.585191339254379E-001;-6.137621402740479E-002;3.321757307276130E-003;1.067011617124081E-003;
2.416166666666667E+009;1.577701270580292E-001;-6.295472383499146E-002;3.321308642625809E-003;7.843552157282829E-004;
2.416333333333334E+009;1.566194444894791E-001;-6.464169919490814E-002;3.167970338836312E-003;7.547421846538782E-004;
2.416500000000000E+009;1.556924134492874E-001;-6.650566309690476E-002;2.890039701014757E-003;6.657575722783804E-004;
2.416666666666667E+009;1.547929644584656E-001;-6.835217773914337E-002;2.924516331404448E-003;5.652607651427388E-004;
2.416833333333334E+009;1.541572064161301E-001;-7.032620161771774E-002;2.924001775681973E-003;5.315196467563510E-004;
2.417000000000000E+009;1.531436741352081E-001;-7.214948534965515E-002;2.910598879680038E-003;5.638766451738775E-004;
2.417166666666667E+009;1.525901108980179E-001;-7.410775125026703E-002;2.794208703562617E-003;4.396435688249767E-004;
2.417333333333334E+009;1.518728584051132E-001;-7.592365890741348E-002;2.681271173059940E-003;3.971912374254316E-004;
2.417500000000000E+009;1.511588394641876E-001;-7.794845104217529E-002;2.820780966430903E-003;4.931302974000573E-004;
2.417666666666667E+009;1.509312242269516E-001;-7.978845387697220E-002;2.754253335297108E-003;4.701093130279332E-004;
2.417833333333334E+009;1.504887640476227E-001;-8.149717748165131E-002;2.769875572994351E-003;3.208187699783593E-004;
2.418000000000000E+009;1.500629037618637E-001;-8.349723368883133E-002;2.846790477633476E-003;2.132495137630031E-004;
2.418166666666667E+009;1.496648341417313E-001;-8.507226407527924E-002;2.781152492389083E-003;3.514983982313424E-004;
2.418333333333334E+009;1.497463881969452E-001;-8.677697926759720E-002;3.012096043676138E-003;2.260930341435596E-004;
2.418500000000000E+009;1.494471281766892E-001;-8.831147104501724E-002;3.013633424416184E-003;1.866110687842593E-004;
2.418666666666667E+009;1.494967043399811E-001;-8.985531330108643E-002;2.961504273116589E-003;1.742098247632384E-004;
2.418833333333334E+009;1.492381244897842E-001;-9.129792451858521E-002;3.008229658007622E-003;1.513838651590049E-004;
2.419000000000000E+009;1.491669565439224E-001;-9.261085838079453E-002;2.966069150716066E-003;-1.779126364453987E-006;
2.419166666666667E+009;1.492337286472321E-001;-9.381984174251556E-002;2.852672478184104E-003;-5.610692460322753E-005;
2.419333333333334E+009;1.492594629526138E-001;-9.484747797250748E-002;2.992837224155664E-003;-5.146719922777265E-005;
2.419500000000000E+009;1.495540738105774E-001;-9.602718055248261E-002;2.867361065000296E-003;-1.289131469093263E-004;
2.419666666666667E+009;1.497931331396103E-001;-9.691210836172104E-002;2.879463601857424E-003;-1.565716083860025E-004;
2.419833333333334E+009;1.500172019004822E-001;-9.758790582418442E-002;2.860329579561949E-003;-3.539997851476073E-004;
2.420000000000000E+009;1.504153311252594E-001;-9.843160957098007E-002;2.949887188151479E-003;-3.755909565370530E-004;
2.420166666666667E+009;1.506304740905762E-001;-9.886548668146133E-002;2.870470052585006E-003;-2.910793409682810E-004;
2.420333333333334E+009;1.508544832468033E-001;-9.939607232809067E-002;2.984666731208563E-003;-1.923913514474407E-004;
2.420500000000000E+009;1.512381881475449E-001;-9.951913356781006E-002;2.839869586750865E-003;-3.678678767755628E-004;
2.420666666666667E+009;1.514728963375092E-001;-9.988936036825180E-002;3.077738918364048E-003;-4.349778755567968E-004;
2.420833333333334E+009;1.519055664539337E-001;-1.001406833529472E-001;3.050929866731167E-003;-3.316902148071677E-004;
2.421000000000000E+009;1.517556905746460E-001;-1.002461239695549E-001;3.070310223847628E-003;-4.056057950947434E-004;
2.421166666666667E+009;1.522009223699570E-001;-1.002581417560577E-001;3.136015497148037E-003;-4.653072974178940E-004;
2.421333333333334E+009;1.522563397884369E-001;-1.003204584121704E-001;3.239748999476433E-003;-4.371288814581931E-004;
2.421500000000000E+009;1.524530053138733E-001;-1.002380102872849E-001;3.303630743175745E-003;-7.381623145192862E-004;
2.421666666666667E+009;1.523991674184799E-001;-1.000508815050125E-001;3.478443017229438E-003;-6.866486510261893E-004;
2.421833333333334E+009;1.523854732513428E-001;-9.987616539001465E-002;3.328453283756971E-003;-8.405142580159009E-004;
2.422000000000000E+009;1.522785276174545E-001;-9.967288374900818E-002;3.512363648042083E-003;-9.503602632321417E-004;
2.422166666666667E+009;1.520738601684570E-001;-9.952096641063690E-002;3.623781027272344E-003;-1.092081773094833E-003;
2.422333333333334E+009;1.516940295696259E-001;-9.933485090732575E-002;3.689783858135343E-003;-1.305361627601087E-003;
2.422500000000000E+009;1.510977149009705E-001;-9.885372221469879E-002;3.590423380956054E-003;-1.480860402807593E-003;
2.422666666666667E+009;1.506333202123642E-001;-9.870624542236328E-002;3.735523903742433E-003;-1.583414501510561E-003;
2.422833333333334E+009;1.498721390962601E-001;-9.849868714809418E-002;3.610129002481699E-003;-1.701177214272320E-003;
2.423000000000000E+009;1.490587592124939E-001;-9.804467111825943E-002;3.868463449180126E-003;-1.964386785402894E-003;
2.423166666666667E+009;1.483076363801956E-001;-9.753926098346710E-002;3.705555573105812E-003;-2.144362311810255E-003;
2.423333333333334E+009;1.473266184329987E-001;-9.728807955980301E-002;3.811028553172946E-003;-2.277345163747668E-003;
2.423500000000000E+009;1.462904214859009E-001;-9.714317321777344E-002;3.618348157033324E-003;-2.512413775548339E-003;
2.423666666666667E+009;1.448036432266235E-001;-9.695380181074143E-002;3.547225380316377E-003;-2.543908776715398E-003;
2.423833333333334E+009;1.436670869588852E-001;-9.667480736970902E-002;3.466819878667593E-003;-2.710135187953711E-003;
2.424000000000000E+009;1.424351036548615E-001;-9.631036221981049E-002;3.339250339195132E-003;-2.986550098285079E-003;
2.424166666666667E+009;1.409604400396347E-001;-9.627047926187515E-002;3.270023735240102E-003;-3.079615533351898E-003;
2.424333333333334E+009;1.397238224744797E-001;-9.596472233533859E-002;3.234842093661428E-003;-3.380422713235021E-003;
2.424500000000000E+009;1.383511424064636E-001;-9.604069590568543E-002;3.191632684320211E-003;-3.593428060412407E-003;
2.424666666666667E+009;1.370710134506226E-001;-9.596908092498779E-002;3.043690696358681E-003;-3.779454389587045E-003;
2.424833333333334E+009;1.354370564222336E-001;-9.620700031518936E-002;2.921578707173467E-003;-3.992621321231127E-003;
2.425000000000000E+009;1.339140236377716E-001;-9.659371525049210E-002;2.817222848534584E-003;-4.100872203707695E-003;
2.425166666666667E+009;1.323448866605759E-001;-9.683971852064133E-002;2.582986140623689E-003;-4.325169138610363E-003;
2.425333333333334E+009;1.309863030910492E-001;-9.739927202463150E-002;2.357439603656530E-003;-4.514032974839211E-003;
2.425500000000000E+009;1.297432035207748E-001;-9.814278781414032E-002;2.190899569541216E-003;-4.648685455322266E-003;
2.425666666666667E+009;1.280469596385956E-001;-9.892301261425018E-002;2.166331047192216E-003;-4.684406332671642E-003;
2.425833333333334E+009;1.267016977071762E-001;-9.977099299430847E-002;1.770081697031856E-003;-4.961492493748665E-003;
2.426000000000000E+009;1.252596378326416E-001;-1.008362993597984E-001;1.405893126502633E-003;-4.760507494211197E-003;
2.426166666666667E+009;1.242197901010513E-001;-1.019381508231163E-001;1.318875350989401E-003;-4.960312973707914E-003;
2.426333333333334E+009;1.227767094969750E-001;-1.030643060803413E-001;1.084257266484201E-003;-4.939110018312931E-003;
2.426500000000000E+009;1.216016188263893E-001;-1.042605936527252E-001;7.697233813814819E-004;-4.879045765846968E-003;
2.426666666666667E+009;1.206109449267387E-001;-1.056945547461510E-001;6.028795032761991E-004;-5.062528885900974E-003;
2.426833333333334E+009;1.194304153323174E-001;-1.071306392550468E-001;1.729310170048848E-004;-4.909172654151917E-003;
2.427000000000000E+009;1.182936131954193E-001;-1.086783185601234E-001;4.493721280596219E-005;-4.905438050627708E-003;
2.427166666666667E+009;1.173276826739311E-001;-1.101767420768738E-001;-2.077877870760858E-004;-4.802261013537645E-003;
2.427333333333334E+009;1.163816452026367E-001;-1.118638738989830E-001;-4.548738070297986E-004;-4.802015610039234E-003;
2.427500000000000E+009;1.156531050801277E-001;-1.135880500078201E-001;-4.784064367413521E-004;-4.660208709537983E-003;
2.427666666666667E+009;1.148793920874596E-001;-1.153938919305801E-001;-6.611911812797189E-004;-4.522070754319429E-003;
2.427833333333334E+009;1.143224313855171E-001;-1.170168966054916E-001;-9.151602280326188E-004;-4.494517110288143E-003;
