# Version 1.00
#
freq[Hz];re:Trc1_S11;im:Trc1_S11;re:Trc2_S21;im:Trc2_S21;
2.400000000000000E+009;1.687403470277786E-001;4.575165361166000E-002;-4.658549092710018E-003;-3.251169575378299E-003;
2.400166666666667E+009;1.698169708251953E-001;4.470407962799072E-002;-4.862973000854254E-003;-3.113618586212397E-003;
2.400333333333334E+009;1.707581579685211E-001;4.363432154059410E-002;-5.164925474673510E-003;-2.913395874202251E-003;
2.400500000000000E+009;1.717170178890228E-001;4.271862283349037E-002;-5.197774153202772E-003;-3.056663321331143E-003;
2.400666666666667E+009;1.725684404373169E-001;4.163513332605362E-002;-5.392364226281643E-003;-2.962029539048672E-003;
2.400833333333334E+009;1.736449450254440E-001;4.103644937276840E-002;-5.774621386080980E-003;-2.779503585770726E-003;
2.401000000000000E+009;1.743044406175613E-001;4.006749764084816E-002;-5.824859719723463E-003;-2.475589513778687E-003;
2.401166666666667E+009;1.751820743083954E-001;3.919167816638947E-002;-6.086871959269047E-003;-2.366920933127403E-003;
2.401333333333334E+009;1.758751869201660E-001;3.848865255713463E-002;-6.506683304905891E-003;-2.118648262694478E-003;
2.401500000000000E+009;1.766117215156555E-001;3.799505904316902E-002;-6.685486994683743E-003;-1.734391204081476E-003;
2.401666666666667E+009;1.772617697715759E-001;3.745958954095841E-002;-6.821775343269110E-003;-1.486374298110604E-003;
2.401833333333334E+009;1.779185235500336E-001;3.673073276877403E-002;-7.071672938764095E-003;-1.163340639322996E-003;
2.402000000000000E+009;1.781458556652069E-001;3.625294566154480E-002;-7.149413228034973E-003;-9.427582845091820E-004;
2.402166666666667E+009;1.786151826381683E-001;3.554235771298409E-002;-7.306275889277458E-003;-3.670196747407317E-004;
2.402333333333334E+009;1.789589375257492E-001;3.502523526549339E-002;-7.581023499369621E-003;-6.133629358373582E-005;
2.402500000000000E+009;1.794389486312866E-001;3.445329144597054E-002;-7.608396001160145E-003;4.531675367616117E-004;
2.402666666666667E+009;1.795464307069778E-001;3.396904096007347E-002;-7.707434706389904E-003;6.721599493175745E-004;
2.402833333333334E+009;1.797244101762772E-001;3.319365531206131E-002;-7.495563011616468E-003;1.328704645857215E-003;
2.403000000000000E+009;1.795819550752640E-001;3.236303851008415E-002;-7.403703872114420E-003;1.855244277976453E-003;
2.403166666666667E+009;1.796796768903732E-001;3.177770972251892E-002;-7.488543633371592E-003;2.242339076474309E-003;
2.403333333333334E+009;1.797558665275574E-001;3.097728826105595E-002;-7.248993031680584E-003;2.744942437857390E-003;
2.403500000000000E+009;1.794332414865494E-001;3.017862141132355E-002;-7.100338581949472E-003;3.207116387784481E-003;
2.403666666666667E+009;1.793306618928909E-001;2.898155897855759E-002;-6.883831229060888E-003;3.442947752773762E-003;
2.403833333333334E+009;1.789842396974564E-001;2.821985259652138E-002;-6.585317198187113E-003;3.834911156445742E-003;
2.404000000000000E+009;1.788110285997391E-001;2.710042521357536E-002;-6.346804555505514E-003;4.190896637737751E-003;
2.404166666666667E+009;1.783671230077744E-001;2.594282105565071E-002;-5.991114769130945E-003;4.553683567792177E-003;
2.404333333333334E+009;1.779231876134872E-001;2.472402527928352E-002;-5.659694783389568E-003;4.754893481731415E-003;
2.404500000000000E+009;1.771589815616608E-001;2.339162118732929E-002;-5.283791106194258E-003;5.128278397023678E-003;
2.404666666666667E+009;1.769492328166962E-001;2.191065624356270E-002;-4.984094761312008E-003;5.264318548142910E-003;
2.404833333333334E+009;1.763838976621628E-001;2.056011557579041E-002;-4.475966561585665E-003;5.508160684257746E-003;
2.405000000000000E+009;1.759572774171829E-001;1.906573027372360E-002;-4.049476701766253E-003;5.444092210382223E-003;
2.405166666666667E+009;1.754860281944275E-001;1.744564436376095E-002;-3.724168287590146E-003;5.621410440653563E-003;
2.405333333333334E+009;1.751250475645065E-001;1.571230776607990E-002;-3.404297167435288E-003;5.719890352338553E-003;
2.405500000000000E+009;1.745895147323608E-001;1.424744911491871E-002;-3.032844979315996E-003;5.705756600946188E-003;
2.405666666666667E+009;1.743665188550949E-001;1.262752525508404E-002;-2.515778876841068E-003;5.714300088584423E-003;
2.405833333333334E+009;1.738480031490326E-001;1.080379169434309E-002;-2.330215647816658E-003;5.588502157479525E-003;
2.406000000000000E+009;1.736025214195252E-001;8.806345984339714E-003;-1.980931265279651E-003;5.533090792596340E-003;
2.406166666666667E+009;1.732261478900909E-001;7.073512300848961E-003;-1.607981044799089E-003;5.420717410743237E-003;
2.406333333333334E+009;1.732605844736099E-001;5.099501460790634E-003;-1.532328082248569E-003;5.361367017030716E-003;
2.406500000000000E+009;1.730439066886902E-001;3.073698142543435E-003;-1.248080399818718E-003;5.340485367923975E-003;
2.406666666666667E+009;1.727826148271561E-001;1.044531236402690E-003;-1.106077921576798E-003;4.949210211634636E-003;
2.406833333333334E+009;1.728281527757645E-001;-1.010585110634565E-003;-8.470506290905178E-004;5.077227950096130E-003;
2.407000000000000E+009;1.730491966009140E-001;-3.068670863285661E-003;-6.301053799688816E-004;4.861207678914070E-003;
2.407166666666667E+009;1.730630546808243E-001;-5.133314989507198E-003;-5.804813117720187E-004;4.844062961637974E-003;
2.407333333333334E+009;1.731164306402206E-001;-7.476140279322863E-003;-5.263896891847253E-004;4.598109982907772E-003;
2.407500000000000E+009;1.733805984258652E-001;-9.443902410566807E-003;-4.134672053623945E-004;4.766276106238365E-003;
2.407666666666667E+009;1.737722605466843E-001;-1.158330775797367E-002;-2.227179211331531E-004;4.401386715471745E-003;
2.407833333333334E+009;1.738055199384689E-001;-1.382910739630461E-002;-1.203421634272672E-004;4.499086178839207E-003;
2.408000000000000E+009;1.742193847894669E-001;-1.585997827351093E-002;-8.708178938832134E-005;4.411979112774134E-003;
2.408166666666667E+009;1.746064424514771E-001;-1.790168322622776E-002;-1.694680686341599E-004;4.409190732985735E-003;
2.408333333333334E+009;1.751219630241394E-001;-1.984426379203796E-002;-1.019451228785329E-004;4.432237707078457E-003;
2.408500000000000E+009;1.755179315805435E-001;-2.194864302873612E-002;1.942196831805632E-004;4.503737669438124E-003;
2.408666666666667E+009;1.758875995874405E-001;-2.376560680568218E-002;2.347982081118971E-004;4.265788476914167E-003;
2.408833333333334E+009;1.762610971927643E-001;-2.567969262599945E-002;3.960291796829552E-004;4.267480690032244E-003;
2.409000000000000E+009;1.765272021293640E-001;-2.712808363139629E-002;5.874375929124653E-004;4.274588078260422E-003;
2.409166666666667E+009;1.769312173128128E-001;-2.877875231206417E-002;6.483899778686464E-004;4.174380097538233E-003;
2.409333333333334E+009;1.774003952741623E-001;-3.026671335101128E-002;8.500457042828202E-004;4.147836472839117E-003;
2.409500000000000E+009;1.778765022754669E-001;-3.173590451478958E-002;9.211223805323243E-004;4.063339438289404E-003;
2.409666666666667E+009;1.782200038433075E-001;-3.296162188053131E-002;9.556994191370904E-004;4.097884055227041E-003;
2.409833333333334E+009;1.785609424114227E-001;-3.405109420418739E-002;1.046144403517246E-003;3.984655253589153E-003;
2.410000000000000E+009;1.791195720434189E-001;-3.499739244580269E-002;1.188349211588502E-003;3.842682344838977E-003;
2.410166666666667E+009;1.794164031744003E-001;-3.590782731771469E-002;1.171414856798947E-003;3.712889039888978E-003;
2.410333333333334E+009;1.799636334180832E-001;-3.671160712838173E-002;1.334759755991399E-003;3.647688310593367E-003;
2.410500000000000E+009;1.803985685110092E-001;-3.759152069687843E-002;1.424403628334403E-003;3.613299224525690E-003;
2.410666666666667E+009;1.806001663208008E-001;-3.842632845044136E-002;1.452998723834753E-003;3.594865789636970E-003;
2.410833333333334E+009;1.810014247894287E-001;-3.884145990014076E-002;1.696705934591591E-003;3.456310834735632E-003;
2.411000000000000E+009;1.814639717340469E-001;-3.958487510681152E-002;1.701633678749204E-003;3.447148017585278E-003;
2.411166666666667E+009;1.814719587564468E-001;-4.007820785045624E-002;1.622705021873117E-003;3.417605999857187E-003;
2.411333333333334E+009;1.817414313554764E-001;-4.041419923305512E-002;1.654652412980795E-003;3.336888970807195E-003;
2.411500000000000E+009;1.816036552190781E-001;-4.115477204322815E-002;1.712345052510500E-003;3.266709158197045E-003;
2.411666666666667E+009;1.818242818117142E-001;-4.141304641962051E-002;1.840328797698021E-003;3.189734183251858E-003;
2.411833333333334E+009;1.818127185106278E-001;-4.188471660017967E-002;1.874398323707283E-003;3.101703943684697E-003;
2.412000000000000E+009;1.814209818840027E-001;-4.225921630859375E-002;1.948615070432425E-003;3.133934689685702E-003;
2.412166666666667E+009;1.811420321464539E-001;-4.273295029997826E-002;2.037997590377927E-003;3.094811923801899E-003;
2.412333333333334E+009;1.809904128313065E-001;-4.297707602381706E-002;2.020484767854214E-003;2.976887859404087E-003;
2.412500000000000E+009;1.803841143846512E-001;-4.326531663537026E-002;2.112466143444181E-003;3.011630848050118E-003;
2.412666666666667E+009;1.798009425401688E-001;-4.364273324608803E-002;2.171337138861418E-003;2.859119325876236E-003;
2.412833333333334E+009;1.792836636304855E-001;-4.412060976028442E-002;2.332538133487105E-003;2.583445049822331E-003;
2.413000000000000E+009;1.785600930452347E-001;-4.433019086718559E-002;2.319383900612593E-003;2.692463342100382E-003;
2.413166666666667E+009;1.776721179485321E-001;-4.490033537149429E-002;2.462398493662477E-003;2.613385673612356E-003;
2.413333333333334E+009;1.765638440847397E-001;-4.510967805981636E-002;2.311352407559753E-003;2.638677135109901E-003;
2.413500000000000E+009;1.756955981254578E-001;-4.560039937496185E-002;2.528544981032610E-003;2.581764012575150E-003;
2.413666666666667E+009;1.747734993696213E-001;-4.618038982152939E-002;2.561092376708984E-003;2.396025462076068E-003;
2.413833333333334E+009;1.735813915729523E-001;-4.683654010295868E-002;2.573678037151694E-003;2.516149077564478E-003;
2.414000000000000E+009;1.723936200141907E-001;-4.752470925450325E-002;2.791138365864754E-003;2.420922974124551E-003;
2.414166666666667E+009;1.712486594915390E-001;-4.815569147467613E-002;2.763951430097222E-003;2.185496734455228E-003;
2.414333333333334E+009;1.701157689094544E-001;-4.890201613306999E-002;2.862105146050453E-003;2.254437189549208E-003;
2.414500000000000E+009;1.691524386405945E-001;-4.970353841781616E-002;3.060963703319430E-003;2.028529299423099E-003;
2.414666666666667E+009;1.678638607263565E-001;-5.064360797405243E-002;3.140902379527688E-003;1.878747134469450E-003;
2.414833333333334E+009;1.666218787431717E-001;-5.161128938198090E-002;3.107953350991011E-003;1.723352237604559E-003;
2.415000000000000E+009;1.652336418628693E-001;-5.257449299097061E-002;3.250908106565476E-003;1.737326150760055E-003;
2.415166666666667E+009;1.641688346862793E-001;-5.391180515289307E-002;3.186924848705530E-003;1.468748669140041E-003;
2.415333333333334E+009;1.631190925836563E-001;-5.526011809706688E-002;3.269018372520804E-003;1.438621548004448E-003;
2.415500000000000E+009;1.618678122758865E-001;-5.652368068695068E-002;3.391938749700785E-003;1.459330203942955E-003;
2.415666666666667E+009;1.607192009687424E-001;-5.807894095778465E-002;3.224968444555998E-003;1.285079284571111E-003;
2.415833333333334E+009;1.597226858139038E-001;-5.950918421149254E-002;3.155538812279701E-003;1.013587112538517E-003;
2.416000000000000E+009;1.585569232702255E-001;-6.127438694238663E-002;3.131407778710127E-003;9.171256679110229E-004;
2.416166666666667E+009;1.577099710702896E-001;-6.294311583042145E-002;3.100376809015870E-003;8.531848434358835E-004;
2.416333333333334E+009;1.566347628831863E-001;-6.455590575933456E-002;3.085118252784014E-003;6.781293195672333E-004;
2.416500000000000E+009;1.557383239269257E-001;-6.648737192153931E-002;3.030373249202967E-003;6.095761200413108E-004;
2.416666666666667E+009;1.548125296831131E-001;-6.823371350765228E-002;2.884604269638658E-003;5.435906932689250E-004;
2.416833333333334E+009;1.541393399238586E-001;-7.029447704553604E-002;2.872544107958674E-003;5.104700685478747E-004;
2.417000000000000E+009;1.531510651111603E-001;-7.222758233547211E-002;2.809433499351144E-003;6.913469987921417E-004;
2.417166666666667E+009;1.525056362152100E-001;-7.406182587146759E-002;2.717571333050728E-003;3.475567209534347E-004;
2.417333333333334E+009;1.518891900777817E-001;-7.598285377025604E-002;2.790171420201659E-003;5.421842215582728E-004;
2.417500000000000E+009;1.513849645853043E-001;-7.810218632221222E-002;2.803050214424729E-003;4.154872149229050E-004;
2.417666666666667E+009;1.508668661117554E-001;-7.968920469284058E-002;2.783126663416624E-003;4.883770598098636E-004;
2.417833333333334E+009;1.505338549613953E-001;-8.151765167713165E-002;2.815466374158859E-003;4.285642935428768E-004;
2.418000000000000E+009;1.499734073877335E-001;-8.343423902988434E-002;2.911522984504700E-003;4.106210835743696E-004;
2.418166666666667E+009;1.497965008020401E-001;-8.489561080932617E-002;2.933355048298836E-003;3.635268076322973E-004;
2.418333333333334E+009;1.497492641210556E-001;-8.689780533313751E-002;2.842473564669490E-003;3.101905749645084E-004;
2.418500000000000E+009;1.495107114315033E-001;-8.832613378763199E-002;2.877866150811315E-003;2.070477348752320E-004;
2.418666666666667E+009;1.493641883134842E-001;-8.996631205081940E-002;2.978157717734575E-003;2.661125035956502E-004;
2.418833333333334E+009;1.491602063179016E-001;-9.140145778656006E-002;2.921421779319644E-003;3.191280848113820E-005;
2.419000000000000E+009;1.492115855216980E-001;-9.262765944004059E-002;3.043724223971367E-003;6.889124051667750E-006;
2.419166666666667E+009;1.493113189935684E-001;-9.384706616401672E-002;2.952545415610075E-003;-8.343913941644132E-005;
2.419333333333334E+009;1.493683010339737E-001;-9.468356519937515E-002;2.931431401520968E-003;-1.246458623427316E-006;
2.419500000000000E+009;1.495388001203537E-001;-9.598420560359955E-002;3.025294980034232E-003;-1.547531282994896E-004;
2.419666666666667E+009;1.498049497604370E-001;-9.696896374225617E-002;2.874017227441073E-003;-1.613012573216111E-004;
2.419833333333334E+009;1.498086452484131E-001;-9.753782302141190E-002;2.893595723435283E-003;-2.293287252541632E-004;
2.420000000000000E+009;1.503468602895737E-001;-9.813571721315384E-002;2.908434253185988E-003;-3.425424220040441E-004;
2.420166666666667E+009;1.505578607320786E-001;-9.887839108705521E-002;2.800042973831296E-003;-2.534752129577100E-004;
2.420333333333334E+009;1.508824825286865E-001;-9.937278926372528E-002;2.901363885030150E-003;-2.236695290775970E-004;
2.420500000000000E+009;1.512748897075653E-001;-9.951167553663254E-002;2.961676334962249E-003;-3.017755516339093E-004;
2.420666666666667E+009;1.513305008411408E-001;-9.980622678995132E-002;2.909744391217828E-003;-3.146825474686921E-004;
2.420833333333334E+009;1.516187191009522E-001;-9.998264908790588E-002;2.981650410220027E-003;-2.713704889174551E-004;
2.421000000000000E+009;1.518589854240418E-001;-1.001479178667069E-001;3.115513827651739E-003;-4.222209390718490E-004;
2.421166666666667E+009;1.521327197551727E-001;-1.002205535769463E-001;3.056341549381614E-003;-4.011232231277973E-004;
2.421333333333334E+009;1.524152904748917E-001;-1.002898514270783E-001;3.157998668029904E-003;-4.094906907994300E-004;
2.421500000000000E+009;1.524366140365601E-001;-1.000835672020912E-001;3.311476204544306E-003;-6.038485444150865E-004;
2.421666666666667E+009;1.525713503360748E-001;-1.000255122780800E-001;3.311679465696216E-003;-7.602811092510819E-004;
2.421833333333334E+009;1.524046659469605E-001;-9.974677860736847E-002;3.511309856548905E-003;-8.552257204428315E-004;
2.422000000000000E+009;1.523394137620926E-001;-9.973984956741333E-002;3.491112263873220E-003;-9.574026335030794E-004;
2.422166666666667E+009;1.522066891193390E-001;-9.942448139190674E-002;3.673349739983678E-003;-1.031241961754859E-003;
2.422333333333334E+009;1.516217738389969E-001;-9.928528219461441E-002;3.759357612580061E-003;-1.166943111456931E-003;
2.422500000000000E+009;1.511786133050919E-001;-9.888110309839249E-002;3.698524087667465E-003;-1.324664917774499E-003;
2.422666666666667E+009;1.505198180675507E-001;-9.874921292066574E-002;3.763880115002394E-003;-1.567771425470710E-003;
2.422833333333334E+009;1.499826610088348E-001;-9.846731275320053E-002;3.761712461709976E-003;-1.779067330062389E-003;
2.423000000000000E+009;1.491149961948395E-001;-9.808439016342163E-002;3.740030573680997E-003;-2.011028816923499E-003;
2.423166666666667E+009;1.481187939643860E-001;-9.761563688516617E-002;3.767462912946940E-003;-2.197922207415104E-003;
2.423333333333334E+009;1.473067551851273E-001;-9.728517383337021E-002;3.634844673797488E-003;-2.246305346488953E-003;
2.423500000000000E+009;1.462400555610657E-001;-9.700921922922134E-002;3.572342684492469E-003;-2.566337818279862E-003;
2.423666666666667E+009;1.449510902166367E-001;-9.674955159425736E-002;3.454214427620173E-003;-2.643019426614046E-003;
2.423833333333334E+009;1.437698900699616E-001;-9.655647724866867E-002;3.592242952436209E-003;-2.753228181973100E-003;
2.424000000000000E+009;1.423394083976746E-001;-9.626252204179764E-002;3.319836454465985E-003;-2.986331004649401E-003;
2.424166666666667E+009;1.410654932260513E-001;-9.605646878480911E-002;3.407915122807026E-003;-3.222612198442221E-003;
2.424333333333334E+009;1.397346258163452E-001;-9.597743302583695E-002;3.188251517713070E-003;-3.229007590562105E-003;
2.424500000000000E+009;1.383706629276276E-001;-9.613853693008423E-002;3.247224958613515E-003;-3.669602563604713E-003;
2.424666666666667E+009;1.370893567800522E-001;-9.599441289901733E-002;3.106361487880349E-003;-3.738153027370572E-003;
2.424833333333334E+009;1.354120969772339E-001;-9.632883220911026E-002;2.925395267084241E-003;-3.908835351467133E-003;
2.425000000000000E+009;1.340999305248261E-001;-9.668732434511185E-002;2.742491662502289E-003;-4.026363138109446E-003;
2.425166666666667E+009;1.323871314525604E-001;-9.702760726213455E-002;2.547656185925007E-003;-4.280002322047949E-003;
2.425333333333334E+009;1.309842765331268E-001;-9.749869257211685E-002;2.452697139233351E-003;-4.432874731719494E-003;
2.425500000000000E+009;1.295949071645737E-001;-9.820277243852615E-002;2.239735331386328E-003;-4.550492390990257E-003;
2.425666666666667E+009;1.281021088361740E-001;-9.890780597925186E-002;1.978962449356914E-003;-4.612956661731005E-003;
2.425833333333334E+009;1.266842931509018E-001;-9.979548305273056E-002;1.659457106143236E-003;-4.793772008270025E-003;
2.426000000000000E+009;1.254231780767441E-001;-1.007677987217903E-001;1.479786122217774E-003;-4.868211690336466E-003;
2.426166666666667E+009;1.241844445466995E-001;-1.019444763660431E-001;1.168608665466309E-003;-4.908076021820307E-003;
2.426333333333334E+009;1.227485239505768E-001;-1.030756607651711E-001;1.037852023728192E-003;-4.995183087885380E-003;
2.426500000000000E+009;1.215468123555183E-001;-1.042788326740265E-001;6.340984837152064E-004;-5.117891822010279E-003;
2.426666666666667E+009;1.205197274684906E-001;-1.056960672140122E-001;6.241527153179050E-004;-5.040090065449476E-003;
2.426833333333334E+009;1.193589642643929E-001;-1.070982366800308E-001;1.297705603064969E-004;-4.944081883877516E-003;
2.427000000000000E+009;1.183030977845192E-001;-1.088516861200333E-001;-1.510945639893180E-005;-4.954135976731777E-003;
2.427166666666667E+009;1.173681840300560E-001;-1.102102696895599E-001;-1.024322773446329E-004;-4.756431560963392E-003;
2.427333333333334E+009;1.163994222879410E-001;-1.119382083415985E-001;-3.346003359183669E-004;-4.747733939439058E-003;
2.427500000000000E+009;1.157351806759834E-001;-1.135733425617218E-001;-5.788615089841187E-004;-4.606370814144611E-003;
2.427666666666667E+009;1.148685738444328E-001;-1.152933016419411E-001;-7.533287280239165E-004;-4.586623981595039E-003;
2.427833333333334E+009;1.142201572656632E-001;-1.170656234025955E-001;-8.936364320106804E-004;-4.521001130342484E-003;
