# Version 1.00
#
freq[Hz];re:Trc1_S11;im:Trc1_S11;re:Trc2_S21;im:Trc2_S21;
2.400000000000000E+009;1.607562601566315E-001;5.674142017960548E-002;3.573845839127898E-003;3.357539651915431E-003;
2.400166666666667E+009;1.609241813421249E-001;5.515682324767113E-002;3.641120158135891E-003;3.257423173636198E-003;
2.400333333333334E+009;1.608140766620636E-001;5.331839621067047E-002;3.751103766262531E-003;3.220024285838008E-003;
2.400500000000000E+009;1.610239297151566E-001;5.175338312983513E-002;4.066982306540012E-003;3.080484922975302E-003;
2.400666666666667E+009;1.611205935478210E-001;4.975557699799538E-002;4.117493052035570E-003;2.972028451040387E-003;
2.400833333333334E+009;1.614014059305191E-001;4.814381524920464E-002;4.307231865823269E-003;2.981806639581919E-003;
2.401000000000000E+009;1.616143137216568E-001;4.609923809766769E-002;4.344092216342688E-003;2.804978052154183E-003;
2.401166666666667E+009;1.618612855672836E-001;4.433588683605194E-002;4.278115462511778E-003;2.687410451471806E-003;
2.401333333333334E+009;1.619664281606674E-001;4.239992797374725E-002;4.691251087933779E-003;2.647169400006533E-003;
2.401500000000000E+009;1.627102792263031E-001;4.051683843135834E-002;4.868790507316589E-003;2.607437316328287E-003;
2.401666666666667E+009;1.627193987369537E-001;3.879009187221527E-002;4.909897688776255E-003;2.444872399792075E-003;
2.401833333333334E+009;1.632043719291687E-001;3.692973405122757E-002;5.145423579961062E-003;2.179222879931331E-003;
2.402000000000000E+009;1.634529232978821E-001;3.513940051198006E-002;5.174546036869288E-003;2.006442286074162E-003;
2.402166666666667E+009;1.639785915613174E-001;3.350899368524551E-002;5.375677254050970E-003;1.809100504033268E-003;
2.402333333333334E+009;1.644914597272873E-001;3.171270713210106E-002;5.624910350888968E-003;1.694994629360735E-003;
2.402500000000000E+009;1.652691960334778E-001;3.018507733941078E-002;5.717039573937655E-003;1.304250676184893E-003;
2.402666666666667E+009;1.657832264900208E-001;2.871338836848736E-002;5.839614663273096E-003;1.183662214316428E-003;
2.402833333333334E+009;1.663774251937866E-001;2.714967168867588E-002;5.922021344304085E-003;9.319723467342556E-004;
2.403000000000000E+009;1.671243309974670E-001;2.581259794533253E-002;5.874210968613625E-003;8.774334564805031E-004;
2.403166666666667E+009;1.678007692098618E-001;2.433779090642929E-002;6.081663537770510E-003;4.673390940297395E-004;
2.403333333333334E+009;1.684925556182861E-001;2.314774878323078E-002;6.220615934580565E-003;2.856537757907063E-004;
2.403500000000000E+009;1.690679788589478E-001;2.184383571147919E-002;6.238630507141352E-003;-5.487863381858915E-005;
2.403666666666667E+009;1.699124127626419E-001;2.055875025689602E-002;6.384081207215786E-003;-4.034067096654326E-004;
2.403833333333334E+009;1.709109693765640E-001;1.930683851242065E-002;6.343715824186802E-003;-5.764599191024900E-004;
2.404000000000000E+009;1.714301109313965E-001;1.846906729042530E-002;6.193461827933788E-003;-1.012519351206720E-003;
2.404166666666667E+009;1.721127033233643E-001;1.726412773132324E-002;6.192222237586975E-003;-1.359772286377847E-003;
2.404333333333334E+009;1.728257685899735E-001;1.642175763845444E-002;6.169539410620928E-003;-1.555368537083268E-003;
2.404500000000000E+009;1.734021306037903E-001;1.546497922390699E-002;6.158119067549706E-003;-1.635516760870814E-003;
2.404666666666667E+009;1.741798520088196E-001;1.463767886161804E-002;5.935747176408768E-003;-2.230255398899317E-003;
2.404833333333334E+009;1.747794598340988E-001;1.397589594125748E-002;5.764909554272890E-003;-2.429014537483454E-003;
2.405000000000000E+009;1.755444258451462E-001;1.314175501465797E-002;5.689330864697695E-003;-2.704129321500659E-003;
2.405166666666667E+009;1.759346127510071E-001;1.256819069385529E-002;5.352745763957501E-003;-2.991136861965060E-003;
2.405333333333334E+009;1.764665842056274E-001;1.182303857058287E-002;5.203733686357737E-003;-3.025651210919023E-003;
2.405500000000000E+009;1.769868135452271E-001;1.150951813906431E-002;5.145436618477106E-003;-3.346942598000169E-003;
2.405666666666667E+009;1.773623824119568E-001;1.092062890529633E-002;4.839623346924782E-003;-3.595624817535281E-003;
2.405833333333334E+009;1.776234358549118E-001;1.059382874518633E-002;4.739987198263407E-003;-3.679927671328187E-003;
2.406000000000000E+009;1.779965758323669E-001;9.920454584062100E-003;4.345291294157505E-003;-3.944485448300839E-003;
2.406166666666667E+009;1.781213432550430E-001;9.705788455903530E-003;4.226157907396555E-003;-4.022230394184589E-003;
2.406333333333334E+009;1.785327196121216E-001;9.061251766979694E-003;4.077430814504623E-003;-4.038843326270580E-003;
2.406500000000000E+009;1.785207837820053E-001;8.778849616646767E-003;3.931203857064247E-003;-4.136480856686831E-003;
2.406666666666667E+009;1.785182058811188E-001;8.250419981777668E-003;3.666866570711136E-003;-4.503904841840267E-003;
2.406833333333334E+009;1.785429418087006E-001;7.814807817339897E-003;3.415460698306561E-003;-4.412035457789898E-003;
2.407000000000000E+009;1.785414665937424E-001;7.273335475474596E-003;3.309406805783510E-003;-4.469691775739193E-003;
2.407166666666667E+009;1.784075349569321E-001;6.907106842845678E-003;3.181315958499908E-003;-4.422716330736876E-003;
2.407333333333334E+009;1.781861484050751E-001;6.254390347748995E-003;2.932808361947537E-003;-4.553871694952250E-003;
2.407500000000000E+009;1.779618710279465E-001;5.673720501363277E-003;2.625925932079554E-003;-4.691633395850658E-003;
2.407666666666667E+009;1.776916682720184E-001;5.120048765093088E-003;2.429503481835127E-003;-4.721255041658878E-003;
2.407833333333334E+009;1.772849559783936E-001;4.315207246690989E-003;2.356131095439196E-003;-4.705392755568028E-003;
2.408000000000000E+009;1.770311444997788E-001;3.484791610389948E-003;2.142673125490546E-003;-4.553662147372961E-003;
2.408166666666667E+009;1.765571236610413E-001;2.973194932565093E-003;1.917898422107101E-003;-4.564418457448483E-003;
2.408333333333334E+009;1.762059032917023E-001;2.050092909485102E-003;1.768201589584351E-003;-4.577538464218378E-003;
2.408500000000000E+009;1.755264550447464E-001;1.013707951642573E-003;1.654272549785674E-003;-4.757985938340426E-003;
2.408666666666667E+009;1.749579906463623E-001;-1.298413990298286E-004;1.470223185606301E-003;-4.591361619532108E-003;
2.408833333333334E+009;1.743125468492508E-001;-1.117082079872489E-003;1.205877168104053E-003;-4.437839612364769E-003;
2.409000000000000E+009;1.737309098243713E-001;-2.220830414444208E-003;1.149089075624943E-003;-4.554782528430224E-003;
2.409166666666667E+009;1.731703728437424E-001;-3.434956772252917E-003;9.747266885824502E-004;-4.573943559080362E-003;
2.409333333333334E+009;1.727397590875626E-001;-4.710822366178036E-003;7.843229104764760E-004;-4.435419570654631E-003;
2.409500000000000E+009;1.720772683620453E-001;-6.227994803339243E-003;6.211677100509405E-004;-4.378842655569315E-003;
2.409666666666667E+009;1.716046035289764E-001;-7.563450373709202E-003;5.856864154338837E-004;-4.403146915137768E-003;
2.409833333333334E+009;1.709585189819336E-001;-9.091275744140148E-003;5.035356734879315E-004;-4.215041175484657E-003;
2.410000000000000E+009;1.706200540065765E-001;-1.067378837615252E-002;4.643408174160868E-004;-4.263591486960650E-003;
2.410166666666667E+009;1.700987815856934E-001;-1.221753470599651E-002;2.053282951237634E-004;-4.299733787775040E-003;
2.410333333333334E+009;1.695135682821274E-001;-1.378795504570007E-002;1.516524353064597E-004;-4.059934988617897E-003;
2.410500000000000E+009;1.691966354846954E-001;-1.560112833976746E-002;-6.409593333955854E-005;-4.069339483976364E-003;
2.410666666666667E+009;1.686742752790451E-001;-1.740895025432110E-002;4.775225170305930E-005;-3.989054821431637E-003;
2.410833333333334E+009;1.685850471258164E-001;-1.908417791128159E-002;-8.725781663088128E-005;-3.977987449616194E-003;
2.411000000000000E+009;1.682152897119522E-001;-2.084457129240036E-002;6.191850843606517E-006;-3.944676369428635E-003;
2.411166666666667E+009;1.681309044361115E-001;-2.270191721618176E-002;-1.427133156539640E-005;-3.795610740780830E-003;
2.411333333333334E+009;1.678963750600815E-001;-2.446610853075981E-002;-2.144794052583166E-005;-3.917590249329805E-003;
2.411500000000000E+009;1.678235530853272E-001;-2.664495073258877E-002;-1.421267224941403E-004;-3.811722388491035E-003;
2.411666666666667E+009;1.679424792528153E-001;-2.826467901468277E-002;-2.175182453356683E-004;-3.844856517389417E-003;
2.411833333333334E+009;1.678804159164429E-001;-3.014039807021618E-002;-2.778359048534185E-004;-3.920507617294788E-003;
2.412000000000000E+009;1.681607961654663E-001;-3.215394541621208E-002;-3.987776581197977E-004;-4.030783195048571E-003;
2.412166666666667E+009;1.682211011648178E-001;-3.380677103996277E-002;-3.342222771607339E-004;-4.002568311989307E-003;
2.412333333333334E+009;1.686746329069138E-001;-3.560785949230194E-002;-3.928195510525256E-004;-4.017131403088570E-003;
2.412500000000000E+009;1.687948852777481E-001;-3.744827210903168E-002;-4.971051821485162E-004;-3.970159683376551E-003;
2.412666666666667E+009;1.692528277635574E-001;-3.931435197591782E-002;-5.433493060991168E-004;-4.067236091941595E-003;
2.412833333333334E+009;1.695378720760346E-001;-4.101803153753281E-002;-7.004783838056028E-004;-4.036161582916975E-003;
2.413000000000000E+009;1.699464470148087E-001;-4.268142580986023E-002;-8.179922006092966E-004;-4.074741620570421E-003;
2.413166666666667E+009;1.702853143215179E-001;-4.443818330764771E-002;-9.197744657285512E-004;-4.007088486105204E-003;
2.413333333333334E+009;1.705861240625382E-001;-4.587637260556221E-002;-1.068915938958526E-003;-4.202605690807104E-003;
2.413500000000000E+009;1.711741238832474E-001;-4.739880934357643E-002;-1.181455678306520E-003;-4.135557450354099E-003;
2.413666666666667E+009;1.716098785400391E-001;-4.868042841553688E-002;-1.224295119754970E-003;-4.199745599180460E-003;
2.413833333333334E+009;1.722237765789032E-001;-4.999380931258202E-002;-1.492899260483682E-003;-4.129470326006413E-003;
2.414000000000000E+009;1.725982725620270E-001;-5.126857385039330E-002;-1.688537769950926E-003;-4.063688684254885E-003;
2.414166666666667E+009;1.732476204633713E-001;-5.244268849492073E-002;-1.750165130943060E-003;-4.198645241558552E-003;
2.414333333333334E+009;1.735479384660721E-001;-5.362689122557640E-002;-1.922917901538312E-003;-4.177821334451437E-003;
2.414500000000000E+009;1.743325293064117E-001;-5.454078316688538E-002;-2.116098767146468E-003;-3.914661239832640E-003;
2.414666666666667E+009;1.746863424777985E-001;-5.543913319706917E-002;-1.992331119254232E-003;-3.970556426793337E-003;
2.414833333333334E+009;1.749152392148972E-001;-5.639400333166122E-002;-2.250020857900381E-003;-3.772583790123463E-003;
2.415000000000000E+009;1.753920465707779E-001;-5.703328177332878E-002;-2.379480982199311E-003;-3.976997453719378E-003;
2.415166666666667E+009;1.756584346294403E-001;-5.785286799073219E-002;-2.597467275336385E-003;-3.905207151547074E-003;
2.415333333333334E+009;1.759788095951080E-001;-5.854211747646332E-002;-2.827372401952744E-003;-3.838304430246353E-003;
2.415500000000000E+009;1.762209385633469E-001;-5.896009504795075E-002;-2.885683439671993E-003;-3.656060434877873E-003;
2.415666666666667E+009;1.764069050550461E-001;-5.954295396804810E-002;-3.020947333425283E-003;-3.638135734945536E-003;
2.415833333333334E+009;1.766280382871628E-001;-6.003969907760620E-002;-3.326385049149394E-003;-3.491579787805677E-003;
2.416000000000000E+009;1.765387654304504E-001;-6.040672585368156E-002;-3.309077117592096E-003;-3.469701623544097E-003;
2.416166666666667E+009;1.767054349184036E-001;-6.054757535457611E-002;-3.423134097829461E-003;-3.219207050278783E-003;
2.416333333333334E+009;1.765067577362061E-001;-6.094266474246979E-002;-3.629122860729694E-003;-3.173565724864602E-003;
2.416500000000000E+009;1.763722747564316E-001;-6.132866069674492E-002;-3.671489888802171E-003;-2.958480501547456E-003;
2.416666666666667E+009;1.760116964578629E-001;-6.146907433867455E-002;-3.810548689216375E-003;-2.705825259909034E-003;
2.416833333333334E+009;1.757325977087021E-001;-6.189095228910446E-002;-3.873753594234586E-003;-2.735978923738003E-003;
2.417000000000000E+009;1.751947104930878E-001;-6.216377019882202E-002;-3.928726539015770E-003;-2.577740931883454E-003;
2.417166666666667E+009;1.746911108493805E-001;-6.228823587298393E-002;-4.109696485102177E-003;-2.379280282184482E-003;
2.417333333333334E+009;1.741173863410950E-001;-6.241908669471741E-002;-4.052829463034868E-003;-2.210655715316534E-003;
2.417500000000000E+009;1.735103726387024E-001;-6.292920559644699E-002;-4.159579519182444E-003;-2.016850281506777E-003;
2.417666666666667E+009;1.728329211473465E-001;-6.309220194816589E-002;-4.168689716607332E-003;-1.896525849588215E-003;
2.417833333333334E+009;1.719480752944946E-001;-6.331750750541687E-002;-4.246063064783812E-003;-1.661719405092299E-003;
2.418000000000000E+009;1.708581000566483E-001;-6.372476369142532E-002;-4.260614980012178E-003;-1.511416165158153E-003;
2.418166666666667E+009;1.697911024093628E-001;-6.399089097976685E-002;-4.231724888086319E-003;-1.502095256000757E-003;
2.418333333333334E+009;1.690835505723953E-001;-6.446304917335510E-002;-4.284527618438005E-003;-1.378524699248374E-003;
2.418500000000000E+009;1.678568124771118E-001;-6.498146802186966E-002;-4.223961848765612E-003;-1.060070120729506E-003;
2.418666666666667E+009;1.669588088989258E-001;-6.545786559581757E-002;-4.289212636649609E-003;-1.062649302184582E-003;
2.418833333333334E+009;1.656420081853867E-001;-6.607683002948761E-002;-4.299791995435953E-003;-8.858792716637254E-004;
2.419000000000000E+009;1.644507348537445E-001;-6.661405414342880E-002;-4.277455154806376E-003;-7.389071979559958E-004;
2.419166666666667E+009;1.632116436958313E-001;-6.740512698888779E-002;-4.230489954352379E-003;-6.621380452997983E-004;
2.419333333333334E+009;1.619077473878861E-001;-6.789965182542801E-002;-4.279229789972305E-003;-6.032546516507864E-004;
2.419500000000000E+009;1.608641147613525E-001;-6.897658109664917E-002;-4.319714382290840E-003;-4.060052160639316E-004;
2.419666666666667E+009;1.597709506750107E-001;-6.988857686519623E-002;-4.046393558382988E-003;-3.077254805248231E-004;
2.419833333333334E+009;1.584931463003159E-001;-7.071455568075180E-002;-4.260144196450710E-003;-2.329163980903104E-004;
2.420000000000000E+009;1.575135290622711E-001;-7.177362591028214E-002;-4.098210483789444E-003;-1.142525870818645E-004;
2.420166666666667E+009;1.563101261854172E-001;-7.296606898307800E-002;-4.200375638902187E-003;9.252242307411507E-005;
2.420333333333334E+009;1.552284061908722E-001;-7.419863343238831E-002;-4.289044998586178E-003;8.065401925705373E-005;
2.420500000000000E+009;1.542526036500931E-001;-7.526552677154541E-002;-4.202295094728470E-003;3.310173342470080E-004;
2.420666666666667E+009;1.531185656785965E-001;-7.654041051864624E-002;-4.150555934756994E-003;2.964430896099657E-004;
2.420833333333334E+009;1.522606462240219E-001;-7.789368927478790E-002;-4.261288326233625E-003;5.352286971174181E-004;
2.421000000000000E+009;1.513093113899231E-001;-7.944495230913162E-002;-4.159736447036266E-003;6.032759556546807E-004;
2.421166666666667E+009;1.506594866514206E-001;-8.102363348007202E-002;-4.161457531154156E-003;6.794169894419611E-004;
2.421333333333334E+009;1.501002013683319E-001;-8.252540975809097E-002;-4.161435645073652E-003;8.501798147335649E-004;
2.421500000000000E+009;1.490865200757980E-001;-8.403807878494263E-002;-4.135970957577229E-003;9.774896316230297E-004;
2.421666666666667E+009;1.486925184726715E-001;-8.565459400415421E-002;-4.137308802455664E-003;9.973820997402072E-004;
2.421833333333334E+009;1.482859402894974E-001;-8.722175657749176E-002;-3.974857740104199E-003;1.241825404576957E-003;
2.422000000000000E+009;1.477802693843842E-001;-8.898054063320160E-002;-3.840772202238441E-003;1.272727269679308E-003;
2.422166666666667E+009;1.474619507789612E-001;-9.077555686235428E-002;-3.962480463087559E-003;1.443839981220663E-003;
2.422333333333334E+009;1.472060233354569E-001;-9.235296398401260E-002;-3.964208997786045E-003;1.509916619397700E-003;
2.422500000000000E+009;1.470605134963989E-001;-9.390237927436829E-002;-3.720722859725356E-003;1.542788464576006E-003;
2.422666666666667E+009;1.468446850776672E-001;-9.576986730098724E-002;-3.681821050122380E-003;1.672026701271534E-003;
2.422833333333334E+009;1.467427760362625E-001;-9.751728922128677E-002;-3.550184890627861E-003;1.738788210786879E-003;
2.423000000000000E+009;1.468262523412705E-001;-9.928505867719650E-002;-3.432002617046237E-003;1.780666760168970E-003;
2.423166666666667E+009;1.471541225910187E-001;-1.007647588849068E-001;-3.371415892615914E-003;2.065843902528286E-003;
2.423333333333334E+009;1.473392099142075E-001;-1.023477539420128E-001;-3.320447634905577E-003;2.138645388185978E-003;
2.423500000000000E+009;1.473206877708435E-001;-1.038320660591126E-001;-3.281038487330079E-003;2.214186126366258E-003;
2.423666666666667E+009;1.473656594753265E-001;-1.054078415036202E-001;-3.314509056508541E-003;2.261194866150618E-003;
2.423833333333334E+009;1.478013545274735E-001;-1.067868471145630E-001;-3.191877854987979E-003;2.293355762958527E-003;
2.424000000000000E+009;1.480537503957748E-001;-1.080827862024307E-001;-3.028389299288392E-003;2.692439127713442E-003;
2.424166666666667E+009;1.483410149812698E-001;-1.095484346151352E-001;-2.888193121179938E-003;2.456348156556487E-003;
2.424333333333334E+009;1.487831771373749E-001;-1.107124611735344E-001;-2.948648529127240E-003;2.650538925081492E-003;
2.424500000000000E+009;1.491353362798691E-001;-1.119095683097839E-001;-2.840562723577023E-003;2.653699601069093E-003;
2.424666666666667E+009;1.497002840042114E-001;-1.128108128905296E-001;-2.863275352865458E-003;2.681928919628263E-003;
2.424833333333334E+009;1.498619914054871E-001;-1.139589175581932E-001;-2.589435083791614E-003;2.902278443798423E-003;
2.425000000000000E+009;1.502391248941422E-001;-1.148817911744118E-001;-2.495899097993970E-003;2.776019973680377E-003;
2.425166666666667E+009;1.504701822996140E-001;-1.156651079654694E-001;-2.484249882400036E-003;2.970087341964245E-003;
2.425333333333334E+009;1.507813930511475E-001;-1.166361644864082E-001;-2.387117594480515E-003;3.123377449810505E-003;
2.425500000000000E+009;1.511277854442596E-001;-1.172712445259094E-001;-2.206092467531562E-003;3.052658168599010E-003;
2.425666666666667E+009;1.513342410326004E-001;-1.179336830973625E-001;-2.113075228407979E-003;3.112992970272899E-003;
2.425833333333334E+009;1.514749675989151E-001;-1.185251101851463E-001;-2.098032739013434E-003;3.213592804968357E-003;
2.426000000000000E+009;1.516257971525192E-001;-1.191200688481331E-001;-1.935738720931113E-003;3.173940116539598E-003;
2.426166666666667E+009;1.519229859113693E-001;-1.195706874132156E-001;-1.771596726030111E-003;3.172502387315035E-003;
2.426333333333334E+009;1.517428904771805E-001;-1.199066415429115E-001;-1.592418993823230E-003;3.325205529108644E-003;
2.426500000000000E+009;1.518249660730362E-001;-1.202095374464989E-001;-1.514842850156128E-003;3.291361499577761E-003;
2.426666666666667E+009;1.517922133207321E-001;-1.203227341175079E-001;-1.550031476654112E-003;3.383491188287735E-003;
2.426833333333334E+009;1.514138728380203E-001;-1.206720024347305E-001;-1.331649837084115E-003;3.340955590829253E-003;
2.427000000000000E+009;1.511794179677963E-001;-1.208916455507278E-001;-1.241548685356975E-003;3.448376432061195E-003;
2.427166666666667E+009;1.507765352725983E-001;-1.209630370140076E-001;-1.030501443892717E-003;3.373822662979364E-003;
2.427333333333334E+009;1.503132283687592E-001;-1.211094856262207E-001;-1.068924553692341E-003;3.530912334099412E-003;
2.427500000000000E+009;1.499293297529221E-001;-1.212335750460625E-001;-8.163948659785092E-004;3.403700189664960E-003;
2.427666666666667E+009;1.493477672338486E-001;-1.215197667479515E-001;-7.328446954488754E-004;3.360048634931445E-003;
