# Version 1.00
#
freq[Hz];re:Trc1_S11;im:Trc1_S11;re:Trc2_S21;im:Trc2_S21;
2.400000000000000E+009;1.606414914131165E-001;5.663330852985382E-002;3.628767793998122E-003;3.397921100258827E-003;
2.400166666666667E+009;1.608777642250061E-001;5.526076629757881E-002;3.818370867520571E-003;3.244226099923253E-003;
2.400333333333334E+009;1.609009057283402E-001;5.345750227570534E-002;3.976846579462290E-003;3.191360970959067E-003;
2.400500000000000E+009;1.611288338899612E-001;5.160795524716377E-002;3.906234866008163E-003;3.147472161799669E-003;
2.400666666666667E+009;1.611897945404053E-001;4.996366053819656E-002;4.086111672222614E-003;2.972918096929789E-003;
2.400833333333334E+009;1.613144278526306E-001;4.806195944547653E-002;4.209131468087435E-003;3.063141601160169E-003;
2.401000000000000E+009;1.615810394287109E-001;4.613785073161125E-002;4.376477096229792E-003;2.980564953759313E-003;
2.401166666666667E+009;1.618389785289764E-001;4.415548220276833E-002;4.425850696861744E-003;2.780652837827802E-003;
2.401333333333334E+009;1.618855595588684E-001;4.232287779450417E-002;4.707738757133484E-003;2.708428073674440E-003;
2.401500000000000E+009;1.624705344438553E-001;4.051132872700691E-002;4.867106210440397E-003;2.582611050456762E-003;
2.401666666666667E+009;1.628214120864868E-001;3.888895735144615E-002;5.008182488381863E-003;2.503412542864680E-003;
2.401833333333334E+009;1.631586998701096E-001;3.690241277217865E-002;5.114600062370300E-003;2.424963517114520E-003;
2.402000000000000E+009;1.635745614767075E-001;3.511508926749229E-002;5.226739216595888E-003;2.107607666403055E-003;
2.402166666666667E+009;1.640887558460236E-001;3.338214755058289E-002;5.422666668891907E-003;1.958114095032215E-003;
2.402333333333334E+009;1.644836813211441E-001;3.183537721633911E-002;5.518837366253138E-003;1.580307725816965E-003;
2.402500000000000E+009;1.653924137353897E-001;3.016952611505985E-002;5.648691207170487E-003;1.474722521379590E-003;
2.402666666666667E+009;1.657889932394028E-001;2.875597402453423E-002;5.877474788576365E-003;1.270640408620238E-003;
2.402833333333334E+009;1.664108484983444E-001;2.715066820383072E-002;5.944713018834591E-003;1.147266826592386E-003;
2.403000000000000E+009;1.670332849025726E-001;2.559522725641727E-002;6.137045100331307E-003;6.876943516544998E-004;
2.403166666666667E+009;1.676938086748123E-001;2.424752153456211E-002;6.212640553712845E-003;6.013847887516022E-004;
2.403333333333334E+009;1.685936748981476E-001;2.312746457755566E-002;6.133143324404955E-003;2.315044839633629E-004;
2.403500000000000E+009;1.692744195461273E-001;2.190543152391911E-002;6.218899972736836E-003;-8.557180990464985E-005;
2.403666666666667E+009;1.698244363069534E-001;2.060486935079098E-002;6.302037741988897E-003;-4.119089280720800E-004;
2.403833333333334E+009;1.706910431385040E-001;1.934635452926159E-002;6.213721353560686E-003;-6.945888162590563E-004;
2.404000000000000E+009;1.714535504579544E-001;1.840182393789291E-002;6.344964262098074E-003;-9.877838892862201E-004;
2.404166666666667E+009;1.721904575824738E-001;1.738455332815647E-002;6.182067561894655E-003;-1.097363652661443E-003;
2.404333333333334E+009;1.728549599647522E-001;1.639294065535069E-002;6.167097482830286E-003;-1.546729705296457E-003;
2.404500000000000E+009;1.734109371900559E-001;1.541999261826277E-002;6.077332887798548E-003;-1.950324745848775E-003;
2.404666666666667E+009;1.740020215511322E-001;1.471241563558579E-002;5.963157862424851E-003;-2.260734327137470E-003;
2.404833333333334E+009;1.748380661010742E-001;1.385576650500298E-002;5.889026448130608E-003;-2.439910313114524E-003;
2.405000000000000E+009;1.753665208816528E-001;1.330601517111063E-002;5.820297636091709E-003;-2.649118192493916E-003;
2.405166666666667E+009;1.758756339550018E-001;1.260895747691393E-002;5.608557723462582E-003;-2.997431671246886E-003;
2.405333333333334E+009;1.765597313642502E-001;1.184992026537657E-002;5.292311310768127E-003;-3.189999377354980E-003;
2.405500000000000E+009;1.768988966941834E-001;1.146318390965462E-002;5.005314946174622E-003;-3.348566358909011E-003;
2.405666666666667E+009;1.773860603570938E-001;1.088306214660406E-002;5.077640991657972E-003;-3.541880520060659E-003;
2.405833333333334E+009;1.776639223098755E-001;1.033503003418446E-002;4.670437891036272E-003;-3.684476716443896E-003;
2.406000000000000E+009;1.779800802469254E-001;1.006464846432209E-002;4.412028007209301E-003;-3.904827870428562E-003;
2.406166666666667E+009;1.781733632087708E-001;9.495360776782036E-003;4.276989959180355E-003;-3.871935186907649E-003;
2.406333333333334E+009;1.783292293548584E-001;9.187054820358753E-003;4.153846297413111E-003;-4.126143176108599E-003;
2.406500000000000E+009;1.786268651485443E-001;8.692387491464615E-003;4.071800969541073E-003;-4.252620507031679E-003;
2.406666666666667E+009;1.782757341861725E-001;8.428058587014675E-003;3.510202048346400E-003;-4.408433567732573E-003;
2.406833333333334E+009;1.785327494144440E-001;7.919891737401485E-003;3.677567001432180E-003;-4.402848891913891E-003;
2.407000000000000E+009;1.784328073263168E-001;7.399007212370634E-003;3.393030725419521E-003;-4.450488369911909E-003;
2.407166666666667E+009;1.784998923540115E-001;7.021147757768631E-003;3.132440848276019E-003;-4.400740377604961E-003;
2.407333333333334E+009;1.782468855381012E-001;6.339290644973517E-003;2.752177650108933E-003;-4.648119211196899E-003;
2.407500000000000E+009;1.779826432466507E-001;5.786337889730930E-003;2.842831891030073E-003;-4.590810276567936E-003;
2.407666666666667E+009;1.777198165655136E-001;5.234712269157171E-003;2.477795118466020E-003;-4.677421879023314E-003;
2.407833333333334E+009;1.771271377801895E-001;4.353596363216639E-003;2.418806776404381E-003;-4.626301117241383E-003;
2.408000000000000E+009;1.768418103456497E-001;3.600993426516652E-003;2.159803407266736E-003;-4.696430638432503E-003;
2.408166666666667E+009;1.763965934514999E-001;2.964530372992158E-003;1.880614901892841E-003;-4.905680660158396E-003;
2.408333333333334E+009;1.761492937803268E-001;2.032128162682056E-003;1.680173212662339E-003;-4.580772947520018E-003;
2.408500000000000E+009;1.754940003156662E-001;1.105558709241450E-003;1.536015188321471E-003;-4.748278763145208E-003;
2.408666666666667E+009;1.749654114246368E-001;9.046991181094199E-005;1.483324333094060E-003;-4.838498309254646E-003;
2.408833333333334E+009;1.743002235889435E-001;-1.080430229194462E-003;1.250396831892431E-003;-4.634581506252289E-003;
2.409000000000000E+009;1.736685186624527E-001;-2.103686565533280E-003;1.288219471462071E-003;-4.641906823962927E-003;
2.409166666666667E+009;1.732628792524338E-001;-3.410427831113339E-003;1.019847812131047E-003;-4.636972211301327E-003;
2.409333333333334E+009;1.728108376264572E-001;-4.794952459633350E-003;9.025190374813974E-004;-4.567815456539393E-003;
2.409500000000000E+009;1.721531152725220E-001;-6.385544780641794E-003;5.457302904687822E-004;-4.590540193021298E-003;
2.409666666666667E+009;1.714799851179123E-001;-7.554126903414726E-003;5.767269758507609E-004;-4.559436812996864E-003;
2.409833333333334E+009;1.708855926990509E-001;-8.981798775494099E-003;4.432272398844361E-004;-4.242158029228449E-003;
2.410000000000000E+009;1.704167276620865E-001;-1.055582240223885E-002;3.788429021369666E-004;-4.258405417203903E-003;
2.410166666666667E+009;1.700392514467239E-001;-1.219382509589195E-002;2.199060545535758E-004;-4.218921996653080E-003;
2.410333333333334E+009;1.695116758346558E-001;-1.381651591509581E-002;1.829990360420197E-004;-4.166680388152599E-003;
2.410500000000000E+009;1.691985279321671E-001;-1.560411415994167E-002;1.986752322409302E-004;-4.006493836641312E-003;
2.410666666666667E+009;1.686823517084122E-001;-1.750400662422180E-002;-5.492111813509837E-005;-4.012410528957844E-003;
2.410833333333334E+009;1.685086786746979E-001;-1.904713548719883E-002;1.321161689702421E-004;-3.832977730780840E-003;
2.411000000000000E+009;1.681261211633682E-001;-2.097946964204311E-002;7.819254824426025E-005;-3.991303499788046E-003;
2.411166666666667E+009;1.681415289640427E-001;-2.263559959828854E-002;-2.298173640156165E-004;-3.887672675773501E-003;
2.411333333333334E+009;1.679123491048813E-001;-2.449512295424938E-002;-1.359331799903885E-004;-3.870701882988215E-003;
2.411500000000000E+009;1.678933203220367E-001;-2.642049454152584E-002;-1.143311528721824E-004;-3.924353513866663E-003;
2.411666666666667E+009;1.679599732160568E-001;-2.826368249952793E-002;-1.379081950290129E-004;-3.931605722755194E-003;
2.411833333333334E+009;1.677786707878113E-001;-3.016230836510658E-002;-1.741737651173025E-004;-4.037594422698021E-003;
2.412000000000000E+009;1.680992394685745E-001;-3.209552541375160E-002;-3.213279414921999E-004;-3.967390861362219E-003;
2.412166666666667E+009;1.682544350624085E-001;-3.384161368012428E-002;-3.490202943794429E-004;-3.965878859162331E-003;
2.412333333333334E+009;1.685531139373779E-001;-3.555023670196533E-002;-5.119270645081997E-004;-4.081742372363806E-003;
2.412500000000000E+009;1.686645448207855E-001;-3.745516762137413E-002;-3.377745742909610E-004;-4.015163052827120E-003;
2.412666666666667E+009;1.691207885742188E-001;-3.916189447045326E-002;-5.362735828384757E-004;-4.057999700307846E-003;
2.412833333333334E+009;1.695379465818405E-001;-4.094174876809120E-002;-6.969997193664312E-004;-4.016312304884195E-003;
2.413000000000000E+009;1.700045764446259E-001;-4.262858629226685E-002;-7.692527142353356E-004;-4.260013345628977E-003;
2.413166666666667E+009;1.703267395496368E-001;-4.427598044276238E-002;-1.007694751024246E-003;-4.138642456382513E-003;
2.413333333333334E+009;1.706509888172150E-001;-4.579608142375946E-002;-1.111879479140043E-003;-4.170245956629515E-003;
2.413500000000000E+009;1.710819154977799E-001;-4.730549827218056E-002;-1.186548150144517E-003;-4.150258842855692E-003;
2.413666666666667E+009;1.717912554740906E-001;-4.875132068991661E-002;-1.419060165062547E-003;-4.248842597007752E-003;
2.413833333333334E+009;1.721603572368622E-001;-5.010394006967545E-002;-1.553438021801412E-003;-4.112647846341133E-003;
2.414000000000000E+009;1.725885421037674E-001;-5.137083306908608E-002;-1.634465646930039E-003;-4.162508063018322E-003;
2.414166666666667E+009;1.731068342924118E-001;-5.239483341574669E-002;-1.757009304128587E-003;-4.138513002544642E-003;
2.414333333333334E+009;1.735471636056900E-001;-5.345783755183220E-002;-1.965434756129980E-003;-4.052085336297751E-003;
2.414500000000000E+009;1.742310971021652E-001;-5.460226535797119E-002;-2.068042755126953E-003;-4.322618711739779E-003;
2.414666666666667E+009;1.744862645864487E-001;-5.556495487689972E-002;-2.244469709694386E-003;-4.049273673444986E-003;
2.414833333333334E+009;1.749383062124252E-001;-5.640600994229317E-002;-2.384530613198876E-003;-3.896167967468500E-003;
2.415000000000000E+009;1.751549541950226E-001;-5.710576102137566E-002;-2.457264810800552E-003;-3.893886227160692E-003;
2.415166666666667E+009;1.756158769130707E-001;-5.787491798400879E-002;-2.757230540737510E-003;-3.893972374498844E-003;
2.415333333333334E+009;1.760162115097046E-001;-5.844796448945999E-002;-2.809087047353387E-003;-3.775548189878464E-003;
2.415500000000000E+009;1.762427091598511E-001;-5.906356126070023E-002;-2.994353650137782E-003;-3.729770425707102E-003;
2.415666666666667E+009;1.763568520545960E-001;-5.944050475955010E-002;-3.069909987971187E-003;-3.586013102903962E-003;
2.415833333333334E+009;1.766341626644135E-001;-5.994370579719544E-002;-3.266677726060152E-003;-3.307404695078731E-003;
2.416000000000000E+009;1.764883249998093E-001;-6.040414050221443E-002;-3.375816624611616E-003;-3.402701811864972E-003;
2.416166666666667E+009;1.766139268875122E-001;-6.075599789619446E-002;-3.513150149956346E-003;-3.251821035519242E-003;
2.416333333333334E+009;1.765223890542984E-001;-6.093078851699829E-002;-3.595930058509111E-003;-3.030361607670784E-003;
2.416500000000000E+009;1.763436496257782E-001;-6.132764369249344E-002;-3.678301582112908E-003;-2.838987391442061E-003;
2.416666666666667E+009;1.760700792074204E-001;-6.145201995968819E-002;-3.913186956197023E-003;-2.908170223236084E-003;
2.416833333333334E+009;1.758031249046326E-001;-6.187296658754349E-002;-3.986835945397615E-003;-2.548912772908807E-003;
2.417000000000000E+009;1.750841140747070E-001;-6.216360256075859E-002;-3.984321840107441E-003;-2.365285763517022E-003;
2.417166666666667E+009;1.746996492147446E-001;-6.230439245700836E-002;-4.092745948582888E-003;-2.417778363451362E-003;
2.417333333333334E+009;1.739709079265595E-001;-6.254063546657562E-002;-4.131367895752192E-003;-2.080426318570972E-003;
2.417500000000000E+009;1.733746081590653E-001;-6.290899962186813E-002;-4.140310920774937E-003;-1.944047980941832E-003;
2.417666666666667E+009;1.727558225393295E-001;-6.302364170551300E-002;-4.268420394510031E-003;-1.929757185280323E-003;
2.417833333333334E+009;1.718572974205017E-001;-6.333161890506744E-002;-4.308511503040791E-003;-1.732969074510038E-003;
2.418000000000000E+009;1.708622127771378E-001;-6.384798139333725E-002;-4.328327719122171E-003;-1.543913385830820E-003;
2.418166666666667E+009;1.699829250574112E-001;-6.391799449920654E-002;-4.183076322078705E-003;-1.579738105647266E-003;
2.418333333333334E+009;1.691511124372482E-001;-6.452854722738266E-002;-4.286727868020535E-003;-1.162240165285766E-003;
2.418500000000000E+009;1.679401844739914E-001;-6.503758579492569E-002;-4.283748567104340E-003;-1.137022743932903E-003;
2.418666666666667E+009;1.669260114431381E-001;-6.549320369958878E-002;-4.270912148058415E-003;-9.289023582823575E-004;
2.418833333333334E+009;1.657170504331589E-001;-6.609373539686203E-002;-4.233610350638628E-003;-9.104015771299601E-004;
2.419000000000000E+009;1.644882112741470E-001;-6.666497886180878E-002;-4.334460012614727E-003;-8.167820633389056E-004;
2.419166666666667E+009;1.633308082818985E-001;-6.740844249725342E-002;-4.374893847852945E-003;-6.887057679705322E-004;
2.419333333333334E+009;1.618971228599548E-001;-6.808098405599594E-002;-4.282020963728428E-003;-5.094561493024230E-004;
2.419500000000000E+009;1.609003096818924E-001;-6.898514926433563E-002;-4.335589706897736E-003;-2.852171892300248E-004;
2.419666666666667E+009;1.596942842006683E-001;-7.000564783811569E-002;-4.182884003967047E-003;-2.170891384594142E-004;
2.419833333333334E+009;1.584782451391220E-001;-7.069043070077896E-002;-4.248343408107758E-003;-1.821257174015045E-004;
2.420000000000000E+009;1.573831737041473E-001;-7.179660350084305E-002;-4.171793349087238E-003;3.821286736638285E-005;
2.420166666666667E+009;1.563516408205032E-001;-7.294838875532150E-002;-4.268582444638014E-003;1.785088970791549E-004;
2.420333333333334E+009;1.552233248949051E-001;-7.426737248897553E-002;-4.167744424194098E-003;2.612634561955929E-004;
2.420500000000000E+009;1.541242450475693E-001;-7.535874098539352E-002;-4.161300137639046E-003;3.325864963699132E-004;
2.420666666666667E+009;1.532747000455856E-001;-7.667424529790878E-002;-4.175726324319840E-003;5.003550904802978E-004;
2.420833333333334E+009;1.522358804941177E-001;-7.808645814657211E-002;-4.100901074707508E-003;4.715299000963569E-004;
2.421000000000000E+009;1.513191610574722E-001;-7.961921393871307E-002;-4.072695504873991E-003;7.458658656105399E-004;
2.421166666666667E+009;1.506736725568771E-001;-8.119911700487137E-002;-4.117137286812067E-003;7.331572705879808E-004;
2.421333333333334E+009;1.499780416488648E-001;-8.263432234525681E-002;-4.025190602988005E-003;9.244196699000895E-004;
2.421500000000000E+009;1.492119580507278E-001;-8.408283442258835E-002;-3.994954284280539E-003;9.325441787950695E-004;
2.421666666666667E+009;1.486585438251495E-001;-8.573398739099503E-002;-3.755968296900392E-003;1.133532146923244E-003;
2.421833333333334E+009;1.482092887163162E-001;-8.743803948163986E-002;-3.877203911542893E-003;1.230375259183347E-003;
2.422000000000000E+009;1.476050764322281E-001;-8.908561617136002E-002;-3.833959577605128E-003;1.365159638226032E-003;
2.422166666666667E+009;1.472209393978119E-001;-9.089641273021698E-002;-3.706160467118025E-003;1.403858070261776E-003;
2.422333333333334E+009;1.470837444067001E-001;-9.246686100959778E-002;-3.722608089447022E-003;1.494851079769433E-003;
2.422500000000000E+009;1.468820273876190E-001;-9.400108456611633E-002;-3.714008955284953E-003;1.745423185639083E-003;
2.422666666666667E+009;1.467503309249878E-001;-9.589491039514542E-002;-3.600325901061297E-003;1.772581133991480E-003;
2.422833333333334E+009;1.468357592821121E-001;-9.755857288837433E-002;-3.652843181043863E-003;1.835141214542091E-003;
2.423000000000000E+009;1.467186957597733E-001;-9.913543611764908E-002;-3.417010884732008E-003;2.033242024481297E-003;
2.423166666666667E+009;1.468986421823502E-001;-1.006884127855301E-001;-3.333982778713107E-003;1.985096605494618E-003;
2.423333333333334E+009;1.469755172729492E-001;-1.022018864750862E-001;-3.241494530811906E-003;2.086838474497199E-003;
2.423500000000000E+009;1.473265290260315E-001;-1.037617251276970E-001;-3.258588258177042E-003;2.233924577012658E-003;
2.423666666666667E+009;1.474939584732056E-001;-1.052566543221474E-001;-3.169451840221882E-003;2.243460621684790E-003;
2.423833333333334E+009;1.478676050901413E-001;-1.067908480763435E-001;-3.123606555163860E-003;2.316033933311701E-003;
2.424000000000000E+009;1.479617208242416E-001;-1.080933809280396E-001;-2.882355591282249E-003;2.584919333457947E-003;
2.424166666666667E+009;1.482504457235336E-001;-1.094147637486458E-001;-2.950643654912710E-003;2.541973022744060E-003;
2.424333333333334E+009;1.488004773855209E-001;-1.105537340044975E-001;-2.850399119779468E-003;2.579178195446730E-003;
2.424500000000000E+009;1.491810679435730E-001;-1.118082776665688E-001;-2.660525031387806E-003;2.627315698191524E-003;
2.424666666666667E+009;1.495403945446014E-001;-1.128068864345551E-001;-2.733802422881126E-003;2.760340925306082E-003;
2.424833333333334E+009;1.499181091785431E-001;-1.138994768261910E-001;-2.555767307057977E-003;2.870968542993069E-003;
2.425000000000000E+009;1.502876877784729E-001;-1.149243488907814E-001;-2.467885613441467E-003;2.928387606516480E-003;
2.425166666666667E+009;1.504384428262711E-001;-1.158162429928780E-001;-2.282818546518683E-003;3.072096034884453E-003;
2.425333333333334E+009;1.507893502712250E-001;-1.164576783776283E-001;-2.332468982785940E-003;3.000722266733646E-003;
2.425500000000000E+009;1.511770784854889E-001;-1.173373982310295E-001;-2.156971720978618E-003;2.988216001540422E-003;
2.425666666666667E+009;1.513196229934692E-001;-1.178969517350197E-001;-2.200430026277900E-003;3.245846601203084E-003;
2.425833333333334E+009;1.514564752578735E-001;-1.184911876916885E-001;-2.008544746786356E-003;3.228565910831094E-003;
2.426000000000000E+009;1.515412032604218E-001;-1.190191805362701E-001;-1.761454739607871E-003;3.368161618709564E-003;
2.426166666666667E+009;1.518070250749588E-001;-1.195842921733856E-001;-1.749828341417015E-003;3.195684636011720E-003;
2.426333333333334E+009;1.516562998294830E-001;-1.199673190712929E-001;-1.548707950860262E-003;3.344966797158122E-003;
2.426500000000000E+009;1.517444252967835E-001;-1.202419847249985E-001;-1.454101176932454E-003;3.405789844691753E-003;
2.426666666666667E+009;1.516964733600617E-001;-1.203606873750687E-001;-1.429972006008029E-003;3.391135251149535E-003;
2.426833333333334E+009;1.514783054590225E-001;-1.206897646188736E-001;-1.082185655832291E-003;3.439975669607520E-003;
2.427000000000000E+009;1.511505991220474E-001;-1.209106370806694E-001;-1.136728562414646E-003;3.371519735082984E-003;
2.427166666666667E+009;1.506465375423431E-001;-1.210585311055183E-001;-1.063261413946748E-003;3.427524585276842E-003;
2.427333333333334E+009;1.502485871315002E-001;-1.211411282420158E-001;-9.478465071879327E-004;3.309790277853608E-003;
2.427500000000000E+009;1.498496085405350E-001;-1.213779449462891E-001;-8.776898612268269E-004;3.399457084015012E-003;
2.427666666666667E+009;1.491445899009705E-001;-1.214089766144753E-001;-7.567995926365256E-004;3.452973673120141E-003;
