# Version 1.00
#
freq[Hz];re:Trc1_S11;im:Trc1_S11;re:Trc2_S21;im:Trc2_S21;
2.400000000000000E+009;1.607556045055389E-001;5.675683543086052E-002;3.722181776538491E-003;3.374715102836490E-003;
2.400166666666667E+009;1.608780026435852E-001;5.524475872516632E-002;3.728166455402970E-003;3.267185995355249E-003;
2.400333333333334E+009;1.608228981494904E-001;5.320683494210243E-002;3.846497507765889E-003;3.261255100369453E-003;
2.400500000000000E+009;1.610303968191147E-001;5.160457640886307E-002;3.833359107375145E-003;3.144563175737858E-003;
2.400666666666667E+009;1.610732972621918E-001;4.971212893724442E-002;4.043673165142536E-003;2.917098347097635E-003;
2.400833333333334E+009;1.614661216735840E-001;4.813868552446365E-002;4.156687762588263E-003;3.103834809735417E-003;
2.401000000000000E+009;1.616931855678558E-001;4.624384641647339E-002;4.228207282721996E-003;2.817868953570724E-003;
2.401166666666667E+009;1.618236452341080E-001;4.427049681544304E-002;4.449497442692518E-003;2.791941398754716E-003;
2.401333333333334E+009;1.619334965944290E-001;4.235840216279030E-002;4.670246969908476E-003;2.575920661911368E-003;
2.401500000000000E+009;1.625016331672669E-001;4.053600132465363E-002;4.816391039639711E-003;2.458291826769710E-003;
2.401666666666667E+009;1.628650873899460E-001;3.880447894334793E-002;4.963283892720938E-003;2.261215122416616E-003;
2.401833333333334E+009;1.632969230413437E-001;3.692999482154846E-002;5.053158383816481E-003;2.169638639315963E-003;
2.402000000000000E+009;1.635191589593887E-001;3.532937169075012E-002;5.115828011184931E-003;2.176368143409491E-003;
2.402166666666667E+009;1.640117764472961E-001;3.348549455404282E-002;5.220275372266769E-003;1.895798486657441E-003;
2.402333333333334E+009;1.645824164152145E-001;3.188761323690414E-002;5.624860990792513E-003;1.747847069054842E-003;
2.402500000000000E+009;1.652488112449646E-001;3.010135702788830E-002;5.769385956227779E-003;1.522412290796638E-003;
2.402666666666667E+009;1.658535003662109E-001;2.869680151343346E-002;5.699277389794588E-003;1.285142730921507E-003;
2.402833333333334E+009;1.663253456354141E-001;2.724436298012734E-002;5.821913015097380E-003;1.020547002553940E-003;
2.403000000000000E+009;1.670197546482086E-001;2.580832131206989E-002;6.221555639058352E-003;6.886202027089894E-004;
2.403166666666667E+009;1.676745265722275E-001;2.436187118291855E-002;5.986429285258055E-003;3.879454743582755E-004;
2.403333333333334E+009;1.684852987527847E-001;2.307644300162792E-002;6.182167213410139E-003;3.630554710980505E-004;
2.403500000000000E+009;1.693073213100433E-001;2.181062288582325E-002;6.278892047703266E-003;1.001159835141152E-004;
2.403666666666667E+009;1.699203699827194E-001;2.051894180476666E-002;6.263236980885267E-003;-3.273083129897714E-004;
2.403833333333334E+009;1.707434207201004E-001;1.938269101083279E-002;6.296562496572733E-003;-5.499765393324196E-004;
2.404000000000000E+009;1.714301407337189E-001;1.835632883012295E-002;6.195538677275181E-003;-1.008511171676219E-003;
2.404166666666667E+009;1.722277253866196E-001;1.729745604097843E-002;6.113883573561907E-003;-1.449192874133587E-003;
2.404333333333334E+009;1.728553622961044E-001;1.645527593791485E-002;5.954643245786429E-003;-1.570868538692594E-003;
2.404500000000000E+009;1.734528094530106E-001;1.552133169025183E-002;6.081569939851761E-003;-1.771794632077217E-003;
2.404666666666667E+009;1.741627305746079E-001;1.464313548058271E-002;5.861655808985233E-003;-2.014060039073229E-003;
2.404833333333334E+009;1.747375279664993E-001;1.401249039918184E-002;5.742349196225405E-003;-2.534180879592896E-003;
2.405000000000000E+009;1.754611134529114E-001;1.314873807132244E-002;5.874946713447571E-003;-2.635869197547436E-003;
2.405166666666667E+009;1.759397834539414E-001;1.254619937390089E-002;5.480471998453140E-003;-2.972541144117713E-003;
2.405333333333334E+009;1.766396313905716E-001;1.186959911137819E-002;5.344940815120935E-003;-3.072963329032064E-003;
2.405500000000000E+009;1.770665049552918E-001;1.141448970884085E-002;5.009647924453020E-003;-3.288316307589412E-003;
2.405666666666667E+009;1.775279194116592E-001;1.101311109960079E-002;4.815659485757351E-003;-3.477272810414434E-003;
2.405833333333334E+009;1.776607781648636E-001;1.043407712131739E-002;4.741529934108257E-003;-3.661927301436663E-003;
2.406000000000000E+009;1.781057268381119E-001;9.879054501652718E-003;4.593078512698412E-003;-3.847778774797916E-003;
2.406166666666667E+009;1.782097667455673E-001;9.640351869165897E-003;4.302249290049076E-003;-3.946620970964432E-003;
2.406333333333334E+009;1.784977167844772E-001;9.146800264716148E-003;4.228932783007622E-003;-4.119461867958307E-003;
2.406500000000000E+009;1.785048693418503E-001;8.695543743669987E-003;3.954477142542601E-003;-4.282385110855103E-003;
2.406666666666667E+009;1.784956008195877E-001;8.328235708177090E-003;3.724033944308758E-003;-4.204056691378355E-003;
2.406833333333334E+009;1.786781102418900E-001;7.861736230552197E-003;3.468845970928669E-003;-4.450184758752585E-003;
2.407000000000000E+009;1.787126660346985E-001;7.309491746127605E-003;3.305884078145027E-003;-4.503222182393074E-003;
2.407166666666667E+009;1.786384433507919E-001;6.819671019911766E-003;3.229277208447456E-003;-4.504573997110128E-003;
2.407333333333334E+009;1.781937777996063E-001;6.213148590177298E-003;2.887692535296083E-003;-4.527493845671415E-003;
2.407500000000000E+009;1.779599040746689E-001;5.725048482418060E-003;2.764556556940079E-003;-4.655812401324511E-003;
2.407666666666667E+009;1.777444183826447E-001;5.181700456887484E-003;2.349714748561382E-003;-4.739741329103708E-003;
2.407833333333334E+009;1.771692633628845E-001;4.352616611868143E-003;2.408592728897929E-003;-4.725945182144642E-003;
2.408000000000000E+009;1.769151538610458E-001;3.599368734285235E-003;2.252901438623667E-003;-4.778159782290459E-003;
2.408166666666667E+009;1.764647513628006E-001;2.897263271734119E-003;1.890955376438797E-003;-4.678076598793268E-003;
2.408333333333334E+009;1.761308908462524E-001;2.009408082813025E-003;1.772493356838822E-003;-4.633345175534487E-003;
2.408500000000000E+009;1.754871904850006E-001;1.027337857522070E-003;1.678834669291973E-003;-4.810583777725697E-003;
2.408666666666667E+009;1.748729348182678E-001;4.402757258503698E-005;1.526793581433594E-003;-4.659898579120636E-003;
2.408833333333334E+009;1.743268519639969E-001;-1.185337081551552E-003;1.367246266454458E-003;-4.711746238172054E-003;
2.409000000000000E+009;1.737271994352341E-001;-2.270020311698318E-003;1.123632420785725E-003;-4.611679352819920E-003;
2.409166666666667E+009;1.732738167047501E-001;-3.456320380792022E-003;1.021028961986303E-003;-4.654684104025364E-003;
2.409333333333334E+009;1.727663576602936E-001;-4.878746345639229E-003;7.198443636298180E-004;-4.495248198509216E-003;
2.409500000000000E+009;1.721329092979431E-001;-6.337406113743782E-003;6.989412358961999E-004;-4.510506056249142E-003;
2.409666666666667E+009;1.715737432241440E-001;-7.582216989248991E-003;5.781694781035185E-004;-4.487206693738699E-003;
2.409833333333334E+009;1.708479970693588E-001;-9.024694561958313E-003;6.350316689349711E-004;-4.419410601258278E-003;
2.410000000000000E+009;1.706177294254303E-001;-1.047213748097420E-002;4.719790886156261E-004;-4.291904624551535E-003;
2.410166666666667E+009;1.702093333005905E-001;-1.213507167994976E-002;2.987022744491696E-004;-4.285752773284912E-003;
2.410333333333334E+009;1.696767956018448E-001;-1.393425371497870E-002;2.145157777704299E-004;-4.206459969282150E-003;
2.410500000000000E+009;1.691975593566895E-001;-1.543438713997603E-002;3.977750020567328E-005;-4.132000729441643E-003;
2.410666666666667E+009;1.688141524791718E-001;-1.727020554244518E-002;1.279918506043032E-004;-4.140924662351608E-003;
2.410833333333334E+009;1.685692965984345E-001;-1.902529783546925E-002;-5.094159132568166E-005;-3.994850907474756E-003;
2.411000000000000E+009;1.684537976980209E-001;-2.091969922184944E-002;-9.911789675243199E-005;-4.043091088533402E-003;
2.411166666666667E+009;1.680274754762650E-001;-2.280627749860287E-002;-1.295216497965157E-004;-3.977856133133173E-003;
2.411333333333334E+009;1.680438071489334E-001;-2.449802681803703E-002;-1.033610387821682E-004;-4.025402944535017E-003;
2.411500000000000E+009;1.679876297712326E-001;-2.658361382782459E-002;-1.752416574163362E-004;-4.012334160506725E-003;
2.411666666666667E+009;1.680548042058945E-001;-2.838921360671520E-002;-1.898728951346129E-004;-3.903060453012586E-003;
2.411833333333334E+009;1.679604202508926E-001;-3.010851331055164E-002;-2.827109128702432E-004;-3.981683403253555E-003;
2.412000000000000E+009;1.682117730379105E-001;-3.220555186271668E-002;-3.340163966640830E-004;-3.936834167689085E-003;
2.412166666666667E+009;1.681606918573380E-001;-3.392381593585014E-002;-5.108950426802039E-004;-3.939886577427387E-003;
2.412333333333334E+009;1.687988787889481E-001;-3.563291952013969E-002;-5.220556049607694E-004;-4.111778456717730E-003;
2.412500000000000E+009;1.688809692859650E-001;-3.736991062760353E-002;-5.634073168039322E-004;-4.180083051323891E-003;
2.412666666666667E+009;1.691927909851074E-001;-3.926545754075050E-002;-7.461930508725345E-004;-4.138674587011337E-003;
2.412833333333334E+009;1.695647090673447E-001;-4.103363677859306E-002;-7.800529710948467E-004;-4.057174082845449E-003;
2.413000000000000E+009;1.698911190032959E-001;-4.257288575172424E-002;-8.938342216424644E-004;-4.184803459793329E-003;
2.413166666666667E+009;1.701763123273850E-001;-4.420884326100349E-002;-1.089742640033364E-003;-4.288687370717526E-003;
2.413333333333334E+009;1.706186532974243E-001;-4.577094316482544E-002;-1.008767052553594E-003;-4.216576926410198E-003;
2.413500000000000E+009;1.713163554668427E-001;-4.734113067388535E-002;-1.387075986713171E-003;-4.137390758842230E-003;
2.413666666666667E+009;1.718153953552246E-001;-4.863928630948067E-002;-1.386309973895550E-003;-4.331868141889572E-003;
2.413833333333334E+009;1.720399558544159E-001;-4.991431906819344E-002;-1.630953280255199E-003;-4.321923479437828E-003;
2.414000000000000E+009;1.725618839263916E-001;-5.130761489272118E-002;-1.719051040709019E-003;-4.174395464360714E-003;
2.414166666666667E+009;1.732143312692642E-001;-5.240362510085106E-002;-1.785200671292841E-003;-4.087158013135195E-003;
2.414333333333334E+009;1.735612154006958E-001;-5.360942706465721E-002;-1.912687788717449E-003;-4.103377461433411E-003;
2.414500000000000E+009;1.742357462644577E-001;-5.458122491836548E-002;-2.038865583017469E-003;-3.923404030501843E-003;
2.414666666666667E+009;1.744364798069000E-001;-5.549798160791397E-002;-2.364810090512037E-003;-4.065082408487797E-003;
2.414833333333334E+009;1.748787164688110E-001;-5.640048533678055E-002;-2.410505665466189E-003;-3.884086851030588E-003;
2.415000000000000E+009;1.753614395856857E-001;-5.712291970849037E-002;-2.513201208785176E-003;-3.810422495007515E-003;
2.415166666666667E+009;1.755820959806442E-001;-5.784285813570023E-002;-2.766747260466218E-003;-3.799091326072812E-003;
2.415333333333334E+009;1.760010868310928E-001;-5.860515683889389E-002;-2.891650423407555E-003;-3.685952397063375E-003;
2.415500000000000E+009;1.763549894094467E-001;-5.901589989662170E-002;-3.026222344487906E-003;-3.589796600863338E-003;
2.415666666666667E+009;1.765155196189880E-001;-5.940719321370125E-002;-3.206238150596619E-003;-3.590075531974435E-003;
2.415833333333334E+009;1.765345484018326E-001;-6.000223383307457E-002;-3.336704568937421E-003;-3.401753492653370E-003;
2.416000000000000E+009;1.765143722295761E-001;-6.045304238796234E-002;-3.439964959397912E-003;-3.237819997593761E-003;
2.416166666666667E+009;1.766946315765381E-001;-6.072099879384041E-002;-3.617627546191216E-003;-3.135638544335961E-003;
2.416333333333334E+009;1.765880137681961E-001;-6.097592413425446E-002;-3.634694963693619E-003;-3.117946675047278E-003;
2.416500000000000E+009;1.763149350881577E-001;-6.134019419550896E-002;-3.840065095573664E-003;-2.840432105585933E-003;
2.416666666666667E+009;1.760031580924988E-001;-6.152014434337616E-002;-3.806902328506112E-003;-2.823096467182040E-003;
2.416833333333334E+009;1.757175177335739E-001;-6.188878789544106E-002;-4.006726667284966E-003;-2.529047662392259E-003;
2.417000000000000E+009;1.750182658433914E-001;-6.223972886800766E-002;-4.085476510226727E-003;-2.590885618701577E-003;
2.417166666666667E+009;1.747429072856903E-001;-6.224713474512100E-002;-4.155254922807217E-003;-2.326057758182287E-003;
2.417333333333334E+009;1.740941852331162E-001;-6.240135803818703E-002;-4.220476374030113E-003;-2.158128190785646E-003;
2.417500000000000E+009;1.733538061380386E-001;-6.296073645353317E-002;-4.246803000569344E-003;-1.994227292016149E-003;
2.417666666666667E+009;1.728513091802597E-001;-6.308988481760025E-002;-4.236704204231501E-003;-1.805688021704555E-003;
2.417833333333334E+009;1.718490719795227E-001;-6.324853748083115E-002;-4.231212195008993E-003;-1.581974211148918E-003;
2.418000000000000E+009;1.709671467542648E-001;-6.386072933673859E-002;-4.243087489157915E-003;-1.494331518188119E-003;
2.418166666666667E+009;1.698890477418900E-001;-6.404978036880493E-002;-4.309225361794233E-003;-1.266379607841373E-003;
2.418333333333334E+009;1.691309362649918E-001;-6.446706503629684E-002;-4.322113934904337E-003;-1.267051557078958E-003;
2.418500000000000E+009;1.680365353822708E-001;-6.486299633979797E-002;-4.326888825744391E-003;-1.080900430679321E-003;
2.418666666666667E+009;1.669845283031464E-001;-6.546481698751450E-002;-4.330722149461508E-003;-1.062038703821600E-003;
2.418833333333334E+009;1.656823456287384E-001;-6.605321913957596E-002;-4.267322830855846E-003;-8.539049304090440E-004;
2.419000000000000E+009;1.643984168767929E-001;-6.665214151144028E-002;-4.092050250619650E-003;-6.891708471812308E-004;
2.419166666666667E+009;1.632797420024872E-001;-6.734280288219452E-002;-4.399633500725031E-003;-5.755500169470906E-004;
2.419333333333334E+009;1.620358526706696E-001;-6.785994768142700E-002;-4.146503750234842E-003;-4.307874187361449E-004;
2.419500000000000E+009;1.609127372503281E-001;-6.901991367340088E-002;-4.261421505361795E-003;-3.530200337991118E-004;
2.419666666666667E+009;1.597150266170502E-001;-6.979259103536606E-002;-4.387754481285811E-003;-3.548398381099105E-004;
2.419833333333334E+009;1.584906131029129E-001;-7.080595195293427E-002;-4.237226210534573E-003;-1.998565276153386E-004;
2.420000000000000E+009;1.573778688907623E-001;-7.172831147909164E-002;-4.242163617163897E-003;-1.183358835987747E-004;
2.420166666666667E+009;1.561830341815949E-001;-7.285620272159576E-002;-4.203326534479857E-003;6.833881343482062E-005;
2.420333333333334E+009;1.552169471979141E-001;-7.401213049888611E-002;-4.306209273636341E-003;1.935008622240275E-004;
2.420500000000000E+009;1.542919129133225E-001;-7.538215070962906E-002;-4.221180453896523E-003;2.751597203314304E-004;
2.420666666666667E+009;1.530543863773346E-001;-7.652444392442703E-002;-4.137056414037943E-003;4.738909774459899E-004;
2.420833333333334E+009;1.523344069719315E-001;-7.803075760602951E-002;-4.216813016682863E-003;4.235414671711624E-004;
2.421000000000000E+009;1.513561606407166E-001;-7.954254746437073E-002;-4.064144100993872E-003;5.831941380165517E-004;
2.421166666666667E+009;1.507124900817871E-001;-8.092375844717026E-002;-3.943703602999449E-003;8.104663575068116E-004;
2.421333333333334E+009;1.499269157648087E-001;-8.258322626352310E-002;-3.965684678405523E-003;8.743421640247107E-004;
2.421500000000000E+009;1.493831425905228E-001;-8.411772549152374E-002;-4.054734483361244E-003;1.051422324962914E-003;
2.421666666666667E+009;1.487473994493485E-001;-8.566289395093918E-002;-3.937187604606152E-003;1.109802629798651E-003;
2.421833333333334E+009;1.482049077749252E-001;-8.735980838537216E-002;-4.027776885777712E-003;1.220974721945822E-003;
2.422000000000000E+009;1.477486938238144E-001;-8.901941031217575E-002;-3.899539588019252E-003;1.462756772525609E-003;
2.422166666666667E+009;1.475800722837448E-001;-9.086576104164124E-002;-3.860478056594729E-003;1.415672595612705E-003;
2.422333333333334E+009;1.471872776746750E-001;-9.232442826032639E-002;-3.673626342788339E-003;1.681081019341946E-003;
2.422500000000000E+009;1.470137685537338E-001;-9.414302557706833E-002;-3.661814378574491E-003;1.781301107257605E-003;
2.422666666666667E+009;1.467604637145996E-001;-9.586416929960251E-002;-3.583376994356513E-003;1.894064829684794E-003;
2.422833333333334E+009;1.467377692461014E-001;-9.767477214336395E-002;-3.564178710803390E-003;1.957328524440527E-003;
2.423000000000000E+009;1.468831598758698E-001;-9.909904748201370E-002;-3.479228354990482E-003;1.916557201184332E-003;
2.423166666666667E+009;1.468564122915268E-001;-1.008616015315056E-001;-3.407194977626205E-003;1.912185340188444E-003;
2.423333333333334E+009;1.471404880285263E-001;-1.022121757268906E-001;-3.419873304665089E-003;2.069944515824318E-003;
2.423500000000000E+009;1.472976803779602E-001;-1.038989797234535E-001;-3.218319965526462E-003;2.399441553279758E-003;
2.423666666666667E+009;1.474342048168182E-001;-1.053396537899971E-001;-3.285068785771728E-003;2.364215673878789E-003;
2.423833333333334E+009;1.478805691003799E-001;-1.068523824214935E-001;-3.130358410999179E-003;2.531503327190876E-003;
2.424000000000000E+009;1.480234265327454E-001;-1.080756261944771E-001;-3.005622420459986E-003;2.526308177039027E-003;
2.424166666666667E+009;1.482595801353455E-001;-1.095353066921234E-001;-2.937086625024676E-003;2.560593886300921E-003;
2.424333333333334E+009;1.488414108753204E-001;-1.107011735439301E-001;-2.874900819733739E-003;2.653322415426374E-003;
2.424500000000000E+009;1.490899920463562E-001;-1.119490563869476E-001;-2.600589068606496E-003;2.793884836137295E-003;
2.424666666666667E+009;1.496397107839584E-001;-1.127986833453178E-001;-2.579246647655964E-003;2.841922221705318E-003;
2.424833333333334E+009;1.498858481645584E-001;-1.138815581798554E-001;-2.547078998759389E-003;2.925257897004485E-003;
2.425000000000000E+009;1.504076868295670E-001;-1.148647964000702E-001;-2.366681583225727E-003;2.840545261278749E-003;
2.425166666666667E+009;1.504319608211517E-001;-1.157625466585159E-001;-2.380185294896364E-003;2.959517296403647E-003;
2.425333333333334E+009;1.508295983076096E-001;-1.165771931409836E-001;-2.324073342606425E-003;3.126082476228476E-003;
2.425500000000000E+009;1.512372046709061E-001;-1.172690913081169E-001;-2.090813824906945E-003;3.055552719160914E-003;
2.425666666666667E+009;1.511803865432739E-001;-1.178593039512634E-001;-2.190457889810205E-003;3.127320436760783E-003;
2.425833333333334E+009;1.515198796987534E-001;-1.183938384056091E-001;-2.112531801685691E-003;3.223149338737130E-003;
2.426000000000000E+009;1.516037136316299E-001;-1.190233975648880E-001;-1.851120730862021E-003;3.160727210342884E-003;
2.426166666666667E+009;1.518626213073731E-001;-1.194093152880669E-001;-1.908234553411603E-003;3.300379496067762E-003;
2.426333333333334E+009;1.517482548952103E-001;-1.198740079998970E-001;-1.652543433010578E-003;3.333561588078737E-003;
2.426500000000000E+009;1.517840623855591E-001;-1.201693341135979E-001;-1.612863037735224E-003;3.209822345525026E-003;
2.426666666666667E+009;1.517414152622223E-001;-1.203062161803246E-001;-1.323515316471458E-003;3.425043076276779E-003;
2.426833333333334E+009;1.514682620763779E-001;-1.205604001879692E-001;-1.424469402991235E-003;3.355868859216571E-003;
2.427000000000000E+009;1.511265486478806E-001;-1.208446547389031E-001;-1.192230964079499E-003;3.340935334563255E-003;
2.427166666666667E+009;1.507909744977951E-001;-1.208912804722786E-001;-1.142718596383929E-003;3.358707297593355E-003;
2.427333333333334E+009;1.504441946744919E-001;-1.209964603185654E-001;-1.013432512991130E-003;3.396152984350920E-003;
2.427500000000000E+009;1.498833298683167E-001;-1.211908385157585E-001;-8.432576432824135E-004;3.233310766518116E-003;
2.427666666666667E+009;1.492570340633392E-001;-1.213535070419312E-001;-7.155209314078093E-004;3.264903556555510E-003;
