# Version 1.00
#
freq[Hz];re:Trc1_S11;im:Trc1_S11;re:Trc2_S21;im:Trc2_S21;
2.400000000000000E+009;1.553591489791870E-001;1.066034585237503E-001;-3.499444806948304E-003;-5.323628429323435E-004;
2.400166666666667E+009;1.549944430589676E-001;1.042744442820549E-001;-3.563338657841086E-003;-3.989891265518963E-004;
2.400333333333334E+009;1.551085561513901E-001;1.019229367375374E-001;-3.644677111878991E-003;-2.551290090195835E-004;
2.400500000000000E+009;1.552110612392426E-001;9.927149116992950E-002;-3.691709134727716E-003;-1.332478423137218E-004;
2.400666666666667E+009;1.552974581718445E-001;9.676624834537506E-002;-3.960445523262024E-003;2.315911660843995E-005;
2.400833333333334E+009;1.552154123783112E-001;9.383057802915573E-002;-4.002327565103769E-003;6.372215284500271E-005;
2.401000000000000E+009;1.555764824151993E-001;9.086702018976212E-002;-3.962258342653513E-003;2.777820336632431E-004;
2.401166666666667E+009;1.557325124740601E-001;8.812206983566284E-002;-4.189546220004559E-003;5.737072206102312E-004;
2.401333333333334E+009;1.559522897005081E-001;8.529695123434067E-002;-4.047971684485674E-003;6.563858478330076E-004;
2.401500000000000E+009;1.562874317169190E-001;8.242908865213394E-002;-4.146461840718985E-003;9.300302481278777E-004;
2.401666666666667E+009;1.566322296857834E-001;7.952879369258881E-002;-4.212833940982819E-003;8.934583165682852E-004;
2.401833333333334E+009;1.572781056165695E-001;7.687332481145859E-002;-4.163992125540972E-003;1.132476143538952E-003;
2.402000000000000E+009;1.580176055431366E-001;7.410427927970886E-002;-4.214786924421787E-003;1.365689560770989E-003;
2.402166666666667E+009;1.587458103895187E-001;7.178892195224762E-002;-4.131226334720850E-003;1.428536721505225E-003;
2.402333333333334E+009;1.597560942173004E-001;6.889703124761581E-002;-4.235984757542610E-003;1.608991529792547E-003;
2.402500000000000E+009;1.610671132802963E-001;6.635162234306335E-002;-4.248037002980709E-003;1.919881557114422E-003;
2.402666666666667E+009;1.623653322458267E-001;6.416843831539154E-002;-4.156813025474548E-003;2.122102770954371E-003;
2.402833333333334E+009;1.634668260812759E-001;6.157431378960609E-002;-4.224165342748165E-003;2.255504019558430E-003;
2.403000000000000E+009;1.655243039131165E-001;6.013697758316994E-002;-5.986987147480249E-003;3.749599913135171E-003;
2.403166666666667E+009;1.665045768022537E-001;5.698817968368530E-002;-3.560471814125776E-003;2.238472457975149E-003;
2.403333333333334E+009;1.684251427650452E-001;5.487675592303276E-002;-3.643850563094020E-003;3.577775321900845E-003;
2.403500000000000E+009;1.696531921625137E-001;5.324206501245499E-002;-4.287191201001406E-003;2.430454129353166E-003;
2.403666666666667E+009;1.714860349893570E-001;5.101565644145012E-002;-4.103432409465313E-003;3.087394172325730E-003;
2.403833333333334E+009;1.735541522502899E-001;4.925920814275742E-002;-4.087687004357576E-003;4.385929089039564E-003;
2.404000000000000E+009;1.746118962764740E-001;4.744178429245949E-002;-3.521484555676580E-003;3.310853615403175E-003;
2.404166666666667E+009;1.762878447771072E-001;4.570437222719193E-002;-2.176077803596854E-003;3.646927187219262E-003;
2.404333333333334E+009;1.783364862203598E-001;4.403888806700707E-002;-2.200625836849213E-003;4.457946866750717E-003;
2.404500000000000E+009;1.798932701349258E-001;4.308890551328659E-002;-2.464004792273045E-003;4.126726184040308E-003;
2.404666666666667E+009;1.814496070146561E-001;4.187527298927307E-002;-2.256269799545407E-003;4.161840770393610E-003;
2.404833333333334E+009;1.828599572181702E-001;4.066660627722740E-002;-2.105405554175377E-003;4.194711800664663E-003;
2.405000000000000E+009;1.843506097793579E-001;4.004437848925591E-002;-1.850285450927913E-003;4.358348902314901E-003;
2.405166666666667E+009;1.856733709573746E-001;3.945424407720566E-002;-1.703498419374228E-003;4.311674740165472E-003;
2.405333333333334E+009;1.871277987957001E-001;3.893840685486794E-002;-1.475235447287560E-003;4.349455703049898E-003;
2.405500000000000E+009;1.884574890136719E-001;3.840961679816246E-002;-1.303930650465190E-003;4.348148126155138E-003;
2.405666666666667E+009;1.897572726011276E-001;3.794725984334946E-002;-1.205519423820078E-003;4.054451826959848E-003;
2.405833333333334E+009;1.909240037202835E-001;3.768068179488182E-002;-8.167171617969871E-004;4.190195817500353E-003;
2.406000000000000E+009;1.919672936201096E-001;3.756487742066383E-002;-7.153503247536719E-004;4.186560399830341E-003;
2.406166666666667E+009;1.928229480981827E-001;3.736807778477669E-002;-6.233390886336565E-004;4.221411421895027E-003;
2.406333333333334E+009;1.938964128494263E-001;3.751666843891144E-002;-4.897107719443739E-004;4.126659594476223E-003;
2.406500000000000E+009;1.945811808109283E-001;3.753572702407837E-002;-3.121341578662396E-004;4.147221334278584E-003;
2.406666666666667E+009;1.951304823160172E-001;3.742622211575508E-002;-1.555808848934248E-004;4.117745906114578E-003;
2.406833333333334E+009;1.957053393125534E-001;3.756524994969368E-002;-8.846291893860325E-005;4.165478516370058E-003;
2.407000000000000E+009;1.959106624126434E-001;3.780899941921234E-002;1.733831886667758E-004;4.092018585652113E-003;
2.407166666666667E+009;1.962303519248962E-001;3.743983432650566E-002;3.462472814135253E-004;3.929252736270428E-003;
2.407333333333334E+009;1.962483078241348E-001;3.769812360405922E-002;5.100555717945099E-004;3.880202071741223E-003;
2.407500000000000E+009;1.960386484861374E-001;3.781443089246750E-002;6.555703585036099E-004;3.649105317890644E-003;
2.407666666666667E+009;1.961395740509033E-001;3.769184276461601E-002;7.246755412779748E-004;3.560642013326287E-003;
2.407833333333334E+009;1.955390870571137E-001;3.754090890288353E-002;8.049375028349459E-004;3.456241218373179E-003;
2.408000000000000E+009;1.955062299966812E-001;3.732395172119141E-002;9.060723241418600E-004;3.348926315084100E-003;
2.408166666666667E+009;1.948012858629227E-001;3.702678531408310E-002;8.198960567824543E-004;3.233448602259159E-003;
2.408333333333334E+009;1.944214552640915E-001;3.650530427694321E-002;9.479768341407180E-004;3.118053777143359E-003;
2.408500000000000E+009;1.938820332288742E-001;3.619037196040154E-002;-2.436795475659892E-004;3.040352370589972E-003;
2.408666666666667E+009;1.931717991828919E-001;3.553455695509911E-002;9.045459446497262E-004;2.900772728025913E-003;
2.408833333333334E+009;1.923307478427887E-001;3.474159538745880E-002;1.361006405204535E-003;3.117098705843091E-003;
2.409000000000000E+009;1.913869827985764E-001;3.380469977855682E-002;1.905215787701309E-003;2.726399805396795E-003;
2.409166666666667E+009;1.903383433818817E-001;3.273659199476242E-002;1.321749528869987E-003;3.556397510692477E-003;
2.409333333333334E+009;1.893331706523895E-001;3.189161792397499E-002;1.972219441086054E-003;3.330001840367913E-003;
2.409500000000000E+009;1.882792115211487E-001;3.063578344881535E-002;1.762980362400413E-003;2.374062314629555E-003;
2.409666666666667E+009;1.872536391019821E-001;2.928390540182591E-002;1.399692846462131E-003;2.101957099512219E-003;
2.409833333333334E+009;1.863309144973755E-001;2.775290235877037E-002;8.486469159834087E-004;2.670916728675365E-003;
2.410000000000000E+009;1.852539628744125E-001;2.627232670783997E-002;1.376136206090450E-003;1.937297172844410E-003;
2.410166666666667E+009;1.842549145221710E-001;2.434954419732094E-002;1.371845370158553E-003;2.217531437054277E-003;
2.410333333333334E+009;1.833017319440842E-001;2.256665192544460E-002;1.354541862383485E-003;2.153502311557531E-003;
2.410500000000000E+009;1.824541240930557E-001;2.062900550663471E-002;1.240267418324947E-003;2.023743465542793E-003;
2.410666666666667E+009;1.813750416040421E-001;1.833823136985302E-002;1.220098929479718E-003;2.040734514594078E-003;
2.410833333333334E+009;1.808832883834839E-001;1.636648923158646E-002;1.212740899063647E-003;1.928188838064671E-003;
2.411000000000000E+009;1.798487752676010E-001;1.407559774816036E-002;1.371700200252235E-003;1.898528658784926E-003;
2.411166666666667E+009;1.794114857912064E-001;1.193784270435572E-002;1.326513011008501E-003;1.822500140406191E-003;
2.411333333333334E+009;1.788249909877777E-001;9.379071183502674E-003;1.178019098006189E-003;1.675273291766644E-003;
2.411500000000000E+009;1.783339381217957E-001;7.088547106832266E-003;1.303378026932478E-003;1.638899906538427E-003;
2.411666666666667E+009;1.782619059085846E-001;4.754944704473019E-003;1.360080204904079E-003;1.729084644466639E-003;
2.411833333333334E+009;1.780250370502472E-001;2.532801823690534E-003;1.189479022286832E-003;1.534286304377019E-003;
2.412000000000000E+009;1.782016605138779E-001;-1.726986811263487E-004;1.083446666598320E-003;1.522703911177814E-003;
2.412166666666667E+009;1.782968640327454E-001;-2.442526631057262E-003;1.104486407712102E-003;1.534704235382378E-003;
2.412333333333334E+009;1.785237342119217E-001;-5.007672589272261E-003;8.907264564186335E-004;1.524060615338385E-003;
2.412500000000000E+009;1.788848638534546E-001;-7.388602476567030E-003;8.467111620120704E-004;1.585593796335161E-003;
2.412666666666667E+009;1.795125007629395E-001;-9.821211919188500E-003;8.164764731191099E-004;1.416605198755860E-003;
2.412833333333334E+009;1.802160441875458E-001;-1.222160644829273E-002;8.696120348758996E-004;1.598678762093186E-003;
2.413000000000000E+009;1.807402819395065E-001;-1.459455676376820E-002;7.042630459181964E-004;1.698322943411768E-003;
2.413166666666667E+009;1.817142516374588E-001;-1.671971939504147E-002;6.775950896553695E-004;1.677980879321694E-003;
2.413333333333334E+009;1.826445907354355E-001;-1.905045658349991E-002;6.509285303764045E-004;1.904847100377083E-003;
2.413500000000000E+009;1.836313009262085E-001;-2.117164805531502E-002;6.575851584784687E-004;1.963749527931213E-003;
2.413666666666667E+009;1.847226768732071E-001;-2.345597557723522E-002;7.102054660208523E-004;2.047893591225147E-003;
2.413833333333334E+009;1.858785748481751E-001;-2.540782652795315E-002;8.757667383179069E-004;2.050260547548533E-003;
2.414000000000000E+009;1.870328634977341E-001;-2.727019973099232E-002;6.463960162363946E-004;2.262134803459048E-003;
2.414166666666667E+009;1.883608102798462E-001;-2.898754924535751E-002;8.415138581767678E-004;2.422139747068286E-003;
2.414333333333334E+009;1.893675923347473E-001;-3.096729703247547E-002;1.019940595142543E-003;2.523950068280101E-003;
2.414500000000000E+009;1.906581819057465E-001;-3.233708068728447E-002;1.139927073381841E-003;2.451065927743912E-003;
2.414666666666667E+009;1.917701959609985E-001;-3.400214388966560E-002;1.202224637381733E-003;2.599169965833426E-003;
2.414833333333334E+009;1.928537636995316E-001;-3.529647365212441E-002;1.399769098497927E-003;2.456662943586707E-003;
2.415000000000000E+009;1.940854191780090E-001;-3.649747371673584E-002;1.426339033059776E-003;2.677229698747397E-003;
2.415166666666667E+009;1.952528804540634E-001;-3.757337853312492E-002;1.484473934397101E-003;2.611357020214200E-003;
2.415333333333334E+009;1.965411752462387E-001;-3.859808295965195E-002;1.584525336511433E-003;2.618866972625256E-003;
2.415500000000000E+009;1.975523233413696E-001;-3.924049437046051E-002;1.825948478654027E-003;2.671544440090656E-003;
2.415666666666667E+009;1.986330896615982E-001;-4.005097597837448E-002;1.875973655842245E-003;2.570075681433082E-003;
2.415833333333334E+009;1.994257867336273E-001;-4.051623493432999E-002;1.962826587259769E-003;2.729713683947921E-003;
2.416000000000000E+009;2.001095414161682E-001;-4.111664369702339E-002;2.173176733776927E-003;2.724364632740617E-003;
2.416166666666667E+009;2.008830159902573E-001;-4.166376963257790E-002;2.307820832356811E-003;2.724685007706285E-003;
2.416333333333334E+009;2.015774697065353E-001;-4.206082597374916E-002;2.489122096449137E-003;2.651643706485629E-003;
2.416500000000000E+009;2.020595818758011E-001;-4.221537709236145E-002;2.779590198770165E-003;2.746666315943003E-003;
2.416666666666667E+009;2.022730857133865E-001;-4.249538853764534E-002;3.038898110389710E-003;2.763388678431511E-003;
2.416833333333334E+009;2.023932039737701E-001;-4.257998242974281E-002;3.200210630893707E-003;2.621162217110395E-003;
2.417000000000000E+009;2.026077806949616E-001;-4.268652573227882E-002;3.342663869261742E-003;2.477852394804359E-003;
2.417166666666667E+009;2.023142874240875E-001;-4.255504533648491E-002;3.401462221518159E-003;2.412391360849142E-003;
2.417333333333334E+009;2.020914107561112E-001;-4.237013682723045E-002;3.680549794808030E-003;2.349609974771738E-003;
2.417500000000000E+009;2.018148452043533E-001;-4.245781153440476E-002;3.845373634248972E-003;2.065706532448530E-003;
2.417666666666667E+009;2.012068629264832E-001;-4.220883175730705E-002;3.932250663638115E-003;1.782206119969487E-003;
2.417833333333334E+009;2.006855756044388E-001;-4.199701547622681E-002;3.921916242688894E-003;1.561203156597912E-003;
2.418000000000000E+009;2.000590562820435E-001;-4.172430559992790E-002;4.048467613756657E-003;1.438591163605452E-003;
2.418166666666667E+009;1.992941796779633E-001;-4.177124798297882E-002;4.083212930709124E-003;1.277224277146161E-003;
2.418333333333334E+009;1.983293294906616E-001;-4.171077162027359E-002;4.145117010921240E-003;1.039322116412222E-003;
2.418500000000000E+009;1.973631083965302E-001;-4.174276813864708E-002;4.285081289708614E-003;7.863100036047399E-004;
2.418666666666667E+009;1.964252889156342E-001;-4.151483625173569E-002;4.229612648487091E-003;7.459057960659266E-004;
2.418833333333334E+009;1.951052695512772E-001;-4.181216284632683E-002;4.277580883353949E-003;4.811823309864849E-004;
2.419000000000000E+009;1.939103007316589E-001;-4.211879149079323E-002;4.238336812704802E-003;3.103089984506369E-004;
2.419166666666667E+009;1.926181167364121E-001;-4.236992448568344E-002;4.331862553954125E-003;2.484715660102665E-004;
2.419333333333334E+009;1.911607086658478E-001;-4.280551895499229E-002;4.210313782095909E-003;1.491158473072574E-004;
2.419500000000000E+009;1.897568255662918E-001;-4.329114034771919E-002;4.209719598293304E-003;-2.580524596851319E-004;
2.419666666666667E+009;1.882161945104599E-001;-4.404598847031593E-002;4.197058733552694E-003;-1.716301921987906E-004;
2.419833333333334E+009;1.865094006061554E-001;-4.475326836109161E-002;4.136775620281696E-003;-3.965517971664667E-004;
2.420000000000000E+009;1.850165575742722E-001;-4.561496898531914E-002;4.121087491512299E-003;-5.674306303262711E-004;
2.420166666666667E+009;1.834368407726288E-001;-4.656081646680832E-002;4.227744415402412E-003;-7.990229642018676E-004;
2.420333333333334E+009;1.817665696144104E-001;-4.761974513530731E-002;4.228195641189814E-003;-7.566254353150725E-004;
2.420500000000000E+009;1.801719516515732E-001;-4.906496778130531E-002;4.152017179876566E-003;-9.096915018744767E-004;
2.420666666666667E+009;1.786961108446121E-001;-5.018420889973640E-002;4.035022109746933E-003;-1.105833565816283E-003;
2.420833333333334E+009;1.769974976778030E-001;-5.157453194260597E-002;3.988365177065134E-003;-1.269771484658122E-003;
2.421000000000000E+009;1.754523366689682E-001;-5.329727008938789E-002;3.993587102741003E-003;-1.355280866846442E-003;
2.421166666666667E+009;1.740888953208923E-001;-5.498429760336876E-002;3.929018974304199E-003;-1.502429484389722E-003;
2.421333333333334E+009;1.725063323974609E-001;-5.664374306797981E-002;3.882927121594548E-003;-1.722397631965578E-003;
2.421500000000000E+009;1.711969226598740E-001;-5.859744921326637E-002;3.783376188948751E-003;-1.957370433956385E-003;
2.421666666666667E+009;1.698970794677734E-001;-6.032544001936913E-002;3.781807841733098E-003;-2.072834642603993E-003;
2.421833333333334E+009;1.689537167549133E-001;-6.212415546178818E-002;3.678253153339028E-003;-2.239177934825420E-003;
2.422000000000000E+009;1.677818745374680E-001;-6.394618749618530E-002;3.529613371938467E-003;-2.269207499921322E-003;
2.422166666666667E+009;1.670763343572617E-001;-6.623676419258118E-002;3.304946934804320E-003;-2.377671189606190E-003;
2.422333333333334E+009;1.660180091857910E-001;-6.807217746973038E-002;3.387656528502703E-003;-2.663445426151156E-003;
2.422500000000000E+009;1.652986556291580E-001;-7.010114192962647E-002;3.272164380177856E-003;-2.634519943967462E-003;
2.422666666666667E+009;1.647040992975235E-001;-7.214268296957016E-002;2.872341778129339E-003;-2.804405288770795E-003;
2.422833333333334E+009;1.641590595245361E-001;-7.430066913366318E-002;2.903990447521210E-003;-2.970978152006865E-003;
2.423000000000000E+009;1.636630296707153E-001;-7.639088481664658E-002;2.708447398617864E-003;-2.897848840802908E-003;
2.423166666666667E+009;1.633922308683395E-001;-7.829537987709045E-002;2.637138357385993E-003;-2.996771829202771E-003;
2.423333333333334E+009;1.632578969001770E-001;-8.022183924913406E-002;2.153317676857114E-003;-3.018908901140094E-003;
2.423500000000000E+009;1.629875153303146E-001;-8.221439272165299E-002;2.111822366714478E-003;-3.093557665124536E-003;
2.423666666666667E+009;1.630630493164063E-001;-8.405014127492905E-002;2.130801090970635E-003;-3.025461919605732E-003;
2.423833333333334E+009;1.629870086908341E-001;-8.575028926134110E-002;1.720626256428659E-003;-3.007223131135106E-003;
2.424000000000000E+009;1.632328182458878E-001;-8.770966529846191E-002;1.742082880809903E-003;-3.032542066648603E-003;
2.424166666666667E+009;1.630886942148209E-001;-8.915811777114868E-002;1.506088068708777E-003;-3.016782924532890E-003;
2.424333333333334E+009;1.635065227746964E-001;-9.068975597620010E-002;1.303369179368019E-003;-2.930663060396910E-003;
2.424500000000000E+009;1.637636423110962E-001;-9.242501109838486E-002;1.357200322672725E-003;-2.812522463500500E-003;
2.424666666666667E+009;1.640007048845291E-001;-9.367192536592484E-002;1.355937682092190E-003;-2.782146213576198E-003;
2.424833333333334E+009;1.644681394100189E-001;-9.501053392887116E-002;1.307696686126292E-003;-2.773968735709786E-003;
2.425000000000000E+009;1.647988259792328E-001;-9.617032855749130E-002;1.218686811625958E-003;-2.612796612083912E-003;
2.425166666666667E+009;1.651778817176819E-001;-9.722083806991577E-002;1.105338684283197E-003;-2.593136858195067E-003;
2.425333333333334E+009;1.656455993652344E-001;-9.826577454805374E-002;9.824783774092794E-004;-2.536285202950239E-003;
2.425500000000000E+009;1.659030765295029E-001;-9.900791198015213E-002;1.004195888526738E-003;-2.538182074204087E-003;
2.425666666666667E+009;1.663359999656677E-001;-9.972590208053589E-002;8.256045985035598E-004;-2.560866530984640E-003;
2.425833333333334E+009;1.666577011346817E-001;-1.006517112255096E-001;1.079225097782910E-003;-2.488783327862620E-003;
2.426000000000000E+009;1.670697033405304E-001;-1.011455804109573E-001;9.161332272924483E-004;-2.461095107719302E-003;
2.426166666666667E+009;1.673780232667923E-001;-1.016147583723068E-001;1.018710550852120E-003;-2.520501380786300E-003;
2.426333333333334E+009;1.674766689538956E-001;-1.020703837275505E-001;8.382074302062392E-004;-2.376285381615162E-003;
2.426500000000000E+009;1.678919792175293E-001;-1.022626087069511E-001;8.876362699083984E-004;-2.408391796052456E-003;
2.426666666666667E+009;1.680710613727570E-001;-1.026096120476723E-001;1.084203599020839E-003;-2.502864226698875E-003;
2.426833333333334E+009;1.682416945695877E-001;-1.028978452086449E-001;9.293616749346256E-004;-2.477981382980943E-003;
2.427000000000000E+009;1.682513654232025E-001;-1.030490696430206E-001;9.973290143534541E-004;-2.546394476667047E-003;
2.427166666666667E+009;1.682924181222916E-001;-1.030415445566177E-001;9.670178405940533E-004;-2.666331827640533E-003;
2.427333333333334E+009;1.681569665670395E-001;-1.033890172839165E-001;9.263874380849302E-004;-2.614804077893496E-003;
2.427500000000000E+009;1.678580492734909E-001;-1.035515144467354E-001;6.880215369164944E-004;-2.669467125087977E-003;
2.427666666666667E+009;1.675581037998200E-001;-1.036234200000763E-001;8.270952966995537E-004;-2.691132714971900E-003;
2.427833333333334E+009;1.671399474143982E-001;-1.037591323256493E-001;6.539947935380042E-004;-2.672073664143682E-003;
