# Version 1.00
#
freq[Hz];re:Trc1_S11;im:Trc1_S11;re:Trc2_S21;im:Trc2_S21;
2.400000000000000E+009;1.552927047014237E-001;1.066833138465881E-001;-3.625235520303249E-003;-4.847015370614827E-004;
2.400166666666667E+009;1.549507528543472E-001;1.043190509080887E-001;-3.563141450285912E-003;-4.616653604898602E-004;
2.400333333333334E+009;1.550921648740768E-001;1.018483489751816E-001;-3.778985934332013E-003;-2.597997372504324E-004;
2.400500000000000E+009;1.549610793590546E-001;9.904055297374725E-002;-4.017137922346592E-003;-2.742998476605862E-004;
2.400666666666667E+009;1.550736427307129E-001;9.665285795927048E-002;-4.148024599999189E-003;-1.226555177709088E-004;
2.400833333333334E+009;1.550498008728027E-001;9.384560585021973E-002;-4.179189912974834E-003;1.780200109351426E-004;
2.401000000000000E+009;1.552710980176926E-001;9.095291793346405E-002;-4.233139567077160E-003;1.620516704861075E-004;
2.401166666666667E+009;1.551848202943802E-001;8.813835680484772E-002;-4.117425531148911E-003;3.883737081196159E-004;
2.401333333333334E+009;1.556914746761322E-001;8.540911227464676E-002;-4.371441900730133E-003;6.657993071712554E-004;
2.401500000000000E+009;1.561456173658371E-001;8.254733681678772E-002;-4.265898372977972E-003;7.865640218369663E-004;
2.401666666666667E+009;1.564553678035736E-001;7.970947027206421E-002;-4.131740424782038E-003;9.779878892004490E-004;
2.401833333333334E+009;1.570606231689453E-001;7.687964290380478E-002;-5.113014020025730E-003;1.696487306617200E-003;
2.402000000000000E+009;1.579312235116959E-001;7.403670251369476E-002;-4.070368595421314E-003;1.576131442561746E-003;
2.402166666666667E+009;1.585789322853088E-001;7.172978669404984E-002;-3.186339279636741E-003;1.422712579369545E-003;
2.402333333333334E+009;1.596915274858475E-001;6.909573823213577E-002;-3.316433168947697E-003;1.283544232137501E-003;
2.402500000000000E+009;1.611025035381317E-001;6.631769984960556E-002;-4.861074965447187E-003;4.076784010976553E-003;
2.402666666666667E+009;1.620167493820190E-001;6.431075930595398E-002;-3.941781818866730E-003;7.230897899717093E-004;
2.402833333333334E+009;1.633178293704987E-001;6.174004450440407E-002;-3.615013090893626E-003;1.866040518507361E-003;
2.403000000000000E+009;1.649502813816071E-001;5.935511738061905E-002;-4.059907514601946E-003;2.045600675046444E-003;
2.403166666666667E+009;1.665390282869339E-001;5.721412226557732E-002;-3.530610585585237E-003;1.919241738505662E-003;
2.403333333333334E+009;1.680232137441635E-001;5.502422153949738E-002;-4.063431639224291E-003;2.882806351408362E-003;
2.403500000000000E+009;1.696363985538483E-001;5.295584350824356E-002;-3.698141314089298E-003;3.284669946879149E-003;
2.403666666666667E+009;1.715213805437088E-001;5.098709464073181E-002;-3.701925976201892E-003;3.447300055995584E-003;
2.403833333333334E+009;1.730598211288452E-001;4.924335330724716E-002;-3.440356114879251E-003;3.618954448029399E-003;
2.404000000000000E+009;1.745708882808685E-001;4.734994471073151E-002;-3.220504615455866E-003;3.710815217345953E-003;
2.404166666666667E+009;1.765106171369553E-001;4.606518149375916E-002;-3.002565354108810E-003;3.843689337372780E-003;
2.404333333333334E+009;1.779836565256119E-001;4.440595582127571E-002;-2.740996656939387E-003;4.009968601167202E-003;
2.404500000000000E+009;1.795231401920319E-001;4.294364154338837E-002;-2.642640145495534E-003;4.074234981089830E-003;
2.404666666666667E+009;1.812506914138794E-001;4.196740314364433E-002;-2.167487284168601E-003;4.138552583754063E-003;
2.404833333333334E+009;1.827233135700226E-001;4.087151587009430E-002;-2.256995067000389E-003;4.159476608037949E-003;
2.405000000000000E+009;1.841477751731873E-001;4.017477110028267E-002;-1.815383438952267E-003;4.289485514163971E-003;
2.405166666666667E+009;1.854799985885620E-001;3.939163312315941E-002;-1.586783677339554E-003;4.323227796703577E-003;
2.405333333333334E+009;1.871069967746735E-001;3.909841179847717E-002;-1.416348153725267E-003;4.262033384293318E-003;
2.405500000000000E+009;1.884923726320267E-001;3.849316015839577E-002;-1.303337863646448E-003;4.304302856326103E-003;
2.405666666666667E+009;1.896777600049973E-001;3.813637793064117E-002;-9.901741286739707E-004;4.215326625853777E-003;
2.405833333333334E+009;1.907085329294205E-001;3.797298669815064E-002;-8.951308554969728E-004;4.317779093980789E-003;
2.406000000000000E+009;1.917942464351654E-001;3.765881434082985E-002;-8.197521092370153E-004;4.209693055599928E-003;
2.406166666666667E+009;1.928189396858215E-001;3.762302175164223E-002;-6.259260117076337E-004;4.381505772471428E-003;
2.406333333333334E+009;1.936686187982559E-001;3.753072023391724E-002;-4.259116831235588E-004;4.279654007405043E-003;
2.406500000000000E+009;1.944363117218018E-001;3.770824521780014E-002;-1.406077790306881E-004;4.347388166934252E-003;
2.406666666666667E+009;1.949675083160400E-001;3.767574578523636E-002;-1.666196476435289E-004;4.116745200008154E-003;
2.406833333333334E+009;1.956201046705246E-001;3.756356611847878E-002;2.361737715546042E-004;4.115599207580090E-003;
2.407000000000000E+009;1.957462728023529E-001;3.790492936968803E-002;2.558717969805002E-004;3.972967155277729E-003;
2.407166666666667E+009;1.962208896875382E-001;3.772147744894028E-002;4.432589339558035E-004;3.884381847456098E-003;
2.407333333333334E+009;1.961401551961899E-001;3.781808912754059E-002;4.673089133575559E-004;3.839748445898294E-003;
2.407500000000000E+009;1.959820836782455E-001;3.788785636425018E-002;7.031332352198660E-004;3.767984919250011E-003;
2.407666666666667E+009;1.960509419441223E-001;3.788170218467712E-002;7.412893464788795E-004;3.615244291722775E-003;
2.407833333333334E+009;1.954310685396195E-001;3.763022273778915E-002;9.087891667149961E-004;3.632514039054513E-003;
2.408000000000000E+009;1.954486370086670E-001;3.771598637104034E-002;9.815163211897016E-004;3.294446738436818E-003;
2.408166666666667E+009;1.948058754205704E-001;3.718583285808563E-002;1.012929133139551E-003;3.203995991498232E-003;
2.408333333333334E+009;1.944220811128616E-001;3.667917475104332E-002;1.099637360312045E-003;3.093595383688808E-003;
2.408500000000000E+009;1.936584860086441E-001;3.642497956752777E-002;1.122582005336881E-003;2.959441393613815E-003;
2.408666666666667E+009;1.930216550827026E-001;3.575044497847557E-002;1.315330970101059E-003;2.851404715329409E-003;
2.408833333333334E+009;1.923015564680100E-001;3.500210493803024E-002;1.083693467080593E-003;2.764598466455936E-003;
2.409000000000000E+009;1.913245320320129E-001;3.422042727470398E-002;1.364865107461810E-003;2.651099115610123E-003;
2.409166666666667E+009;1.904686540365219E-001;3.325502201914787E-002;1.199523336254060E-003;2.648157067596912E-003;
2.409333333333334E+009;1.894079595804215E-001;3.214168176054955E-002;1.369124394841492E-003;2.400452736765146E-003;
2.409500000000000E+009;1.881651133298874E-001;3.091969899833202E-002;1.137562096118927E-003;2.391849877312779E-003;
2.409666666666667E+009;1.873487681150436E-001;2.933757565915585E-002;1.264173653908074E-003;2.276662038639188E-003;
2.409833333333334E+009;1.862174272537231E-001;2.798182889819145E-002;1.229039626196027E-003;2.239371184259653E-003;
2.410000000000000E+009;1.854497194290161E-001;2.634360082447529E-002;1.224121660925448E-003;2.256140345707536E-003;
2.410166666666667E+009;1.842790395021439E-001;2.446055971086025E-002;1.271797809749842E-003;2.000235952436924E-003;
2.410333333333334E+009;1.832046657800674E-001;2.273620851337910E-002;1.438110368326306E-003;2.139240503311157E-003;
2.410500000000000E+009;1.822333335876465E-001;2.090304903686047E-002;1.241726451553404E-003;2.138069132342935E-003;
2.410666666666667E+009;1.814730614423752E-001;1.863555423915386E-002;1.204618252813816E-003;2.035859506577253E-003;
2.410833333333334E+009;1.807904243469238E-001;1.653191819787026E-002;1.232894719578326E-003;2.016294514760375E-003;
2.411000000000000E+009;1.799344867467880E-001;1.429687067866325E-002;1.208604429848492E-003;1.911040861159563E-003;
2.411166666666667E+009;1.794030815362930E-001;1.210491359233856E-002;1.218268880620599E-003;1.855078269727528E-003;
2.411333333333334E+009;1.788970679044724E-001;9.726786985993385E-003;1.274977577850223E-003;1.754423603415489E-003;
2.411500000000000E+009;1.785101145505905E-001;7.274515461176634E-003;1.209202222526074E-003;1.558680203743279E-003;
2.411666666666667E+009;1.782450973987579E-001;4.914794582873583E-003;1.239845762029290E-003;1.643802388571203E-003;
2.411833333333334E+009;1.778615713119507E-001;2.656686352565885E-003;1.241232734173536E-003;1.584747224114835E-003;
2.412000000000000E+009;1.781873255968094E-001;2.192656756960787E-005;1.027283025905490E-003;1.623024465516210E-003;
2.412166666666667E+009;1.784058958292007E-001;-2.232644706964493E-003;8.763839141465724E-004;1.586638973094523E-003;
2.412333333333334E+009;1.785129755735397E-001;-4.873933736234903E-003;9.056417038664222E-004;1.526929670944810E-003;
2.412500000000000E+009;1.789569258689880E-001;-7.063939236104488E-003;9.285898995585740E-004;1.348473131656647E-003;
2.412666666666667E+009;1.794159412384033E-001;-9.722596034407616E-003;8.235824643634260E-004;1.505594351328909E-003;
2.412833333333334E+009;1.802157312631607E-001;-1.199112832546234E-002;7.454651058651507E-004;1.566640916280448E-003;
2.413000000000000E+009;1.810381859540939E-001;-1.441142521798611E-002;6.298613734543324E-004;1.619034563191235E-003;
2.413166666666667E+009;1.816958189010620E-001;-1.646719500422478E-002;6.608922849409282E-004;1.739280531182885E-003;
2.413333333333334E+009;1.827942132949829E-001;-1.881567575037479E-002;5.090585327707231E-004;1.599917071871460E-003;
2.413500000000000E+009;1.837280541658402E-001;-2.100579440593720E-002;5.448436131700873E-004;1.786277629435062E-003;
2.413666666666667E+009;1.849758476018906E-001;-2.324473112821579E-002;7.516996702179313E-004;1.981832319870591E-003;
2.413833333333334E+009;1.859956979751587E-001;-2.518723718822002E-002;5.785559187643230E-004;2.244961680844426E-003;
2.414000000000000E+009;1.869135648012161E-001;-2.719757333397865E-002;6.515936111100018E-004;2.230220474302769E-003;
2.414166666666667E+009;1.883819401264191E-001;-2.898709475994110E-002;7.645567529834807E-004;2.349872607737780E-003;
2.414333333333334E+009;1.894409507513046E-001;-3.096597641706467E-002;9.066719794645906E-004;2.491570543497801E-003;
2.414500000000000E+009;1.906698942184448E-001;-3.224943205714226E-002;9.508677176199853E-004;2.513408893719316E-003;
2.414666666666667E+009;1.918535679578781E-001;-3.384326398372650E-002;1.155291916802526E-003;2.465786645188928E-003;
2.414833333333334E+009;1.928807646036148E-001;-3.516929596662521E-002;1.340276328846812E-003;2.395010087639093E-003;
2.415000000000000E+009;1.941010802984238E-001;-3.635187819600105E-002;1.428315299563110E-003;2.626184374094009E-003;
2.415166666666667E+009;1.954027265310288E-001;-3.749034926295281E-002;1.483787200413644E-003;2.574857091531158E-003;
2.415333333333334E+009;1.963758468627930E-001;-3.837600350379944E-002;1.553438487462699E-003;2.666935324668884E-003;
2.415500000000000E+009;1.977139562368393E-001;-3.910907730460167E-002;1.656731590628624E-003;2.605663845315576E-003;
2.415666666666667E+009;1.986814141273499E-001;-3.990385681390762E-002;1.842725090682507E-003;2.544036135077477E-003;
2.415833333333334E+009;1.994816958904266E-001;-4.044822230935097E-002;2.003881847485900E-003;2.806927775964141E-003;
2.416000000000000E+009;2.003756612539291E-001;-4.107873141765595E-002;2.181734191253781E-003;2.706278115510941E-003;
2.416166666666667E+009;2.010567337274551E-001;-4.169197380542755E-002;2.260192763060331E-003;2.787694334983826E-003;
2.416333333333334E+009;2.017053365707398E-001;-4.188226908445358E-002;2.431120257824659E-003;2.668492263182998E-003;
2.416500000000000E+009;2.020422667264938E-001;-4.211423546075821E-002;2.720877761021256E-003;2.748532686382532E-003;
2.416666666666667E+009;2.023984789848328E-001;-4.236120730638504E-002;2.873323624953628E-003;2.674201503396034E-003;
2.416833333333334E+009;2.025411128997803E-001;-4.242316260933876E-002;2.982150064781308E-003;2.561654895544052E-003;
2.417000000000000E+009;2.026682049036026E-001;-4.256643727421761E-002;3.098508110269904E-003;2.415192546322942E-003;
2.417166666666667E+009;2.024430185556412E-001;-4.248920455574989E-002;3.393296850845218E-003;2.405548933893442E-003;
2.417333333333334E+009;2.021663188934326E-001;-4.238530248403549E-002;3.490696894004941E-003;2.135869581252337E-003;
2.417500000000000E+009;2.018241882324219E-001;-4.233308508992195E-002;3.711761208251119E-003;2.007181290537119E-003;
2.417666666666667E+009;2.013730555772781E-001;-4.221785068511963E-002;3.902684198692441E-003;1.866523525677621E-003;
2.417833333333334E+009;2.008894085884094E-001;-4.194506630301476E-002;4.136754199862480E-003;1.784731284715235E-003;
2.418000000000000E+009;2.001511752605438E-001;-4.181632399559021E-002;4.143774509429932E-003;1.437740167602897E-003;
2.418166666666667E+009;1.993733942508698E-001;-4.166957363486290E-002;4.076374229043722E-003;1.069937716238201E-003;
2.418333333333334E+009;1.985361129045487E-001;-4.155017808079720E-002;4.157301038503647E-003;9.633926674723625E-004;
2.418500000000000E+009;1.974088549613953E-001;-4.161766543984413E-002;4.105293657630682E-003;8.463294943794608E-004;
2.418666666666667E+009;1.966188997030258E-001;-4.160686954855919E-002;4.240221809595823E-003;6.773139466531575E-004;
2.418833333333334E+009;1.952442377805710E-001;-4.172574728727341E-002;4.238685127347708E-003;3.560871700756252E-004;
2.419000000000000E+009;1.939861923456192E-001;-4.200937971472740E-002;4.044374451041222E-003;4.404345818329603E-004;
2.419166666666667E+009;1.927469074726105E-001;-4.216755181550980E-002;4.254267551004887E-003;2.242824120912701E-004;
2.419333333333334E+009;1.913547217845917E-001;-4.269386827945709E-002;4.225035198032856E-003;-9.873689123196527E-006;
2.419500000000000E+009;1.898653954267502E-001;-4.320818558335304E-002;4.243036732077599E-003;-1.417248131474480E-004;
2.419666666666667E+009;1.882804483175278E-001;-4.399148747324944E-002;4.170734900981188E-003;-2.176007255911827E-004;
2.419833333333334E+009;1.867218166589737E-001;-4.466854780912399E-002;4.185293801128864E-003;-3.336492227390409E-004;
2.420000000000000E+009;1.851589679718018E-001;-4.552724584937096E-002;4.202461335808039E-003;-3.575389273464680E-004;
2.420166666666667E+009;1.836560070514679E-001;-4.650013521313667E-002;4.102735780179501E-003;-5.642284522764385E-004;
2.420333333333334E+009;1.818474978208542E-001;-4.771389439702034E-002;4.126811865717173E-003;-7.941307267174125E-004;
2.420500000000000E+009;1.804970204830170E-001;-4.901929199695587E-002;3.975406754761934E-003;-7.614511996507645E-004;
2.420666666666667E+009;1.787905693054199E-001;-5.017459392547607E-002;4.069795832037926E-003;-1.058274414390326E-003;
2.420833333333334E+009;1.773272454738617E-001;-5.176316946744919E-002;4.001697991043329E-003;-1.218037214130163E-003;
2.421000000000000E+009;1.757981926202774E-001;-5.319604277610779E-002;4.009109456092119E-003;-1.381730893626809E-003;
2.421166666666667E+009;1.743524968624115E-001;-5.485267937183380E-002;3.905477235093713E-003;-1.549772568978369E-003;
2.421333333333334E+009;1.726930737495422E-001;-5.644123628735542E-002;3.771853633224964E-003;-1.681924564763904E-003;
2.421500000000000E+009;1.714813411235809E-001;-5.851440876722336E-002;3.729006974026561E-003;-1.658197492361069E-003;
2.421666666666667E+009;1.702367365360260E-001;-6.016922742128372E-002;3.632888197898865E-003;-1.843953621573746E-003;
2.421833333333334E+009;1.692678332328796E-001;-6.203450635075569E-002;3.663074225187302E-003;-2.227461431175470E-003;
2.422000000000000E+009;1.679812520742416E-001;-6.400774419307709E-002;3.403440816327930E-003;-2.340313512831926E-003;
2.422166666666667E+009;1.671071201562882E-001;-6.627984344959259E-002;3.396016778424382E-003;-2.429374493658543E-003;
2.422333333333334E+009;1.662443876266480E-001;-6.822413206100464E-002;3.269341308623552E-003;-2.436311449855566E-003;
2.422500000000000E+009;1.656780987977982E-001;-7.010208815336227E-002;3.108665579929948E-003;-2.680304460227490E-003;
2.422666666666667E+009;1.648797839879990E-001;-7.233189791440964E-002;3.039193805307150E-003;-2.632075455039740E-003;
2.422833333333334E+009;1.643359363079071E-001;-7.436572015285492E-002;2.860888838768005E-003;-2.763994736596942E-003;
2.423000000000000E+009;1.639277040958405E-001;-7.629410922527313E-002;2.565951785072684E-003;-2.851521363481879E-003;
2.423166666666667E+009;1.634303629398346E-001;-7.821830362081528E-002;2.426818246021867E-003;-3.018347779288888E-003;
2.423333333333334E+009;1.632369905710220E-001;-8.025918900966644E-002;2.205253345891833E-003;-2.935948548838496E-003;
2.423500000000000E+009;1.632415205240250E-001;-8.209545910358429E-002;2.203603507950902E-003;-2.912393771111965E-003;
2.423666666666667E+009;1.633602231740952E-001;-8.401918411254883E-002;1.857481431216002E-003;-2.951173111796379E-003;
2.423833333333334E+009;1.632080972194672E-001;-8.569590002298355E-002;1.591396518051624E-003;-2.876191632822156E-003;
2.424000000000000E+009;1.634090989828110E-001;-8.749587833881378E-002;1.636058324947953E-003;-2.812765771523118E-003;
2.424166666666667E+009;1.633743941783905E-001;-8.929885178804398E-002;1.423653913661838E-003;-2.762069925665855E-003;
2.424333333333334E+009;1.637168079614639E-001;-9.066266566514969E-002;1.329052145592868E-003;-2.879321109503508E-003;
2.424500000000000E+009;1.639524847269058E-001;-9.234397113323212E-002;1.281074481084943E-003;-2.707435283809900E-003;
2.424666666666667E+009;1.642423272132874E-001;-9.374830126762390E-002;1.320294570177794E-003;-2.674157731235027E-003;
2.424833333333334E+009;1.646519303321838E-001;-9.508152306079865E-002;1.103844726458192E-003;-2.655301708728075E-003;
2.425000000000000E+009;1.651093959808350E-001;-9.626722335815430E-002;1.116789411753416E-003;-2.570283133536577E-003;
2.425166666666667E+009;1.652878671884537E-001;-9.733560681343079E-002;8.940600673668087E-004;-2.552549587562680E-003;
2.425333333333334E+009;1.657098233699799E-001;-9.824089705944061E-002;1.107147312723100E-003;-2.556800376623869E-003;
2.425500000000000E+009;1.661786437034607E-001;-9.924910217523575E-002;9.526005596853793E-004;-2.488864818587899E-003;
2.425666666666667E+009;1.664895564317703E-001;-9.988071769475937E-002;1.056437264196575E-003;-2.401957055553794E-003;
2.425833333333334E+009;1.667088419198990E-001;-1.007777974009514E-001;9.799216641113162E-004;-2.502517076209188E-003;
2.426000000000000E+009;1.671875864267349E-001;-1.010969057679176E-001;9.087066282518208E-004;-2.355130156502128E-003;
2.426166666666667E+009;1.677084714174271E-001;-1.016011908650398E-001;1.067733042873442E-003;-2.333230571821332E-003;
2.426333333333334E+009;1.675222367048264E-001;-1.021450906991959E-001;9.530122042633593E-004;-2.584514673799276E-003;
2.426500000000000E+009;1.680520176887512E-001;-1.024617478251457E-001;1.043549389578402E-003;-2.457615220919251E-003;
2.426666666666667E+009;1.681849062442780E-001;-1.028312593698502E-001;9.142436902038753E-004;-2.553075319156051E-003;
2.426833333333334E+009;1.685212701559067E-001;-1.029746830463409E-001;9.469758369959891E-004;-2.540900604799390E-003;
2.427000000000000E+009;1.683231890201569E-001;-1.031879931688309E-001;8.640172891318798E-004;-2.496230415999889E-003;
2.427166666666667E+009;1.683750897645950E-001;-1.032895818352699E-001;1.032320200465620E-003;-2.701411489397287E-003;
2.427333333333334E+009;1.682141125202179E-001;-1.035445332527161E-001;1.016931142657995E-003;-2.603223547339439E-003;
2.427500000000000E+009;1.680499911308289E-001;-1.036613956093788E-001;9.949191007763147E-004;-2.724783727899194E-003;
2.427666666666667E+009;1.676715761423111E-001;-1.037061810493469E-001;8.806434925645590E-004;-2.696105511859059E-003;
2.427833333333334E+009;1.673566102981567E-001;-1.038094907999039E-001;8.956535020843148E-004;-2.760744653642178E-003;
