# Version 1.00
#
freq[Hz];re:Trc1_S11;im:Trc1_S11;re:Trc2_S21;im:Trc2_S21;
2.400000000000000E+009;1.555939465761185E-001;1.067558228969574E-001;-3.490260103717446E-003;-5.383178940974176E-004;
2.400166666666667E+009;1.551696807146072E-001;1.043361946940422E-001;-3.679117653518915E-003;-4.432269779499620E-004;
2.400333333333334E+009;1.550952196121216E-001;1.021121442317963E-001;-3.605388803407550E-003;-3.426612238399684E-004;
2.400500000000000E+009;1.551248431205750E-001;9.904661774635315E-002;-3.831430338323116E-003;-2.780418435577303E-004;
2.400666666666667E+009;1.549658626317978E-001;9.704150259494782E-002;-3.982945345342159E-003;-4.069278293172829E-005;
2.400833333333334E+009;1.552554666996002E-001;9.387591481208801E-002;-4.080208018422127E-003;-7.114343316061422E-005;
2.401000000000000E+009;1.555801182985306E-001;9.096255153417587E-002;-4.174275789409876E-003;2.928185276687145E-004;
2.401166666666667E+009;1.554483026266098E-001;8.860474079847336E-002;-4.126690328121185E-003;2.746819227468222E-004;
2.401333333333334E+009;1.558052599430084E-001;8.529058843851090E-002;-4.159200936555862E-003;6.218957714736462E-004;
2.401500000000000E+009;1.561851948499680E-001;8.249032497406006E-002;-4.317587707191706E-003;8.122217259369791E-004;
2.401666666666667E+009;1.566517800092697E-001;7.959559559822083E-002;-4.265053663402796E-003;9.507006616331637E-004;
2.401833333333334E+009;1.572283059358597E-001;7.718832790851593E-002;-4.253938794136047E-003;1.034681685268879E-003;
2.402000000000000E+009;1.580864042043686E-001;7.426235079765320E-002;-4.308504052460194E-003;1.292496337555349E-003;
2.402166666666667E+009;1.589145809412003E-001;7.169732451438904E-002;-4.163193516433239E-003;1.584339886903763E-003;
2.402333333333334E+009;1.598882675170898E-001;6.890273094177246E-002;-4.228333011269569E-003;1.766667584888637E-003;
2.402500000000000E+009;1.609680205583572E-001;6.638775765895844E-002;-4.268544726073742E-003;1.795750926248729E-003;
2.402666666666667E+009;1.622768789529800E-001;6.421514600515366E-002;-4.230376332998276E-003;2.086306689307094E-003;
2.402833333333334E+009;1.635985970497131E-001;6.176384165883064E-002;-4.247697535902262E-003;2.227026037871838E-003;
2.403000000000000E+009;1.650166809558868E-001;5.950772389769554E-002;-4.143856931477785E-003;2.335444325581193E-003;
2.403166666666667E+009;1.667778193950653E-001;5.708429589867592E-002;-3.997462335973978E-003;2.597176237031817E-003;
2.403333333333334E+009;1.681924909353256E-001;5.507488921284676E-002;-3.867362625896931E-003;2.879347419366241E-003;
2.403500000000000E+009;1.698079258203507E-001;5.292754247784615E-002;-3.764566266909242E-003;3.057381138205528E-003;
2.403666666666667E+009;1.716681271791458E-001;5.090142786502838E-002;-3.645498305559158E-003;3.255680901929736E-003;
2.403833333333334E+009;1.732889413833618E-001;4.911465942859650E-002;-3.399597015231848E-003;3.392936196178198E-003;
2.404000000000000E+009;1.747371703386307E-001;4.731411486864090E-002;-3.166010137647390E-003;3.692453028634191E-003;
2.404166666666667E+009;1.767532080411911E-001;4.572870954871178E-002;-2.915652934461832E-003;3.922015428543091E-003;
2.404333333333334E+009;1.783816218376160E-001;4.429932683706284E-002;-2.683877479285002E-003;4.124454222619534E-003;
2.404500000000000E+009;1.798093020915985E-001;4.278045892715454E-002;-2.564921742305160E-003;4.033694043755531E-003;
2.404666666666667E+009;1.815311163663864E-001;4.180209338665009E-002;-2.178029855713248E-003;4.156953189522028E-003;
2.404833333333334E+009;1.831254363059998E-001;4.068921878933907E-002;-2.029000548645854E-003;4.171364940702915E-003;
2.405000000000000E+009;1.843951046466827E-001;4.010285809636116E-002;-1.754072145558894E-003;4.201915580779314E-003;
2.405166666666667E+009;1.859592050313950E-001;3.918994218111038E-002;-1.533080241642892E-003;4.108637571334839E-003;
2.405333333333334E+009;1.873316317796707E-001;3.882384300231934E-002;-1.562501187436283E-003;4.285913892090321E-003;
2.405500000000000E+009;1.885792762041092E-001;3.830342739820480E-002;-1.330319559201598E-003;4.151174332946539E-003;
2.405666666666667E+009;1.897802799940109E-001;3.807283937931061E-002;-1.299439114518464E-003;4.169961437582970E-003;
2.405833333333334E+009;1.910059154033661E-001;3.765218704938889E-002;-8.705926593393087E-004;4.169229883700609E-003;
2.406000000000000E+009;1.920118331909180E-001;3.749302402138710E-002;-2.949524496216327E-004;4.425786901265383E-003;
2.406166666666667E+009;1.927959024906158E-001;3.713763877749443E-002;2.458915114402771E-004;3.833953989669681E-003;
2.406333333333334E+009;1.936589777469635E-001;3.725435957312584E-002;2.677187148947269E-004;3.900357056409121E-003;
2.406500000000000E+009;1.943642050027847E-001;3.760255500674248E-002;-7.407611119560897E-004;3.454830031841993E-003;
2.406666666666667E+009;1.951679736375809E-001;3.759627416729927E-002;-3.311856999062002E-004;4.305003210902214E-003;
2.406833333333334E+009;1.959453076124191E-001;3.759883344173431E-002;-5.172759993001819E-004;4.192818887531757E-003;
2.407000000000000E+009;1.955518126487732E-001;3.769960254430771E-002;7.818017038516700E-004;3.033475019037724E-003;
2.407166666666667E+009;1.962340325117111E-001;3.760831058025360E-002;1.337929861620069E-004;3.632571548223496E-003;
2.407333333333334E+009;1.963016986846924E-001;3.772617876529694E-002;4.418025200720877E-004;3.755081910640001E-003;
2.407500000000000E+009;1.959951967000961E-001;3.758959099650383E-002;1.068641780875623E-003;3.715405706316233E-003;
2.407666666666667E+009;1.962498575448990E-001;3.760563954710960E-002;7.808785303495824E-004;3.541004378348589E-003;
2.407833333333334E+009;1.957206577062607E-001;3.749964013695717E-002;7.889846456237137E-004;3.519144374877214E-003;
2.408000000000000E+009;1.954816132783890E-001;3.739768639206886E-002;9.414103697054088E-004;3.391722915694118E-003;
2.408166666666667E+009;1.949568241834641E-001;3.699999302625656E-002;1.079797861166298E-003;3.313693683594465E-003;
2.408333333333334E+009;1.944380104541779E-001;3.644831851124764E-002;1.093446044251323E-003;3.279966535046697E-003;
2.408500000000000E+009;1.938464492559433E-001;3.614678606390953E-002;1.084715244360268E-003;2.993050497025251E-003;
2.408666666666667E+009;1.932602673768997E-001;3.560728952288628E-002;1.191991381347179E-003;3.052517073228955E-003;
2.408833333333334E+009;1.923833787441254E-001;3.490712121129036E-002;1.192093011923134E-003;2.793077379465103E-003;
2.409000000000000E+009;1.915031820535660E-001;3.384682163596153E-002;1.284604892134666E-003;2.682193880900741E-003;
2.409166666666667E+009;1.904087811708450E-001;3.288289532065392E-002;1.260476303286851E-003;2.622117288410664E-003;
2.409333333333334E+009;1.894738823175430E-001;3.195569291710854E-002;1.251038163900375E-003;2.544271061196923E-003;
2.409500000000000E+009;1.884180158376694E-001;3.067766316235066E-002;1.295238500460982E-003;2.351129194721580E-003;
2.409666666666667E+009;1.873331069946289E-001;2.915909327566624E-002;1.391769968904555E-003;2.401065779849887E-003;
2.409833333333334E+009;1.863733083009720E-001;2.784602344036102E-002;1.209522597491741E-003;2.368521178141236E-003;
2.410000000000000E+009;1.853574216365814E-001;2.620721794664860E-002;1.254501286894083E-003;2.230012556537986E-003;
2.410166666666667E+009;1.844364851713181E-001;2.428084611892700E-002;1.252137706615031E-003;2.175110159441829E-003;
2.410333333333334E+009;1.833779662847519E-001;2.262661606073380E-002;1.293584704399109E-003;2.087015891447663E-003;
2.410500000000000E+009;1.822894364595413E-001;2.064711786806583E-002;1.340764923952520E-003;2.071361290290952E-003;
2.410666666666667E+009;1.814734935760498E-001;1.847024261951447E-002;1.279576099477708E-003;2.072168979793787E-003;
2.410833333333334E+009;1.808140426874161E-001;1.630156673491001E-002;1.321578049100936E-003;2.022782573476434E-003;
2.411000000000000E+009;1.798903495073319E-001;1.409609708935022E-002;1.183166517876089E-003;1.876418944448233E-003;
2.411166666666667E+009;1.794357746839523E-001;1.181779708713293E-002;1.205928507260978E-003;1.782291219569743E-003;
2.411333333333334E+009;1.789653301239014E-001;9.330534376204014E-003;1.165242865681648E-003;1.796172698959708E-003;
2.411500000000000E+009;1.785408258438110E-001;6.964756175875664E-003;1.165460562333465E-003;1.692115096375346E-003;
2.411666666666667E+009;1.784268468618393E-001;4.594204016029835E-003;1.130870077759028E-003;1.598437782377005E-003;
2.411833333333334E+009;1.780955344438553E-001;2.384585095569491E-003;1.025551697239280E-003;1.744463108479977E-003;
2.412000000000000E+009;1.781842708587647E-001;-1.784236810635775E-004;1.030127285048366E-003;1.606775913387537E-003;
2.412166666666667E+009;1.782119125127792E-001;-2.494408050552011E-003;8.720518671907485E-004;1.580897136591375E-003;
2.412333333333334E+009;1.783980876207352E-001;-5.015605594962835E-003;8.380566141568124E-004;1.310005784034729E-003;
2.412500000000000E+009;1.788744926452637E-001;-7.519952021539211E-003;7.443495560437441E-004;1.667338772676885E-003;
2.412666666666667E+009;1.793657839298248E-001;-9.876432828605175E-003;6.413880619220436E-004;1.623315387405455E-003;
2.412833333333334E+009;1.801036894321442E-001;-1.231587678194046E-002;6.583791691809893E-004;1.665351213887334E-003;
2.413000000000000E+009;1.808218061923981E-001;-1.460911333560944E-002;5.464399000629783E-004;1.637008157558739E-003;
2.413166666666667E+009;1.816335618495941E-001;-1.681663841009140E-002;5.277507007122040E-004;1.938528963364661E-003;
2.413333333333334E+009;1.826878488063812E-001;-1.893487386405468E-002;5.489409086294472E-004;1.876012189313769E-003;
2.413500000000000E+009;1.835372149944305E-001;-2.124540880322456E-002;5.180411390028894E-004;1.884744036942720E-003;
2.413666666666667E+009;1.847029477357864E-001;-2.333565987646580E-002;6.160340853966773E-004;2.064627362415195E-003;
2.413833333333334E+009;1.856721192598343E-001;-2.543278597295284E-002;6.049491930752993E-004;2.242218470200896E-003;
2.414000000000000E+009;1.868778914213181E-001;-2.732894383370876E-002;6.491737440228462E-004;2.251644851639867E-003;
2.414166666666667E+009;1.881501078605652E-001;-2.913246117532253E-002;7.287131738848984E-004;2.460520248860121E-003;
2.414333333333334E+009;1.893086582422257E-001;-3.114252537488937E-002;9.728005970828235E-004;2.536012558266521E-003;
2.414500000000000E+009;1.904499083757401E-001;-3.252204507589340E-002;1.035508932545781E-003;2.589149866253138E-003;
2.414666666666667E+009;1.919156759977341E-001;-3.386858850717545E-002;1.129094860516489E-003;2.558850916102529E-003;
2.414833333333334E+009;1.927845478057861E-001;-3.527479618787766E-002;1.284276833757758E-003;2.599193016067147E-003;
2.415000000000000E+009;1.939883828163147E-001;-3.660030290484428E-002;1.397670945152640E-003;2.638638950884342E-003;
2.415166666666667E+009;1.951783895492554E-001;-3.754488378763199E-002;1.487613073550165E-003;2.685678657144308E-003;
2.415333333333334E+009;1.963715404272080E-001;-3.867774829268456E-002;1.678684726357460E-003;2.657710574567318E-003;
2.415500000000000E+009;1.974006295204163E-001;-3.925915434956551E-002;1.815695897676051E-003;2.668383996933699E-003;
2.415666666666667E+009;1.984237134456635E-001;-4.001068696379662E-002;1.912879059091210E-003;2.854604041203857E-003;
2.415833333333334E+009;1.993526667356491E-001;-4.075455293059349E-002;2.011038362979889E-003;2.745132194831967E-003;
2.416000000000000E+009;2.000890821218491E-001;-4.129403829574585E-002;2.225938253104687E-003;2.902888925746083E-003;
2.416166666666667E+009;2.008294463157654E-001;-4.176222905516625E-002;2.364557469263673E-003;2.686375053599477E-003;
2.416333333333334E+009;2.013883292675018E-001;-4.192090034484863E-002;2.521494170650840E-003;2.639465499669313E-003;
2.416500000000000E+009;2.019594907760620E-001;-4.230038449168205E-002;2.822038950398564E-003;2.800941001623869E-003;
2.416666666666667E+009;2.022508531808853E-001;-4.251693934202194E-002;3.013013396412134E-003;2.564817667007446E-003;
2.416833333333334E+009;2.024176269769669E-001;-4.256644472479820E-002;3.037470858544111E-003;2.629562281072140E-003;
2.417000000000000E+009;2.025219500064850E-001;-4.275457188487053E-002;3.458537394180894E-003;2.467080485075712E-003;
2.417166666666667E+009;2.022127211093903E-001;-4.261938855051994E-002;3.450182965025306E-003;2.329192589968443E-003;
2.417333333333334E+009;2.020180225372315E-001;-4.247412458062172E-002;3.713553305715323E-003;2.002788707613945E-003;
2.417500000000000E+009;2.017845809459686E-001;-4.257109761238098E-002;3.885590471327305E-003;1.994222635403276E-003;
2.417666666666667E+009;2.011254280805588E-001;-4.232226312160492E-002;3.863322548568249E-003;1.587036298587918E-003;
2.417833333333334E+009;2.006551027297974E-001;-4.220309108495712E-002;4.089612048119307E-003;1.589888939633966E-003;
2.418000000000000E+009;1.999798417091370E-001;-4.187557101249695E-002;4.021361935883761E-003;1.431015203706920E-003;
2.418166666666667E+009;1.992129087448120E-001;-4.189061000943184E-002;4.134463146328926E-003;1.249605673365295E-003;
2.418333333333334E+009;1.982825100421906E-001;-4.173487052321434E-002;4.267761483788490E-003;1.050725695677102E-003;
2.418500000000000E+009;1.973612010478973E-001;-4.171302542090416E-002;4.394204355776310E-003;8.998472476378083E-004;
2.418666666666667E+009;1.963201761245728E-001;-4.162000864744186E-002;4.411203321069479E-003;9.052446694113314E-004;
2.418833333333334E+009;1.951368153095245E-001;-4.176070541143417E-002;4.242881201207638E-003;5.727831157855690E-004;
2.419000000000000E+009;1.936393082141876E-001;-4.205544292926788E-002;4.318157676607370E-003;2.912882773671299E-004;
2.419166666666667E+009;1.925689876079559E-001;-4.231353476643562E-002;4.271047655493021E-003;1.819218887249008E-004;
2.419333333333334E+009;1.910365968942642E-001;-4.288637638092041E-002;4.281582310795784E-003;1.587761071277782E-004;
2.419500000000000E+009;1.897280961275101E-001;-4.317912831902504E-002;4.322656895965338E-003;-5.450610115076415E-005;
2.419666666666667E+009;1.880716234445572E-001;-4.408971220254898E-002;4.373783711344004E-003;-3.078722220379859E-004;
2.419833333333334E+009;1.864862442016602E-001;-4.469202086329460E-002;4.195634275674820E-003;-3.433516249060631E-004;
2.420000000000000E+009;1.850695908069611E-001;-4.557470604777336E-002;4.221928771585226E-003;-6.110314279794693E-004;
2.420166666666667E+009;1.834044158458710E-001;-4.672605171799660E-002;4.179919604212046E-003;-6.616888567805290E-004;
2.420333333333334E+009;1.817653477191925E-001;-4.786861687898636E-002;4.257813096046448E-003;-6.669867434538901E-004;
2.420500000000000E+009;1.800873428583145E-001;-4.913766682147980E-002;4.136269446462393E-003;-9.392959182150662E-004;
2.420666666666667E+009;1.784065216779709E-001;-5.026489496231079E-002;4.151213914155960E-003;-9.660226642154157E-004;
2.420833333333334E+009;1.769425123929977E-001;-5.175644159317017E-002;4.108903929591179E-003;-1.213382696732879E-003;
2.421000000000000E+009;1.755736172199249E-001;-5.334246903657913E-002;4.000291228294373E-003;-1.295733847655356E-003;
2.421166666666667E+009;1.741885989904404E-001;-5.502246320247650E-002;4.035709425806999E-003;-1.473655574955046E-003;
2.421333333333334E+009;1.724542826414108E-001;-5.650059878826141E-002;3.952899947762489E-003;-1.730882446281612E-003;
2.421500000000000E+009;1.712118685245514E-001;-5.852237343788147E-002;3.840482095256448E-003;-1.865742728114128E-003;
2.421666666666667E+009;1.699954718351364E-001;-6.022873520851135E-002;3.766027977690101E-003;-1.992510398849845E-003;
2.421833333333334E+009;1.689038872718811E-001;-6.205595284700394E-002;3.745581954717636E-003;-2.094338182359934E-003;
2.422000000000000E+009;1.679473966360092E-001;-6.405868381261826E-002;3.582090605050325E-003;-2.180784242227674E-003;
2.422166666666667E+009;1.669505238533020E-001;-6.625496596097946E-002;3.550748107954860E-003;-2.345944289118052E-003;
2.422333333333334E+009;1.660256683826447E-001;-6.818395853042603E-002;3.341307630762458E-003;-2.652413677424192E-003;
2.422500000000000E+009;1.653470695018768E-001;-7.004440575838089E-002;3.130448050796986E-003;-2.777941757813096E-003;
2.422666666666667E+009;1.646036356687546E-001;-7.216404378414154E-002;3.002578159794211E-003;-2.721538068726659E-003;
2.422833333333334E+009;1.641228795051575E-001;-7.426001876592636E-002;2.838502870872617E-003;-2.979658544063568E-003;
2.423000000000000E+009;1.635840237140656E-001;-7.633395493030548E-002;2.530194353312254E-003;-2.890239236876369E-003;
2.423166666666667E+009;1.633322983980179E-001;-7.826848328113556E-002;2.590864431113005E-003;-2.996084280312061E-003;
2.423333333333334E+009;1.631305962800980E-001;-8.034815639257431E-002;2.442629309371114E-003;-3.145431634038687E-003;
2.423500000000000E+009;1.630555838346481E-001;-8.212453126907349E-002;2.082531806081533E-003;-3.138866741210222E-003;
2.423666666666667E+009;1.631624400615692E-001;-8.383674919605255E-002;1.786184613592923E-003;-2.995902439579368E-003;
2.423833333333334E+009;1.630352288484573E-001;-8.562630414962769E-002;1.846970990300179E-003;-2.917616162449122E-003;
2.424000000000000E+009;1.630854010581970E-001;-8.750420063734055E-002;1.562562189064920E-003;-2.756621455773711E-003;
2.424166666666667E+009;1.632651090621948E-001;-8.906805515289307E-002;1.662811264395714E-003;-2.967484761029482E-003;
2.424333333333334E+009;1.633549779653549E-001;-9.054777771234512E-002;1.417654799297452E-003;-2.828469267114997E-003;
2.424500000000000E+009;1.637881398200989E-001;-9.225928783416748E-002;1.374360523186624E-003;-2.726573497056961E-003;
2.424666666666667E+009;1.640569567680359E-001;-9.365854412317276E-002;1.295343739911914E-003;-2.706381957978010E-003;
2.424833333333334E+009;1.646153926849365E-001;-9.504163265228272E-002;1.335942302830517E-003;-2.691150642931461E-003;
2.425000000000000E+009;1.648835539817810E-001;-9.615054726600647E-002;1.091881887987256E-003;-2.751478459686041E-003;
2.425166666666667E+009;1.653495132923126E-001;-9.720837324857712E-002;1.085345866158605E-003;-2.759052906185389E-003;
2.425333333333334E+009;1.654937565326691E-001;-9.818612039089203E-002;1.029778155498207E-003;-2.604042645543814E-003;
2.425500000000000E+009;1.659872531890869E-001;-9.916090220212936E-002;8.987843757495284E-004;-2.396881114691496E-003;
2.425666666666667E+009;1.663085967302322E-001;-9.974756836891174E-002;1.034511136822403E-003;-2.484385389834642E-003;
2.425833333333334E+009;1.666305661201477E-001;-1.006678044795990E-001;8.687154040671885E-004;-2.555929124355316E-003;
2.426000000000000E+009;1.670284569263458E-001;-1.010594889521599E-001;1.056427718140185E-003;-2.470998093485832E-003;
2.426166666666667E+009;1.674433052539825E-001;-1.015909686684609E-001;8.178353309631348E-004;-2.399217803031206E-003;
2.426333333333334E+009;1.675531119108200E-001;-1.019864976406097E-001;9.502853499725461E-004;-2.473420230671763E-003;
2.426500000000000E+009;1.678091883659363E-001;-1.022769734263420E-001;8.515665540471673E-004;-2.545684343203902E-003;
2.426666666666667E+009;1.680776178836823E-001;-1.026201620697975E-001;9.109685779549182E-004;-2.425119513645768E-003;
2.426833333333334E+009;1.682923585176468E-001;-1.028877198696137E-001;9.369497420266271E-004;-2.477192785590887E-003;
2.427000000000000E+009;1.683234721422195E-001;-1.030581146478653E-001;9.113846463151276E-004;-2.552668331190944E-003;
2.427166666666667E+009;1.682495325803757E-001;-1.031231805682182E-001;9.906339691951871E-004;-2.641531405970454E-003;
2.427333333333334E+009;1.681808084249497E-001;-1.032979190349579E-001;9.213644661940634E-004;-2.668547211214900E-003;
2.427500000000000E+009;1.678412258625031E-001;-1.035279259085655E-001;1.030619489029050E-003;-2.769813872873783E-003;
2.427666666666667E+009;1.676257848739624E-001;-1.035644859075546E-001;7.949931314215064E-004;-2.783292671665549E-003;
2.427833333333334E+009;1.671382486820221E-001;-1.036533266305924E-001;7.194681675173342E-004;-2.832932630553842E-003;
