# Version 1.00
#
freq[Hz];re:Trc1_S11;im:Trc1_S11;re:Trc2_S21;im:Trc2_S21;
2.400000000000000E+009;1.590726971626282E-001;6.291589885950089E-002;-4.911437630653381E-003;9.045557817444205E-004;
2.400166666666667E+009;1.587943732738495E-001;6.147424504160881E-002;-4.844200331717730E-003;1.235991250723600E-003;
2.400333333333334E+009;1.585680395364761E-001;5.945868417620659E-002;-4.859430249780417E-003;1.379245310090482E-003;
2.400500000000000E+009;1.587553471326828E-001;5.769651010632515E-002;-4.970294423401356E-003;1.450610812753439E-003;
2.400666666666667E+009;1.585820168256760E-001;5.551968887448311E-002;-4.770371131598949E-003;1.463041873648763E-003;
2.400833333333334E+009;1.584968119859695E-001;5.380423367023468E-002;-4.683641251176596E-003;1.577088958583772E-003;
2.401000000000000E+009;1.586249172687531E-001;5.166169628500938E-002;-4.459425341337919E-003;2.060499507933855E-003;
2.401166666666667E+009;1.586550921201706E-001;4.971335828304291E-002;-4.544365219771862E-003;2.046253765001893E-003;
2.401333333333334E+009;1.588332056999207E-001;4.755549505352974E-002;-4.319082479923964E-003;2.242496469989419E-003;
2.401500000000000E+009;1.591027379035950E-001;4.543861374258995E-002;-4.348675254732370E-003;2.377270488068461E-003;
2.401666666666667E+009;1.592068523168564E-001;4.355316981673241E-002;-4.260550253093243E-003;2.381858415901661E-003;
2.401833333333334E+009;1.597142368555069E-001;4.143258556723595E-002;-4.010062199085951E-003;2.596709178760648E-003;
2.402000000000000E+009;1.598522216081619E-001;3.942251577973366E-002;-4.036129917949438E-003;2.577572828158736E-003;
2.402166666666667E+009;1.603368073701859E-001;3.732518479228020E-002;-3.894789842888713E-003;2.970554400235415E-003;
2.402333333333334E+009;1.608054786920548E-001;3.562235832214356E-002;-3.712364472448826E-003;2.938620280474424E-003;
2.402500000000000E+009;1.615269184112549E-001;3.365754708647728E-002;-3.553996561095119E-003;2.939664758741856E-003;
2.402666666666667E+009;1.621963828802109E-001;3.179715201258659E-002;-3.515550401061773E-003;2.942671766504645E-003;
2.402833333333334E+009;1.628928333520889E-001;3.014549240469933E-002;-3.307975828647614E-003;3.098420798778534E-003;
2.403000000000000E+009;1.636890769004822E-001;2.847519703209400E-002;-3.335266606882215E-003;3.416734514757991E-003;
2.403166666666667E+009;1.643912792205811E-001;2.672735974192619E-002;-3.146876348182559E-003;3.441728884354234E-003;
2.403333333333334E+009;1.652349680662155E-001;2.531621046364307E-002;-3.151704324409366E-003;3.406389150768518E-003;
2.403500000000000E+009;1.661637723445892E-001;2.386943250894547E-002;-2.969527151435614E-003;3.546588821336627E-003;
2.403666666666667E+009;1.671269237995148E-001;2.241314202547073E-002;-2.660270081833005E-003;3.711898112669587E-003;
2.403833333333334E+009;1.680956929922104E-001;2.106568217277527E-002;-2.589051611721516E-003;3.711373312398791E-003;
2.404000000000000E+009;1.689753681421280E-001;1.978348009288311E-002;-2.694136695936322E-003;3.856136230751872E-003;
2.404166666666667E+009;1.699769198894501E-001;1.860214211046696E-002;-2.483771415427327E-003;3.816314972937107E-003;
2.404333333333334E+009;1.707976311445236E-001;1.752787269651890E-002;-2.375596901401877E-003;4.053817130625248E-003;
2.404500000000000E+009;1.716713756322861E-001;1.640067994594574E-002;-2.242669463157654E-003;3.962865564972162E-003;
2.404666666666667E+009;1.727171242237091E-001;1.543504558503628E-002;-2.124602207913995E-003;4.059943836182356E-003;
2.404833333333334E+009;1.736064404249191E-001;1.475805789232254E-002;-1.997605198994279E-003;4.168089013546705E-003;
2.405000000000000E+009;1.745419204235077E-001;1.403305865824223E-002;-1.693904981948435E-003;4.326755180954933E-003;
2.405166666666667E+009;1.754090636968613E-001;1.328028552234173E-002;-1.677881227806211E-003;4.408561624586582E-003;
2.405333333333334E+009;1.760704517364502E-001;1.241644192487001E-002;-1.430852920748293E-003;4.185630474239588E-003;
2.405500000000000E+009;1.768939048051834E-001;1.190852746367455E-002;-1.296805101446807E-003;4.227209370583296E-003;
2.405666666666667E+009;1.776164770126343E-001;1.155117247253656E-002;-1.067115692421794E-003;4.398640245199204E-003;
2.405833333333334E+009;1.781559884548187E-001;1.112839672714472E-002;-1.083864946849644E-003;4.541164729744196E-003;
2.406000000000000E+009;1.788537651300430E-001;1.066402066498995E-002;-5.570185603573918E-004;4.463856108486652E-003;
2.406166666666667E+009;1.793155968189240E-001;1.040443778038025E-002;-4.586936847772449E-004;4.459554795175791E-003;
2.406333333333334E+009;1.798522323369980E-001;1.006561610847712E-002;-3.272126778028905E-004;4.530874080955982E-003;
2.406500000000000E+009;1.801399290561676E-001;9.705621749162674E-003;-1.791705144569278E-004;4.455421585589647E-003;
2.406666666666667E+009;1.802182048559189E-001;9.371245279908180E-003;5.111747668706812E-005;4.443733952939510E-003;
2.406833333333334E+009;1.806303709745407E-001;9.024993516504765E-003;2.741675998549908E-004;4.590157419443131E-003;
2.407000000000000E+009;1.807656735181809E-001;8.608728647232056E-003;4.368086811155081E-004;4.477021750062704E-003;
2.407166666666667E+009;1.809430569410324E-001;8.421760052442551E-003;6.156490417197347E-004;4.426286555826664E-003;
2.407333333333334E+009;1.807869076728821E-001;7.912667468190193E-003;8.474843343719840E-004;4.352448973804712E-003;
2.407500000000000E+009;1.807580888271332E-001;7.550012320280075E-003;9.637036127969623E-004;4.143845289945602E-003;
2.407666666666667E+009;1.805908083915710E-001;7.256559561938047E-003;1.095807179808617E-003;4.041499458253384E-003;
2.407833333333334E+009;1.800382882356644E-001;6.580917630344629E-003;1.239554258063436E-003;4.034428857266903E-003;
2.408000000000000E+009;1.798631101846695E-001;6.034190766513348E-003;1.430482487194240E-003;3.937364090234041E-003;
2.408166666666667E+009;1.795320361852646E-001;5.503993015736342E-003;1.461842330172658E-003;3.821199061349034E-003;
2.408333333333334E+009;1.792651712894440E-001;4.663327243179083E-003;1.712427590973675E-003;3.557624993845820E-003;
2.408500000000000E+009;1.785661727190018E-001;3.979375120252371E-003;1.819667173549533E-003;3.571278648450971E-003;
2.408666666666667E+009;1.780812442302704E-001;3.138225059956312E-003;1.837855670601130E-003;3.415993181988597E-003;
2.408833333333334E+009;1.773663163185120E-001;2.291404642164707E-003;1.857948955148459E-003;3.313251771032810E-003;
2.409000000000000E+009;1.767036169767380E-001;1.406709896400571E-003;2.086897613480687E-003;3.164892084896565E-003;
2.409166666666667E+009;1.762352287769318E-001;1.995378115680069E-004;2.123957732692361E-003;3.063727868720889E-003;
2.409333333333334E+009;1.756103783845902E-001;-9.102770709432662E-004;2.231924328953028E-003;3.015521680936217E-003;
2.409500000000000E+009;1.747299432754517E-001;-2.257422776892781E-003;2.098366152495146E-003;2.869577612727881E-003;
2.409666666666667E+009;1.740275323390961E-001;-3.581923898309469E-003;2.201191848143935E-003;2.739244606345892E-003;
2.409833333333334E+009;1.733608543872833E-001;-4.841149318963289E-003;2.356297336518765E-003;2.483697142452002E-003;
2.410000000000000E+009;1.728530079126358E-001;-6.261839531362057E-003;2.504092874005437E-003;2.443144563585520E-003;
2.410166666666667E+009;1.721707731485367E-001;-7.742860354483128E-003;2.404202939942479E-003;2.350962953642011E-003;
2.410333333333334E+009;1.715019494295120E-001;-9.462127462029457E-003;2.288575517013669E-003;2.349271439015865E-003;
2.410500000000000E+009;1.709984838962555E-001;-1.097026653587818E-002;2.494155662134290E-003;2.155318623408675E-003;
2.410666666666667E+009;1.704179346561432E-001;-1.282547600567341E-002;2.483725314959884E-003;2.159621566534042E-003;
2.410833333333334E+009;1.699157655239105E-001;-1.442254707217217E-002;2.516937674954534E-003;1.979210646823049E-003;
2.411000000000000E+009;1.695039123296738E-001;-1.633561402559280E-002;2.633191412314773E-003;1.938440720550716E-003;
2.411166666666667E+009;1.691868901252747E-001;-1.818602904677391E-002;2.578827785328031E-003;1.792064751498401E-003;
2.411333333333334E+009;1.688814610242844E-001;-2.016007713973522E-002;2.652180381119251E-003;1.779831247404218E-003;
2.411500000000000E+009;1.685785502195358E-001;-2.205330133438110E-002;2.676151925697923E-003;1.791532966308296E-003;
2.411666666666667E+009;1.683071255683899E-001;-2.402430959045887E-002;2.671237802132964E-003;1.537409611046314E-003;
2.411833333333334E+009;1.683017462491989E-001;-2.578722499310970E-002;2.616167301312089E-003;1.537238713353872E-003;
2.412000000000000E+009;1.684735864400864E-001;-2.785028889775276E-002;2.650192240253091E-003;1.333104213699698E-003;
2.412166666666667E+009;1.683470159769058E-001;-2.980934083461762E-002;2.697721356526017E-003;1.389872282743454E-003;
2.412333333333334E+009;1.684616506099701E-001;-3.161014989018440E-002;2.785223070532084E-003;1.191111048683524E-003;
2.412500000000000E+009;1.686980575323105E-001;-3.359332680702210E-002;2.745127305388451E-003;1.001018797978759E-003;
2.412666666666667E+009;1.688896268606186E-001;-3.542486578226090E-002;2.936813747510314E-003;9.950856911018491E-004;
2.412833333333334E+009;1.693460196256638E-001;-3.720028698444367E-002;2.731574932113290E-003;7.879232289269567E-004;
2.413000000000000E+009;1.696576327085495E-001;-3.906147927045822E-002;2.812137827277184E-003;7.128075812943280E-004;
2.413166666666667E+009;1.700050830841065E-001;-4.077656567096710E-002;2.831765916198492E-003;6.205138051882386E-004;
2.413333333333334E+009;1.702331751585007E-001;-4.246131330728531E-002;2.712636487558484E-003;4.611655604094267E-004;
2.413500000000000E+009;1.708993017673492E-001;-4.414400458335877E-002;2.800437156111002E-003;5.050943000242114E-004;
2.413666666666667E+009;1.713833659887314E-001;-4.580597206950188E-002;2.542427973821759E-003;2.158175921067596E-004;
2.413833333333334E+009;1.716509014368057E-001;-4.725401848554611E-002;2.581072505563498E-003;2.040293911704794E-004;
2.414000000000000E+009;1.722880154848099E-001;-4.886874929070473E-002;2.659730846062303E-003;4.854209328186698E-005;
2.414166666666667E+009;1.728156805038452E-001;-5.008647218346596E-002;2.563523594290018E-003;1.188790774904192E-004;
2.414333333333334E+009;1.733676046133041E-001;-5.142750218510628E-002;2.517681568861008E-003;1.978823711397126E-004;
2.414500000000000E+009;1.739901304244995E-001;-5.249696224927902E-002;2.473563188686967E-003;-4.287196134100668E-005;
2.414666666666667E+009;1.744951456785202E-001;-5.347980558872223E-002;2.562362002208829E-003;-1.687954354565591E-004;
2.414833333333334E+009;1.749327927827835E-001;-5.463798344135284E-002;2.441577147692442E-003;-2.035611978499219E-004;
2.415000000000000E+009;1.754008084535599E-001;-5.549913644790649E-002;2.252007368952036E-003;-3.478959552012384E-004;
2.415166666666667E+009;1.759105771780014E-001;-5.636510998010635E-002;2.391418674960733E-003;-3.255718329455704E-004;
2.415333333333334E+009;1.764060556888580E-001;-5.714106559753418E-002;2.374209463596344E-003;-3.826363536063582E-004;
2.415500000000000E+009;1.768071800470352E-001;-5.786843970417976E-002;2.246576594188809E-003;-4.478941846173257E-004;
2.415666666666667E+009;1.770472079515457E-001;-5.836701020598412E-002;2.290700795128942E-003;-5.604667239822447E-004;
2.415833333333334E+009;1.773009002208710E-001;-5.891702696681023E-002;2.040728693827987E-003;-5.781322834081948E-004;
2.416000000000000E+009;1.773478984832764E-001;-5.949954688549042E-002;2.112608170136809E-003;-8.562214206904173E-004;
2.416166666666667E+009;1.775988191366196E-001;-5.987893417477608E-002;2.117525320500135E-003;-8.416921482421458E-004;
2.416333333333334E+009;1.776073426008225E-001;-6.015097722411156E-002;2.049644710496068E-003;-8.650902309454978E-004;
2.416500000000000E+009;1.775770932435989E-001;-6.053454428911209E-002;1.942108734510839E-003;-8.941034320741892E-004;
2.416666666666667E+009;1.773031353950501E-001;-6.088017299771309E-002;1.957723870873451E-003;-9.933746187016368E-004;
2.416833333333334E+009;1.772924959659576E-001;-6.123460084199905E-002;1.767688430845738E-003;-1.013560104183853E-003;
2.417000000000000E+009;1.765204370021820E-001;-6.153244897723198E-002;1.855537877418101E-003;-9.984853677451611E-004;
2.417166666666667E+009;1.764210462570190E-001;-6.157180666923523E-002;1.750954193994403E-003;-1.130582182668150E-003;
2.417333333333334E+009;1.759239435195923E-001;-6.186191737651825E-002;1.532795489765704E-003;-1.096122316084802E-003;
2.417500000000000E+009;1.752979904413223E-001;-6.230906769633293E-002;1.572184148244560E-003;-1.143891597166657E-003;
2.417666666666667E+009;1.748498380184174E-001;-6.239940226078033E-002;1.425461610779166E-003;-1.180641702376306E-003;
2.417833333333334E+009;1.739526689052582E-001;-6.258796900510788E-002;1.332099316641688E-003;-1.159518025815487E-003;
2.418000000000000E+009;1.730335056781769E-001;-6.302820146083832E-002;1.330655068159103E-003;-1.182868494652212E-003;
2.418166666666667E+009;1.721832007169724E-001;-6.319170445203781E-002;1.197444624267519E-003;-1.234853174537420E-003;
2.418333333333334E+009;1.715794205665588E-001;-6.367690116167069E-002;1.173654454760253E-003;-1.251237699761987E-003;
2.418500000000000E+009;1.705170273780823E-001;-6.398332118988037E-002;1.131127821281552E-003;-1.246240572072566E-003;
2.418666666666667E+009;1.694332063198090E-001;-6.458175182342529E-002;9.890495566651225E-004;-1.308812061324716E-003;
2.418833333333334E+009;1.681870818138123E-001;-6.492514908313751E-002;8.712316048331559E-004;-1.312397536821663E-003;
2.419000000000000E+009;1.670023351907730E-001;-6.564626097679138E-002;9.927921928465366E-004;-1.280371681787074E-003;
2.419166666666667E+009;1.658279746770859E-001;-6.630631536245346E-002;7.983958930708468E-004;-1.234505674801767E-003;
2.419333333333334E+009;1.646527796983719E-001;-6.668199598789215E-002;7.302337326109409E-004;-1.108823344111443E-003;
2.419500000000000E+009;1.635106354951859E-001;-6.773226708173752E-002;6.477727438323200E-004;-1.060738926753402E-003;
2.419666666666667E+009;1.624137163162231E-001;-6.867282092571259E-002;6.792753702029586E-004;-1.123273046687245E-003;
2.419833333333334E+009;1.610601097345352E-001;-6.952559947967529E-002;5.477661616168916E-004;-9.206250542774797E-004;
2.420000000000000E+009;1.599929034709930E-001;-7.064650207757950E-002;5.583028541877866E-004;-8.859104709699750E-004;
2.420166666666667E+009;1.589222401380539E-001;-7.156624644994736E-002;4.488382255658507E-004;-8.389854338020086E-004;
2.420333333333334E+009;1.578352302312851E-001;-7.280111312866211E-002;4.802276380360127E-004;-7.817510049790144E-004;
2.420500000000000E+009;1.567892432212830E-001;-7.383299618959427E-002;5.774188903160393E-004;-8.673416450619698E-004;
2.420666666666667E+009;1.557651013135910E-001;-7.512157410383225E-002;4.982077516615391E-004;-8.432065369561315E-004;
2.420833333333334E+009;1.548789888620377E-001;-7.655184715986252E-002;4.181776603218168E-004;-7.208234164863825E-004;
2.421000000000000E+009;1.538177132606506E-001;-7.805710285902023E-002;4.919163184240460E-004;-7.060887292027473E-004;
2.421166666666667E+009;1.531933993101120E-001;-7.949109375476837E-002;4.394603311084211E-004;-6.966809160076082E-004;
2.421333333333334E+009;1.523953676223755E-001;-8.110865205526352E-002;4.223979194648564E-004;-6.534774438478053E-004;
2.421500000000000E+009;1.518167704343796E-001;-8.243013173341751E-002;5.403112736530602E-004;-6.299740052781999E-004;
2.421666666666667E+009;1.511011123657227E-001;-8.419850468635559E-002;5.779328639619052E-004;-6.151552079245448E-004;
2.421833333333334E+009;1.508207321166992E-001;-8.589570224285126E-002;4.436980525497347E-004;-5.234145210124552E-004;
2.422000000000000E+009;1.501303762197495E-001;-8.743762224912643E-002;5.399559158831835E-004;-4.731807275675237E-004;
2.422166666666667E+009;1.498598903417587E-001;-8.918701112270355E-002;5.789271672256291E-004;-5.880495882593095E-004;
2.422333333333334E+009;1.496949642896652E-001;-9.078137576580048E-002;4.913086886517704E-004;-5.654010456055403E-004;
2.422500000000000E+009;1.494826823472977E-001;-9.244973212480545E-002;5.391338490881026E-004;-5.574167589657009E-004;
2.422666666666667E+009;1.493978053331375E-001;-9.418034553527832E-002;4.538850043900311E-004;-4.555777413770556E-004;
2.422833333333334E+009;1.494229137897492E-001;-9.600565582513809E-002;7.449321565218270E-004;-6.361638079397380E-004;
2.423000000000000E+009;1.494171172380447E-001;-9.762468189001083E-002;5.802761879749596E-004;-4.318065475672483E-004;
2.423166666666667E+009;1.497634500265122E-001;-9.917645156383514E-002;5.749783013015986E-004;-4.892727010883391E-004;
2.423333333333334E+009;1.499178409576416E-001;-1.006772741675377E-001;5.795569159090519E-004;-5.422403337433934E-004;
2.423500000000000E+009;1.501125246286392E-001;-1.023782864212990E-001;5.796731566078961E-004;-6.083260523155332E-004;
2.423666666666667E+009;1.504768282175064E-001;-1.039187014102936E-001;6.098534213379026E-004;-7.272493676282466E-004;
2.423833333333334E+009;1.507524847984314E-001;-1.054982841014862E-001;5.401180242188275E-004;-5.817569908685982E-004;
2.424000000000000E+009;1.511262357234955E-001;-1.065305173397064E-001;6.259976653382182E-004;-7.741537410765886E-004;
2.424166666666667E+009;1.516095250844955E-001;-1.079386621713638E-001;6.738711381331086E-004;-6.444308091886342E-004;
2.424333333333334E+009;1.520061939954758E-001;-1.092762872576714E-001;5.230471142567694E-004;-6.576869636774063E-004;
2.424500000000000E+009;1.527049839496613E-001;-1.104368790984154E-001;5.762944347225130E-004;-6.773412460461259E-004;
2.424666666666667E+009;1.531681120395660E-001;-1.113077625632286E-001;5.918776732869446E-004;-5.664980271831155E-004;
2.424833333333334E+009;1.534409821033478E-001;-1.124986857175827E-001;6.774180801585317E-004;-6.497844005934894E-004;
2.425000000000000E+009;1.539057344198227E-001;-1.135168522596359E-001;4.479531489778310E-004;-7.738957065157592E-004;
2.425166666666667E+009;1.543712764978409E-001;-1.142910048365593E-001;4.765307239722461E-004;-8.724661311134696E-004;
2.425333333333334E+009;1.547603905200958E-001;-1.151284575462341E-001;4.531169543042779E-004;-9.445065516047180E-004;
2.425500000000000E+009;1.552365869283676E-001;-1.158610060811043E-001;5.929644685238600E-004;-6.575242150574923E-004;
2.425666666666667E+009;1.553834080696106E-001;-1.164324954152107E-001;5.889844615012407E-004;-8.391172741539776E-004;
2.425833333333334E+009;1.556908786296845E-001;-1.170164644718170E-001;4.794665437657386E-004;-8.915927028283477E-004;
2.426000000000000E+009;1.558389216661453E-001;-1.175520941615105E-001;4.728307831101120E-004;-7.260703132487834E-004;
2.426166666666667E+009;1.561599075794220E-001;-1.179976835846901E-001;4.096271295566112E-004;-7.088457932695746E-004;
2.426333333333334E+009;1.561121642589569E-001;-1.183268502354622E-001;3.875175025314093E-004;-6.821702118031681E-004;
2.426500000000000E+009;1.562473624944687E-001;-1.186067759990692E-001;4.691135545726866E-004;-9.317754884250462E-004;
2.426666666666667E+009;1.562661230564117E-001;-1.188111454248428E-001;4.002064815722406E-004;-7.699592970311642E-004;
2.426833333333334E+009;1.560667753219605E-001;-1.190416067838669E-001;5.103481817059219E-004;-6.532486295327544E-004;
2.427000000000000E+009;1.557141691446304E-001;-1.192976608872414E-001;4.217061214148998E-004;-7.129985606297851E-004;
2.427166666666667E+009;1.555138528347015E-001;-1.191781461238861E-001;6.280094385147095E-004;-7.968477439135313E-004;
2.427333333333334E+009;1.549452841281891E-001;-1.195297613739967E-001;3.373069921508431E-004;-8.428569999523461E-004;
2.427500000000000E+009;1.546043753623962E-001;-1.195553094148636E-001;3.741037216968834E-004;-6.995662115514278E-004;
2.427666666666667E+009;1.538639515638351E-001;-1.196204200387001E-001;5.181197775527835E-004;-7.849085959605873E-004;
2.427833333333334E+009;1.530334651470184E-001;-1.197283938527107E-001;4.332969838287681E-004;-7.086761179380119E-004;
