# Version 1.00
#
freq[Hz];re:Trc1_S11;im:Trc1_S11;re:Trc2_S21;im:Trc2_S21;
2.400000000000000E+009;1.589848101139069E-001;6.277175247669220E-002;-5.160623230040073E-003;1.183031941764057E-003;
2.400166666666667E+009;1.588365584611893E-001;6.127516925334930E-002;-5.230272188782692E-003;1.237241784110665E-003;
2.400333333333334E+009;1.586767882108688E-001;5.943436920642853E-002;-5.023145582526922E-003;1.419835607521236E-003;
2.400500000000000E+009;1.584962904453278E-001;5.767968297004700E-002;-4.963230807334185E-003;1.485608867369592E-003;
2.400666666666667E+009;1.583297103643417E-001;5.575781315565109E-002;-4.705916158854961E-003;1.726945047266781E-003;
2.400833333333334E+009;1.586584895849228E-001;5.375193804502487E-002;-4.770181607455015E-003;1.950606703758240E-003;
2.401000000000000E+009;1.584395468235016E-001;5.176704749464989E-002;-4.592170473188162E-003;2.036715159192681E-003;
2.401166666666667E+009;1.586810052394867E-001;4.976943135261536E-002;-4.623053595423698E-003;2.230634214356542E-003;
2.401333333333334E+009;1.587778180837631E-001;4.766849800944328E-002;-4.464697558432818E-003;2.365682506933808E-003;
2.401500000000000E+009;1.590894460678101E-001;4.558942466974258E-002;-4.307601600885391E-003;2.448125043883920E-003;
2.401666666666667E+009;1.592974066734314E-001;4.362184554338455E-002;-4.283578135073185E-003;2.747438149526715E-003;
2.401833333333334E+009;1.595771461725235E-001;4.143275320529938E-002;-4.288583528250456E-003;2.684707054868341E-003;
2.402000000000000E+009;1.598042100667954E-001;3.942902013659477E-002;-3.982827998697758E-003;2.768080914393067E-003;
2.402166666666667E+009;1.602525413036346E-001;3.721376881003380E-002;-4.083702340722084E-003;2.865010639652610E-003;
2.402333333333334E+009;1.608061492443085E-001;3.548240661621094E-002;-3.837070195004344E-003;3.119839355349541E-003;
2.402500000000000E+009;1.616106927394867E-001;3.369607403874397E-002;-3.643249627202749E-003;3.179610474035144E-003;
2.402666666666667E+009;1.620654314756393E-001;3.187084197998047E-002;-3.545723622664809E-003;3.312778426334262E-003;
2.402833333333334E+009;1.627289503812790E-001;2.998834103345871E-002;-3.249739063903689E-003;3.244803985580802E-003;
2.403000000000000E+009;1.635879576206207E-001;2.847518213093281E-002;-3.377172630280256E-003;3.343745367601514E-003;
2.403166666666667E+009;1.643824875354767E-001;2.685276418924332E-002;-3.116361331194639E-003;3.559559583663940E-003;
2.403333333333334E+009;1.653284132480621E-001;2.512113377451897E-002;-3.055709647014737E-003;3.638085909187794E-003;
2.403500000000000E+009;1.661354899406433E-001;2.391642518341541E-002;-2.880617277696729E-003;3.744699759408832E-003;
2.403666666666667E+009;1.670198887586594E-001;2.240985818207264E-002;-2.858421765267849E-003;3.549380460754037E-003;
2.403833333333334E+009;1.679649204015732E-001;2.088110521435738E-002;-2.764206146821380E-003;3.777052741497755E-003;
2.404000000000000E+009;1.689484864473343E-001;1.971623860299587E-002;-2.609310904517770E-003;3.877479583024979E-003;
2.404166666666667E+009;1.698625087738037E-001;1.863420754671097E-002;-2.423232421278954E-003;3.922847565263510E-003;
2.404333333333334E+009;1.708115041255951E-001;1.756675541400909E-002;-2.391778863966465E-003;4.057428333908320E-003;
2.404500000000000E+009;1.716968715190888E-001;1.644247584044933E-002;-2.268475480377674E-003;4.071864299476147E-003;
2.404666666666667E+009;1.726666986942291E-001;1.550011802464724E-002;-2.165334532037377E-003;4.273999482393265E-003;
2.404833333333334E+009;1.735406517982483E-001;1.453628577291966E-002;-1.836635870859027E-003;4.243437200784683E-003;
2.405000000000000E+009;1.743910163640976E-001;1.386339217424393E-002;-1.850204309448600E-003;4.302476532757282E-003;
2.405166666666667E+009;1.752472370862961E-001;1.313781552016735E-002;-1.622136333025992E-003;4.456804599612951E-003;
2.405333333333334E+009;1.762141734361649E-001;1.240798644721508E-002;-1.535972929559648E-003;4.497589543461800E-003;
2.405500000000000E+009;1.769493818283081E-001;1.200401131063700E-002;-1.198083045892417E-003;4.580868408083916E-003;
2.405666666666667E+009;1.775287091732025E-001;1.153812743723393E-002;-1.011929591186345E-003;4.545867443084717E-003;
2.405833333333334E+009;1.781897246837616E-001;1.114715635776520E-002;-8.401851519010961E-004;4.571906290948391E-003;
2.406000000000000E+009;1.787910461425781E-001;1.057483442127705E-002;-6.100967293605208E-004;4.580143839120865E-003;
2.406166666666667E+009;1.791784018278122E-001;1.054442301392555E-002;-3.825899038929492E-004;4.633481148630381E-003;
2.406333333333334E+009;1.798252165317535E-001;9.951708838343620E-003;-1.337683497695252E-004;4.724313504993916E-003;
2.406500000000000E+009;1.800349652767181E-001;9.647207334637642E-003;-5.524608059204184E-005;4.653959069401026E-003;
2.406666666666667E+009;1.800997406244278E-001;9.331551380455494E-003;2.790909820760135E-005;4.656365606933832E-003;
2.406833333333334E+009;1.805818080902100E-001;9.006817825138569E-003;3.828023036476225E-004;4.596683196723461E-003;
2.407000000000000E+009;1.807984709739685E-001;8.659402839839459E-003;5.566575564444065E-004;4.557064268738031E-003;
2.407166666666667E+009;1.809533387422562E-001;8.443252183496952E-003;7.022764184512198E-004;4.628357943147421E-003;
2.407333333333334E+009;1.807883083820343E-001;7.835512049496174E-003;7.793622789904475E-004;4.487925209105015E-003;
2.407500000000000E+009;1.805475354194641E-001;7.657275069504976E-003;1.028501777909696E-003;4.465331789106131E-003;
2.407666666666667E+009;1.804610788822174E-001;7.242153864353895E-003;1.208858680911362E-003;4.195122048258781E-003;
2.407833333333334E+009;1.800792515277863E-001;6.598858628422022E-003;1.413407386280596E-003;3.997392486780882E-003;
2.408000000000000E+009;1.798613369464874E-001;6.004208698868752E-003;1.469272421672940E-003;4.132837057113648E-003;
2.408166666666667E+009;1.794334948062897E-001;5.592513363808394E-003;1.706197974272072E-003;3.788933157920837E-003;
2.408333333333334E+009;1.792147457599640E-001;4.818528890609741E-003;1.860430813394487E-003;3.754187142476440E-003;
2.408500000000000E+009;1.785917878150940E-001;4.031053744256496E-003;1.940225018188357E-003;3.555105999112129E-003;
2.408666666666667E+009;1.779552847146988E-001;3.115116618573666E-003;2.070041606202722E-003;3.584167454391718E-003;
2.408833333333334E+009;1.774114966392517E-001;2.206740900874138E-003;2.141962293535471E-003;3.286432707682252E-003;
2.409000000000000E+009;1.767163276672363E-001;1.280077616684139E-003;2.399114193394780E-003;3.312368411570787E-003;
2.409166666666667E+009;1.761793196201325E-001;2.138460549758747E-004;2.317923353984952E-003;3.211552044376731E-003;
2.409333333333334E+009;1.755101978778839E-001;-8.930447511374950E-004;2.426822669804096E-003;2.940315287560225E-003;
2.409500000000000E+009;1.747967749834061E-001;-2.204455900937319E-003;2.371108857914805E-003;3.099504858255386E-003;
2.409666666666667E+009;1.740902364253998E-001;-3.502285573631525E-003;2.495771972462535E-003;2.886161906644702E-003;
2.409833333333334E+009;1.732824742794037E-001;-4.890827927738428E-003;2.547517186030746E-003;2.725821919739246E-003;
2.410000000000000E+009;1.728055030107498E-001;-6.273677572607994E-003;2.567479852586985E-003;2.649136120453477E-003;
2.410166666666667E+009;1.720537245273590E-001;-7.722960785031319E-003;2.574247308075428E-003;2.514606574550271E-003;
2.410333333333334E+009;1.714230477809906E-001;-9.374661371111870E-003;2.551697660237551E-003;2.392384456470609E-003;
2.410500000000000E+009;1.708259433507919E-001;-1.106813736259937E-002;2.616721205413342E-003;2.261109417304397E-003;
2.410666666666667E+009;1.703372597694397E-001;-1.286702416837215E-002;2.643797313794494E-003;2.227640245109797E-003;
2.410833333333334E+009;1.698275804519653E-001;-1.455006655305624E-002;2.656617434695363E-003;2.005296526476741E-003;
2.411000000000000E+009;1.694656014442444E-001;-1.629364676773548E-002;2.771717030555010E-003;2.019277075305581E-003;
2.411166666666667E+009;1.691389232873917E-001;-1.812706887722015E-002;2.704217564314604E-003;1.808081287890673E-003;
2.411333333333334E+009;1.687282919883728E-001;-2.000480890274048E-002;2.769192680716515E-003;1.802887767553330E-003;
2.411500000000000E+009;1.685865670442581E-001;-2.186102047562599E-002;2.877083374187350E-003;1.501341466791928E-003;
2.411666666666667E+009;1.685806214809418E-001;-2.378753013908863E-002;2.836051397025585E-003;1.593318185769022E-003;
2.411833333333334E+009;1.683332771062851E-001;-2.582088671624661E-002;2.829317701980472E-003;1.603955053724349E-003;
2.412000000000000E+009;1.683232188224793E-001;-2.789395116269589E-002;2.957611111924052E-003;1.273650559596717E-003;
2.412166666666667E+009;1.681786775588989E-001;-2.972253412008286E-002;2.846587449312210E-003;1.273300964385271E-003;
2.412333333333334E+009;1.686753332614899E-001;-3.144004568457604E-002;2.866313559934497E-003;1.082918955944479E-003;
2.412500000000000E+009;1.687750667333603E-001;-3.335006162524223E-002;2.961528487503529E-003;1.040128991007805E-003;
2.412666666666667E+009;1.689198315143585E-001;-3.537404164671898E-002;2.869699848815799E-003;8.220901363529265E-004;
2.412833333333334E+009;1.692540943622589E-001;-3.724245727062225E-002;2.956969896331430E-003;8.434720220975578E-004;
2.413000000000000E+009;1.695420145988464E-001;-3.913807868957520E-002;2.818226115778089E-003;7.811270188540220E-004;
2.413166666666667E+009;1.700438112020493E-001;-4.083787277340889E-002;2.833767561241984E-003;6.076328572817147E-004;
2.413333333333334E+009;1.702579855918884E-001;-4.246975108981133E-002;2.770039718598127E-003;4.313591052778065E-004;
2.413500000000000E+009;1.709538549184799E-001;-4.421696066856384E-002;2.957930322736502E-003;2.730667765717953E-004;
2.413666666666667E+009;1.713916659355164E-001;-4.590613022446632E-002;2.982149831950665E-003;5.048197272117250E-005;
2.413833333333334E+009;1.717596054077148E-001;-4.729332774877548E-002;2.735273912549019E-003;1.317202986683697E-004;
2.414000000000000E+009;1.722579747438431E-001;-4.880915954709053E-002;2.873221179470420E-003;2.080454396491405E-005;
2.414166666666667E+009;1.729225665330887E-001;-5.009214207530022E-002;2.630709903314710E-003;-6.253383617149666E-005;
2.414333333333334E+009;1.734461486339569E-001;-5.145213752985001E-002;2.742505166679621E-003;-1.584007550263777E-004;
2.414500000000000E+009;1.740317940711975E-001;-5.258479714393616E-002;2.543306676670909E-003;-2.213641419075429E-004;
2.414666666666667E+009;1.745322197675705E-001;-5.366409942507744E-002;2.459182171151042E-003;-3.183031512890011E-004;
2.414833333333334E+009;1.749829947948456E-001;-5.471556261181831E-002;2.495550550520420E-003;-3.989664546679705E-004;
2.415000000000000E+009;1.753830611705780E-001;-5.554259940981865E-002;2.350092399865389E-003;-4.997018841095269E-004;
2.415166666666667E+009;1.758754104375839E-001;-5.652305111289024E-002;2.407747088000178E-003;-5.498440586961806E-004;
2.415333333333334E+009;1.763786375522614E-001;-5.712177604436874E-002;2.263311762362719E-003;-6.058178842067719E-004;
2.415500000000000E+009;1.765741109848023E-001;-5.781361088156700E-002;2.347290283069015E-003;-6.488586077466607E-004;
2.415666666666667E+009;1.770128607749939E-001;-5.832605436444283E-002;2.205789089202881E-003;-7.711257203482091E-004;
2.415833333333334E+009;1.772285103797913E-001;-5.890868604183197E-002;2.268039155751467E-003;-7.605950231663883E-004;
2.416000000000000E+009;1.772769540548325E-001;-5.937478691339493E-002;2.120552584528923E-003;-9.580769692547619E-004;
2.416166666666667E+009;1.776235103607178E-001;-5.979040637612343E-002;2.140822587534785E-003;-1.008577062748373E-003;
2.416333333333334E+009;1.776629090309143E-001;-6.015184894204140E-002;2.108109649270773E-003;-9.833142394199967E-004;
2.416500000000000E+009;1.776380091905594E-001;-6.059345602989197E-002;2.014578320086002E-003;-1.003377721644938E-003;
2.416666666666667E+009;1.774349212646484E-001;-6.078295409679413E-002;1.924003357999027E-003;-1.055684289894998E-003;
2.416833333333334E+009;1.772317290306091E-001;-6.123994663357735E-002;1.778042293153703E-003;-1.156156067736447E-003;
2.417000000000000E+009;1.768491864204407E-001;-6.147538498044014E-002;1.626485260203481E-003;-1.124168979004026E-003;
2.417166666666667E+009;1.764675080776215E-001;-6.167481839656830E-002;1.719855703413487E-003;-1.174740260466933E-003;
2.417333333333334E+009;1.759716868400574E-001;-6.177213042974472E-002;1.525826985016465E-003;-1.266745850443840E-003;
2.417500000000000E+009;1.754174530506134E-001;-6.222839280962944E-002;1.500215730629861E-003;-1.405839575454593E-003;
2.417666666666667E+009;1.748388409614563E-001;-6.226527318358421E-002;1.288594678044319E-003;-1.329418388195336E-003;
2.417833333333334E+009;1.740687638521195E-001;-6.264054775238037E-002;1.358018373139203E-003;-1.283260062336922E-003;
2.418000000000000E+009;1.731898933649063E-001;-6.312175095081329E-002;1.175113255158067E-003;-1.392102218233049E-003;
2.418166666666667E+009;1.722954064607620E-001;-6.320291012525559E-002;1.230683876201510E-003;-1.533066853880882E-003;
2.418333333333334E+009;1.714294999837875E-001;-6.364967674016953E-002;1.166257075965405E-003;-1.410046825185418E-003;
2.418500000000000E+009;1.704159080982208E-001;-6.405956298112869E-002;9.636884205974639E-004;-1.340899267233908E-003;
2.418666666666667E+009;1.694196164608002E-001;-6.455820798873901E-002;9.209004347212613E-004;-1.345394412055612E-003;
2.418833333333334E+009;1.682723164558411E-001;-6.516994535923004E-002;8.045317954383791E-004;-1.269216882064939E-003;
2.419000000000000E+009;1.670130789279938E-001;-6.562598794698715E-002;8.379460196010768E-004;-1.431557000614703E-003;
2.419166666666667E+009;1.660003662109375E-001;-6.638056784868240E-002;8.338520419783890E-004;-1.265186001546681E-003;
2.419333333333334E+009;1.646309792995453E-001;-6.676775962114334E-002;5.893650813959539E-004;-1.391798374243081E-003;
2.419500000000000E+009;1.634370833635330E-001;-6.783176958560944E-002;7.121103117242456E-004;-1.122862915508449E-003;
2.419666666666667E+009;1.624311208724976E-001;-6.867925077676773E-002;4.463434161152691E-004;-1.077310764230788E-003;
2.419833333333334E+009;1.612332165241242E-001;-6.943115592002869E-002;5.456944927573204E-004;-1.132616656832397E-003;
2.420000000000000E+009;1.601528227329254E-001;-7.054559886455536E-002;4.813033156096935E-004;-1.152805867604911E-003;
2.420166666666667E+009;1.588518321514130E-001;-7.183328270912170E-002;3.805838350672275E-004;-1.155389123596251E-003;
2.420333333333334E+009;1.577899456024170E-001;-7.269891351461411E-002;3.531273978296667E-004;-1.104642637073994E-003;
2.420500000000000E+009;1.569286286830902E-001;-7.391278445720673E-002;3.680509107653052E-004;-9.025381295941770E-004;
2.420666666666667E+009;1.556730121374130E-001;-7.507255673408508E-002;2.279783075209707E-004;-8.260985487140715E-004;
2.420833333333334E+009;1.547988057136536E-001;-7.656484842300415E-002;2.596494450699538E-004;-9.338950621895492E-004;
2.421000000000000E+009;1.538693606853485E-001;-7.807668298482895E-002;2.961849677376449E-004;-8.470018510706723E-004;
2.421166666666667E+009;1.532575190067291E-001;-7.945960760116577E-002;3.676811757031828E-004;-7.732001249678433E-004;
2.421333333333334E+009;1.523647457361221E-001;-8.107443153858185E-002;4.191969928797334E-004;-7.305272156372666E-004;
2.421500000000000E+009;1.517090052366257E-001;-8.251601457595825E-002;3.584357036743313E-004;-5.922948475927115E-004;
2.421666666666667E+009;1.511808335781097E-001;-8.438564091920853E-002;4.842722555622459E-004;-6.187921389937401E-004;
2.421833333333334E+009;1.506865024566650E-001;-8.589224517345429E-002;4.100833612028509E-004;-7.473572622984648E-004;
2.422000000000000E+009;1.501438170671463E-001;-8.743832260370255E-002;4.651299968827516E-004;-5.375870969146490E-004;
2.422166666666667E+009;1.498358398675919E-001;-8.936078846454620E-002;3.117473388556391E-004;-5.998563137836754E-004;
2.422333333333334E+009;1.496867984533310E-001;-9.088302403688431E-002;4.629707837011665E-004;-5.041394033469260E-004;
2.422500000000000E+009;1.496363133192062E-001;-9.234412759542465E-002;4.665631277021021E-004;-6.284161936491728E-004;
2.422666666666667E+009;1.493789702653885E-001;-9.418541193008423E-002;5.323996883817017E-004;-5.336944595910609E-004;
2.422833333333334E+009;1.494956910610199E-001;-9.591946750879288E-002;5.233942065387964E-004;-5.074939690530300E-004;
2.423000000000000E+009;1.495060473680496E-001;-9.752903878688812E-002;5.841111415065825E-004;-5.453664925880730E-004;
2.423166666666667E+009;1.497661620378494E-001;-9.923027455806732E-002;4.359657177701592E-004;-6.567282252945006E-004;
2.423333333333334E+009;1.499760746955872E-001;-1.007042825222015E-001;6.186472601257265E-004;-5.270328838378191E-004;
2.423500000000000E+009;1.501263529062271E-001;-1.023505628108978E-001;4.805835778824985E-004;-5.566284526139498E-004;
2.423666666666667E+009;1.503701210021973E-001;-1.039066240191460E-001;4.791292594745755E-004;-5.078173708170652E-004;
2.423833333333334E+009;1.509535908699036E-001;-1.054087877273560E-001;5.771272117272019E-004;-5.251569673418999E-004;
2.424000000000000E+009;1.511036306619644E-001;-1.066224053502083E-001;3.484999178908765E-004;-6.693084724247456E-004;
2.424166666666667E+009;1.514789462089539E-001;-1.079212203621864E-001;5.730642587877810E-004;-6.370816263370216E-004;
2.424333333333334E+009;1.521601974964142E-001;-1.091505363583565E-001;4.181047261226922E-004;-7.451247656717897E-004;
2.424500000000000E+009;1.525789797306061E-001;-1.104572862386704E-001;4.638707323465496E-004;-6.435819086618722E-004;
2.424666666666667E+009;1.531607508659363E-001;-1.113222986459732E-001;5.368452984839678E-004;-6.722178077325225E-004;
2.424833333333334E+009;1.534013897180557E-001;-1.124924868345261E-001;4.289537901058793E-004;-5.902361590415239E-004;
2.425000000000000E+009;1.540399193763733E-001;-1.135184243321419E-001;5.207516369409859E-004;-7.569275912828744E-004;
2.425166666666667E+009;1.542076915502548E-001;-1.143356114625931E-001;4.813678388018161E-004;-7.075721514411271E-004;
2.425333333333334E+009;1.547368019819260E-001;-1.151165813207626E-001;5.307997344061732E-004;-7.637541275471449E-004;
2.425500000000000E+009;1.552423685789108E-001;-1.159236207604408E-001;4.093135357834399E-004;-7.289667846634984E-004;
2.425666666666667E+009;1.552515774965286E-001;-1.164762526750565E-001;4.222098214086145E-004;-7.037363830022514E-004;
2.425833333333334E+009;1.556997299194336E-001;-1.170103847980499E-001;3.679268702398986E-004;-7.813009433448315E-004;
2.426000000000000E+009;1.557595580816269E-001;-1.174514368176460E-001;4.692432994488627E-004;-7.976806955412030E-004;
2.426166666666667E+009;1.561998426914215E-001;-1.180480495095253E-001;4.465167294256389E-004;-8.340899948962033E-004;
2.426333333333334E+009;1.561199277639389E-001;-1.182617917656899E-001;5.496104713529348E-004;-6.752822664566338E-004;
2.426500000000000E+009;1.561864316463471E-001;-1.186933368444443E-001;4.260026616975665E-004;-6.641893414780498E-004;
2.426666666666667E+009;1.562624275684357E-001;-1.186260208487511E-001;5.578789277933538E-004;-7.533773896284401E-004;
2.426833333333334E+009;1.560715138912201E-001;-1.190468966960907E-001;4.642898275051266E-004;-6.523841875605285E-004;
2.427000000000000E+009;1.557398140430450E-001;-1.192261129617691E-001;3.565265506040305E-004;-8.293198770843446E-004;
2.427166666666667E+009;1.554563343524933E-001;-1.191339045763016E-001;4.371453542262316E-004;-7.293762173503637E-004;
2.427333333333334E+009;1.549271494150162E-001;-1.194550469517708E-001;4.941358347423375E-004;-8.360770880244672E-004;
2.427500000000000E+009;1.544220894575119E-001;-1.194036900997162E-001;4.654694639611989E-004;-7.130172452889383E-004;
2.427666666666667E+009;1.538966149091721E-001;-1.196156442165375E-001;5.686274962499738E-004;-7.430062978528440E-004;
2.427833333333334E+009;1.530660986900330E-001;-1.197396963834763E-001;5.279749166220427E-004;-8.642652537673712E-004;
