# Version 1.00
#
freq[Hz];re:Trc1_S11;im:Trc1_S11;re:Trc2_S21;im:Trc2_S21;
2.400000000000000E+009;1.589716672897339E-001;6.291661411523819E-002;-4.945508204400539E-003;9.665557299740613E-004;
2.400166666666667E+009;1.589232087135315E-001;6.131679192185402E-002;-4.935803357511759E-003;9.971978142857552E-004;
2.400333333333334E+009;1.586275249719620E-001;5.957201868295670E-002;-4.961993079632521E-003;1.193071715533733E-003;
2.400500000000000E+009;1.585553437471390E-001;5.761909484863281E-002;-4.911534953862429E-003;1.299480674788356E-003;
2.400666666666667E+009;1.585693955421448E-001;5.581376701593399E-002;-4.677375778555870E-003;1.491519738920033E-003;
2.400833333333334E+009;1.586225032806397E-001;5.389621853828430E-002;-4.673101939260960E-003;1.752158510498703E-003;
2.401000000000000E+009;1.584433317184448E-001;5.190167203545570E-002;-4.692540504038334E-003;1.929734833538532E-003;
2.401166666666667E+009;1.588025242090225E-001;4.979105293750763E-002;-4.548948723822832E-003;1.903805299662054E-003;
2.401333333333334E+009;1.588744074106216E-001;4.781311750411987E-002;-4.413830582052469E-003;1.767237321473658E-003;
2.401500000000000E+009;1.590119153261185E-001;4.556922614574432E-002;-4.452988505363464E-003;2.296177670359612E-003;
2.401666666666667E+009;1.594732850790024E-001;4.357160627841950E-002;-4.456884227693081E-003;2.388560213148594E-003;
2.401833333333334E+009;1.596314758062363E-001;4.149056971073151E-002;-4.212018102407455E-003;2.396122319623828E-003;
2.402000000000000E+009;1.599315106868744E-001;3.962297365069389E-002;-3.992902580648661E-003;2.604373497888446E-003;
2.402166666666667E+009;1.604522019624710E-001;3.742346540093422E-002;-3.900068812072277E-003;2.720284974202514E-003;
2.402333333333334E+009;1.609344184398651E-001;3.563917800784111E-002;-3.990390338003635E-003;2.800569171085954E-003;
2.402500000000000E+009;1.616812348365784E-001;3.383843973278999E-002;-3.658210858702660E-003;2.813205355778337E-003;
2.402666666666667E+009;1.622087508440018E-001;3.200596198439598E-002;-3.744620131328702E-003;3.014121903106570E-003;
2.402833333333334E+009;1.630435585975647E-001;3.032712824642658E-002;-3.464348381385207E-003;3.036474576219916E-003;
2.403000000000000E+009;1.638181954622269E-001;2.843937464058399E-002;-3.392809303477407E-003;3.157914150506258E-003;
2.403166666666667E+009;1.644868254661560E-001;2.699903026223183E-002;-3.293195506557822E-003;3.235527081415057E-003;
2.403333333333334E+009;1.653713136911392E-001;2.544952929019928E-002;-3.297926392406225E-003;3.343991935253143E-003;
2.403500000000000E+009;1.661834269762039E-001;2.382568083703518E-002;-3.015480004251003E-003;3.355761524289846E-003;
2.403666666666667E+009;1.672589331865311E-001;2.226241864264011E-002;-2.873702207580209E-003;3.480389015749097E-003;
2.403833333333334E+009;1.680273711681366E-001;2.103074267506599E-002;-2.947764471173286E-003;3.641506191343069E-003;
2.404000000000000E+009;1.690219491720200E-001;1.985962130129337E-002;-2.786121098324657E-003;3.588770050555468E-003;
2.404166666666667E+009;1.700451374053955E-001;1.857013255357742E-002;-2.633591881021857E-003;3.713472513481975E-003;
2.404333333333334E+009;1.708860695362091E-001;1.757669262588024E-002;-2.400264376774430E-003;3.877938492223620E-003;
2.404500000000000E+009;1.717355102300644E-001;1.640626974403858E-002;-2.391412155702710E-003;3.799473866820335E-003;
2.404666666666667E+009;1.728139370679855E-001;1.546158920973539E-002;-2.344947075471282E-003;3.987719770520926E-003;
2.404833333333334E+009;1.737310439348221E-001;1.463909819722176E-002;-2.142487326636910E-003;4.154619295150042E-003;
2.405000000000000E+009;1.745817810297012E-001;1.386680640280247E-002;-1.909705577418208E-003;4.009482450783253E-003;
2.405166666666667E+009;1.754421740770340E-001;1.313926093280315E-002;-1.897359848953784E-003;4.144126549363136E-003;
2.405333333333334E+009;1.762766689062119E-001;1.241942774504423E-002;-1.661227201111615E-003;4.296951461583376E-003;
2.405500000000000E+009;1.771131157875061E-001;1.201319228857756E-002;-1.562027493491769E-003;4.606161732226610E-003;
2.405666666666667E+009;1.778257638216019E-001;1.144632138311863E-002;-1.153663615696132E-003;4.370650742202997E-003;
2.405833333333334E+009;1.783381402492523E-001;1.103004068136215E-002;-1.181136583909392E-003;4.567622207105160E-003;
2.406000000000000E+009;1.789924949407578E-001;1.063331216573715E-002;-8.254196727648377E-004;4.586537368595600E-003;
2.406166666666667E+009;1.793093830347061E-001;1.023146044462919E-002;-8.296139421872795E-004;4.644542466849089E-003;
2.406333333333334E+009;1.799684613943100E-001;9.981097653508186E-003;-6.029726355336607E-004;4.590813070535660E-003;
2.406500000000000E+009;1.802549362182617E-001;9.531854651868343E-003;-3.778534301090986E-004;4.641295410692692E-003;
2.406666666666667E+009;1.803652793169022E-001;9.298795834183693E-003;-1.517054915893823E-004;4.710124805569649E-003;
2.406833333333334E+009;1.807292550802231E-001;8.921350352466106E-003;-2.823725935741095E-006;4.610079340636730E-003;
2.407000000000000E+009;1.808223724365234E-001;8.580226451158524E-003;2.897658850997686E-004;4.504963755607605E-003;
2.407166666666667E+009;1.810726225376129E-001;8.195348083972931E-003;4.232585779391229E-004;4.568111151456833E-003;
2.407333333333334E+009;1.808579266071320E-001;7.798020262271166E-003;6.681547965854406E-004;4.420247394591570E-003;
2.407500000000000E+009;1.807720363140106E-001;7.368566468358040E-003;7.861721678636968E-004;4.363536369055510E-003;
2.407666666666667E+009;1.806890368461609E-001;7.141423877328634E-003;9.228349663317204E-004;4.236368928104639E-003;
2.407833333333334E+009;1.802127063274384E-001;6.450276356190443E-003;1.142481807619333E-003;4.109415691345930E-003;
2.408000000000000E+009;1.799819469451904E-001;5.802029743790627E-003;1.236535492353141E-003;4.190258681774139E-003;
2.408166666666667E+009;1.795426458120346E-001;5.300080403685570E-003;1.404243870638311E-003;3.963796887546778E-003;
2.408333333333334E+009;1.793569773435593E-001;4.604218993335962E-003;1.504372572526336E-003;3.863345831632614E-003;
2.408500000000000E+009;1.785885542631149E-001;3.741284366697073E-003;1.788583234883845E-003;3.809626214206219E-003;
2.408666666666667E+009;1.781384795904160E-001;2.906048437580466E-003;1.722822082228959E-003;3.526316257193685E-003;
2.408833333333334E+009;1.773622781038284E-001;2.000735839828849E-003;2.066386165097356E-003;3.416801802814007E-003;
2.409000000000000E+009;1.767630428075790E-001;1.021328731440008E-003;2.090284833684564E-003;3.411027137190104E-003;
2.409166666666667E+009;1.762660592794418E-001;6.601074710488319E-005;2.008329378440976E-003;3.272358095273376E-003;
2.409333333333334E+009;1.755088865756989E-001;-1.208018511533737E-003;2.116855001077056E-003;3.083006246015430E-003;
2.409500000000000E+009;1.747886240482330E-001;-2.553241327404976E-003;2.230261685326695E-003;2.939086174592376E-003;
2.409666666666667E+009;1.740191280841827E-001;-3.819601144641638E-003;2.190619939938188E-003;2.983326092362404E-003;
2.409833333333334E+009;1.732446700334549E-001;-5.065427627414465E-003;2.324632368981838E-003;2.847989322617650E-003;
2.410000000000000E+009;1.726303398609161E-001;-6.343938875943422E-003;2.293017227202654E-003;2.863739151507616E-003;
2.410166666666667E+009;1.720067560672760E-001;-7.905672304332256E-003;2.323849825188518E-003;2.639974001795054E-003;
2.410333333333334E+009;1.713211238384247E-001;-9.603252634406090E-003;2.535498468205333E-003;2.415364608168602E-003;
2.410500000000000E+009;1.708402782678604E-001;-1.109077408909798E-002;2.474551321938634E-003;2.410460496321321E-003;
2.410666666666667E+009;1.700855791568756E-001;-1.300666201859713E-002;2.492947503924370E-003;2.314206445589662E-003;
2.410833333333334E+009;1.697157025337219E-001;-1.464606821537018E-002;2.704500919207931E-003;2.184561686590314E-003;
2.411000000000000E+009;1.692589670419693E-001;-1.643964648246765E-002;2.544590272009373E-003;1.999072730541229E-003;
2.411166666666667E+009;1.687987148761749E-001;-1.820454001426697E-002;2.665544860064983E-003;2.002472290769219E-003;
2.411333333333334E+009;1.685650944709778E-001;-2.008081786334515E-002;2.648439258337021E-003;1.831951085478067E-003;
2.411500000000000E+009;1.682193726301193E-001;-2.220762893557549E-002;2.786111552268267E-003;1.752374228090048E-003;
2.411666666666667E+009;1.684315800666809E-001;-2.405716106295586E-002;2.883443143218756E-003;1.709816395305097E-003;
2.411833333333334E+009;1.681323498487473E-001;-2.581487409770489E-002;2.696557901799679E-003;1.489414600655437E-003;
2.412000000000000E+009;1.682225465774536E-001;-2.779709734022617E-002;2.794818487018347E-003;1.433984376490116E-003;
2.412166666666667E+009;1.681954264640808E-001;-2.979961410164833E-002;2.909513190388680E-003;1.417303923517466E-003;
2.412333333333334E+009;1.684415340423584E-001;-3.149365261197090E-002;2.699437085539103E-003;1.223003375343978E-003;
2.412500000000000E+009;1.684841662645340E-001;-3.330471366643906E-002;2.858278341591358E-003;1.178111764602363E-003;
2.412666666666667E+009;1.688240617513657E-001;-3.544075042009354E-002;2.722400240600109E-003;1.155690173618496E-003;
2.412833333333334E+009;1.691892892122269E-001;-3.721500560641289E-002;2.907752059400082E-003;8.381553343497217E-004;
2.413000000000000E+009;1.694909632205963E-001;-3.901813924312592E-002;2.752756467089057E-003;9.001235011965036E-004;
2.413166666666667E+009;1.697784364223480E-001;-4.079551622271538E-002;2.843255875632167E-003;8.573059458285570E-004;
2.413333333333334E+009;1.700916290283203E-001;-4.249202460050583E-002;2.911775140091777E-003;5.183845642022789E-004;
2.413500000000000E+009;1.706961691379547E-001;-4.425200074911118E-002;2.861831570044160E-003;5.729749682359397E-004;
2.413666666666667E+009;1.712930947542191E-001;-4.591215401887894E-002;2.778943162411451E-003;4.480149655137211E-004;
2.413833333333334E+009;1.715790033340454E-001;-4.724830016493797E-002;2.731133718043566E-003;3.221484075766057E-004;
2.414000000000000E+009;1.722285300493240E-001;-4.867732897400856E-002;2.756035886704922E-003;2.267151721753180E-004;
2.414166666666667E+009;1.727948039770126E-001;-5.017425119876862E-002;2.725993050262332E-003;1.548397995065898E-004;
2.414333333333334E+009;1.733319163322449E-001;-5.131466686725617E-002;2.734822919592261E-003;1.195673576148693E-005;
2.414500000000000E+009;1.741237938404083E-001;-5.246946588158608E-002;2.627259586006403E-003;-5.111728569318075E-006;
2.414666666666667E+009;1.746525615453720E-001;-5.353935062885284E-002;2.653348026797175E-003;-6.394703814294189E-005;
2.414833333333334E+009;1.748942136764526E-001;-5.459976941347122E-002;2.602759050205350E-003;-1.269385975319892E-004;
2.415000000000000E+009;1.753221601247788E-001;-5.555478110909462E-002;2.495254157111049E-003;-3.454931138549000E-004;
2.415166666666667E+009;1.757828444242477E-001;-5.629475042223930E-002;2.476530149579048E-003;-4.212165658827871E-004;
2.415333333333334E+009;1.763045191764832E-001;-5.716307833790779E-002;2.354043535888195E-003;-4.824608331546187E-004;
2.415500000000000E+009;1.766316443681717E-001;-5.781107395887375E-002;2.402770100161433E-003;-5.705687799490988E-004;
2.415666666666667E+009;1.770104169845581E-001;-5.830436572432518E-002;2.339008031412959E-003;-6.385488086380065E-004;
2.415833333333334E+009;1.772476434707642E-001;-5.902676284313202E-002;2.487836405634880E-003;-7.219914114102721E-004;
2.416000000000000E+009;1.772902607917786E-001;-5.940440297126770E-002;2.267819596454501E-003;-6.643472006544471E-004;
2.416166666666667E+009;1.776255220174789E-001;-5.982936173677445E-002;2.112353919073939E-003;-7.410332327708602E-004;
2.416333333333334E+009;1.775945425033569E-001;-6.011454388499260E-002;2.261013723909855E-003;-9.738965891301632E-004;
2.416500000000000E+009;1.776387691497803E-001;-6.067216023802757E-002;2.028007758781314E-003;-1.153791439719498E-003;
2.416666666666667E+009;1.774742156267166E-001;-6.087007001042366E-002;2.024497138336301E-003;-9.099855087697506E-004;
2.416833333333334E+009;1.773030459880829E-001;-6.125328317284584E-002;1.899922033771873E-003;-1.122177112847567E-003;
2.417000000000000E+009;1.767253726720810E-001;-6.132652610540390E-002;1.825504470616579E-003;-1.036727335304022E-003;
2.417166666666667E+009;1.765428483486176E-001;-6.164138764142990E-002;1.741710002534092E-003;-1.303022145293653E-003;
2.417333333333334E+009;1.760379076004028E-001;-6.171501800417900E-002;1.796852331608534E-003;-1.287522027269006E-003;
2.417500000000000E+009;1.753950268030167E-001;-6.223040819168091E-002;1.702738110907376E-003;-1.284242840483785E-003;
2.417666666666667E+009;1.748918890953064E-001;-6.242939084768295E-002;1.593094319105148E-003;-1.287926454097033E-003;
2.417833333333334E+009;1.741022318601608E-001;-6.268684566020966E-002;1.409433782100678E-003;-1.189108006656170E-003;
2.418000000000000E+009;1.731144636869431E-001;-6.303333491086960E-002;1.414206577464938E-003;-1.345582772046328E-003;
2.418166666666667E+009;1.723069697618485E-001;-6.323532015085220E-002;1.335218199528754E-003;-1.315695699304342E-003;
2.418333333333334E+009;1.715568751096726E-001;-6.370526552200317E-002;1.110460725612938E-003;-1.240474288351834E-003;
2.418500000000000E+009;1.703983098268509E-001;-6.398777663707733E-002;9.510716772638261E-004;-1.329537713900209E-003;
2.418666666666667E+009;1.696177273988724E-001;-6.455729901790619E-002;9.512303513474762E-004;-1.381358713842928E-003;
2.418833333333334E+009;1.683429181575775E-001;-6.520031392574310E-002;8.617558632977307E-004;-1.347879297100008E-003;
2.419000000000000E+009;1.671428084373474E-001;-6.574981659650803E-002;8.370369323529303E-004;-1.198959653265774E-003;
2.419166666666667E+009;1.660321652889252E-001;-6.635352224111557E-002;8.403298561461270E-004;-1.230614143423736E-003;
2.419333333333334E+009;1.645827293395996E-001;-6.687894463539124E-002;7.289734203368425E-004;-1.120333443395793E-003;
2.419500000000000E+009;1.635675132274628E-001;-6.787494570016861E-002;8.149101631715894E-004;-1.259328797459602E-003;
2.419666666666667E+009;1.624842435121536E-001;-6.883010268211365E-002;6.318429368548095E-004;-1.132528530433774E-003;
2.419833333333334E+009;1.612095832824707E-001;-6.965921074151993E-002;5.687458324246109E-004;-1.174068427644670E-003;
2.420000000000000E+009;1.600584983825684E-001;-7.052229344844818E-002;5.821739905513823E-004;-1.060715643689036E-003;
2.420166666666667E+009;1.590843200683594E-001;-7.171943038702011E-002;5.746275419369340E-004;-1.074275467544794E-003;
2.420333333333334E+009;1.578428596258164E-001;-7.288148254156113E-002;5.555419484153390E-004;-9.484135662205517E-004;
2.420500000000000E+009;1.568835973739624E-001;-7.390525937080383E-002;4.530683218035847E-004;-8.820762741379440E-004;
2.420666666666667E+009;1.558742672204971E-001;-7.520380616188049E-002;2.369455469306558E-004;-8.542626746930182E-004;
2.420833333333334E+009;1.548122018575668E-001;-7.654026150703430E-002;5.502089625224471E-004;-6.432069349102676E-004;
2.421000000000000E+009;1.538573801517487E-001;-7.804398238658905E-002;3.301012911833823E-004;-7.855513831600547E-004;
2.421166666666667E+009;1.533280909061432E-001;-7.952403277158737E-002;3.200451319571585E-004;-8.415811462327838E-004;
2.421333333333334E+009;1.524517089128494E-001;-8.106180280447006E-002;5.265311338007450E-004;-6.125624058768153E-004;
2.421500000000000E+009;1.517289876937866E-001;-8.247922360897064E-002;3.131845733150840E-004;-5.589901120401919E-004;
2.421666666666667E+009;1.512020826339722E-001;-8.427377045154572E-002;4.234865482430905E-004;-5.990960053168237E-004;
2.421833333333334E+009;1.507414281368256E-001;-8.587141335010529E-002;3.936609427910298E-004;-5.165329785086215E-004;
2.422000000000000E+009;1.501973122358322E-001;-8.747309446334839E-002;5.316352471709251E-004;-6.566212396137416E-004;
2.422166666666667E+009;1.499250680208206E-001;-8.936171233654022E-002;4.412971320562065E-004;-5.547545151785016E-004;
2.422333333333334E+009;1.498309224843979E-001;-9.081033617258072E-002;6.062785978429020E-004;-5.338511546142399E-004;
2.422500000000000E+009;1.495671719312668E-001;-9.252943843603134E-002;4.932711599394679E-004;-5.136398831382394E-004;
2.422666666666667E+009;1.493787020444870E-001;-9.425263851881027E-002;6.320558604784310E-004;-4.710217472165823E-004;
2.422833333333334E+009;1.496183276176453E-001;-9.602727741003037E-002;6.089454400353134E-004;-5.512768402695656E-004;
2.423000000000000E+009;1.495646238327026E-001;-9.769839793443680E-002;6.154717993922532E-004;-6.572480779141188E-004;
2.423166666666667E+009;1.497021615505219E-001;-9.927319735288620E-002;6.155711598694325E-004;-4.842646594624966E-004;
2.423333333333334E+009;1.500748693943024E-001;-1.007002592086792E-001;5.481702974066138E-004;-6.052174139767885E-004;
2.423500000000000E+009;1.502686291933060E-001;-1.023213490843773E-001;6.827475735917687E-004;-7.214986835606396E-004;
2.423666666666667E+009;1.503812968730927E-001;-1.039912328124046E-001;6.320502725429833E-004;-5.744180525653064E-004;
2.423833333333334E+009;1.510042846202850E-001;-1.053982451558113E-001;7.487012771889567E-004;-6.193317240104079E-004;
2.424000000000000E+009;1.512186229228973E-001;-1.066545695066452E-001;7.136565400287509E-004;-6.558821769431233E-004;
2.424166666666667E+009;1.516049206256867E-001;-1.080850958824158E-001;6.716620991937816E-004;-6.084640626795590E-004;
2.424333333333334E+009;1.520221233367920E-001;-1.093127354979515E-001;5.214193952269852E-004;-6.194516899995506E-004;
2.424500000000000E+009;1.526115685701370E-001;-1.106074377894402E-001;6.893881945870817E-004;-6.168952677398920E-004;
2.424666666666667E+009;1.531035304069519E-001;-1.116023436188698E-001;6.177129107527435E-004;-6.548669771291316E-004;
2.424833333333334E+009;1.534029543399811E-001;-1.125176921486855E-001;5.403627874329686E-004;-8.105136221274734E-004;
2.425000000000000E+009;1.539559811353684E-001;-1.136020347476006E-001;5.772735457867384E-004;-7.747983327135444E-004;
2.425166666666667E+009;1.542951464653015E-001;-1.145147308707237E-001;6.549656973220408E-004;-6.494966219179332E-004;
2.425333333333334E+009;1.546986848115921E-001;-1.152062416076660E-001;5.998407723382115E-004;-7.204592693597078E-004;
2.425500000000000E+009;1.550898551940918E-001;-1.159803271293640E-001;6.952778785489500E-004;-8.189359796233475E-004;
2.425666666666667E+009;1.552563160657883E-001;-1.166099384427071E-001;5.986022297292948E-004;-8.081776322796941E-004;
2.425833333333334E+009;1.555461585521698E-001;-1.171582341194153E-001;5.120611167512834E-004;-7.362138130702078E-004;
2.426000000000000E+009;1.557496786117554E-001;-1.176415085792542E-001;5.617882125079632E-004;-6.435363320633769E-004;
2.426166666666667E+009;1.560567766427994E-001;-1.181340813636780E-001;4.853770660702139E-004;-9.244465036317706E-004;
2.426333333333334E+009;1.560985296964645E-001;-1.185150668025017E-001;5.102513823658228E-004;-7.747645140625536E-004;
2.426500000000000E+009;1.561112254858017E-001;-1.186643317341805E-001;6.075429264456034E-004;-7.633992354385555E-004;
2.426666666666667E+009;1.561697721481323E-001;-1.187738031148911E-001;5.223643383942545E-004;-6.111906259320676E-004;
2.426833333333334E+009;1.559093743562698E-001;-1.189578175544739E-001;5.700300098396838E-004;-6.888985517434776E-004;
2.427000000000000E+009;1.557505279779434E-001;-1.192418187856674E-001;4.383827035780996E-004;-7.867286331020296E-004;
2.427166666666667E+009;1.554389744997025E-001;-1.192739605903626E-001;4.855542792938650E-004;-7.219960680231452E-004;
2.427333333333334E+009;1.548821777105331E-001;-1.194001808762550E-001;4.685202438849956E-004;-7.115761982277036E-004;
2.427500000000000E+009;1.544055789709091E-001;-1.195143610239029E-001;6.464217440225184E-004;-8.004045230336487E-004;
2.427666666666667E+009;1.538491547107697E-001;-1.196736097335815E-001;5.782633088529110E-004;-7.426757365465164E-004;
2.427833333333334E+009;1.529767811298370E-001;-1.198066696524620E-001;5.629000952467322E-004;-7.705120951868594E-004;
