# Version 1.00
#
freq[Hz];re:Trc1_S11;im:Trc1_S11;re:Trc2_S21;im:Trc2_S21;
2.400000000000000E+009;1.562942415475845E-001;6.023902446031570E-002;-3.956264350563288E-003;-2.269561809953302E-004;
2.400166666666667E+009;1.565031260251999E-001;5.847123637795448E-002;-3.913119900971651E-003;-4.676850221585482E-005;
2.400333333333334E+009;1.565129160881043E-001;5.644086748361588E-002;-4.132041241973639E-003;-6.685507105430588E-005;
2.400500000000000E+009;1.568910926580429E-001;5.435139313340187E-002;-4.095665644854307E-003;4.696865289588459E-005;
2.400666666666667E+009;1.570191383361816E-001;5.238536000251770E-002;-4.216766450554133E-003;2.555973769631237E-004;
2.400833333333334E+009;1.572844088077545E-001;5.036986991763115E-002;-4.137801937758923E-003;4.200094845145941E-004;
2.401000000000000E+009;1.577163189649582E-001;4.831205680966377E-002;-4.246954340487719E-003;5.710474797524512E-004;
2.401166666666667E+009;1.579218655824661E-001;4.604697600007057E-002;-4.149590618908405E-003;8.312904392369092E-004;
2.401333333333334E+009;1.583791375160217E-001;4.425555840134621E-002;-4.109359346330166E-003;1.059723552316427E-003;
2.401500000000000E+009;1.590185463428497E-001;4.217354580760002E-002;-4.095236770808697E-003;1.226192223839462E-003;
2.401666666666667E+009;1.593920588493347E-001;4.021952301263809E-002;-4.025723785161972E-003;1.192232593894005E-003;
2.401833333333334E+009;1.600953042507172E-001;3.816486150026321E-002;-4.159708507359028E-003;1.561970217153430E-003;
2.402000000000000E+009;1.606976389884949E-001;3.628262132406235E-002;-3.977270796895027E-003;1.594712724909186E-003;
2.402166666666667E+009;1.616393774747849E-001;3.457799926400185E-002;-4.234408494085074E-003;1.758143189363182E-003;
2.402333333333334E+009;1.621545404195786E-001;3.291828557848930E-002;-3.990852274000645E-003;1.891633146442473E-003;
2.402500000000000E+009;1.631502956151962E-001;3.108864091336727E-002;-3.740345360711217E-003;2.103161532431841E-003;
2.402666666666667E+009;1.637329012155533E-001;2.963147684931755E-002;-3.790403250604868E-003;2.198223955929279E-003;
2.402833333333334E+009;1.647742986679077E-001;2.818036824464798E-002;-3.768675960600376E-003;2.279444132000208E-003;
2.403000000000000E+009;1.657668352127075E-001;2.669701352715492E-002;-3.654006402939558E-003;2.571710152551532E-003;
2.403166666666667E+009;1.664809137582779E-001;2.536304853856564E-002;-3.569726366549730E-003;2.485124394297600E-003;
2.403333333333334E+009;1.676052361726761E-001;2.429859712719917E-002;-3.331409301608801E-003;2.818725770339370E-003;
2.403500000000000E+009;1.686441451311112E-001;2.301059477031231E-002;-3.092581871896982E-003;2.798403846099973E-003;
2.403666666666667E+009;1.694190502166748E-001;2.178568206727505E-002;-3.120137378573418E-003;3.084136173129082E-003;
2.403833333333334E+009;1.705621480941773E-001;2.064538933336735E-002;-3.081420669332147E-003;3.245401429012418E-003;
2.404000000000000E+009;1.715263426303864E-001;1.982201077044010E-002;-2.795307431370020E-003;3.286393824964762E-003;
2.404166666666667E+009;1.724271476268768E-001;1.888668164610863E-002;-2.727300161495805E-003;3.626196179538965E-003;
2.404333333333334E+009;1.732549220323563E-001;1.819568313658238E-002;-2.609895309433341E-003;3.461115760728717E-003;
2.404500000000000E+009;1.740834563970566E-001;1.750065200030804E-002;-2.464751945808530E-003;3.556105541065335E-003;
2.404666666666667E+009;1.749708056449890E-001;1.678477227687836E-002;-2.274985890835524E-003;3.732082201167941E-003;
2.404833333333334E+009;1.756376326084137E-001;1.618766784667969E-002;-2.162415068596602E-003;3.828642889857292E-003;
2.405000000000000E+009;1.764407157897949E-001;1.577278971672058E-002;-1.910135615617037E-003;3.987993113696575E-003;
2.405166666666667E+009;1.771220266819000E-001;1.513012312352657E-002;-1.818116637878120E-003;3.843024373054504E-003;
2.405333333333334E+009;1.778075844049454E-001;1.478355750441551E-002;-1.781365252099931E-003;4.234034568071365E-003;
2.405500000000000E+009;1.783122569322586E-001;1.435529813170433E-002;-1.427614944986999E-003;3.836716758087277E-003;
2.405666666666667E+009;1.787765175104141E-001;1.403102837502956E-002;-1.058768946677446E-003;4.147886764258146E-003;
2.405833333333334E+009;1.790926903486252E-001;1.375216804444790E-002;-1.032701926305890E-003;4.161836113780737E-003;
2.406000000000000E+009;1.794932186603546E-001;1.332491822540760E-002;-8.284040377475321E-004;4.201903007924557E-003;
2.406166666666667E+009;1.795714944601059E-001;1.328850351274014E-002;-6.246721022762358E-004;4.080739337950945E-003;
2.406333333333334E+009;1.799112558364868E-001;1.282342895865440E-002;-4.123838152736425E-004;4.255083389580250E-003;
2.406500000000000E+009;1.800238043069840E-001;1.248988416045904E-002;-2.304432709934190E-004;4.114925861358643E-003;
2.406666666666667E+009;1.798034459352493E-001;1.236341428011656E-002;-1.231602509506047E-004;4.050975199788809E-003;
2.406833333333334E+009;1.798689067363739E-001;1.196086127310991E-002;1.533614122308791E-004;4.006618633866310E-003;
2.407000000000000E+009;1.795876324176788E-001;1.161945890635252E-002;3.221375518478453E-004;4.162845667451620E-003;
2.407166666666667E+009;1.796201467514038E-001;1.110610645264387E-002;3.391000791452825E-004;3.855782095342875E-003;
2.407333333333334E+009;1.791402995586395E-001;1.057477667927742E-002;6.576913874596357E-004;3.866429673507810E-003;
2.407500000000000E+009;1.787988990545273E-001;1.014652196317911E-002;4.761329619213939E-004;3.951878286898136E-003;
2.407666666666667E+009;1.783130466938019E-001;9.604501537978649E-003;8.282994385808706E-004;3.893920686095953E-003;
2.407833333333334E+009;1.777721792459488E-001;8.770806714892387E-003;8.695466094650328E-004;3.872681409120560E-003;
2.408000000000000E+009;1.772454082965851E-001;7.887522689998150E-003;1.099485438317061E-003;3.702522953972220E-003;
2.408166666666667E+009;1.767557859420776E-001;7.234590128064156E-003;1.072959741577506E-003;3.687934717163444E-003;
2.408333333333334E+009;1.761991083621979E-001;6.288731936365366E-003;1.383021357469261E-003;3.412391757592559E-003;
2.408500000000000E+009;1.753576546907425E-001;5.102961789816618E-003;1.478816964663565E-003;3.336750436574221E-003;
2.408666666666667E+009;1.748030632734299E-001;4.116226453334093E-003;1.480960403569043E-003;3.165356116369367E-003;
2.408833333333334E+009;1.740143001079559E-001;2.850873628631234E-003;1.782161998562515E-003;3.308552084490657E-003;
2.409000000000000E+009;1.732998788356781E-001;1.646735239773989E-003;1.775503740645945E-003;2.994848415255547E-003;
2.409166666666667E+009;1.726717501878738E-001;3.579037438612431E-004;1.894615706987679E-003;2.722374396398664E-003;
2.409333333333334E+009;1.722055822610855E-001;-1.247775740921497E-003;1.783945132046938E-003;2.830339828506112E-003;
2.409500000000000E+009;1.713504791259766E-001;-2.768407342955470E-003;1.993056852370501E-003;2.685353392735124E-003;
2.409666666666667E+009;1.707916855812073E-001;-4.269285127520561E-003;2.082468476146460E-003;2.626033267006278E-003;
2.409833333333334E+009;1.701541990041733E-001;-5.767768714576960E-003;2.084841951727867E-003;2.359031699597836E-003;
2.410000000000000E+009;1.696957498788834E-001;-7.521151099354029E-003;2.155829919502139E-003;2.378252334892750E-003;
2.410166666666667E+009;1.693346798419952E-001;-9.315010160207748E-003;2.178608672693372E-003;2.172495471313596E-003;
2.410333333333334E+009;1.686710417270660E-001;-1.106456201523542E-002;2.388943918049336E-003;2.035906072705984E-003;
2.410500000000000E+009;1.683723926544190E-001;-1.310203410685062E-002;2.369137480854988E-003;1.911816536448896E-003;
2.410666666666667E+009;1.680754274129868E-001;-1.499606855213642E-002;2.267584437504411E-003;1.845099614001811E-003;
2.410833333333334E+009;1.678078919649124E-001;-1.669307798147202E-002;2.330217976123095E-003;1.741592539474368E-003;
2.411000000000000E+009;1.677237302064896E-001;-1.860803924500942E-002;2.537362510338426E-003;1.662135357037187E-003;
2.411166666666667E+009;1.673304885625839E-001;-2.071438543498516E-002;2.431197324767709E-003;1.438459847122431E-003;
2.411333333333334E+009;1.674333363771439E-001;-2.242550253868103E-002;2.470864681527019E-003;1.331829582341015E-003;
2.411500000000000E+009;1.674392223358154E-001;-2.458962425589562E-002;2.494591521099210E-003;1.360237482003868E-003;
2.411666666666667E+009;1.677698194980621E-001;-2.652735635638237E-002;2.483467338606715E-003;1.033516135066748E-003;
2.411833333333334E+009;1.678372025489807E-001;-2.834759466350079E-002;2.517040818929672E-003;9.658471099101007E-004;
2.412000000000000E+009;1.680892705917358E-001;-3.036848641932011E-002;2.439456526190043E-003;8.524403674528003E-004;
2.412166666666667E+009;1.684040725231171E-001;-3.236335888504982E-002;2.441796241328120E-003;7.608979940414429E-004;
2.412333333333334E+009;1.688874214887619E-001;-3.406627103686333E-002;2.485560253262520E-003;5.537706310860813E-004;
2.412500000000000E+009;1.692000627517700E-001;-3.585303202271462E-002;2.433018293231726E-003;4.722292651422322E-004;
2.412666666666667E+009;1.699099987745285E-001;-3.780377656221390E-002;2.356152515858412E-003;2.848534495569766E-004;
2.412833333333334E+009;1.704248636960983E-001;-3.936047106981278E-002;2.472762716934085E-003;9.049786604009569E-005;
2.413000000000000E+009;1.709524989128113E-001;-4.102745652198792E-002;2.186928642913699E-003;2.027667651418597E-004;
2.413166666666667E+009;1.713384687900543E-001;-4.259373620152473E-002;2.332858508452773E-003;1.497536868555471E-004;
2.413333333333334E+009;1.719463765621185E-001;-4.410250112414360E-002;2.266858937218785E-003;-1.967606658581644E-005;
2.413500000000000E+009;1.727696061134338E-001;-4.546336829662323E-002;1.965332776308060E-003;-1.668197801336646E-004;
2.413666666666667E+009;1.735001206398010E-001;-4.694068059325218E-002;1.951254671439529E-003;-3.284725535195321E-004;
2.413833333333334E+009;1.740491837263107E-001;-4.819492995738983E-002;1.934324507601559E-003;-4.448461986612529E-004;
2.414000000000000E+009;1.745205670595169E-001;-4.942772537469864E-002;1.798689831048250E-003;-5.469077732414007E-004;
2.414166666666667E+009;1.752393543720245E-001;-5.046759918332100E-002;1.616698806174099E-003;-4.223527212161571E-004;
2.414333333333334E+009;1.757830232381821E-001;-5.159713700413704E-002;1.516025047749281E-003;-4.957236233167350E-004;
2.414500000000000E+009;1.765777170658112E-001;-5.245703086256981E-002;1.490976894274354E-003;-5.885096616111696E-004;
2.414666666666667E+009;1.768084615468979E-001;-5.319634452462196E-002;1.403999514877796E-003;-6.154517759568989E-004;
2.414833333333334E+009;1.772213280200958E-001;-5.415188893675804E-002;1.277735456824303E-003;-4.492554580792785E-004;
2.415000000000000E+009;1.776905059814453E-001;-5.482485517859459E-002;1.141969463787973E-003;-3.858531708829105E-004;
2.415166666666667E+009;1.780356019735336E-001;-5.527849122881889E-002;1.076769432984293E-003;-5.082873394712806E-004;
2.415333333333334E+009;1.784919351339340E-001;-5.599050223827362E-002;9.871183428913355E-004;-6.305819842964411E-004;
2.415500000000000E+009;1.785357147455216E-001;-5.628382414579392E-002;8.525478187948465E-004;-4.642447165679187E-004;
2.415666666666667E+009;1.786884069442749E-001;-5.669702216982842E-002;9.743801201693714E-004;-5.198454600758851E-004;
2.415833333333334E+009;1.788072884082794E-001;-5.699039623141289E-002;8.692045812495053E-004;-4.131892928853631E-004;
2.416000000000000E+009;1.787083297967911E-001;-5.742959678173065E-002;7.075546891428530E-004;-3.374142979737371E-004;
2.416166666666667E+009;1.787285953760147E-001;-5.773302912712097E-002;9.355371585115790E-004;-4.418677999638021E-004;
2.416333333333334E+009;1.783369630575180E-001;-5.783739313483238E-002;7.760705775581300E-004;-2.981390280183405E-004;
2.416500000000000E+009;1.782453954219818E-001;-5.813679099082947E-002;6.421746220439673E-004;-2.066378510789946E-004;
2.416666666666667E+009;1.776696145534515E-001;-5.825544521212578E-002;8.052763878367841E-004;-1.959022774826735E-004;
2.416833333333334E+009;1.774485558271408E-001;-5.867924913764000E-002;4.825002688448876E-004;-1.936764310812578E-004;
2.417000000000000E+009;1.766262650489807E-001;-5.879823490977287E-002;5.729863187298179E-004;-1.894321758300066E-004;
2.417166666666667E+009;1.760575026273727E-001;-5.897259339690208E-002;6.328999297693372E-004;-1.090669538825750E-004;
2.417333333333334E+009;1.753383129835129E-001;-5.914680659770966E-002;5.409166333265603E-004;-1.386101121170213E-005;
2.417500000000000E+009;1.744133830070496E-001;-5.959008634090424E-002;6.580435438081622E-004;1.810292997106444E-005;
2.417666666666667E+009;1.735987365245819E-001;-5.967164784669876E-002;7.265257881954312E-004;-6.049694638932124E-005;
2.417833333333334E+009;1.727777570486069E-001;-6.010163947939873E-002;6.192737491801381E-004;-1.002663557301275E-004;
2.418000000000000E+009;1.715407967567444E-001;-6.076598539948463E-002;7.487077964469791E-004;5.370755752664991E-005;
2.418166666666667E+009;1.704476624727249E-001;-6.098037958145142E-002;7.063779630698264E-004;-5.776782927569002E-005;
2.418333333333334E+009;1.696127504110336E-001;-6.151254102587700E-002;7.672823849134147E-004;-2.355374090257101E-005;
2.418500000000000E+009;1.682611852884293E-001;-6.205899268388748E-002;8.011218742467463E-004;-6.225201104825828E-006;
2.418666666666667E+009;1.672138720750809E-001;-6.280998140573502E-002;7.964363903738558E-004;7.611177716171369E-005;
2.418833333333334E+009;1.656691879034042E-001;-6.357178092002869E-002;7.440571207553148E-004;4.144132981309667E-005;
2.419000000000000E+009;1.645182967185974E-001;-6.430581957101822E-002;6.687317509204149E-004;4.872626959695481E-005;
2.419166666666667E+009;1.633202582597733E-001;-6.521151959896088E-002;7.898324984125793E-004;1.155985501100076E-005;
2.419333333333334E+009;1.619172543287277E-001;-6.579709053039551E-002;7.408632664009929E-004;1.295024412684143E-005;
2.419500000000000E+009;1.608004868030548E-001;-6.719970703125000E-002;8.452160400338471E-004;9.241929365089163E-005;
2.419666666666667E+009;1.597661375999451E-001;-6.828422844409943E-002;7.625171565450728E-004;2.366964963584906E-006;
2.419833333333334E+009;1.585396379232407E-001;-6.941400468349457E-002;8.244495838880539E-004;2.079851401504129E-005;
2.420000000000000E+009;1.574620753526688E-001;-7.064256072044373E-002;8.716698503121734E-004;3.882746386807412E-005;
2.420166666666667E+009;1.563679128885269E-001;-7.205723971128464E-002;9.326105937361717E-004;-3.819441917585209E-005;
2.420333333333334E+009;1.554581075906754E-001;-7.328375428915024E-002;7.730394718237221E-004;3.236242946513812E-006;
2.420500000000000E+009;1.543903946876526E-001;-7.462295144796372E-002;8.844551630318165E-004;-1.455910114600556E-005;
2.420666666666667E+009;1.537091732025147E-001;-7.618243992328644E-002;9.032345842570067E-004;-3.302924960735254E-005;
2.420833333333334E+009;1.526445001363754E-001;-7.755605876445770E-002;9.570698020979762E-004;-8.013976184884086E-005;
2.421000000000000E+009;1.520523577928543E-001;-7.941488921642304E-002;1.044863136485219E-003;-6.154836592031643E-005;
2.421166666666667E+009;1.514360308647156E-001;-8.105037361383438E-002;9.078460861928761E-004;-4.081170482095331E-005;
2.421333333333334E+009;1.511237621307373E-001;-8.278818428516388E-002;8.909377502277494E-004;-2.145488542737439E-004;
2.421500000000000E+009;1.503760814666748E-001;-8.424269407987595E-002;9.229740826413035E-004;-7.926068064989522E-005;
2.421666666666667E+009;1.502539068460465E-001;-8.609014749526978E-002;1.045683166012168E-003;-1.787596411304548E-004;
2.421833333333334E+009;1.498626768589020E-001;-8.778834342956543E-002;1.031726598739624E-003;-1.696929393801838E-004;
2.422000000000000E+009;1.496301591396332E-001;-8.946134150028229E-002;9.142900817096233E-004;-1.248539629159495E-004;
2.422166666666667E+009;1.494150459766388E-001;-9.132116287946701E-002;9.120751637965441E-004;-1.883877121144906E-004;
2.422333333333334E+009;1.493298113346100E-001;-9.301543980836868E-002;9.181356872431934E-004;-3.291448811069131E-004;
2.422500000000000E+009;1.496215015649796E-001;-9.441933780908585E-002;9.274673066101968E-004;-3.805215819738805E-004;
2.422666666666667E+009;1.493367105722427E-001;-9.625692665576935E-002;9.970464743673801E-004;-3.395449020899832E-004;
2.422833333333334E+009;1.497708410024643E-001;-9.790205210447311E-002;6.394142401404679E-004;-2.799651992972940E-004;
2.423000000000000E+009;1.499721407890320E-001;-9.937831014394760E-002;7.139003137126565E-004;-3.193790325894952E-004;
2.423166666666667E+009;1.503600180149078E-001;-1.010378599166870E-001;7.366401259787381E-004;-2.520318666938692E-004;
2.423333333333334E+009;1.507364809513092E-001;-1.022253409028053E-001;7.517123012803495E-004;-4.594165075104684E-004;
2.423500000000000E+009;1.511184275150299E-001;-1.037110984325409E-001;7.149644661694765E-004;-2.797246270347387E-004;
2.423666666666667E+009;1.514752805233002E-001;-1.051711812615395E-001;6.409059278666973E-004;-2.424119011266157E-004;
2.423833333333334E+009;1.520162820816040E-001;-1.063384562730789E-001;5.615208065137267E-004;-3.448549832683057E-004;
2.424000000000000E+009;1.524047404527664E-001;-1.074030622839928E-001;6.452555535361171E-004;-2.367725974181667E-004;
2.424166666666667E+009;1.528897732496262E-001;-1.085432916879654E-001;5.995393730700016E-004;-1.592140179127455E-004;
2.424333333333334E+009;1.535413265228272E-001;-1.096151471138001E-001;7.369357044808567E-004;-9.891993249766529E-005;
2.424500000000000E+009;1.539717167615891E-001;-1.106254830956459E-001;6.069407099857926E-004;-9.558675810694695E-005;
2.424666666666667E+009;1.545646637678146E-001;-1.112582236528397E-001;8.269730024039745E-004;-1.984039408853278E-004;
2.424833333333334E+009;1.548254042863846E-001;-1.121281683444977E-001;7.892812136560679E-004;-1.995043130591512E-004;
2.425000000000000E+009;1.553121507167816E-001;-1.129803359508514E-001;9.476300911046565E-004;-2.342027873964980E-004;
2.425166666666667E+009;1.556182354688644E-001;-1.136143878102303E-001;7.911036955192685E-004;-6.767419108655304E-005;
2.425333333333334E+009;1.560885906219482E-001;-1.141036078333855E-001;7.376860012300313E-004;-1.551363966427743E-004;
2.425500000000000E+009;1.564470827579498E-001;-1.146556064486504E-001;9.294970077462494E-004;-1.890420680865645E-004;
2.425666666666667E+009;1.563457995653153E-001;-1.150667071342468E-001;8.953518117778003E-004;-1.193500793306157E-004;
2.425833333333334E+009;1.566664129495621E-001;-1.153130829334259E-001;9.838724508881569E-004;-2.915068471338600E-004;
2.426000000000000E+009;1.567780226469040E-001;-1.157324016094208E-001;9.593507857061923E-004;-1.158713057520799E-004;
2.426166666666667E+009;1.569775342941284E-001;-1.159895360469818E-001;1.128628500737250E-003;-1.216408563777804E-004;
2.426333333333334E+009;1.567521989345551E-001;-1.162085905671120E-001;1.152144279330969E-003;-3.106454096268863E-004;
2.426500000000000E+009;1.566460132598877E-001;-1.162824705243111E-001;1.208324450999498E-003;-3.621068317443132E-004;
2.426666666666667E+009;1.565199345350266E-001;-1.163292974233627E-001;9.776219958439469E-004;-2.609575167298317E-004;
2.426833333333334E+009;1.560757458209992E-001;-1.165202483534813E-001;1.093553262762725E-003;-2.462471311446279E-004;
2.427000000000000E+009;1.556527763605118E-001;-1.168210953474045E-001;1.115331659093499E-003;-2.994626411236823E-004;
2.427166666666667E+009;1.550188511610031E-001;-1.166827306151390E-001;1.179149374365807E-003;-4.903814988210797E-004;
2.427333333333334E+009;1.544712930917740E-001;-1.168939918279648E-001;1.438828068785369E-003;-4.548130382318050E-004;
2.427500000000000E+009;1.538969725370407E-001;-1.169658750295639E-001;1.204391010105610E-003;-4.616179503500462E-004;
2.427666666666667E+009;1.530319005250931E-001;-1.170874759554863E-001;1.384040806442499E-003;-6.983316270634532E-004;
2.427833333333334E+009;1.520506441593170E-001;-1.172072291374207E-001;1.423706300556660E-003;-6.620044587180018E-004;
