# Version 1.00
#
freq[Hz];re:Trc1_S11;im:Trc1_S11;re:Trc2_S21;im:Trc2_S21;
2.400000000000000E+009;1.562436968088150E-001;6.037581712007523E-002;-4.064034670591354E-003;-3.813728399109095E-004;
2.400166666666667E+009;1.563858389854431E-001;5.870642885565758E-002;-4.280741792172194E-003;-2.095587296935264E-005;
2.400333333333334E+009;1.563754230737686E-001;5.659008026123047E-002;-4.166823346167803E-003;-7.382167677860707E-005;
2.400500000000000E+009;1.566380411386490E-001;5.449305102229118E-002;-4.188805352896452E-003;1.075160616892390E-004;
2.400666666666667E+009;1.568622589111328E-001;5.262900516390801E-002;-4.273347090929747E-003;1.903842057799920E-004;
2.400833333333334E+009;1.571381986141205E-001;5.053578689694405E-002;-4.269594792276621E-003;4.816873406525701E-004;
2.401000000000000E+009;1.574938893318176E-001;4.844399169087410E-002;-4.209322389215231E-003;5.636448622681201E-004;
2.401166666666667E+009;1.579667031764984E-001;4.635283723473549E-002;-4.359231330454350E-003;5.818813224323094E-004;
2.401333333333334E+009;1.584430187940598E-001;4.422235861420631E-002;-4.390680231153965E-003;9.072634275071323E-004;
2.401500000000000E+009;1.589887589216232E-001;4.215095564723015E-002;-4.121132194995880E-003;1.224619802087545E-003;
2.401666666666667E+009;1.594907641410828E-001;4.039035737514496E-002;-4.132317844778299E-003;1.193280681036413E-003;
2.401833333333334E+009;1.600693017244339E-001;3.829351812601090E-002;-4.204448778182268E-003;1.353449653834105E-003;
2.402000000000000E+009;1.607304066419601E-001;3.663369640707970E-002;-4.039499443024397E-003;1.710807904601097E-003;
2.402166666666667E+009;1.614733487367630E-001;3.467322885990143E-002;-4.103945102542639E-003;1.659738831222057E-003;
2.402333333333334E+009;1.620654612779617E-001;3.288505598902702E-002;-3.949042875319719E-003;1.897150184959173E-003;
2.402500000000000E+009;1.630247980356216E-001;3.109502978622913E-002;-4.025056026875973E-003;2.145617036148906E-003;
2.402666666666667E+009;1.639332622289658E-001;2.960080653429031E-002;-3.817667020484805E-003;2.119360957294703E-003;
2.402833333333334E+009;1.647051870822907E-001;2.819417044520378E-002;-3.410784294828773E-003;2.315200632438064E-003;
2.403000000000000E+009;1.656813919544220E-001;2.665879577398300E-002;-3.667713841423392E-003;2.474976237863302E-003;
2.403166666666667E+009;1.666584610939026E-001;2.524097077548504E-002;-3.409874159842730E-003;2.597684273496270E-003;
2.403333333333334E+009;1.676615923643112E-001;2.410562150180340E-002;-3.474058816209436E-003;2.713397610932589E-003;
2.403500000000000E+009;1.686287820339203E-001;2.301844209432602E-002;-3.314851550385356E-003;3.051691921427846E-003;
2.403666666666667E+009;1.694116145372391E-001;2.162973769009113E-002;-3.152464283630252E-003;2.977421274408698E-003;
2.403833333333334E+009;1.704785823822022E-001;2.066117152571678E-002;-3.058851463720202E-003;3.169799456372857E-003;
2.404000000000000E+009;1.714057177305222E-001;1.980091072618961E-002;-3.064441960304976E-003;3.409159835428000E-003;
2.404166666666667E+009;1.724251359701157E-001;1.892831362783909E-002;-2.830434357747436E-003;3.394135273993015E-003;
2.404333333333334E+009;1.732117384672165E-001;1.809443719685078E-002;-2.632107585668564E-003;3.494959557428956E-003;
2.404500000000000E+009;1.741179078817368E-001;1.747624576091766E-002;-2.442637924104929E-003;3.623959608376026E-003;
2.404666666666667E+009;1.749717295169830E-001;1.670120283961296E-002;-2.410087501630187E-003;3.575945273041725E-003;
2.404833333333334E+009;1.756722778081894E-001;1.636076718568802E-002;-2.134820679202676E-003;3.898537950590253E-003;
2.405000000000000E+009;1.763957887887955E-001;1.567388698458672E-002;-2.061285078525543E-003;4.011404700577259E-003;
2.405166666666667E+009;1.771971285343170E-001;1.514342240989208E-002;-1.776168821379542E-003;4.054957069456577E-003;
2.405333333333334E+009;1.777426600456238E-001;1.475412864238024E-002;-1.690388075076044E-003;4.148728214204311E-003;
2.405500000000000E+009;1.782251894474030E-001;1.451091747730970E-002;-1.540299854241312E-003;4.012281540781260E-003;
2.405666666666667E+009;1.787008643150330E-001;1.414181757718325E-002;-1.239020493812859E-003;4.138699732720852E-003;
2.405833333333334E+009;1.790291219949722E-001;1.381625048816204E-002;-1.143645728006959E-003;4.085506778210402E-003;
2.406000000000000E+009;1.795047670602799E-001;1.342133246362209E-002;-9.342571720480919E-004;4.209144506603479E-003;
2.406166666666667E+009;1.795321106910706E-001;1.334733143448830E-002;-6.685678963549435E-004;4.242820199579001E-003;
2.406333333333334E+009;1.797511279582977E-001;1.290214527398348E-002;-5.498885875567794E-004;4.248250741511583E-003;
2.406500000000000E+009;1.798123121261597E-001;1.261250302195549E-002;-4.012761346530169E-004;4.178829491138458E-003;
2.406666666666667E+009;1.796950399875641E-001;1.254846341907978E-002;-3.674956969916821E-004;4.229563754051924E-003;
2.406833333333334E+009;1.797316521406174E-001;1.197875197976828E-002;-1.892495492938906E-004;4.100098274648190E-003;
2.407000000000000E+009;1.795260459184647E-001;1.162982825189829E-002;1.443221117369831E-004;4.129142500460148E-003;
2.407166666666667E+009;1.794780641794205E-001;1.129966601729393E-002;2.865131536964327E-004;4.033588804304600E-003;
2.407333333333334E+009;1.790565103292465E-001;1.060776226222515E-002;5.002592806704342E-004;4.060800187289715E-003;
2.407500000000000E+009;1.786805391311646E-001;1.018369011580944E-002;6.182712386362255E-004;3.802993334829807E-003;
2.407666666666667E+009;1.783094108104706E-001;9.704463183879852E-003;6.460643489845097E-004;3.758911043405533E-003;
2.407833333333334E+009;1.776055991649628E-001;8.738311938941479E-003;8.373793680220842E-004;3.793714568018913E-003;
2.408000000000000E+009;1.771581023931503E-001;8.062240667641163E-003;1.079844892956317E-003;3.684408497065306E-003;
2.408166666666667E+009;1.765587478876114E-001;7.222877815365791E-003;1.196899800561369E-003;3.563329810276628E-003;
2.408333333333334E+009;1.762257516384125E-001;6.295072380453348E-003;1.277813455089927E-003;3.466871101409197E-003;
2.408500000000000E+009;1.754141598939896E-001;5.207920912653208E-003;1.442375709302723E-003;3.373051527887583E-003;
2.408666666666667E+009;1.747860163450241E-001;4.169991705566645E-003;1.473278738558292E-003;3.126233350485563E-003;
2.408833333333334E+009;1.740052849054337E-001;2.921817824244499E-003;1.742255175486207E-003;3.099536290392280E-003;
2.409000000000000E+009;1.735023260116577E-001;1.759827486239374E-003;1.751026953570545E-003;3.040208946913481E-003;
2.409166666666667E+009;1.727192550897598E-001;5.038115778006613E-004;1.943064155057073E-003;2.877217950299382E-003;
2.409333333333334E+009;1.719868779182434E-001;-1.115651801228523E-003;1.851675566285849E-003;2.825782168656588E-003;
2.409500000000000E+009;1.713744401931763E-001;-2.884328830987215E-003;2.072309842333198E-003;2.735529793426395E-003;
2.409666666666667E+009;1.707805544137955E-001;-4.306409973651171E-003;2.164893783628941E-003;2.484151395037770E-003;
2.409833333333334E+009;1.701700687408447E-001;-5.722735542804003E-003;2.135866321623325E-003;2.456070156767964E-003;
2.410000000000000E+009;1.696108132600784E-001;-7.431850768625736E-003;2.215744694694877E-003;2.346878405660391E-003;
2.410166666666667E+009;1.692234426736832E-001;-9.201739914715290E-003;2.323179505765438E-003;2.240988425910473E-003;
2.410333333333334E+009;1.686637699604034E-001;-1.099184527993202E-002;2.191235544160008E-003;2.095839008688927E-003;
2.410500000000000E+009;1.682810187339783E-001;-1.279293280094862E-002;2.204503165557981E-003;1.990641234442592E-003;
2.410666666666667E+009;1.679497361183167E-001;-1.496908441185951E-002;2.334042219445109E-003;1.747698173858225E-003;
2.410833333333334E+009;1.677326261997223E-001;-1.678701490163803E-002;2.508145291358233E-003;1.757015939801931E-003;
2.411000000000000E+009;1.675758361816406E-001;-1.865153573453426E-002;2.406955696642399E-003;1.584838377311826E-003;
2.411166666666667E+009;1.675089895725250E-001;-2.070501260459423E-002;2.451486187055707E-003;1.594486762769520E-003;
2.411333333333334E+009;1.674215495586395E-001;-2.253543213009834E-002;2.411169698461890E-003;1.387740718200803E-003;
2.411500000000000E+009;1.672296077013016E-001;-2.470372058451176E-002;2.414054004475474E-003;1.145943999290466E-003;
2.411666666666667E+009;1.674847751855850E-001;-2.652817219495773E-002;2.400344703346491E-003;1.066146534867585E-003;
2.411833333333334E+009;1.678608953952789E-001;-2.825547382235527E-002;2.439660020172596E-003;1.058950554579496E-003;
2.412000000000000E+009;1.681512892246246E-001;-3.038411960005760E-002;2.389593748375773E-003;7.933399756439030E-004;
2.412166666666667E+009;1.683901995420456E-001;-3.210808336734772E-002;2.337704179808497E-003;7.549570873379707E-004;
2.412333333333334E+009;1.687685698270798E-001;-3.401495888829231E-002;2.416939474642277E-003;7.311719236895442E-004;
2.412500000000000E+009;1.691846400499344E-001;-3.575799986720085E-002;2.477984409779310E-003;4.586186259984970E-004;
2.412666666666667E+009;1.697703152894974E-001;-3.774456307291985E-002;2.500146860256791E-003;4.391000547911972E-004;
2.412833333333334E+009;1.702555567026138E-001;-3.945327177643776E-002;2.352355280891061E-003;2.459322568029165E-004;
2.413000000000000E+009;1.709764152765274E-001;-4.081537574529648E-002;2.284338232129812E-003;1.636997913010418E-004;
2.413166666666667E+009;1.715300828218460E-001;-4.255411773920059E-002;2.188838087022305E-003;-1.630527185625397E-005;
2.413333333333334E+009;1.721280962228775E-001;-4.409112781286240E-002;2.120643155649304E-003;7.296315015992150E-005;
2.413500000000000E+009;1.728343069553375E-001;-4.558927565813065E-002;2.041037194430828E-003;-9.689424041425809E-005;
2.413666666666667E+009;1.733344644308090E-001;-4.704916477203369E-002;2.055535791441798E-003;-1.583398698130623E-004;
2.413833333333334E+009;1.738224625587463E-001;-4.816087707877159E-002;1.844262937083840E-003;-2.702548808883876E-004;
2.414000000000000E+009;1.743970364332199E-001;-4.946185275912285E-002;1.790298614650965E-003;-3.227452398277819E-004;
2.414166666666667E+009;1.751948148012161E-001;-5.044922232627869E-002;1.727269962430000E-003;-4.380211175885052E-004;
2.414333333333334E+009;1.756829321384430E-001;-5.154411122202873E-002;1.497519901022315E-003;-5.258086021058261E-004;
2.414500000000000E+009;1.763888597488403E-001;-5.245264992117882E-002;1.666801399551332E-003;-5.324676749296486E-004;
2.414666666666667E+009;1.768039017915726E-001;-5.311007052659988E-002;1.383273862302303E-003;-5.173627287149429E-004;
2.414833333333334E+009;1.772364377975464E-001;-5.406756699085236E-002;1.363697112537921E-003;-5.139732966199517E-004;
2.415000000000000E+009;1.776052713394165E-001;-5.479655042290688E-002;1.217401353642345E-003;-4.631711926776916E-004;
2.415166666666667E+009;1.779994368553162E-001;-5.531187355518341E-002;1.077148015610874E-003;-5.175891565158963E-004;
2.415333333333334E+009;1.783651560544968E-001;-5.594331771135330E-002;1.116678002290428E-003;-5.581529694609344E-004;
2.415500000000000E+009;1.784794628620148E-001;-5.618780851364136E-002;8.732822607271373E-004;-4.519201465882361E-004;
2.415666666666667E+009;1.786497384309769E-001;-5.656398832798004E-002;9.329998283647001E-004;-3.781820996664465E-004;
2.415833333333334E+009;1.787890195846558E-001;-5.699715390801430E-002;8.293287828564644E-004;-3.931671672035009E-004;
2.416000000000000E+009;1.785837411880493E-001;-5.737906321883202E-002;6.408460903912783E-004;-4.582433903124183E-004;
2.416166666666667E+009;1.786195933818817E-001;-5.757459625601769E-002;7.382030016742647E-004;-3.075881395488977E-004;
2.416333333333334E+009;1.783993244171143E-001;-5.782350897789002E-002;6.360758561640978E-004;-2.290137490490452E-004;
2.416500000000000E+009;1.781928688287735E-001;-5.815466493368149E-002;6.118376040831208E-004;-2.530442143324763E-004;
2.416666666666667E+009;1.776649802923203E-001;-5.820351466536522E-002;7.619867683388293E-004;-1.292533997911960E-004;
2.416833333333334E+009;1.772843152284622E-001;-5.855917930603027E-002;6.529632373712957E-004;-1.298450370086357E-004;
2.417000000000000E+009;1.765128821134567E-001;-5.878881365060806E-002;7.032674038782716E-004;-1.684012240730226E-004;
2.417166666666667E+009;1.760085672140122E-001;-5.892285704612732E-002;6.329087773337960E-004;-1.535131887067109E-004;
2.417333333333334E+009;1.753276735544205E-001;-5.910464748740196E-002;6.136821466498077E-004;1.006974616757361E-005;
2.417500000000000E+009;1.743230074644089E-001;-5.951707437634468E-002;6.189192645251751E-004;3.751629265025258E-005;
2.417666666666667E+009;1.736165285110474E-001;-5.976188555359840E-002;7.394581916742027E-004;4.988657019566745E-005;
2.417833333333334E+009;1.727022826671600E-001;-6.011893227696419E-002;6.931516109034419E-004;-3.744720743270591E-005;
2.418000000000000E+009;1.714932620525360E-001;-6.063020974397659E-002;7.091165171004832E-004;1.303031021961942E-004;
2.418166666666667E+009;1.704040765762329E-001;-6.093833222985268E-002;6.555560394190252E-004;2.344783752050716E-006;
2.418333333333334E+009;1.695649325847626E-001;-6.153267994523048E-002;6.294513004831970E-004;3.660057473098277E-006;
2.418500000000000E+009;1.683111935853958E-001;-6.209466606378555E-002;8.040505927056074E-004;8.533045911462978E-005;
2.418666666666667E+009;1.672308892011643E-001;-6.269662827253342E-002;8.654320845380426E-004;1.364534255117178E-004;
2.418833333333334E+009;1.657906025648117E-001;-6.341243535280228E-002;7.890822016634047E-004;1.077589258784428E-004;
2.419000000000000E+009;1.644846498966217E-001;-6.417817622423172E-002;8.030022727325559E-004;1.864001969806850E-004;
2.419166666666667E+009;1.633221507072449E-001;-6.511010229587555E-002;7.833388517610729E-004;5.342454824130982E-005;
2.419333333333334E+009;1.619514375925064E-001;-6.598976254463196E-002;7.880599005147815E-004;1.705835602479056E-004;
2.419500000000000E+009;1.609623134136200E-001;-6.708062440156937E-002;8.743245853111148E-004;1.730166404740885E-004;
2.419666666666667E+009;1.597331613302231E-001;-6.835844367742539E-002;7.696069660596550E-004;1.280630676774308E-004;
2.419833333333334E+009;1.583899855613709E-001;-6.931606680154800E-002;8.865246200002730E-004;3.022628516191617E-005;
2.420000000000000E+009;1.575753539800644E-001;-7.053064554929733E-002;7.465551607310772E-004;-4.267859549145214E-005;
2.420166666666667E+009;1.562925875186920E-001;-7.190217822790146E-002;9.272490278817713E-004;1.105315168388188E-004;
2.420333333333334E+009;1.554042994976044E-001;-7.341868430376053E-002;9.503255132585764E-004;-1.202727617055643E-005;
2.420500000000000E+009;1.544390171766281E-001;-7.463659346103668E-002;1.060097594745457E-003;1.901853829622269E-005;
2.420666666666667E+009;1.535510271787643E-001;-7.626238465309143E-002;9.299171506427229E-004;-6.596197636099532E-005;
2.420833333333334E+009;1.528576016426086E-001;-7.782638072967529E-002;9.326928993687034E-004;-4.915234967484139E-005;
2.421000000000000E+009;1.519157439470291E-001;-7.937029004096985E-002;1.023702789098024E-003;-1.721186563372612E-004;
2.421166666666667E+009;1.514135003089905E-001;-8.094247430562973E-002;9.654795867390931E-004;-1.463939697714523E-004;
2.421333333333334E+009;1.509204357862473E-001;-8.273907750844955E-002;9.382047574035823E-004;-7.818001176929101E-005;
2.421500000000000E+009;1.504480093717575E-001;-8.443503826856613E-002;9.395445813424885E-004;-6.150893023004755E-005;
2.421666666666667E+009;1.499958932399750E-001;-8.599180728197098E-002;8.898219675756991E-004;-2.222346956841648E-004;
2.421833333333334E+009;1.497744619846344E-001;-8.765681833028793E-002;8.236651774495840E-004;-8.738674659980461E-005;
2.422000000000000E+009;1.495570093393326E-001;-8.944839239120483E-002;9.967404184862971E-004;-1.632509374758229E-004;
2.422166666666667E+009;1.492916345596314E-001;-9.148670732975006E-002;9.919307194650173E-004;-2.669415553100407E-004;
2.422333333333334E+009;1.492678225040436E-001;-9.290830045938492E-002;8.069119649007917E-004;-3.708153089974076E-004;
2.422500000000000E+009;1.494095325469971E-001;-9.434925019741058E-002;7.358384900726378E-004;-2.176622656406835E-004;
2.422666666666667E+009;1.494990736246109E-001;-9.617321938276291E-002;8.664915221743286E-004;-2.587366616353393E-004;
2.422833333333334E+009;1.497683525085449E-001;-9.784822911024094E-002;9.067613282240927E-004;-3.058433649130166E-004;
2.423000000000000E+009;1.499376446008682E-001;-9.930747002363205E-002;8.033026824705303E-004;-1.682803122093901E-004;
2.423166666666667E+009;1.503118425607681E-001;-1.008806377649307E-001;7.746614865027368E-004;-2.412904359516688E-005;
2.423333333333334E+009;1.506957709789276E-001;-1.022177562117577E-001;7.312726229429245E-004;-2.062991843558848E-004;
2.423500000000000E+009;1.511749476194382E-001;-1.036536544561386E-001;7.319599390029907E-004;-3.455939586274326E-004;
2.423666666666667E+009;1.513457149267197E-001;-1.051094383001328E-001;8.731804555281997E-004;-2.379385114181787E-004;
2.423833333333334E+009;1.518909484148026E-001;-1.063586845993996E-001;7.287969347089529E-004;-3.513678966555744E-004;
2.424000000000000E+009;1.524114906787872E-001;-1.073683202266693E-001;7.927202386781573E-004;-3.235461772419512E-004;
2.424166666666667E+009;1.528506875038147E-001;-1.085946857929230E-001;6.901909946464002E-004;-1.653761137276888E-004;
2.424333333333334E+009;1.534388810396195E-001;-1.095074340701103E-001;7.690312340855598E-004;-2.365018444834277E-004;
2.424500000000000E+009;1.540668308734894E-001;-1.105427443981171E-001;7.265942986123264E-004;-1.402474154019728E-004;
2.424666666666667E+009;1.545790582895279E-001;-1.112673655152321E-001;6.375449011102319E-004;-1.878788607427850E-004;
2.424833333333334E+009;1.549372822046280E-001;-1.120386496186256E-001;8.492075721733272E-004;-1.586482976563275E-004;
2.425000000000000E+009;1.553350389003754E-001;-1.128066778182983E-001;6.986792432144284E-004;-7.407819794025272E-005;
2.425166666666667E+009;1.555427759885788E-001;-1.135085746645927E-001;8.474605856463313E-004;-2.260137262055650E-004;
2.425333333333334E+009;1.560449153184891E-001;-1.140312254428864E-001;9.880920406430960E-004;-9.896247502183542E-005;
2.425500000000000E+009;1.563373953104019E-001;-1.145471706986427E-001;9.083742625080049E-004;-9.248233254766092E-005;
2.425666666666667E+009;1.564503014087677E-001;-1.150196641683579E-001;1.002790872007608E-003;-6.357335951179266E-005;
2.425833333333334E+009;1.566459983587265E-001;-1.153893843293190E-001;1.108599943108857E-003;-9.688437421573326E-005;
2.426000000000000E+009;1.566971689462662E-001;-1.157318577170372E-001;1.010390114970505E-003;-2.159564173780382E-004;
2.426166666666667E+009;1.569497883319855E-001;-1.159406676888466E-001;1.072810380719602E-003;-1.523244573036209E-004;
2.426333333333334E+009;1.567630767822266E-001;-1.162169724702835E-001;1.176821533590555E-003;-2.626482455525547E-004;
2.426500000000000E+009;1.565751731395721E-001;-1.163172572851181E-001;1.032669795677066E-003;-2.634564298205078E-004;
2.426666666666667E+009;1.566081345081329E-001;-1.163610816001892E-001;1.227110391482711E-003;-2.841814421117306E-004;
2.426833333333334E+009;1.561314761638641E-001;-1.165379434823990E-001;1.200633239932358E-003;-4.501208604779095E-004;
2.427000000000000E+009;1.555268168449402E-001;-1.167189627885819E-001;1.134983496740460E-003;-5.203085020184517E-004;
2.427166666666667E+009;1.551666855812073E-001;-1.167447268962860E-001;1.253768219612539E-003;-5.602441960945725E-004;
2.427333333333334E+009;1.544769406318665E-001;-1.168129295110703E-001;1.255783019587398E-003;-5.035775830037892E-004;
2.427500000000000E+009;1.538815498352051E-001;-1.169743016362190E-001;1.303212600760162E-003;-5.909714964218438E-004;
2.427666666666667E+009;1.530413329601288E-001;-1.171849220991135E-001;1.317019923590124E-003;-5.746567039750516E-004;
2.427833333333334E+009;1.520458757877350E-001;-1.172861829400063E-001;1.357642002403736E-003;-7.632363704033196E-004;
