# Version 1.00
#
freq[Hz];re:Trc1_S11;im:Trc1_S11;re:Trc2_S21;im:Trc2_S21;
2.400000000000000E+009;1.561903208494186E-001;6.216960772871971E-002;-1.790170441381633E-003;-2.908156951889396E-003;
2.400166666666667E+009;1.559205651283264E-001;6.040607765316963E-002;-1.900824951007962E-003;-2.922212472185493E-003;
2.400333333333334E+009;1.560171842575073E-001;5.836477130651474E-002;-1.981106121093035E-003;-2.683385275304318E-003;
2.400500000000000E+009;1.560514569282532E-001;5.631379783153534E-002;-1.979993190616369E-003;-2.622145228087902E-003;
2.400666666666667E+009;1.562071144580841E-001;5.420764163136482E-002;-2.120817545801401E-003;-2.548004034906626E-003;
2.400833333333334E+009;1.562562137842178E-001;5.236314609646797E-002;-2.267965814098716E-003;-2.632077783346176E-003;
2.401000000000000E+009;1.566737145185471E-001;5.017908290028572E-002;-2.332012401893735E-003;-2.478179754689336E-003;
2.401166666666667E+009;1.569081395864487E-001;4.787866398692131E-002;-2.390152076259255E-003;-2.339019905775785E-003;
2.401333333333334E+009;1.572696268558502E-001;4.577727615833283E-002;-2.154337242245674E-003;-2.254739170894027E-003;
2.401500000000000E+009;1.576188802719116E-001;4.371653869748116E-002;-2.383631886914372E-003;-2.185020828619599E-003;
2.401666666666667E+009;1.581746488809586E-001;4.176219180226326E-002;-2.405752660706639E-003;-2.115685027092695E-003;
2.401833333333334E+009;1.586316823959351E-001;3.957724198698998E-002;-2.372062532231212E-003;-2.014385769143701E-003;
2.402000000000000E+009;1.593925505876541E-001;3.743220865726471E-002;-2.517848275601864E-003;-1.930291764438152E-003;
2.402166666666667E+009;1.597958356142044E-001;3.540141880512238E-002;-2.375024370849133E-003;-1.957592787221074E-003;
2.402333333333334E+009;1.605604290962219E-001;3.353038057684898E-002;-2.480962779372931E-003;-1.859760726802051E-003;
2.402500000000000E+009;1.617737859487534E-001;3.176536411046982E-002;-2.512360224500299E-003;-1.797275152057409E-003;
2.402666666666667E+009;1.624717265367508E-001;3.009463287889957E-002;-2.503716154024005E-003;-1.632986124604940E-003;
2.402833333333334E+009;1.633698791265488E-001;2.823093160986900E-002;-2.472333144396544E-003;-1.895678578875959E-003;
2.403000000000000E+009;1.644164919853210E-001;2.693758718669415E-002;-2.409143839031458E-003;-1.617858069948852E-003;
2.403166666666667E+009;1.655556112527847E-001;2.534473128616810E-002;-2.552882069721818E-003;-1.632038154639304E-003;
2.403333333333334E+009;1.664542853832245E-001;2.394254505634308E-002;-2.507880562916398E-003;-1.630036276765168E-003;
2.403500000000000E+009;1.674399822950363E-001;2.249955944716930E-002;-2.480461727827787E-003;-1.456996309570968E-003;
2.403666666666667E+009;1.684576719999313E-001;2.136002294719219E-002;-2.627726644277573E-003;-1.363767078146339E-003;
2.403833333333334E+009;1.696520447731018E-001;2.011454291641712E-002;-2.664081752300263E-003;-1.317559974268079E-003;
2.404000000000000E+009;1.707158684730530E-001;1.908835023641586E-002;-2.696790732443333E-003;-1.216008327901363E-003;
2.404166666666667E+009;1.717219054698944E-001;1.803578808903694E-002;-2.755043795332313E-003;-1.199042540974915E-003;
2.404333333333334E+009;1.727917343378067E-001;1.725251041352749E-002;-2.676940988749266E-003;-1.173164229840040E-003;
2.404500000000000E+009;1.736942231655121E-001;1.626929454505444E-002;-2.547017764300108E-003;-1.175708835944533E-003;
2.404666666666667E+009;1.747192591428757E-001;1.542203221470118E-002;-2.818864770233631E-003;-1.132028875872493E-003;
2.404833333333334E+009;1.755525171756744E-001;1.505564246326685E-002;-2.716694027185440E-003;-1.035899738781154E-003;
2.405000000000000E+009;1.765215992927551E-001;1.457096356898546E-002;-2.735438058152795E-003;-9.158037137240171E-004;
2.405166666666667E+009;1.773535758256912E-001;1.390931941568852E-002;-2.850762102752924E-003;-9.850849164649844E-004;
2.405333333333334E+009;1.779808998107910E-001;1.336625125259161E-002;-2.760417060926557E-003;-9.117075824178755E-004;
2.405500000000000E+009;1.788399219512940E-001;1.312996633350849E-002;-2.882203320041299E-003;-1.035417546518147E-003;
2.405666666666667E+009;1.793827414512634E-001;1.289372332394123E-002;-2.755897119641304E-003;-8.434279006905854E-004;
2.405833333333334E+009;1.798224449157715E-001;1.261583995074034E-002;-2.869363175705075E-003;-8.161505684256554E-004;
2.406000000000000E+009;1.802834570407867E-001;1.224958151578903E-002;-2.811080077663064E-003;-6.389970658347011E-004;
2.406166666666667E+009;1.805902421474457E-001;1.210192777216435E-002;-2.965212333947420E-003;-6.990737747400999E-004;
2.406333333333334E+009;1.809832304716110E-001;1.198330894112587E-002;-2.981500001624227E-003;-6.138530443422496E-004;
2.406500000000000E+009;1.811410337686539E-001;1.177724543958902E-002;-2.923722611740232E-003;-4.742769233416766E-004;
2.406666666666667E+009;1.810045987367630E-001;1.147217769175768E-002;-3.073750063776970E-003;-2.663515915628523E-004;
2.406833333333334E+009;1.812623143196106E-001;1.113026216626167E-002;-3.083003917708993E-003;-3.501743194647133E-004;
2.407000000000000E+009;1.812774389982224E-001;1.092820987105370E-002;-3.040124895051122E-003;-3.857967676594853E-004;
2.407166666666667E+009;1.810611784458160E-001;1.071240194141865E-002;-3.061229595914483E-003;-2.932164643425494E-004;
2.407333333333334E+009;1.807326078414917E-001;1.020263135433197E-002;-3.095248714089394E-003;-1.322491298196837E-004;
2.407500000000000E+009;1.804722696542740E-001;9.877490811049938E-003;-3.006299259141088E-003;-4.507820631260984E-005;
2.407666666666667E+009;1.799757033586502E-001;9.453532285988331E-003;-3.076233901083469E-003;2.113354753419117E-007;
2.407833333333334E+009;1.795051991939545E-001;8.803489618003368E-003;-3.080612048506737E-003;9.907617641147226E-005;
2.408000000000000E+009;1.791216731071472E-001;7.988706231117249E-003;-3.114132210612297E-003;1.246795145561919E-004;
2.408166666666667E+009;1.783815026283264E-001;7.541960570961237E-003;-3.087162273004651E-003;2.087512257276103E-004;
2.408333333333334E+009;1.781275868415833E-001;6.760432850569487E-003;-3.025279846042395E-003;2.345828397665173E-004;
2.408500000000000E+009;1.773227453231812E-001;5.840160418301821E-003;-2.925391076132655E-003;3.231682057958096E-004;
2.408666666666667E+009;1.765640527009964E-001;4.817332141101360E-003;-2.945528132840991E-003;3.033399407286197E-004;
2.408833333333334E+009;1.757181435823441E-001;3.741109278053045E-003;-2.832903526723385E-003;4.459928895812482E-004;
2.409000000000000E+009;1.749366968870163E-001;2.584467874839902E-003;-2.850887831300497E-003;5.341218784451485E-004;
2.409166666666667E+009;1.741305887699127E-001;1.429954543709755E-003;-2.764112083241344E-003;5.020725657232106E-004;
2.409333333333334E+009;1.734883040189743E-001;-5.096700988360681E-005;-2.726786537095904E-003;4.557806823868305E-004;
2.409500000000000E+009;1.725499778985977E-001;-1.688555581495166E-003;-2.867450239136815E-003;4.574909107759595E-004;
2.409666666666667E+009;1.718826293945313E-001;-3.038181457668543E-003;-2.747610677033663E-003;4.794225678779185E-004;
2.409833333333334E+009;1.710731834173203E-001;-4.545786883682013E-003;-2.703002188354731E-003;6.498403963632882E-004;
2.410000000000000E+009;1.704394072294235E-001;-6.307214032858610E-003;-2.635566983371973E-003;4.700892604887486E-004;
2.410166666666667E+009;1.697738617658615E-001;-7.800681982189417E-003;-2.763360273092985E-003;6.424598977901042E-004;
2.410333333333334E+009;1.693004965782166E-001;-9.752554818987846E-003;-2.774474211037159E-003;6.862766458652914E-004;
2.410500000000000E+009;1.687401235103607E-001;-1.177331805229187E-002;-2.884442918002605E-003;7.385882199741900E-004;
2.410666666666667E+009;1.681968420743942E-001;-1.360413245856762E-002;-2.836757572367787E-003;7.123569957911968E-004;
2.410833333333334E+009;1.678402721881867E-001;-1.555843278765678E-002;-2.844992326572537E-003;7.239143596962094E-004;
2.411000000000000E+009;1.675868034362793E-001;-1.749497093260288E-002;-2.676327945664525E-003;8.032887126319110E-004;
2.411166666666667E+009;1.672133058309555E-001;-1.951844431459904E-002;-2.746690763160586E-003;9.216891485266388E-004;
2.411333333333334E+009;1.670399010181427E-001;-2.153046429157257E-002;-2.679302357137203E-003;7.808047812432051E-004;
2.411500000000000E+009;1.669601052999497E-001;-2.365132607519627E-002;-2.913868986070156E-003;8.078467217274010E-004;
2.411666666666667E+009;1.669693142175674E-001;-2.573360875248909E-002;-2.687742700800300E-003;9.025048930197954E-004;
2.411833333333334E+009;1.669516861438751E-001;-2.765923552215099E-002;-2.826147945597768E-003;1.116980565711856E-003;
2.412000000000000E+009;1.671860069036484E-001;-2.984183095395565E-002;-3.012810368090868E-003;9.880315046757460E-004;
2.412166666666667E+009;1.673601865768433E-001;-3.180257603526115E-002;-3.042361931875348E-003;1.046901103109121E-003;
2.412333333333334E+009;1.677866578102112E-001;-3.373090177774429E-002;-3.011716529726982E-003;1.185230095870793E-003;
2.412500000000000E+009;1.681228578090668E-001;-3.556301817297936E-002;-3.015116555616260E-003;1.239767414517701E-003;
2.412666666666667E+009;1.685933768749237E-001;-3.757703304290772E-002;-3.046215046197176E-003;1.379332039505243E-003;
2.412833333333334E+009;1.690331399440765E-001;-3.941345214843750E-002;-3.079918911680579E-003;1.281476579606533E-003;
2.413000000000000E+009;1.694947928190231E-001;-4.111265763640404E-002;-3.213692456483841E-003;1.522867940366268E-003;
2.413166666666667E+009;1.700882762670517E-001;-4.271059110760689E-002;-3.026456106454134E-003;1.494843163527548E-003;
2.413333333333334E+009;1.706181168556213E-001;-4.456926137208939E-002;-3.113095182925463E-003;1.716702943667769E-003;
2.413500000000000E+009;1.713214665651321E-001;-4.616120830178261E-002;-3.282753517851234E-003;1.662355498410761E-003;
2.413666666666667E+009;1.721140742301941E-001;-4.758669808506966E-002;-3.262761980295181E-003;1.800475642085075E-003;
2.413833333333334E+009;1.726059764623642E-001;-4.899004846811295E-002;-3.333034925162792E-003;1.854890026152134E-003;
2.414000000000000E+009;1.730872541666031E-001;-5.034660547971726E-002;-3.198821563273668E-003;1.929457765072584E-003;
2.414166666666667E+009;1.739941239356995E-001;-5.148161575198174E-002;-3.378420602530241E-003;2.161183394491673E-003;
2.414333333333334E+009;1.745527535676956E-001;-5.261044949293137E-002;-3.182822372764349E-003;2.349092392250896E-003;
2.414500000000000E+009;1.753767430782318E-001;-5.361858010292053E-002;-3.214552300050855E-003;2.381753409281373E-003;
2.414666666666667E+009;1.758483499288559E-001;-5.452507361769676E-002;-3.227601060643792E-003;2.594281453639269E-003;
2.414833333333334E+009;1.763648092746735E-001;-5.525559559464455E-002;-3.195665543898940E-003;2.831192687153816E-003;
2.415000000000000E+009;1.768258213996887E-001;-5.585459992289543E-002;-3.191337920725346E-003;2.787132747471333E-003;
2.415166666666667E+009;1.773329228162766E-001;-5.659355595707893E-002;-3.137569408863783E-003;3.112909616902471E-003;
2.415333333333334E+009;1.776352077722549E-001;-5.730156973004341E-002;-3.112612059339881E-003;3.263768274337053E-003;
2.415500000000000E+009;1.781137585639954E-001;-5.761483684182167E-002;-3.067484125494957E-003;3.263881895691156E-003;
2.415666666666667E+009;1.782170087099075E-001;-5.799731612205505E-002;-2.921453677117825E-003;3.450663294643164E-003;
2.415833333333334E+009;1.785710453987122E-001;-5.832896381616592E-002;-2.726500388234854E-003;3.638575319200754E-003;
2.416000000000000E+009;1.785026043653488E-001;-5.870516598224640E-002;-2.758808434009552E-003;3.844415536150336E-003;
2.416166666666667E+009;1.787726283073425E-001;-5.882838740944862E-002;-2.716975286602974E-003;3.948550671339035E-003;
2.416333333333334E+009;1.785821914672852E-001;-5.905215069651604E-002;-2.518720459192991E-003;3.945918753743172E-003;
2.416500000000000E+009;1.784348338842392E-001;-5.928273499011993E-002;-2.361249877139926E-003;4.208931699395180E-003;
2.416666666666667E+009;1.781521737575531E-001;-5.923580005764961E-002;-2.248913748189807E-003;4.362503997981548E-003;
2.416833333333334E+009;1.778032630681992E-001;-5.964370071887970E-002;-2.232335042208433E-003;4.290718585252762E-003;
2.417000000000000E+009;1.772281527519226E-001;-5.964442342519760E-002;-1.984028844162822E-003;4.484173841774464E-003;
2.417166666666667E+009;1.767824739217758E-001;-5.979549139738083E-002;-1.661835471168160E-003;4.541712347418070E-003;
2.417333333333334E+009;1.760744005441666E-001;-5.973321944475174E-002;-1.622741925530136E-003;4.625008441507816E-003;
2.417500000000000E+009;1.753661632537842E-001;-6.012628227472305E-002;-1.636914908885956E-003;4.738655872642994E-003;
2.417666666666667E+009;1.746650040149689E-001;-6.002394855022430E-002;-1.438297913409770E-003;4.748519510030747E-003;
2.417833333333334E+009;1.736988127231598E-001;-6.032873317599297E-002;-1.170793664641678E-003;4.777690861374140E-003;
2.418000000000000E+009;1.725825071334839E-001;-6.078924983739853E-002;-1.141520333476365E-003;4.858613945543766E-003;
2.418166666666667E+009;1.715532392263413E-001;-6.090632453560829E-002;-9.627512190490961E-004;4.812594968825579E-003;
2.418333333333334E+009;1.706254482269287E-001;-6.132081896066666E-002;-6.661717197857797E-004;4.856728017330170E-003;
2.418500000000000E+009;1.693633496761322E-001;-6.173209473490715E-002;-5.638467264361680E-004;4.932231735438108E-003;
2.418666666666667E+009;1.683128625154495E-001;-6.238981336355209E-002;-5.075089284218848E-004;4.820832051336765E-003;
2.418833333333334E+009;1.669050306081772E-001;-6.300034373998642E-002;-3.149539988953620E-004;4.843802191317082E-003;
2.419000000000000E+009;1.655326634645462E-001;-6.352068483829498E-002;-2.277953462908045E-004;4.922433290630579E-003;
2.419166666666667E+009;1.643456965684891E-001;-6.426989287137985E-002;-2.338444755878300E-004;4.938968457281590E-003;
2.419333333333334E+009;1.628841757774353E-001;-6.492820382118225E-002;1.206100787385367E-004;4.999071825295687E-003;
2.419500000000000E+009;1.617289185523987E-001;-6.600593775510788E-002;3.694700717460364E-004;4.992790985852480E-003;
2.419666666666667E+009;1.605494022369385E-001;-6.705769896507263E-002;3.917750436812639E-004;4.923730157315731E-003;
2.419833333333334E+009;1.591373980045319E-001;-6.797679513692856E-002;3.946106007788330E-004;4.969612695276737E-003;
2.420000000000000E+009;1.579929441213608E-001;-6.922514736652374E-002;5.834504845552146E-004;4.883358720690012E-003;
2.420166666666667E+009;1.571383327245712E-001;-7.041592895984650E-002;7.024236256256700E-004;4.857513587921858E-003;
2.420333333333334E+009;1.557868272066116E-001;-7.181257009506226E-002;8.564259042032063E-004;4.887170158326626E-003;
2.420500000000000E+009;1.548543125391007E-001;-7.299886643886566E-002;8.800968644209206E-004;4.928620066493750E-003;
2.420666666666667E+009;1.538550853729248E-001;-7.440199702978134E-002;1.133198151364923E-003;4.911083728075028E-003;
2.420833333333334E+009;1.529540270566940E-001;-7.610272616147995E-002;1.161034335382283E-003;4.778413567692041E-003;
2.421000000000000E+009;1.519427150487900E-001;-7.768094539642334E-002;1.291175722144544E-003;4.774574656039476E-003;
2.421166666666667E+009;1.513057947158814E-001;-7.930581271648407E-002;1.487744390033186E-003;4.694784525781870E-003;
2.421333333333334E+009;1.507223844528198E-001;-8.098555356264114E-002;1.566558494232595E-003;4.841621499508619E-003;
2.421500000000000E+009;1.500303745269775E-001;-8.259656280279160E-002;1.796749769710004E-003;4.747305065393448E-003;
2.421666666666667E+009;1.495867222547531E-001;-8.444675058126450E-002;1.844938378781080E-003;4.685793537646532E-003;
2.421833333333334E+009;1.492021381855011E-001;-8.624747395515442E-002;1.886059879325330E-003;4.641770850867033E-003;
2.422000000000000E+009;1.490824371576309E-001;-8.814708143472672E-002;2.037063241004944E-003;4.647341556847096E-003;
2.422166666666667E+009;1.487255692481995E-001;-8.999922126531601E-002;2.114523435011506E-003;4.658401012420654E-003;
2.422333333333334E+009;1.487963944673538E-001;-9.165392071008682E-002;2.248503267765045E-003;4.550428595393896E-003;
2.422500000000000E+009;1.486974358558655E-001;-9.326636046171188E-002;2.292764140293002E-003;4.442910198122263E-003;
2.422666666666667E+009;1.486766040325165E-001;-9.516359865665436E-002;2.388384658843279E-003;4.530629143118858E-003;
2.422833333333334E+009;1.489699929952622E-001;-9.693814069032669E-002;2.646604087203741E-003;4.412002395838499E-003;
2.423000000000000E+009;1.491873413324356E-001;-9.854455292224884E-002;2.722132951021195E-003;4.302802029997110E-003;
2.423166666666667E+009;1.496247798204422E-001;-1.003020405769348E-001;2.861967077478766E-003;4.327437374740839E-003;
2.423333333333334E+009;1.501389741897583E-001;-1.015730053186417E-001;3.045689081773162E-003;4.328006412833929E-003;
2.423500000000000E+009;1.503089964389801E-001;-1.033349633216858E-001;3.021318931132555E-003;4.300151951611042E-003;
2.423666666666667E+009;1.505373120307922E-001;-1.049098670482636E-001;3.265977604314685E-003;4.261096008121967E-003;
2.423833333333334E+009;1.513315141201019E-001;-1.062544435262680E-001;3.412384539842606E-003;4.332195967435837E-003;
2.424000000000000E+009;1.518356502056122E-001;-1.074950397014618E-001;3.615891328081489E-003;4.021641332656145E-003;
2.424166666666667E+009;1.522882133722305E-001;-1.088578701019287E-001;3.786965040490031E-003;4.207351244986057E-003;
2.424333333333334E+009;1.529214382171631E-001;-1.098142340779305E-001;3.912447951734066E-003;4.028096795082092E-003;
2.424500000000000E+009;1.535103917121887E-001;-1.109859868884087E-001;4.057226702570915E-003;4.004922695457935E-003;
2.424666666666667E+009;1.542547643184662E-001;-1.118196919560432E-001;4.273093305528164E-003;3.906906116753817E-003;
2.424833333333334E+009;1.545453518629074E-001;-1.127766072750092E-001;4.258580505847931E-003;3.681454109027982E-003;
2.425000000000000E+009;1.552014946937561E-001;-1.137262359261513E-001;4.554194398224354E-003;3.657850436866283E-003;
2.425166666666667E+009;1.553409695625305E-001;-1.143646314740181E-001;4.590344149619341E-003;3.415313782170415E-003;
2.425333333333334E+009;1.560317575931549E-001;-1.151492670178413E-001;4.807291086763144E-003;3.372612874954939E-003;
2.425500000000000E+009;1.564842462539673E-001;-1.156865507364273E-001;5.021769553422928E-003;3.135570324957371E-003;
2.425666666666667E+009;1.565410345792770E-001;-1.161319762468338E-001;5.136757157742977E-003;3.065129974856973E-003;
2.425833333333334E+009;1.570236235857010E-001;-1.166292354464531E-001;5.030427128076553E-003;2.858306048437953E-003;
2.426000000000000E+009;1.570565253496170E-001;-1.170380637049675E-001;5.318671464920044E-003;2.825012197718024E-003;
2.426166666666667E+009;1.573644876480103E-001;-1.173006892204285E-001;5.534768570214510E-003;2.584098139777780E-003;
2.426333333333334E+009;1.573976427316666E-001;-1.175709888339043E-001;5.361631046980619E-003;2.424856880679727E-003;
2.426500000000000E+009;1.574550718069077E-001;-1.176635399460793E-001;5.796799436211586E-003;2.081013051792979E-003;
2.426666666666667E+009;1.573678702116013E-001;-1.176304593682289E-001;5.823739338666201E-003;1.990302931517363E-003;
2.426833333333334E+009;1.570187509059906E-001;-1.178240105509758E-001;5.932363681495190E-003;1.831140485592187E-003;
2.427000000000000E+009;1.565746665000916E-001;-1.180472075939179E-001;5.912280175834894E-003;1.590633182786405E-003;
2.427166666666667E+009;1.561807692050934E-001;-1.179121509194374E-001;6.054128985852003E-003;1.477504265494645E-003;
2.427333333333334E+009;1.555735617876053E-001;-1.180715486407280E-001;6.082034669816494E-003;1.273279543966055E-003;
2.427500000000000E+009;1.551097482442856E-001;-1.181310340762138E-001;5.973168183118105E-003;1.048107165843248E-003;
2.427666666666667E+009;1.542353183031082E-001;-1.181700304150581E-001;6.150463130325079E-003;8.412549505010247E-004;
