# Version 1.00
#
freq[Hz];re:Trc1_S11;im:Trc1_S11;re:Trc2_S21;im:Trc2_S21;
2.400000000000000E+009;1.562206000089645E-001;1.114744171500206E-001;-6.250710692256689E-003;4.078734666109085E-003;
2.400166666666667E+009;1.556488871574402E-001;1.090534925460815E-001;-6.249905563890934E-003;4.369481932371855E-003;
2.400333333333334E+009;1.554789990186691E-001;1.067934259772301E-001;-6.325498688966036E-003;4.729161504656076E-003;
2.400500000000000E+009;1.551224738359451E-001;1.041229665279388E-001;-6.107924506068230E-003;5.199628416448832E-003;
2.400666666666667E+009;1.550695747137070E-001;1.015227362513542E-001;-5.941019859164953E-003;5.548325832933188E-003;
2.400833333333334E+009;1.547378748655319E-001;9.865804016590118E-002;-5.467906128615141E-003;5.709050688892603E-003;
2.401000000000000E+009;1.547422111034393E-001;9.567889571189880E-002;-5.283768288791180E-003;5.913413129746914E-003;
2.401166666666667E+009;1.543161273002625E-001;9.285538643598557E-002;-4.917496349662542E-003;6.198993884027004E-003;
2.401333333333334E+009;1.545630097389221E-001;8.992191404104233E-002;-4.575922619551420E-003;6.500990130007267E-003;
2.401500000000000E+009;1.547862589359283E-001;8.691638708114624E-002;-4.385187756270170E-003;6.688375957310200E-003;
2.401666666666667E+009;1.548896580934525E-001;8.376024663448334E-002;-3.960589878261089E-003;6.873129401355982E-003;
2.401833333333334E+009;1.552193462848663E-001;8.086245507001877E-002;-3.515314543619752E-003;6.909577175974846E-003;
2.402000000000000E+009;1.560613960027695E-001;7.779233157634735E-002;-3.373497398570180E-003;7.064939942210913E-003;
2.402166666666667E+009;1.565159112215042E-001;7.495885342359543E-002;-3.024801146239042E-003;6.847904529422522E-003;
2.402333333333334E+009;1.572007238864899E-001;7.208608835935593E-002;-2.616351470351219E-003;6.926266476511955E-003;
2.402500000000000E+009;1.583935618400574E-001;6.926396489143372E-002;-2.427981235086918E-003;6.990929599851370E-003;
2.402666666666667E+009;1.591065824031830E-001;6.653230637311935E-002;-2.142654499039054E-003;7.083930075168610E-003;
2.402833333333334E+009;1.606378555297852E-001;6.367531418800354E-002;-1.777416793629527E-003;7.199512328952551E-003;
2.403000000000000E+009;1.617419719696045E-001;6.110612303018570E-002;-1.518789795227349E-003;7.096312008798122E-003;
2.403166666666667E+009;1.634333580732346E-001;5.878623947501183E-002;-1.310019404627383E-003;7.078908849507570E-003;
2.403333333333334E+009;1.650463044643402E-001;5.618412420153618E-002;-1.064140233211219E-003;7.040341384708881E-003;
2.403500000000000E+009;1.666078865528107E-001;5.396948382258415E-002;-7.706746109761298E-004;7.070205174386501E-003;
2.403666666666667E+009;1.684536784887314E-001;5.171709880232811E-002;-5.766758695244789E-004;6.925274617969990E-003;
2.403833333333334E+009;1.700822114944458E-001;4.965046793222427E-002;-3.280977834947407E-004;6.921032443642616E-003;
2.404000000000000E+009;1.717949211597443E-001;4.763999581336975E-002;-1.574822235852480E-004;6.972772534936667E-003;
2.404166666666667E+009;1.736015081405640E-001;4.593805223703384E-002;1.362031325697899E-004;6.918982602655888E-003;
2.404333333333334E+009;1.755059510469437E-001;4.433257505297661E-002;2.268554962938651E-004;6.973623763769865E-003;
2.404500000000000E+009;1.773607581853867E-001;4.245876893401146E-002;4.895479069091380E-004;6.935778539627791E-003;
2.404666666666667E+009;1.791459023952484E-001;4.144239053130150E-002;6.405126187019050E-004;6.717944052070379E-003;
2.404833333333334E+009;1.809719800949097E-001;4.010881856083870E-002;9.942905744537711E-004;7.008357439190149E-003;
2.405000000000000E+009;1.824880689382553E-001;3.940818831324577E-002;1.141318818554282E-003;6.953547243028879E-003;
2.405166666666667E+009;1.842730790376663E-001;3.865835070610046E-002;1.357824658043683E-003;6.732174195349217E-003;
2.405333333333334E+009;1.858397573232651E-001;3.797483816742897E-002;1.765160588547587E-003;6.688529159873724E-003;
2.405500000000000E+009;1.874519586563110E-001;3.741083666682243E-002;2.008603885769844E-003;6.619728170335293E-003;
2.405666666666667E+009;1.890168488025665E-001;3.711003065109253E-002;2.139862161129713E-003;6.594908889383078E-003;
2.405833333333334E+009;1.903742104768753E-001;3.683204948902130E-002;2.499830443412066E-003;6.510841660201550E-003;
2.406000000000000E+009;1.916217058897018E-001;3.680148348212242E-002;2.771582221612334E-003;6.213419139385223E-003;
2.406166666666667E+009;1.928505301475525E-001;3.668818250298500E-002;2.949586370959878E-003;6.189925130456686E-003;
2.406333333333334E+009;1.940777897834778E-001;3.677298501133919E-002;3.283887868747115E-003;5.840936210006475E-003;
2.406500000000000E+009;1.951543688774109E-001;3.695923089981079E-002;3.283689962700009E-003;5.559380631893873E-003;
2.406666666666667E+009;1.958990097045898E-001;3.718783333897591E-002;3.518211189657450E-003;5.426670424640179E-003;
2.406833333333334E+009;1.965940594673157E-001;3.744497522711754E-002;3.545087063685060E-003;5.206065718084574E-003;
2.407000000000000E+009;1.972273439168930E-001;3.795574977993965E-002;3.621247364208102E-003;4.896962083876133E-003;
2.407166666666667E+009;1.978302747011185E-001;3.808675333857536E-002;3.580399090424180E-003;4.772716667503119E-003;
2.407333333333334E+009;1.980448663234711E-001;3.840061649680138E-002;3.864309750497341E-003;4.892270080745220E-003;
2.407500000000000E+009;1.980007290840149E-001;3.891190141439438E-002;3.977629821747541E-003;4.554068669676781E-003;
2.407666666666667E+009;1.981746554374695E-001;3.910649940371513E-002;3.865397302433848E-003;4.507919307798147E-003;
2.407833333333334E+009;1.978853493928909E-001;3.926205262541771E-002;3.885375102981925E-003;4.183911252766848E-003;
2.408000000000000E+009;1.979421377182007E-001;3.960710763931274E-002;3.951109945774078E-003;4.253463819622994E-003;
2.408166666666667E+009;1.973808407783508E-001;3.956049308180809E-002;4.127913154661655E-003;4.118152894079685E-003;
2.408333333333334E+009;1.970901787281036E-001;3.933050855994225E-002;4.227304831147194E-003;3.968747332692146E-003;
2.408500000000000E+009;1.964158713817596E-001;3.946548700332642E-002;4.223692230880261E-003;3.826278494670987E-003;
2.408666666666667E+009;1.957984566688538E-001;3.930195793509483E-002;4.349670838564634E-003;3.861466189846396E-003;
2.408833333333334E+009;1.950989961624146E-001;3.878897055983543E-002;4.421343561261892E-003;3.671726444736123E-003;
2.409000000000000E+009;1.942039281129837E-001;3.814443200826645E-002;4.298016428947449E-003;3.698777407407761E-003;
2.409166666666667E+009;1.930315047502518E-001;3.751929849386215E-002;4.441218450665474E-003;3.439297666773200E-003;
2.409333333333334E+009;1.921417266130447E-001;3.697773069143295E-002;4.351173061877489E-003;3.573495894670487E-003;
2.409500000000000E+009;1.909654438495636E-001;3.587711229920387E-002;4.346949514001608E-003;3.372558159753680E-003;
2.409666666666667E+009;1.898796260356903E-001;3.466696292161942E-002;4.403385333716869E-003;3.391542937606573E-003;
2.409833333333334E+009;1.886286288499832E-001;3.340293467044830E-002;4.530599340796471E-003;3.208191366866231E-003;
2.410000000000000E+009;1.874091625213623E-001;3.203703835606575E-002;4.708954598754644E-003;3.164988476783037E-003;
2.410166666666667E+009;1.861726045608521E-001;3.045834228396416E-002;4.793523810803890E-003;3.028572537004948E-003;
2.410333333333334E+009;1.849798262119293E-001;2.853575721383095E-002;4.868117626756430E-003;2.978023840114474E-003;
2.410500000000000E+009;1.838414967060089E-001;2.698431164026260E-002;4.931048024445772E-003;2.922978019341826E-003;
2.410666666666667E+009;1.827579140663147E-001;2.470702491700649E-002;5.370075814425945E-003;2.837813692167401E-003;
2.410833333333334E+009;1.818264722824097E-001;2.257585711777210E-002;5.497693084180355E-003;2.780620241537690E-003;
2.411000000000000E+009;1.805263906717300E-001;2.042818628251553E-002;5.493728443980217E-003;2.604955574497581E-003;
2.411166666666667E+009;1.798293888568878E-001;1.826518028974533E-002;5.483147222548723E-003;2.404954051598907E-003;
2.411333333333334E+009;1.790422946214676E-001;1.584300398826599E-002;5.770593881607056E-003;2.320491941645742E-003;
2.411500000000000E+009;1.784108579158783E-001;1.329750288277865E-002;5.849487613886595E-003;2.072248142212629E-003;
2.411666666666667E+009;1.780463457107544E-001;1.090816780924797E-002;5.855997093021870E-003;1.924127805978060E-003;
2.411833333333334E+009;1.774459332227707E-001;8.365995250642300E-003;5.931431427598000E-003;1.734993071295321E-003;
2.412000000000000E+009;1.773889362812042E-001;5.536218639463186E-003;6.069346796721220E-003;1.550828106701374E-003;
2.412166666666667E+009;1.773666590452194E-001;3.367577679455280E-003;6.085655186325312E-003;1.335114357061684E-003;
2.412333333333334E+009;1.774178594350815E-001;6.772567867301405E-004;6.175718270242214E-003;1.169313793070614E-003;
2.412500000000000E+009;1.775893121957779E-001;-2.063729567453265E-003;6.204302888363600E-003;1.002872479148209E-003;
2.412666666666667E+009;1.781454086303711E-001;-4.815543536096811E-003;6.336846854537725E-003;8.030863245949149E-004;
2.412833333333334E+009;1.786530613899231E-001;-7.307148072868586E-003;6.371112074702978E-003;6.046498310752213E-004;
2.413000000000000E+009;1.793033182621002E-001;-9.984805248677731E-003;6.327364593744278E-003;3.220714279450476E-004;
2.413166666666667E+009;1.800869703292847E-001;-1.252303272485733E-002;6.525003351271153E-003;7.167761214077473E-005;
2.413333333333334E+009;1.811924278736115E-001;-1.499011833220720E-002;6.505191326141357E-003;-2.081105194520205E-004;
2.413500000000000E+009;1.819075644016266E-001;-1.774598844349384E-002;6.609062664210796E-003;-4.288452910259366E-004;
2.413666666666667E+009;1.831545531749725E-001;-2.006970904767513E-002;6.502805277705193E-003;-6.538570160046220E-004;
2.413833333333334E+009;1.843729168176651E-001;-2.247206121683121E-002;6.640284322202206E-003;-8.714745636098087E-004;
2.414000000000000E+009;1.855361163616180E-001;-2.467924170196056E-002;6.542718037962914E-003;-1.102391048334539E-003;
2.414166666666667E+009;1.868058443069458E-001;-2.659562416374683E-002;6.473666522651911E-003;-1.426291768439114E-003;
2.414333333333334E+009;1.881326735019684E-001;-2.899510972201824E-002;6.407608743757010E-003;-1.833067508414388E-003;
2.414500000000000E+009;1.895589530467987E-001;-3.059879876673222E-002;6.317313760519028E-003;-1.958599081262946E-003;
2.414666666666667E+009;1.906609386205673E-001;-3.242355212569237E-002;6.210534833371639E-003;-2.167258411645889E-003;
2.414833333333334E+009;1.920852959156036E-001;-3.411624580621719E-002;6.085026543587446E-003;-2.501958049833775E-003;
2.415000000000000E+009;1.933719217777252E-001;-3.546589612960815E-002;6.063650827854872E-003;-2.797022461891174E-003;
2.415166666666667E+009;1.948853582143784E-001;-3.688376769423485E-002;5.868402775377035E-003;-2.811106620356441E-003;
2.415333333333334E+009;1.961688697338104E-001;-3.786836937069893E-002;5.639161448925734E-003;-3.184086177498102E-003;
2.415500000000000E+009;1.975240856409073E-001;-3.877255693078041E-002;5.669564474374056E-003;-3.381181741133332E-003;
2.415666666666667E+009;1.988744288682938E-001;-3.972066193819046E-002;5.487669259309769E-003;-3.565460676327348E-003;
2.415833333333334E+009;2.000342458486557E-001;-4.050138220191002E-002;5.350566003471613E-003;-3.789377864450216E-003;
2.416000000000000E+009;2.010148614645004E-001;-4.105835407972336E-002;5.162097513675690E-003;-4.104136489331722E-003;
2.416166666666667E+009;2.019079476594925E-001;-4.172144085168839E-002;5.033374764025211E-003;-4.138027317821980E-003;
2.416333333333334E+009;2.028613537549973E-001;-4.196316748857498E-002;4.845909774303436E-003;-4.470483399927616E-003;
2.416500000000000E+009;2.037127017974854E-001;-4.220168665051460E-002;4.667302593588829E-003;-4.762570839375258E-003;
2.416666666666667E+009;2.042367905378342E-001;-4.260130226612091E-002;4.271272104233503E-003;-4.870578180998564E-003;
2.416833333333334E+009;2.046330273151398E-001;-4.258675873279572E-002;4.144112579524517E-003;-5.035611335188150E-003;
2.417000000000000E+009;2.051500231027603E-001;-4.268295317888260E-002;3.774424316361547E-003;-5.182048771530390E-003;
2.417166666666667E+009;2.050172090530396E-001;-4.241914302110672E-002;3.657317487522960E-003;-5.132690537720919E-003;
2.417333333333334E+009;2.050218582153320E-001;-4.211965203285217E-002;3.232278395444155E-003;-5.329862702637911E-003;
2.417500000000000E+009;2.050532549619675E-001;-4.192440211772919E-002;3.098993562161923E-003;-5.043521523475647E-003;
2.417666666666667E+009;2.045707702636719E-001;-4.167455807328224E-002;2.727179788053036E-003;-5.135666113346815E-003;
2.417833333333334E+009;2.044727951288223E-001;-4.137887060642242E-002;2.661215839907527E-003;-5.179882980883122E-003;
2.418000000000000E+009;2.040213495492935E-001;-4.088259860873222E-002;2.317707519978285E-003;-5.201993975788355E-003;
2.418166666666667E+009;2.032104581594467E-001;-4.074999317526817E-002;2.326343907043338E-003;-5.102405790239573E-003;
2.418333333333334E+009;2.024531364440918E-001;-4.023522883653641E-002;2.279026433825493E-003;-5.100128240883350E-003;
2.418500000000000E+009;2.015217095613480E-001;-4.007413983345032E-002;2.063258783891797E-003;-5.028407089412212E-003;
2.418666666666667E+009;2.007468640804291E-001;-3.981239348649979E-002;2.034512115642428E-003;-5.016877315938473E-003;
2.418833333333334E+009;1.993848979473114E-001;-3.969980776309967E-002;1.939010107889772E-003;-4.985604435205460E-003;
2.419000000000000E+009;1.981139779090881E-001;-3.965100273489952E-002;1.763470238074660E-003;-5.139777902513742E-003;
2.419166666666667E+009;1.967605203390122E-001;-3.971420973539352E-002;1.820632372982800E-003;-5.121941212564707E-003;
2.419333333333334E+009;1.953387111425400E-001;-3.997816145420075E-002;1.596494461409748E-003;-5.183591973036528E-003;
2.419500000000000E+009;1.938855051994324E-001;-4.010554403066635E-002;1.396714127622545E-003;-5.240259226411581E-003;
2.419666666666667E+009;1.921895146369934E-001;-4.072000458836556E-002;1.389872515574098E-003;-5.233864299952984E-003;
2.419833333333334E+009;1.904654502868652E-001;-4.118610545992851E-002;1.216553850099444E-003;-5.428249947726727E-003;
2.420000000000000E+009;1.886395364999771E-001;-4.184425249695778E-002;1.107303309254348E-003;-5.416121799498797E-003;
2.420166666666667E+009;1.869502663612366E-001;-4.260164871811867E-002;8.063836139626801E-004;-5.301447119563818E-003;
2.420333333333334E+009;1.851378977298737E-001;-4.349044710397720E-002;6.976922159083188E-004;-5.383387673646212E-003;
2.420500000000000E+009;1.832630634307861E-001;-4.482854902744293E-002;5.646213539876044E-004;-5.336916539818049E-003;
2.420666666666667E+009;1.815301477909088E-001;-4.577333852648735E-002;2.345508401049301E-004;-5.399822257459164E-003;
2.420833333333334E+009;1.795964688062668E-001;-4.704884812235832E-002;2.829116128850728E-004;-5.322350189089775E-003;
2.421000000000000E+009;1.779959350824356E-001;-4.864092171192169E-002;7.694965461269021E-005;-5.305245518684387E-003;
2.421166666666667E+009;1.762902885675430E-001;-5.024296790361404E-002;-7.134888437576592E-005;-5.223985295742750E-003;
2.421333333333334E+009;1.745649278163910E-001;-5.174771323800087E-002;-2.240667381556705E-004;-5.171616096049547E-003;
2.421500000000000E+009;1.730930954217911E-001;-5.358584225177765E-002;-3.821220016106963E-004;-5.271868314594030E-003;
2.421666666666667E+009;1.715288907289505E-001;-5.542295426130295E-002;-5.892312619835138E-004;-5.385760683566332E-003;
2.421833333333334E+009;1.702764630317688E-001;-5.742776021361351E-002;-6.594810402020812E-004;-5.237077828496695E-003;
2.422000000000000E+009;1.688389927148819E-001;-5.933893099427223E-002;-9.536369470879436E-004;-5.096830427646637E-003;
2.422166666666667E+009;1.677405238151550E-001;-6.162065267562866E-002;-9.406050085090101E-004;-5.043167155236006E-003;
2.422333333333334E+009;1.665341854095459E-001;-6.384327262639999E-002;-1.075532869435847E-003;-5.102663300931454E-003;
2.422500000000000E+009;1.657645106315613E-001;-6.580035388469696E-002;-1.324934419244528E-003;-4.784970078617334E-003;
2.422666666666667E+009;1.648983061313629E-001;-6.803850084543228E-002;-1.456019585020840E-003;-4.960950464010239E-003;
2.422833333333334E+009;1.643471717834473E-001;-7.037752121686935E-002;-1.545992563478649E-003;-4.878332372754812E-003;
2.423000000000000E+009;1.637023985385895E-001;-7.252264767885208E-002;-1.741237239912152E-003;-4.829067736864090E-003;
2.423166666666667E+009;1.631999462842941E-001;-7.470563054084778E-002;-1.790696871466935E-003;-4.816325381398201E-003;
2.423333333333334E+009;1.629048287868500E-001;-7.691955566406250E-002;-1.880176481790841E-003;-4.605168942362070E-003;
2.423500000000000E+009;1.628555506467819E-001;-7.894801348447800E-002;-2.085904125124216E-003;-4.697696771472693E-003;
2.423666666666667E+009;1.628589481115341E-001;-8.110910654067993E-002;-2.018661005422473E-003;-4.653360228985548E-003;
2.423833333333334E+009;1.626795679330826E-001;-8.310488611459732E-002;-2.364614047110081E-003;-4.443653393536806E-003;
2.424000000000000E+009;1.629473268985748E-001;-8.520547300577164E-002;-2.409299137070775E-003;-4.382353741675615E-003;
2.424166666666667E+009;1.630729436874390E-001;-8.700039237737656E-002;-2.475540386512876E-003;-4.461946431547403E-003;
2.424333333333334E+009;1.633685976266861E-001;-8.868379890918732E-002;-2.717482624575496E-003;-4.421543329954147E-003;
2.424500000000000E+009;1.638494580984116E-001;-9.075214713811874E-002;-2.802931703627110E-003;-4.417461808770895E-003;
2.424666666666667E+009;1.642418056726456E-001;-9.228818118572235E-002;-3.005878999829292E-003;-4.186321981251240E-003;
2.424833333333334E+009;1.648702919483185E-001;-9.393861144781113E-002;-3.079259535297751E-003;-4.186635371297598E-003;
2.425000000000000E+009;1.655097454786301E-001;-9.536345303058624E-002;-3.216533688828349E-003;-3.900802927091718E-003;
2.425166666666667E+009;1.658944338560104E-001;-9.664838016033173E-002;-3.480125451460481E-003;-3.983716946095228E-003;
2.425333333333334E+009;1.664525717496872E-001;-9.778763353824616E-002;-3.631822764873505E-003;-3.957062494009733E-003;
2.425500000000000E+009;1.670885235071182E-001;-9.896767139434815E-002;-3.694313811138272E-003;-3.574075642973185E-003;
2.425666666666667E+009;1.677152514457703E-001;-9.978973120450974E-002;-3.777470439672470E-003;-3.490065457299352E-003;
2.425833333333334E+009;1.682941615581513E-001;-1.006742864847183E-001;-3.874304238706827E-003;-3.296123119071126E-003;
2.426000000000000E+009;1.689964383840561E-001;-1.012683659791946E-001;-4.043052904307842E-003;-3.074600826948881E-003;
2.426166666666667E+009;1.695674359798431E-001;-1.019926518201828E-001;-4.025143105536699E-003;-2.895356854423881E-003;
2.426333333333334E+009;1.699251681566238E-001;-1.025435030460358E-001;-4.161276854574680E-003;-2.728732768446207E-003;
2.426500000000000E+009;1.706521213054657E-001;-1.028283983469009E-001;-4.202799871563911E-003;-2.854338847100735E-003;
2.426666666666667E+009;1.710232794284821E-001;-1.032795011997223E-001;-4.228824749588966E-003;-2.563937800005078E-003;
2.426833333333334E+009;1.716318428516388E-001;-1.035739704966545E-001;-4.287415649741888E-003;-2.500623464584351E-003;
2.427000000000000E+009;1.718626022338867E-001;-1.036539599299431E-001;-4.265341442078352E-003;-2.359204925596714E-003;
2.427166666666667E+009;1.721976399421692E-001;-1.036924421787262E-001;-4.475285299122334E-003;-2.279711188748479E-003;
2.427333333333334E+009;1.724667400121689E-001;-1.040208637714386E-001;-4.319350235164166E-003;-1.939794863574207E-003;
2.427500000000000E+009;1.723435223102570E-001;-1.040969789028168E-001;-4.396432545036078E-003;-1.712261815555394E-003;
2.427666666666667E+009;1.722840815782547E-001;-1.039489656686783E-001;-4.299914464354515E-003;-1.493460265919566E-003;
2.427833333333334E+009;1.721320748329163E-001;-1.040843576192856E-001;-4.346015397459269E-003;-1.504734042100608E-003;
