# Version 1.00
#
freq[Hz];re:Trc1_S11;im:Trc1_S11;re:Trc2_S21;im:Trc2_S21;
2.400000000000000E+009;1.562558710575104E-001;1.111428290605545E-001;-6.072029471397400E-003;4.075391683727503E-003;
2.400166666666667E+009;1.555710881948471E-001;1.087776273488998E-001;-6.038013845682144E-003;4.361587110906839E-003;
2.400333333333334E+009;1.553826183080673E-001;1.064510419964790E-001;-5.983436480164528E-003;4.682648461312056E-003;
2.400500000000000E+009;1.550637483596802E-001;1.037893146276474E-001;-5.752288270741701E-003;5.119588691741228E-003;
2.400666666666667E+009;1.548716872930527E-001;1.013560816645622E-001;-5.720749497413635E-003;5.570863373577595E-003;
2.400833333333334E+009;1.547037065029144E-001;9.839952737092972E-002;-5.435611121356487E-003;5.677892360836268E-003;
2.401000000000000E+009;1.546001583337784E-001;9.551468491554260E-002;-5.105038173496723E-003;6.063621491193771E-003;
2.401166666666667E+009;1.544562280178070E-001;9.261362254619598E-002;-4.734561312943697E-003;6.376936100423336E-003;
2.401333333333334E+009;1.545868366956711E-001;8.952017873525620E-002;-4.380542319267988E-003;6.558855995535851E-003;
2.401500000000000E+009;1.547182500362396E-001;8.663482218980789E-002;-3.963045775890350E-003;6.655612029135227E-003;
2.401666666666667E+009;1.548945307731628E-001;8.358672261238098E-002;-3.789153881371021E-003;6.964118219912052E-003;
2.401833333333334E+009;1.551422178745270E-001;8.050639182329178E-002;-3.405277617275715E-003;6.829746067523956E-003;
2.402000000000000E+009;1.557450145483017E-001;7.751118391752243E-002;-3.061165101826191E-003;6.852327380329371E-003;
2.402166666666667E+009;1.562219411134720E-001;7.462546229362488E-002;-2.736846450716257E-003;7.059838622808456E-003;
2.402333333333334E+009;1.572524756193161E-001;7.160744071006775E-002;-2.438548719510436E-003;7.023845799267292E-003;
2.402500000000000E+009;1.581755429506302E-001;6.905107200145721E-002;-2.068754751235247E-003;7.101747207343578E-003;
2.402666666666667E+009;1.591154038906097E-001;6.628645211458206E-002;-1.941816415637732E-003;7.085491903126240E-003;
2.402833333333334E+009;1.603186130523682E-001;6.360599398612976E-002;-1.713689649477601E-003;7.074344437569380E-003;
2.403000000000000E+009;1.617575138807297E-001;6.094066426157951E-002;-1.358168781735003E-003;6.901745684444904E-003;
2.403166666666667E+009;1.634290963411331E-001;5.840304493904114E-002;-1.039519556798041E-003;6.965910084545612E-003;
2.403333333333334E+009;1.648659259080887E-001;5.608456581830978E-002;-1.038918038830161E-003;6.897244602441788E-003;
2.403500000000000E+009;1.665491163730621E-001;5.364223569631577E-002;-8.137254044413567E-004;6.881294772028923E-003;
2.403666666666667E+009;1.684089154005051E-001;5.167257785797119E-002;-3.890240332111716E-004;6.905211601406336E-003;
2.403833333333334E+009;1.701913475990295E-001;4.945013299584389E-002;-2.783563104458153E-004;6.949664559215307E-003;
2.404000000000000E+009;1.718333065509796E-001;4.739986360073090E-002;-1.238752010976896E-004;6.898675579577684E-003;
2.404166666666667E+009;1.738610118627548E-001;4.568845406174660E-002;6.079536251490936E-005;6.755515001714230E-003;
2.404333333333334E+009;1.754777282476425E-001;4.387290775775909E-002;2.256239240523428E-004;6.784520111978054E-003;
2.404500000000000E+009;1.774068921804428E-001;4.234036058187485E-002;5.405960837379098E-004;6.816169247031212E-003;
2.404666666666667E+009;1.791392862796783E-001;4.093223065137863E-002;6.634912570007145E-004;6.897759158164263E-003;
2.404833333333334E+009;1.809509992599487E-001;3.988797590136528E-002;1.030154991894960E-003;6.883850321173668E-003;
2.405000000000000E+009;1.825552433729172E-001;3.894001245498657E-002;1.261046039871872E-003;6.810283288359642E-003;
2.405166666666667E+009;1.841609776020050E-001;3.817046433687210E-002;1.581152784638107E-003;6.665530148893595E-003;
2.405333333333334E+009;1.858444064855576E-001;3.779919072985649E-002;1.819771598093212E-003;6.705841049551964E-003;
2.405500000000000E+009;1.875109076499939E-001;3.718155622482300E-002;1.958649838343263E-003;6.705495528876782E-003;
2.405666666666667E+009;1.890320032835007E-001;3.676844388246536E-002;2.432576846331358E-003;6.436526309698820E-003;
2.405833333333334E+009;1.904079020023346E-001;3.660111501812935E-002;2.538928762078285E-003;6.384390406310558E-003;
2.406000000000000E+009;1.916316598653793E-001;3.648053482174873E-002;2.901200670748949E-003;6.156987044960260E-003;
2.406166666666667E+009;1.929053515195847E-001;3.636103123426437E-002;3.170968731865287E-003;5.963598378002644E-003;
2.406333333333334E+009;1.941467672586441E-001;3.660616278648377E-002;3.207711735740304E-003;5.750222131609917E-003;
2.406500000000000E+009;1.949569880962372E-001;3.677764162421227E-002;3.358827671036124E-003;5.533293355256319E-003;
2.406666666666667E+009;1.958388984203339E-001;3.695910796523094E-002;3.517719684168696E-003;5.432177800685167E-003;
2.406833333333334E+009;1.966542154550552E-001;3.723171353340149E-002;3.593008499592543E-003;5.172176752239466E-003;
2.407000000000000E+009;1.970876455307007E-001;3.780095651745796E-002;3.776513738557696E-003;4.888091236352921E-003;
2.407166666666667E+009;1.976691186428070E-001;3.794105723500252E-002;3.847904736176133E-003;4.746610764414072E-003;
2.407333333333334E+009;1.978630572557449E-001;3.833532333374023E-002;3.817935939878225E-003;4.500336945056915E-003;
2.407500000000000E+009;1.979708820581436E-001;3.869947046041489E-002;3.820487530902028E-003;4.361002705991268E-003;
2.407666666666667E+009;1.981742829084396E-001;3.894959017634392E-002;3.917524125427008E-003;4.350500646978617E-003;
2.407833333333334E+009;1.977993100881577E-001;3.920158371329308E-002;3.968867007642984E-003;4.100844729691744E-003;
2.408000000000000E+009;1.978256553411484E-001;3.942635655403137E-002;4.190416540950537E-003;4.025316797196865E-003;
2.408166666666667E+009;1.972133219242096E-001;3.953019902110100E-002;4.108823835849762E-003;3.935792017728090E-003;
2.408333333333334E+009;1.970060467720032E-001;3.924243524670601E-002;4.022026434540749E-003;3.724788082763553E-003;
2.408500000000000E+009;1.963578313589096E-001;3.939020261168480E-002;4.125837236642838E-003;3.624380333349109E-003;
2.408666666666667E+009;1.956861764192581E-001;3.920956701040268E-002;4.085285123437643E-003;3.490186063572764E-003;
2.408833333333334E+009;1.950688958168030E-001;3.870278969407082E-002;4.202078562229872E-003;3.417830914258957E-003;
2.409000000000000E+009;1.940216720104218E-001;3.821013122797012E-002;4.379121121019125E-003;3.468018257990480E-003;
2.409166666666667E+009;1.929507702589035E-001;3.740652650594711E-002;4.332534037530422E-003;3.215154400095344E-003;
2.409333333333334E+009;1.919899880886078E-001;3.677509352564812E-002;4.349399823695421E-003;3.146396717056632E-003;
2.409500000000000E+009;1.907934397459030E-001;3.569146990776062E-002;4.506746307015419E-003;3.206503111869097E-003;
2.409666666666667E+009;1.895648688077927E-001;3.451218828558922E-002;4.507903475314379E-003;3.132721409201622E-003;
2.409833333333334E+009;1.885178834199905E-001;3.312402591109276E-002;4.482937976717949E-003;2.918843179941177E-003;
2.410000000000000E+009;1.872807890176773E-001;3.193479403853416E-002;4.768679849803448E-003;2.862004097551107E-003;
2.410166666666667E+009;1.860090345144272E-001;3.023561090230942E-002;4.800164140760899E-003;3.077946137636900E-003;
2.410333333333334E+009;1.847706288099289E-001;2.863712981343269E-002;4.761350341141224E-003;2.874428639188409E-003;
2.410500000000000E+009;1.836528480052948E-001;2.671615593135357E-002;4.992589820176363E-003;2.912884345278144E-003;
2.410666666666667E+009;1.825944185256958E-001;2.462734282016754E-002;5.166078917682171E-003;2.642434090375900E-003;
2.410833333333334E+009;1.816559582948685E-001;2.238036133348942E-002;5.335655529052019E-003;2.536555053666234E-003;
2.411000000000000E+009;1.805960088968277E-001;2.030648849904537E-002;5.239307414740324E-003;2.339066704735160E-003;
2.411166666666667E+009;1.796091794967651E-001;1.816055551171303E-002;5.442755296826363E-003;2.208821475505829E-003;
2.411333333333334E+009;1.787367612123489E-001;1.562925614416599E-002;5.545836873352528E-003;2.097663935273886E-003;
2.411500000000000E+009;1.781629025936127E-001;1.318910531699657E-002;5.734586622565985E-003;1.958535285666585E-003;
2.411666666666667E+009;1.776743829250336E-001;1.071234047412872E-002;5.836091004312038E-003;1.764145214110613E-003;
2.411833333333334E+009;1.771717220544815E-001;8.214371278882027E-003;5.740104243159294E-003;1.533657312393189E-003;
2.412000000000000E+009;1.770801246166229E-001;5.476195830851793E-003;5.884197540581226E-003;1.337242778390646E-003;
2.412166666666667E+009;1.770188659429550E-001;3.205055603757501E-003;6.076605059206486E-003;1.189049566164613E-003;
2.412333333333334E+009;1.768687814474106E-001;3.449568757787347E-004;5.986208561807871E-003;8.952835341915488E-004;
2.412500000000000E+009;1.773385703563690E-001;-2.186562400311232E-003;6.044654641300440E-003;9.550786344334483E-004;
2.412666666666667E+009;1.776685565710068E-001;-4.864656366407871E-003;6.140746176242828E-003;5.886975559405983E-004;
2.412833333333334E+009;1.783033758401871E-001;-7.556239143013954E-003;6.326888222247362E-003;5.336920730769634E-004;
2.413000000000000E+009;1.790006160736084E-001;-1.013066899031401E-002;6.128828506916761E-003;2.487568126525730E-004;
2.413166666666667E+009;1.797512024641037E-001;-1.257782708853483E-002;6.326542701572180E-003;1.828549284255132E-004;
2.413333333333334E+009;1.806779503822327E-001;-1.520092692226172E-002;6.284868810325861E-003;-2.250862453365699E-004;
2.413500000000000E+009;1.816404163837433E-001;-1.775857247412205E-002;6.353077013045549E-003;-4.644473374355584E-004;
2.413666666666667E+009;1.826722323894501E-001;-2.030177786946297E-002;6.325861439108849E-003;-7.096746121533215E-004;
2.413833333333334E+009;1.838446259498596E-001;-2.258658595383167E-002;6.328759249299765E-003;-9.813157375901938E-004;
2.414000000000000E+009;1.851068735122681E-001;-2.459684573113918E-002;6.158296018838882E-003;-1.263017416931689E-003;
2.414166666666667E+009;1.863385736942291E-001;-2.666222676634789E-002;6.245875731110573E-003;-1.365665812045336E-003;
2.414333333333334E+009;1.877995729446411E-001;-2.900794707238674E-002;6.067734677344561E-003;-1.717845210805535E-003;
2.414500000000000E+009;1.890885084867477E-001;-3.072809427976608E-002;6.047754548490048E-003;-1.957984874024987E-003;
2.414666666666667E+009;1.903243511915207E-001;-3.237747028470039E-002;5.883277393877506E-003;-2.292610472068191E-003;
2.414833333333334E+009;1.917737871408463E-001;-3.397665917873383E-002;5.782211665064097E-003;-2.429829211905599E-003;
2.415000000000000E+009;1.931245028972626E-001;-3.540454059839249E-002;5.775620229542255E-003;-2.611240837723017E-003;
2.415166666666667E+009;1.946473419666290E-001;-3.661052137613297E-002;5.515233613550663E-003;-2.851887140423060E-003;
2.415333333333334E+009;1.959158331155777E-001;-3.785676136612892E-002;5.621266085654497E-003;-2.937288954854012E-003;
2.415500000000000E+009;1.973109245300293E-001;-3.865982219576836E-002;5.382719449698925E-003;-3.206708235666156E-003;
2.415666666666667E+009;1.985424160957336E-001;-3.965700790286064E-002;5.441748071461916E-003;-3.559534437954426E-003;
2.415833333333334E+009;1.997608989477158E-001;-4.031020775437355E-002;5.006332416087389E-003;-3.581426572054625E-003;
2.416000000000000E+009;2.007201313972473E-001;-4.095315560698509E-002;5.029532592743635E-003;-3.791610943153501E-003;
2.416166666666667E+009;2.017200291156769E-001;-4.164093360304833E-002;4.925338551402092E-003;-4.080705810338259E-003;
2.416333333333334E+009;2.026197761297226E-001;-4.193156585097313E-002;4.687137901782990E-003;-4.315855447202921E-003;
2.416500000000000E+009;2.034092098474503E-001;-4.218853265047073E-002;4.383988212794066E-003;-4.526381380856037E-003;
2.416666666666667E+009;2.040627300739288E-001;-4.253005981445313E-002;4.189334809780121E-003;-4.771356005221605E-003;
2.416833333333334E+009;2.044587582349777E-001;-4.227506369352341E-002;3.810263704508543E-003;-4.863071255385876E-003;
2.417000000000000E+009;2.048169970512390E-001;-4.243154823780060E-002;3.557436168193817E-003;-4.975985269993544E-003;
2.417166666666667E+009;2.048504352569580E-001;-4.228318482637405E-002;3.291138680651784E-003;-4.862896166741848E-003;
2.417333333333334E+009;2.048995941877365E-001;-4.197853803634644E-002;3.113808343186975E-003;-4.912714008241892E-003;
2.417500000000000E+009;2.048434019088745E-001;-4.182882606983185E-002;2.913864329457283E-003;-5.038542672991753E-003;
2.417666666666667E+009;2.045238018035889E-001;-4.144750162959099E-002;2.654938725754619E-003;-4.974579438567162E-003;
2.417833333333334E+009;2.043213546276093E-001;-4.104936867952347E-002;2.532413927838206E-003;-4.924716427922249E-003;
2.418000000000000E+009;2.037930488586426E-001;-4.072701558470726E-002;2.399285556748509E-003;-4.858711734414101E-003;
2.418166666666667E+009;2.032208293676376E-001;-4.046082869172096E-002;2.276830840855837E-003;-4.944859072566032E-003;
2.418333333333334E+009;2.022717297077179E-001;-4.005958512425423E-002;2.102205762639642E-003;-4.866405390202999E-003;
2.418500000000000E+009;2.014776617288590E-001;-3.982366248965263E-002;2.216207562014461E-003;-4.845191724598408E-003;
2.418666666666667E+009;2.005714029073715E-001;-3.958658501505852E-002;1.990393735468388E-003;-4.895530175417662E-003;
2.418833333333334E+009;1.993073970079422E-001;-3.950808197259903E-002;1.846782746724784E-003;-4.896166268736124E-003;
2.419000000000000E+009;1.980123668909073E-001;-3.942050412297249E-002;1.724875299260020E-003;-4.832209087908268E-003;
2.419166666666667E+009;1.967240571975708E-001;-3.950177505612373E-002;1.613154890947044E-003;-4.914379213005304E-003;
2.419333333333334E+009;1.953461170196533E-001;-3.975204005837441E-002;1.552414963953197E-003;-4.950444214046001E-003;
2.419500000000000E+009;1.938727349042893E-001;-3.990638628602028E-002;1.531272893771529E-003;-5.096027627587318E-003;
2.419666666666667E+009;1.922076493501663E-001;-4.055304452776909E-002;1.215762575156987E-003;-5.169562064111233E-003;
2.419833333333334E+009;1.904559284448624E-001;-4.103148728609085E-002;1.174548990093172E-003;-5.283833481371403E-003;
2.420000000000000E+009;1.887007802724838E-001;-4.170186072587967E-002;9.766683215275407E-004;-5.147073883563280E-003;
2.420166666666667E+009;1.869795918464661E-001;-4.247580096125603E-002;6.859062705188990E-004;-5.210716277360916E-003;
2.420333333333334E+009;1.851302534341812E-001;-4.346748441457748E-002;6.371165509335697E-004;-5.151116754859686E-003;
2.420500000000000E+009;1.833441853523254E-001;-4.453093931078911E-002;5.908336606808007E-004;-5.268453620374203E-003;
2.420666666666667E+009;1.814041137695313E-001;-4.551313072443008E-002;3.030695661436766E-004;-5.273724906146526E-003;
2.420833333333334E+009;1.796538531780243E-001;-4.710219055414200E-002;1.015102607198060E-004;-5.245510488748550E-003;
2.421000000000000E+009;1.779899597167969E-001;-4.851086065173149E-002;-4.986294152331539E-005;-5.254092626273632E-003;
2.421166666666667E+009;1.763266026973724E-001;-5.012719705700874E-002;-9.802941349335015E-005;-5.230476148426533E-003;
2.421333333333334E+009;1.745440661907196E-001;-5.153704434633255E-002;-2.309971750946716E-004;-5.117909051477909E-003;
2.421500000000000E+009;1.730143427848816E-001;-5.358957499265671E-002;-5.049195606261492E-004;-5.129131488502026E-003;
2.421666666666667E+009;1.716174930334091E-001;-5.534680187702179E-002;-5.945453885942698E-004;-5.080115515738726E-003;
2.421833333333334E+009;1.702919602394104E-001;-5.734603479504585E-002;-6.703524850308895E-004;-5.100552458316088E-003;
2.422000000000000E+009;1.687719821929932E-001;-5.933239310979843E-002;-9.642994846217334E-004;-4.916924517601728E-003;
2.422166666666667E+009;1.678264588117600E-001;-6.158044934272766E-002;-1.052468898706138E-003;-5.017991643399000E-003;
2.422333333333334E+009;1.665896177291870E-001;-6.368096917867661E-002;-1.077504595741630E-003;-4.897455684840679E-003;
2.422500000000000E+009;1.656775772571564E-001;-6.564673781394959E-002;-1.142301945947111E-003;-4.872053861618042E-003;
2.422666666666667E+009;1.649647951126099E-001;-6.786935031414032E-002;-1.240470330230892E-003;-4.805356729775667E-003;
2.422833333333334E+009;1.644141227006912E-001;-7.015445828437805E-002;-1.389419427141547E-003;-4.796009510755539E-003;
2.423000000000000E+009;1.637327969074249E-001;-7.238055765628815E-002;-1.668826676905155E-003;-4.659795202314854E-003;
2.423166666666667E+009;1.632119417190552E-001;-7.460459321737289E-002;-1.635725377127528E-003;-4.681605845689774E-003;
2.423333333333334E+009;1.629499793052673E-001;-7.675828039646149E-002;-1.801228267140687E-003;-4.601504188030958E-003;
2.423500000000000E+009;1.627220511436462E-001;-7.875566184520721E-002;-1.988652162253857E-003;-4.476214293390513E-003;
2.423666666666667E+009;1.626871526241303E-001;-8.107367902994156E-002;-1.967452233657241E-003;-4.386784508824348E-003;
2.423833333333334E+009;1.628805249929428E-001;-8.294194191694260E-002;-2.067521680146456E-003;-4.475230351090431E-003;
2.424000000000000E+009;1.628870517015457E-001;-8.504731208086014E-002;-2.189658349379897E-003;-4.375331103801727E-003;
2.424166666666667E+009;1.630890816450119E-001;-8.696330338716507E-002;-2.392908325418830E-003;-4.274805076420307E-003;
2.424333333333334E+009;1.635365486145020E-001;-8.863467723131180E-002;-2.587408758699894E-003;-4.341454710811377E-003;
2.424500000000000E+009;1.639213711023331E-001;-9.073457866907120E-002;-2.703356323763728E-003;-4.207880701869726E-003;
2.424666666666667E+009;1.643518060445786E-001;-9.227155894041061E-002;-2.817125525325537E-003;-4.118739627301693E-003;
2.424833333333334E+009;1.650137901306152E-001;-9.378976374864578E-002;-2.968248911201954E-003;-3.947501536458731E-003;
2.425000000000000E+009;1.655217558145523E-001;-9.521657228469849E-002;-3.147002076730132E-003;-3.996120765805244E-003;
2.425166666666667E+009;1.660319119691849E-001;-9.663418680429459E-002;-3.355847671627998E-003;-3.849739907309413E-003;
2.425333333333334E+009;1.665689498186112E-001;-9.775640815496445E-002;-3.395436797291040E-003;-3.599057439714670E-003;
2.425500000000000E+009;1.671731621026993E-001;-9.894896298646927E-002;-3.502795472741127E-003;-3.519461257383227E-003;
2.425666666666667E+009;1.678720414638519E-001;-9.977275133132935E-002;-3.642750903964043E-003;-3.273093840107322E-003;
2.425833333333334E+009;1.683765500783920E-001;-1.007303148508072E-001;-3.723734524101019E-003;-3.344888798892498E-003;
2.426000000000000E+009;1.690511554479599E-001;-1.012845858931541E-001;-3.830487374216318E-003;-3.030794672667980E-003;
2.426166666666667E+009;1.697483658790588E-001;-1.019691973924637E-001;-3.852138295769692E-003;-2.811017679050565E-003;
2.426333333333334E+009;1.701198220252991E-001;-1.025407537817955E-001;-4.054420161992312E-003;-2.701374003663659E-003;
2.426500000000000E+009;1.707600504159927E-001;-1.028972342610359E-001;-4.113187547773123E-003;-2.653868636116386E-003;
2.426666666666667E+009;1.712924838066101E-001;-1.031778827309609E-001;-4.012941848486662E-003;-2.420243807137013E-003;
2.426833333333334E+009;1.718035340309143E-001;-1.034249961376190E-001;-3.988695330917835E-003;-2.292306628078222E-003;
2.427000000000000E+009;1.719752550125122E-001;-1.036841049790382E-001;-4.291980993002653E-003;-2.258732682093978E-003;
2.427166666666667E+009;1.722337901592255E-001;-1.037449985742569E-001;-4.254224710166454E-003;-2.048876602202654E-003;
2.427333333333334E+009;1.724396198987961E-001;-1.039715185761452E-001;-4.292884375900030E-003;-1.809804700314999E-003;
2.427500000000000E+009;1.724052429199219E-001;-1.041364520788193E-001;-4.368072841316462E-003;-1.602423377335072E-003;
2.427666666666667E+009;1.724433302879334E-001;-1.040898188948631E-001;-4.315353929996491E-003;-1.497288467362523E-003;
2.427833333333334E+009;1.721849292516708E-001;-1.040610894560814E-001;-4.227715544402599E-003;-1.298914430662990E-003;
