# Version 1.00
#
freq[Hz];re:Trc1_S11;im:Trc1_S11;re:Trc2_S21;im:Trc2_S21;
2.400000000000000E+009;1.624985635280609E-001;5.251250416040421E-002;1.891977386549115E-003;3.671304555609822E-003;
2.400166666666667E+009;1.623126417398453E-001;5.088370665907860E-002;1.914279418997467E-003;3.642006311565638E-003;
2.400333333333334E+009;1.621053367853165E-001;4.883854836225510E-002;1.859997515566647E-003;3.431048709899187E-003;
2.400500000000000E+009;1.622026115655899E-001;4.696873202919960E-002;1.923585310578346E-003;3.317595692351461E-003;
2.400666666666667E+009;1.620938032865524E-001;4.510730504989624E-002;2.081670565530658E-003;3.141493303701282E-003;
2.400833333333334E+009;1.621904373168945E-001;4.329257458448410E-002;2.084230538457632E-003;2.952115377411246E-003;
2.401000000000000E+009;1.621985137462616E-001;4.105202108621597E-002;2.251137048006058E-003;2.933033043518663E-003;
2.401166666666667E+009;1.623914688825607E-001;3.907401487231255E-002;2.278078813105822E-003;2.903260290622711E-003;
2.401333333333334E+009;1.622549146413803E-001;3.698458150029182E-002;2.129591768607497E-003;2.682646969333291E-003;
2.401500000000000E+009;1.625709682703018E-001;3.495223075151444E-002;2.364995423704386E-003;2.741991542279720E-003;
2.401666666666667E+009;1.627226471900940E-001;3.315150365233421E-002;2.443379024043679E-003;2.535537350922823E-003;
2.401833333333334E+009;1.631267070770264E-001;3.094971552491188E-002;2.424209378659725E-003;2.539561130106449E-003;
2.402000000000000E+009;1.633926481008530E-001;2.891959995031357E-002;2.546680625528097E-003;2.429560991004109E-003;
2.402166666666667E+009;1.637116819620132E-001;2.699305303394795E-002;2.580712549388409E-003;2.290854230523109E-003;
2.402333333333334E+009;1.640852838754654E-001;2.508481405675411E-002;2.676974749192596E-003;2.195485401898623E-003;
2.402500000000000E+009;1.648790389299393E-001;2.339553460478783E-002;2.741485135629773E-003;2.195956418290734E-003;
2.402666666666667E+009;1.654222011566162E-001;2.159269899129868E-002;2.772653009742498E-003;2.014603000134230E-003;
2.402833333333334E+009;1.661674231290817E-001;1.988363824784756E-002;2.845597919076681E-003;1.857612282037735E-003;
2.403000000000000E+009;1.667246967554092E-001;1.813534088432789E-002;2.900248160585761E-003;1.787167740985751E-003;
2.403166666666667E+009;1.674400120973587E-001;1.660875417292118E-002;2.846767893061042E-003;1.778027275577188E-003;
2.403333333333334E+009;1.681297123432159E-001;1.513575576245785E-002;2.906187670305371E-003;1.639324589632452E-003;
2.403500000000000E+009;1.689255386590958E-001;1.366574130952358E-002;2.882841276004911E-003;1.404157956130803E-003;
2.403666666666667E+009;1.696376353502274E-001;1.221712399274111E-002;3.229020396247506E-003;1.139231841079891E-003;
2.403833333333334E+009;1.704534143209457E-001;1.087683252990246E-002;3.227262524887919E-003;1.003769342787564E-003;
2.404000000000000E+009;1.713768094778061E-001;9.683618322014809E-003;3.218716010451317E-003;1.041143783368170E-003;
2.404166666666667E+009;1.721343994140625E-001;8.680236525833607E-003;3.117469605058432E-003;8.676213328726590E-004;
2.404333333333334E+009;1.728479564189911E-001;7.511286064982414E-003;3.288797568529844E-003;5.922044510953128E-004;
2.404500000000000E+009;1.736182570457459E-001;6.458214949816465E-003;3.335613990202546E-003;2.939681580755860E-004;
2.404666666666667E+009;1.745131760835648E-001;5.793468561023474E-003;3.108634380623698E-003;3.370388585608453E-004;
2.404833333333334E+009;1.752300560474396E-001;4.728612955659628E-003;3.203359665349126E-003;1.012167340377346E-004;
2.405000000000000E+009;1.760862320661545E-001;4.071292001754046E-003;3.260891651734710E-003;-1.439106854377314E-004;
2.405166666666667E+009;1.766527742147446E-001;3.347606630995870E-003;3.144961083307862E-003;-1.869581174105406E-004;
2.405333333333334E+009;1.774778664112091E-001;2.670748624950647E-003;3.085026284679771E-003;-3.904087061528117E-004;
2.405500000000000E+009;1.780399084091187E-001;2.364037791267037E-003;3.017867682501674E-003;-5.853877519257367E-004;
2.405666666666667E+009;1.785480976104736E-001;1.857130322605372E-003;2.908989321440458E-003;-7.079458446241915E-004;
2.405833333333334E+009;1.789613217115402E-001;1.593631459400058E-003;2.660095924511552E-003;-8.614205289632082E-004;
2.406000000000000E+009;1.794899851083756E-001;1.043420983478427E-003;2.684273989871144E-003;-1.074717845767736E-003;
2.406166666666667E+009;1.796797066926956E-001;8.705378277227283E-004;2.439932897686958E-003;-1.004343153908849E-003;
2.406333333333334E+009;1.801895648241043E-001;5.979685229249299E-004;2.457994269207120E-003;-1.171371899545193E-003;
2.406500000000000E+009;1.804404556751251E-001;2.966161118820310E-004;2.192608779296279E-003;-1.251507666893303E-003;
2.406666666666667E+009;1.803985238075256E-001;1.472051517339423E-004;2.127602696418762E-003;-1.348376506939530E-003;
2.406833333333334E+009;1.806548684835434E-001;-1.818351011024788E-004;1.841963618062437E-003;-1.432689372450113E-003;
2.407000000000000E+009;1.806609332561493E-001;-4.367718938738108E-004;1.820903271436691E-003;-1.524783554486930E-003;
2.407166666666667E+009;1.806448251008987E-001;-6.321367109194398E-004;1.764418906532228E-003;-1.516013173386455E-003;
2.407333333333334E+009;1.804822981357575E-001;-1.085116062313318E-003;1.423590467311442E-003;-1.460498548112810E-003;
2.407500000000000E+009;1.801570653915405E-001;-1.436850288882852E-003;1.399033586494625E-003;-1.636454486288130E-003;
2.407666666666667E+009;1.800543814897537E-001;-1.756207668222487E-003;1.341124414466322E-003;-1.708635012619197E-003;
2.407833333333334E+009;1.794743090867996E-001;-2.230874961242080E-003;1.075717620551586E-003;-1.772952615283430E-003;
2.408000000000000E+009;1.790802180767059E-001;-2.801453461870551E-003;1.112956902943552E-003;-1.597659196704626E-003;
2.408166666666667E+009;1.786380410194397E-001;-3.272383473813534E-003;9.056230774149299E-004;-1.547685358673334E-003;
2.408333333333334E+009;1.782773286104202E-001;-3.772004274651408E-003;7.645862060599029E-004;-1.585667137987912E-003;
2.408500000000000E+009;1.774684041738510E-001;-4.700481891632080E-003;7.207132875919342E-004;-1.721515320241451E-003;
2.408666666666667E+009;1.768763959407806E-001;-5.482416599988937E-003;7.084733224473894E-004;-1.574938418343663E-003;
2.408833333333334E+009;1.761513799428940E-001;-6.310498807579279E-003;4.465636739041656E-004;-1.574315363541246E-003;
2.409000000000000E+009;1.753527820110321E-001;-7.294574286788702E-003;2.977947006002069E-004;-1.591005595400930E-003;
2.409166666666667E+009;1.747447997331619E-001;-8.464760147035122E-003;3.386421594768763E-004;-1.503863488323987E-003;
2.409333333333334E+009;1.740914732217789E-001;-9.537421166896820E-003;2.527194155845791E-004;-1.436569262295961E-003;
2.409500000000000E+009;1.732851415872574E-001;-1.080317795276642E-002;-7.146887946873903E-005;-1.460141735151410E-003;
2.409666666666667E+009;1.723822653293610E-001;-1.198212150484324E-002;-4.817210719920695E-005;-1.359357382170856E-003;
2.409833333333334E+009;1.717885136604309E-001;-1.318059675395489E-002;-1.935357577167451E-004;-1.407274743542075E-003;
2.410000000000000E+009;1.710545122623444E-001;-1.468286849558353E-002;-3.684480034280568E-004;-1.226472551934421E-003;
2.410166666666667E+009;1.703817248344421E-001;-1.635986007750034E-002;-4.320259613450617E-004;-1.145107904449105E-003;
2.410333333333334E+009;1.696025729179382E-001;-1.778580807149410E-002;-4.797216097358614E-004;-9.874940151348710E-004;
2.410500000000000E+009;1.689869165420532E-001;-1.951541565358639E-002;-7.295955438166857E-004;-9.476651903241873E-004;
2.410666666666667E+009;1.681586652994156E-001;-2.146160602569580E-002;-6.071050302125514E-004;-7.975666085258126E-004;
2.410833333333334E+009;1.679451763629913E-001;-2.315558493137360E-002;-6.691892049275339E-004;-6.469052750617266E-004;
2.411000000000000E+009;1.673455089330673E-001;-2.490002289414406E-002;-7.288267370313406E-004;-3.841492871288210E-004;
2.411166666666667E+009;1.666768640279770E-001;-2.680534496903420E-002;-6.659173523075879E-004;-4.539377405308187E-004;
2.411333333333334E+009;1.663885265588760E-001;-2.875741198658943E-002;-8.105565211735666E-004;-4.194341017864645E-004;
2.411500000000000E+009;1.661395877599716E-001;-3.076790831983089E-002;-8.217524737119675E-004;-9.357172530144453E-005;
2.411666666666667E+009;1.659101247787476E-001;-3.267381712794304E-002;-8.030501776374877E-004;6.289121665759012E-005;
2.411833333333334E+009;1.657568067312241E-001;-3.451048582792282E-002;-7.499999483115971E-004;2.063045394606888E-004;
2.412000000000000E+009;1.656842529773712E-001;-3.667420148849487E-002;-8.151612128131092E-004;2.657647419255227E-004;
2.412166666666667E+009;1.656487882137299E-001;-3.871557861566544E-002;-5.321911303326488E-004;2.813939936459065E-004;
2.412333333333334E+009;1.657952517271042E-001;-4.055043682456017E-002;-6.484146579168737E-004;4.887458053417504E-004;
2.412500000000000E+009;1.657306849956513E-001;-4.242912679910660E-002;-4.504326789174229E-004;7.092847954481840E-004;
2.412666666666667E+009;1.660041660070419E-001;-4.462476074695587E-002;-4.566013813018799E-004;7.772542303428054E-004;
2.412833333333334E+009;1.663160026073456E-001;-4.629443585872650E-002;-4.714919778052717E-004;9.067878127098084E-004;
2.413000000000000E+009;1.663846522569656E-001;-4.813119769096375E-002;-2.305810194229707E-004;1.045901793986559E-003;
2.413166666666667E+009;1.669875234365463E-001;-4.992392659187317E-002;-8.305893425131217E-005;1.016323803924024E-003;
2.413333333333334E+009;1.670656949281693E-001;-5.176940560340881E-002;-1.068036181095522E-005;1.086820382624865E-003;
2.413500000000000E+009;1.674532443284988E-001;-5.335072055459023E-002;1.885954843601212E-004;1.085473806597292E-003;
2.413666666666667E+009;1.680356115102768E-001;-5.492869392037392E-002;3.012554952874780E-004;1.065708929672837E-003;
2.413833333333334E+009;1.684316992759705E-001;-5.647420138120651E-002;2.925550797954202E-004;1.149053918197751E-003;
2.414000000000000E+009;1.688712239265442E-001;-5.804340168833733E-002;4.568099975585938E-004;1.181744155474007E-003;
2.414166666666667E+009;1.694625169038773E-001;-5.917614325881004E-002;6.437262636609376E-004;1.001158147118986E-003;
2.414333333333334E+009;1.700641214847565E-001;-6.059279292821884E-002;6.421784055419266E-004;1.229653717018664E-003;
2.414500000000000E+009;1.707170903682709E-001;-6.175769492983818E-002;9.390694322064519E-004;9.147186647169292E-004;
2.414666666666667E+009;1.710261255502701E-001;-6.282150000333786E-002;8.773884037509561E-004;1.105293747968972E-003;
2.414833333333334E+009;1.714964956045151E-001;-6.382441520690918E-002;1.151711563579738E-003;1.033841283060610E-003;
2.415000000000000E+009;1.719388961791992E-001;-6.466398388147354E-002;1.102583250030875E-003;1.066297292709351E-003;
2.415166666666667E+009;1.723707765340805E-001;-6.559392809867859E-002;1.150271040387452E-003;9.780911495909095E-004;
2.415333333333334E+009;1.728919744491577E-001;-6.626770645380020E-002;1.241373131051660E-003;8.211398962885141E-004;
2.415500000000000E+009;1.732695251703262E-001;-6.689484417438507E-002;1.410941360518336E-003;8.705624495632947E-004;
2.415666666666667E+009;1.735317409038544E-001;-6.744338572025299E-002;1.483478699810803E-003;8.322088397108018E-004;
2.415833333333334E+009;1.737201660871506E-001;-6.802780181169510E-002;1.461876207031310E-003;5.831599119119346E-004;
2.416000000000000E+009;1.738086938858032E-001;-6.839564442634583E-002;1.597317750565708E-003;6.938178557902575E-004;
2.416166666666667E+009;1.740839481353760E-001;-6.876692920923233E-002;1.605268334969878E-003;4.124675760976970E-004;
2.416333333333334E+009;1.740038096904755E-001;-6.905125826597214E-002;1.682307804003358E-003;4.009860858786851E-004;
2.416500000000000E+009;1.739521771669388E-001;-6.933213025331497E-002;1.636947621591389E-003;2.316152385901660E-004;
2.416666666666667E+009;1.737040877342224E-001;-6.951239705085754E-002;1.710711861960590E-003;1.185073342639953E-004;
2.416833333333334E+009;1.736044883728027E-001;-6.997430324554443E-002;1.793437055312097E-003;1.306061312789097E-004;
2.417000000000000E+009;1.731167733669281E-001;-7.016064226627350E-002;1.721494016237557E-003;-1.669757875788491E-005;
2.417166666666667E+009;1.727740466594696E-001;-7.008639723062515E-002;1.756280777044594E-003;-2.417370269540697E-004;
2.417333333333334E+009;1.721640229225159E-001;-7.025700807571411E-002;1.606837613508105E-003;-1.260818535229191E-004;
2.417500000000000E+009;1.716390699148178E-001;-7.058212906122208E-002;1.698700478300452E-003;-4.506258119363338E-005;
2.417666666666667E+009;1.709928959608078E-001;-7.047601044178009E-002;1.670133671723306E-003;-3.133665886707604E-004;
2.417833333333334E+009;1.701062768697739E-001;-7.081688195466995E-002;1.789690111763775E-003;-3.388180339243263E-004;
2.418000000000000E+009;1.692015826702118E-001;-7.101217657327652E-002;1.590532949194312E-003;-3.850449866149575E-004;
2.418166666666667E+009;1.682857573032379E-001;-7.114278525114059E-002;1.750216353684664E-003;-3.596412134356797E-004;
2.418333333333334E+009;1.675058007240295E-001;-7.159743458032608E-002;1.784967724233866E-003;-3.505659406073391E-004;
2.418500000000000E+009;1.663572490215302E-001;-7.190068811178207E-002;1.741530606523156E-003;-3.775627410504967E-004;
2.418666666666667E+009;1.653775870800018E-001;-7.223737984895706E-002;1.778603531420231E-003;-5.149834323674440E-004;
2.418833333333334E+009;1.640000045299530E-001;-7.267995923757553E-002;1.815733383409679E-003;-6.289442535489798E-004;
2.419000000000000E+009;1.627818644046783E-001;-7.322663068771362E-002;1.778274774551392E-003;-7.163223344832659E-004;
2.419166666666667E+009;1.615959107875824E-001;-7.366269826889038E-002;1.687387819401920E-003;-6.456328555941582E-004;
2.419333333333334E+009;1.602429449558258E-001;-7.418753206729889E-002;1.696292543783784E-003;-7.573460461571813E-004;
2.419500000000000E+009;1.588941067457199E-001;-7.510195672512054E-002;1.662633614614606E-003;-7.429653196595609E-004;
2.419666666666667E+009;1.577154695987701E-001;-7.596182823181152E-002;1.840948010794818E-003;-7.167625008150935E-004;
2.419833333333334E+009;1.562904268503189E-001;-7.667295634746552E-002;1.676919288001955E-003;-9.331870242021978E-004;
2.420000000000000E+009;1.551694720983505E-001;-7.761427015066147E-002;1.741924672387540E-003;-8.978655678220093E-004;
2.420166666666667E+009;1.538832932710648E-001;-7.870069146156311E-002;1.699659158475697E-003;-9.142247145064175E-004;
2.420333333333334E+009;1.526358574628830E-001;-7.996201515197754E-002;1.714204438030720E-003;-9.199056075885892E-004;
2.420500000000000E+009;1.515743881464005E-001;-8.080103248357773E-002;1.896077767014504E-003;-1.033977256156504E-003;
2.420666666666667E+009;1.504564136266708E-001;-8.197487890720367E-002;1.855898066423833E-003;-1.211043214425445E-003;
2.420833333333334E+009;1.494211554527283E-001;-8.345789462327957E-002;1.812213333323598E-003;-1.291288528591394E-003;
2.421000000000000E+009;1.482639014720917E-001;-8.495524525642395E-002;1.898584770970047E-003;-1.316257403232157E-003;
2.421166666666667E+009;1.474544107913971E-001;-8.640633523464203E-002;1.843209262005985E-003;-1.360297086648643E-003;
2.421333333333334E+009;1.465177685022354E-001;-8.804039657115936E-002;1.951463404111564E-003;-1.368862576782703E-003;
2.421500000000000E+009;1.457808911800385E-001;-8.943674713373184E-002;1.832355628721416E-003;-1.562046236358583E-003;
2.421666666666667E+009;1.451032608747482E-001;-9.106525778770447E-002;1.798652810975909E-003;-1.743778819218278E-003;
2.421833333333334E+009;1.444545537233353E-001;-9.275900572538376E-002;1.899825176224113E-003;-1.829723827540875E-003;
2.422000000000000E+009;1.439828276634216E-001;-9.450099617242813E-002;1.788388937711716E-003;-1.916517037898302E-003;
2.422166666666667E+009;1.435915380716324E-001;-9.649549424648285E-002;1.962652895599604E-003;-1.968556316569448E-003;
2.422333333333334E+009;1.430954784154892E-001;-9.802769869565964E-002;1.849059714004397E-003;-2.130229026079178E-003;
2.422500000000000E+009;1.428284943103790E-001;-9.960536658763886E-002;1.874346518889070E-003;-2.177689922973514E-003;
2.422666666666667E+009;1.426326334476471E-001;-1.014244258403778E-001;1.650651916861534E-003;-2.395247109234333E-003;
2.422833333333334E+009;1.426900178194046E-001;-1.031570285558701E-001;1.610307954251766E-003;-2.597249113023281E-003;
2.423000000000000E+009;1.427139490842819E-001;-1.048474684357643E-001;1.423779991455376E-003;-2.769495826214552E-003;
2.423166666666667E+009;1.426223367452622E-001;-1.067800521850586E-001;1.454826327972114E-003;-2.710095141083002E-003;
2.423333333333334E+009;1.429560333490372E-001;-1.081469208002091E-001;1.453780918382108E-003;-3.027573926374316E-003;
2.423500000000000E+009;1.431052833795548E-001;-1.098836585879326E-001;1.243927166797221E-003;-3.208743641152978E-003;
2.423666666666667E+009;1.431520581245422E-001;-1.116174384951592E-001;1.206964720040560E-003;-3.298358758911490E-003;
2.423833333333334E+009;1.436705887317658E-001;-1.131948381662369E-001;9.130818070843816E-004;-3.350190119817853E-003;
2.424000000000000E+009;1.438701450824738E-001;-1.143741831183434E-001;9.616051684133709E-004;-3.353165229782462E-003;
2.424166666666667E+009;1.441791802644730E-001;-1.158619448542595E-001;6.625914247706533E-004;-3.437873208895326E-003;
2.424333333333334E+009;1.447390913963318E-001;-1.170371547341347E-001;6.697577191516757E-004;-3.695669118314982E-003;
2.424500000000000E+009;1.451028436422348E-001;-1.183786913752556E-001;3.789817565120757E-004;-3.852845402434468E-003;
2.424666666666667E+009;1.457566171884537E-001;-1.194074153900147E-001;2.476116642355919E-004;-3.877696115523577E-003;
2.424833333333334E+009;1.460694819688797E-001;-1.204834505915642E-001;-7.666798774152994E-005;-3.996075596660376E-003;
2.425000000000000E+009;1.464800387620926E-001;-1.215340867638588E-001;-2.365455147810280E-004;-4.010445903986692E-003;
2.425166666666667E+009;1.468237787485123E-001;-1.224863231182098E-001;-4.683239676523954E-004;-4.051106050610542E-003;
2.425333333333334E+009;1.472350209951401E-001;-1.233191639184952E-001;-8.517739479430020E-004;-3.983696922659874E-003;
2.425500000000000E+009;1.476666927337647E-001;-1.240176483988762E-001;-9.744208073243499E-004;-3.999487496912479E-003;
2.425666666666667E+009;1.478217244148254E-001;-1.245953589677811E-001;-1.186490640975535E-003;-3.985830582678318E-003;
2.425833333333334E+009;1.481758952140808E-001;-1.250987052917481E-001;-1.365760574117303E-003;-3.914701286703348E-003;
2.426000000000000E+009;1.483423709869385E-001;-1.256026029586792E-001;-1.540243043564260E-003;-3.701691050082445E-003;
2.426166666666667E+009;1.487456858158112E-001;-1.260093450546265E-001;-1.753502991050482E-003;-3.647994017228484E-003;
2.426333333333334E+009;1.486454308032990E-001;-1.262545585632324E-001;-1.934178872033954E-003;-3.533073700964451E-003;
2.426500000000000E+009;1.487921923398972E-001;-1.265229433774948E-001;-2.115210285410285E-003;-3.542311722412705E-003;
2.426666666666667E+009;1.488265693187714E-001;-1.264694333076477E-001;-2.367298118770123E-003;-3.263247199356556E-003;
2.426833333333334E+009;1.485165059566498E-001;-1.265944689512253E-001;-2.439336152747273E-003;-3.240634687244892E-003;
2.427000000000000E+009;1.483292132616043E-001;-1.268127560615540E-001;-2.565203234553337E-003;-3.053367836400867E-003;
2.427166666666667E+009;1.479538381099701E-001;-1.267373263835907E-001;-2.752848900854588E-003;-2.834921935573220E-003;
2.427333333333334E+009;1.474427282810211E-001;-1.266729384660721E-001;-2.778531517833471E-003;-2.747465856373310E-003;
2.427500000000000E+009;1.470001339912415E-001;-1.265713274478912E-001;-2.923618070781231E-003;-2.629955066367984E-003;
2.427666666666667E+009;1.464069634675980E-001;-1.266135424375534E-001;-3.137968247756362E-003;-2.462358446791768E-003;
