# Version 1.00
#
freq[Hz];re:Trc1_S11;im:Trc1_S11;re:Trc2_S21;im:Trc2_S21;
2.400000000000000E+009;1.625263243913651E-001;5.242135003209114E-002;1.852512941695750E-003;3.581542987376452E-003;
2.400166666666667E+009;1.624731719493866E-001;5.105791613459587E-002;2.054374665021896E-003;3.590482054278255E-003;
2.400333333333334E+009;1.621922403573990E-001;4.893444105982781E-002;1.985850278288126E-003;3.334088250994682E-003;
2.400500000000000E+009;1.621438562870026E-001;4.703900963068008E-002;1.981325913220644E-003;3.115737345069647E-003;
2.400666666666667E+009;1.622081845998764E-001;4.510740563273430E-002;2.044869353994727E-003;3.269181586802006E-003;
2.400833333333334E+009;1.621591448783875E-001;4.324131458997726E-002;2.261352492496371E-003;3.091108985245228E-003;
2.401000000000000E+009;1.621695309877396E-001;4.112311825156212E-002;2.240082481876016E-003;3.145826980471611E-003;
2.401166666666667E+009;1.623392701148987E-001;3.912200033664703E-002;2.370911417528987E-003;2.849052892997861E-003;
2.401333333333334E+009;1.623884141445160E-001;3.711442276835442E-002;2.294258447363973E-003;2.815315965563059E-003;
2.401500000000000E+009;1.626361608505249E-001;3.493879362940788E-002;2.368065295740962E-003;2.547351177781820E-003;
2.401666666666667E+009;1.628712564706802E-001;3.315131366252899E-002;2.265915973111987E-003;2.413105219602585E-003;
2.401833333333334E+009;1.632496565580368E-001;3.105496615171433E-002;2.415160415694118E-003;2.546121133491397E-003;
2.402000000000000E+009;1.634567528963089E-001;2.914297394454479E-002;2.552692545577884E-003;2.590144518762827E-003;
2.402166666666667E+009;1.638815701007843E-001;2.709026262164116E-002;2.607895759865642E-003;2.299918560311198E-003;
2.402333333333334E+009;1.641836017370224E-001;2.516061812639237E-002;2.572249621152878E-003;2.246599877253175E-003;
2.402500000000000E+009;1.649408191442490E-001;2.365789189934731E-002;2.581116976216435E-003;2.116139279678464E-003;
2.402666666666667E+009;1.655410528182983E-001;2.173363044857979E-002;2.633767435327172E-003;2.019921084865928E-003;
2.402833333333334E+009;1.660417169332504E-001;1.993273571133614E-002;2.933584852144122E-003;2.109224209561944E-003;
2.403000000000000E+009;1.666699349880219E-001;1.830478198826313E-002;2.806567819789052E-003;1.826363150030375E-003;
2.403166666666667E+009;1.674873381853104E-001;1.666872389614582E-002;2.834778511896730E-003;1.567400409840047E-003;
2.403333333333334E+009;1.684079021215439E-001;1.516202092170715E-002;2.965842839330435E-003;1.602968317456543E-003;
2.403500000000000E+009;1.689385473728180E-001;1.374995429068804E-002;3.093507373705506E-003;1.299498951993883E-003;
2.403666666666667E+009;1.697228848934174E-001;1.216281391680241E-002;3.207905218005180E-003;1.389408600516617E-003;
2.403833333333334E+009;1.706265807151794E-001;1.088073197752237E-002;3.152779536321759E-003;1.050350372679532E-003;
2.404000000000000E+009;1.714556217193604E-001;9.783949702978134E-003;3.250073408707976E-003;9.283116087317467E-004;
2.404166666666667E+009;1.722646802663803E-001;8.577277883887291E-003;3.298028372228146E-003;8.819542126730084E-004;
2.404333333333334E+009;1.730825901031494E-001;7.595455273985863E-003;3.405841533094645E-003;5.975067615509033E-004;
2.404500000000000E+009;1.737407445907593E-001;6.459639407694340E-003;3.358941758051515E-003;3.428565105423331E-004;
2.404666666666667E+009;1.744550466537476E-001;5.571927875280380E-003;3.221871331334114E-003;2.425130514893681E-004;
2.404833333333334E+009;1.752973794937134E-001;4.771154839545488E-003;3.245728788897395E-003;1.825080689741299E-004;
2.405000000000000E+009;1.760750561952591E-001;4.031644202768803E-003;3.180404659360647E-003;-1.620128568902146E-005;
2.405166666666667E+009;1.767054349184036E-001;3.359572030603886E-003;3.036995884031057E-003;-3.372642968315631E-004;
2.405333333333334E+009;1.775228232145309E-001;2.770245773717761E-003;3.091730410233140E-003;-5.974903469905257E-004;
2.405500000000000E+009;1.780611127614975E-001;2.342992229387164E-003;3.045606659725308E-003;-7.276465184986591E-004;
2.405666666666667E+009;1.786718219518662E-001;1.934189116582274E-003;2.881542081013322E-003;-7.517979247495532E-004;
2.405833333333334E+009;1.790264397859573E-001;1.571389264427126E-003;2.610592404380441E-003;-9.095518616959453E-004;
2.406000000000000E+009;1.795450896024704E-001;1.114761224016547E-003;2.664861502125859E-003;-1.067644800059497E-003;
2.406166666666667E+009;1.798290759325028E-001;9.156007436104119E-004;2.513865940272808E-003;-1.028791419230402E-003;
2.406333333333334E+009;1.802833527326584E-001;4.783353651873767E-004;2.563583897426724E-003;-1.193630625493825E-003;
2.406500000000000E+009;1.803887635469437E-001;2.696972223930061E-004;2.346597379073501E-003;-1.433856901712716E-003;
2.406666666666667E+009;1.804219484329224E-001;9.604470687918365E-005;2.196623943746090E-003;-1.373643637634814E-003;
2.406833333333334E+009;1.807095557451248E-001;-2.244938950752839E-004;1.838344265706837E-003;-1.399549655616283E-003;
2.407000000000000E+009;1.806325018405914E-001;-6.012227968312800E-004;1.732268370687962E-003;-1.709709991700947E-003;
2.407166666666667E+009;1.806864142417908E-001;-7.549945148639381E-004;1.603493234142661E-003;-1.523647224530578E-003;
2.407333333333334E+009;1.805817335844040E-001;-1.126858056522906E-003;1.658861758187413E-003;-1.555236871354282E-003;
2.407500000000000E+009;1.802921891212463E-001;-1.448041875846684E-003;1.485588145442307E-003;-1.698625623248518E-003;
2.407666666666667E+009;1.800122559070587E-001;-1.740040606819093E-003;1.232118811458349E-003;-1.595375477336347E-003;
2.407833333333334E+009;1.794434487819672E-001;-2.385991625487804E-003;1.241147750988603E-003;-1.767661771737039E-003;
2.408000000000000E+009;1.790739595890045E-001;-2.830519340932369E-003;1.035384950228035E-003;-1.712908968329430E-003;
2.408166666666667E+009;1.786839812994003E-001;-3.232960822060704E-003;9.832469513639808E-004;-1.713779289275408E-003;
2.408333333333334E+009;1.782684028148651E-001;-3.927466925233603E-003;9.103175252676010E-004;-1.664873096160591E-003;
2.408500000000000E+009;1.775690019130707E-001;-4.674211144447327E-003;6.534020649269223E-004;-1.645710435695946E-003;
2.408666666666667E+009;1.769435703754425E-001;-5.525398068130016E-003;6.505105993710458E-004;-1.627096091397107E-003;
2.408833333333334E+009;1.761944591999054E-001;-6.247492507100105E-003;4.618039238266647E-004;-1.619766699150205E-003;
2.409000000000000E+009;1.755478382110596E-001;-7.391716353595257E-003;3.740387328434736E-004;-1.493209507316351E-003;
2.409166666666667E+009;1.748134791851044E-001;-8.381122723221779E-003;2.631198440212756E-004;-1.462698099203408E-003;
2.409333333333334E+009;1.741304397583008E-001;-9.566766209900379E-003;1.611549232620746E-004;-1.367748714983463E-003;
2.409500000000000E+009;1.733459383249283E-001;-1.074613817036152E-002;-1.199276312036091E-006;-1.450928044505417E-003;
2.409666666666667E+009;1.724349856376648E-001;-1.205005589872599E-002;-8.949258335633203E-005;-1.317147049121559E-003;
2.409833333333334E+009;1.716870367527008E-001;-1.321805547922850E-002;-2.524825686123222E-004;-1.310702413320541E-003;
2.410000000000000E+009;1.710235625505447E-001;-1.466883346438408E-002;-4.234200750943273E-004;-1.290031825192273E-003;
2.410166666666667E+009;1.703705191612244E-001;-1.614031568169594E-002;-3.210220893379301E-004;-1.072007697075605E-003;
2.410333333333334E+009;1.696436554193497E-001;-1.782498881220818E-002;-5.716769956052303E-004;-9.705386473797262E-004;
2.410500000000000E+009;1.689850240945816E-001;-1.947887800633907E-002;-5.947548197582364E-004;-8.827294223010540E-004;
2.410666666666667E+009;1.681516319513321E-001;-2.129619941115379E-002;-6.648614071309567E-004;-8.381824591197074E-004;
2.410833333333334E+009;1.678544282913208E-001;-2.300733514130116E-002;-6.640047649852932E-004;-7.058242335915566E-004;
2.411000000000000E+009;1.671982407569885E-001;-2.487973310053349E-002;-7.803635671734810E-004;-6.167457904666662E-004;
2.411166666666667E+009;1.668512076139450E-001;-2.678599022328854E-002;-8.606720366515219E-004;-5.990910576656461E-004;
2.411333333333334E+009;1.665638089179993E-001;-2.853985130786896E-002;-7.207787712104619E-004;-4.054505843669176E-004;
2.411500000000000E+009;1.661380529403687E-001;-3.075588308274746E-002;-7.859152392484248E-004;-2.181312738684937E-004;
2.411666666666667E+009;1.660333126783371E-001;-3.272809833288193E-002;-8.336143218912184E-004;-3.765081783058122E-005;
2.411833333333334E+009;1.659180968999863E-001;-3.450990095734596E-002;-6.859042332507670E-004;2.612584694361431E-006;
2.412000000000000E+009;1.657890230417252E-001;-3.657413274049759E-002;-6.696187774650753E-004;1.531191519461572E-004;
2.412166666666667E+009;1.658024340867996E-001;-3.863572701811791E-002;-6.790862535126507E-004;3.530482936184853E-004;
2.412333333333334E+009;1.660342961549759E-001;-4.045396298170090E-002;-5.933840293437243E-004;4.689320339821279E-004;
2.412500000000000E+009;1.657356470823288E-001;-4.233331978321075E-002;-6.597865140065551E-004;5.766366375610232E-004;
2.412666666666667E+009;1.660076528787613E-001;-4.454453662037849E-002;-5.935584194958210E-004;6.648511625826359E-004;
2.412833333333334E+009;1.662970334291458E-001;-4.623494669795036E-002;-4.564439586829394E-004;6.569500546902418E-004;
2.413000000000000E+009;1.665849983692169E-001;-4.812612384557724E-002;-1.927947450894862E-004;8.535567903891206E-004;
2.413166666666667E+009;1.668312698602676E-001;-5.001513659954071E-002;-2.074961812468246E-004;8.954359218478203E-004;
2.413333333333334E+009;1.671219021081924E-001;-5.159197747707367E-002;6.867056072223932E-005;9.876916883513331E-004;
2.413500000000000E+009;1.677809655666351E-001;-5.344475805759430E-002;-3.122624184470624E-005;1.080833491869271E-003;
2.413666666666667E+009;1.682772040367127E-001;-5.501800402998924E-002;1.966644485946745E-004;1.122206100262702E-003;
2.413833333333334E+009;1.684886664152145E-001;-5.646150931715965E-002;2.742564829532057E-004;1.124655711464584E-003;
2.414000000000000E+009;1.689302921295166E-001;-5.798452720046043E-002;3.568216925486922E-004;1.125469105318189E-003;
2.414166666666667E+009;1.693837344646454E-001;-5.939242988824844E-002;5.604502512142062E-004;1.206641085445881E-003;
2.414333333333334E+009;1.700293421745300E-001;-6.064107269048691E-002;6.701989914290607E-004;1.195691758766770E-003;
2.414500000000000E+009;1.706717461347580E-001;-6.172766909003258E-002;6.181717035360634E-004;1.202633837237954E-003;
2.414666666666667E+009;1.711393296718597E-001;-6.284660100936890E-002;9.468510979786515E-004;1.068486715666950E-003;
2.414833333333334E+009;1.715133339166641E-001;-6.385236978530884E-002;8.716113516129553E-004;1.076852786354721E-003;
2.415000000000000E+009;1.720466315746307E-001;-6.480244547128677E-002;1.110876793973148E-003;9.032548987306655E-004;
2.415166666666667E+009;1.724324971437454E-001;-6.563592702150345E-002;1.088160672225058E-003;9.385609300807118E-004;
2.415333333333334E+009;1.728592962026596E-001;-6.644485890865326E-002;1.225244253873825E-003;8.686890942044556E-004;
2.415500000000000E+009;1.732211560010910E-001;-6.686580926179886E-002;1.376050058752298E-003;8.383797248825431E-004;
2.415666666666667E+009;1.734052747488022E-001;-6.756471842527390E-002;1.486392575316131E-003;8.752857102081180E-004;
2.415833333333334E+009;1.737846583127976E-001;-6.798717379570007E-002;1.641200156882405E-003;7.240240229293704E-004;
2.416000000000000E+009;1.737665235996246E-001;-6.844408065080643E-002;1.662491937167943E-003;5.502338171936572E-004;
2.416166666666667E+009;1.741598993539810E-001;-6.888522207736969E-002;1.446194597519934E-003;3.467017668299377E-004;
2.416333333333334E+009;1.740113049745560E-001;-6.908639520406723E-002;1.570378895848990E-003;3.661054943222553E-004;
2.416500000000000E+009;1.740073859691620E-001;-6.938540190458298E-002;1.753333490341902E-003;2.670752583071590E-004;
2.416666666666667E+009;1.737015992403030E-001;-6.954140961170197E-002;1.725652604363859E-003;2.196309214923531E-004;
2.416833333333334E+009;1.735658347606659E-001;-6.992144137620926E-002;1.690620207227767E-003;1.077613342204131E-004;
2.417000000000000E+009;1.730896383523941E-001;-7.007485628128052E-002;1.913874293677509E-003;-7.844962237868458E-005;
2.417166666666667E+009;1.727485358715057E-001;-7.010157406330109E-002;1.643016468733549E-003;-5.478845923789777E-005;
2.417333333333334E+009;1.722925901412964E-001;-7.023840397596359E-002;1.699181157164276E-003;1.538108699605800E-005;
2.417500000000000E+009;1.715103089809418E-001;-7.050811499357224E-002;1.831701141782105E-003;-1.473955344408751E-004;
2.417666666666667E+009;1.710235923528671E-001;-7.056134194135666E-002;1.706860610283911E-003;-3.483941254671663E-004;
2.417833333333334E+009;1.702808588743210E-001;-7.070728391408920E-002;1.684570685029030E-003;-4.490215214900672E-004;
2.418000000000000E+009;1.692950874567032E-001;-7.107382267713547E-002;1.654862891882658E-003;-3.756534715648741E-004;
2.418166666666667E+009;1.682283431291580E-001;-7.118548452854157E-002;1.677419058978558E-003;-4.535118932835758E-004;
2.418333333333334E+009;1.675301492214203E-001;-7.147159427404404E-002;1.821010489948094E-003;-3.963306371588260E-004;
2.418500000000000E+009;1.663635522127152E-001;-7.171790301799774E-002;1.816459000110626E-003;-4.794866254087538E-004;
2.418666666666667E+009;1.654009670019150E-001;-7.203672081232071E-002;1.645712647587061E-003;-6.058333092369139E-004;
2.418833333333334E+009;1.639791727066040E-001;-7.250629365444183E-002;1.679845503531396E-003;-5.471492768265307E-004;
2.419000000000000E+009;1.627353876829147E-001;-7.300785183906555E-002;1.623764284886420E-003;-5.892967456020415E-004;
2.419166666666667E+009;1.615923494100571E-001;-7.354377210140228E-002;1.706141745671630E-003;-7.825960638001561E-004;
2.419333333333334E+009;1.601571142673492E-001;-7.407758384943008E-002;1.649947836995125E-003;-7.517451886087656E-004;
2.419500000000000E+009;1.589945256710053E-001;-7.495288550853729E-002;1.755588571541011E-003;-6.908028735779226E-004;
2.419666666666667E+009;1.577653884887695E-001;-7.575979083776474E-002;1.877149683423340E-003;-9.347388986498117E-004;
2.419833333333334E+009;1.562873423099518E-001;-7.661087065935135E-002;1.582455704919994E-003;-8.429919253103435E-004;
2.420000000000000E+009;1.551852375268936E-001;-7.742836326360703E-002;1.731656724587083E-003;-9.175201412290335E-004;
2.420166666666667E+009;1.539742350578308E-001;-7.855172455310822E-002;1.817299635149539E-003;-1.033316599205136E-003;
2.420333333333334E+009;1.527138650417328E-001;-7.968559116125107E-002;1.836098497733474E-003;-1.073763007298112E-003;
2.420500000000000E+009;1.516535878181458E-001;-8.075567334890366E-002;1.665196032263339E-003;-1.066391472704709E-003;
2.420666666666667E+009;1.504692733287811E-001;-8.196896314620972E-002;1.807079766876996E-003;-1.227255794219673E-003;
2.420833333333334E+009;1.493851989507675E-001;-8.340524137020111E-002;1.875030691735447E-003;-1.248500891961157E-003;
2.421000000000000E+009;1.485307067632675E-001;-8.499543368816376E-002;1.811118330806494E-003;-1.330059254541993E-003;
2.421166666666667E+009;1.475440859794617E-001;-8.627638220787048E-002;1.871703774668276E-003;-1.356366672553122E-003;
2.421333333333334E+009;1.467189192771912E-001;-8.794017881155014E-002;1.774878008291125E-003;-1.453694305382669E-003;
2.421500000000000E+009;1.457957923412323E-001;-8.947818726301193E-002;1.807968248613179E-003;-1.509707071818411E-003;
2.421666666666667E+009;1.451790332794190E-001;-9.122198820114136E-002;1.833215705119073E-003;-1.662142458371818E-003;
2.421833333333334E+009;1.446619033813477E-001;-9.272043406963348E-002;1.887091086246073E-003;-1.981964567676187E-003;
2.422000000000000E+009;1.438793689012528E-001;-9.428303688764572E-002;1.802589744329453E-003;-1.834351336583495E-003;
2.422166666666667E+009;1.435306519269943E-001;-9.633321315050125E-002;1.772730611264706E-003;-2.012990182265639E-003;
2.422333333333334E+009;1.432456970214844E-001;-9.789628535509110E-002;1.786041306331754E-003;-2.090190071612597E-003;
2.422500000000000E+009;1.428989917039871E-001;-9.968537837266922E-002;1.785592990927398E-003;-2.156829228624702E-003;
2.422666666666667E+009;1.427290886640549E-001;-1.015875115990639E-001;1.610457897186279E-003;-2.297799102962017E-003;
2.422833333333334E+009;1.425687819719315E-001;-1.032922044396401E-001;1.668576500378549E-003;-2.446200931444764E-003;
2.423000000000000E+009;1.427530348300934E-001;-1.049626991152763E-001;1.525948056951165E-003;-2.636405406519771E-003;
2.423166666666667E+009;1.429401636123657E-001;-1.067233830690384E-001;1.520462683402002E-003;-2.791004488244653E-003;
2.423333333333334E+009;1.430016607046127E-001;-1.081507951021195E-001;1.308608800172806E-003;-3.005706472322345E-003;
2.423500000000000E+009;1.430658102035523E-001;-1.099116951227188E-001;1.281370758078992E-003;-3.208980429917574E-003;
2.423666666666667E+009;1.432598680257797E-001;-1.116638109087944E-001;1.228071982041001E-003;-3.302898025140166E-003;
2.423833333333334E+009;1.437398493289948E-001;-1.131151095032692E-001;1.097548170946538E-003;-3.491165814921260E-003;
2.424000000000000E+009;1.439026445150375E-001;-1.145015731453896E-001;8.978017722256482E-004;-3.454687772318721E-003;
2.424166666666667E+009;1.441318690776825E-001;-1.159828379750252E-001;6.967732915654779E-004;-3.531912807375193E-003;
2.424333333333334E+009;1.447913199663162E-001;-1.171822547912598E-001;6.272894679568708E-004;-3.682243172079325E-003;
2.424500000000000E+009;1.450709104537964E-001;-1.184434816241264E-001;2.307603717781603E-004;-3.592715598642826E-003;
2.424666666666667E+009;1.457086652517319E-001;-1.194685027003288E-001;1.956250489456579E-004;-3.760092658922076E-003;
2.424833333333334E+009;1.461091637611389E-001;-1.205413192510605E-001;1.249627348443028E-005;-3.886735299602151E-003;
2.425000000000000E+009;1.465516239404678E-001;-1.215107440948486E-001;-3.586461534723640E-004;-4.026151727885008E-003;
2.425166666666667E+009;1.467192173004150E-001;-1.223975196480751E-001;-4.289460193831474E-004;-3.901552408933640E-003;
2.425333333333334E+009;1.472184360027313E-001;-1.232117190957069E-001;-8.235137211158872E-004;-3.972698468714953E-003;
2.425500000000000E+009;1.476915627717972E-001;-1.239217892289162E-001;-9.182504727505148E-004;-3.926694393157959E-003;
2.425666666666667E+009;1.478069722652435E-001;-1.246267631649971E-001;-1.224116305820644E-003;-3.769638482481241E-003;
2.425833333333334E+009;1.481279879808426E-001;-1.251194179058075E-001;-1.326446305029094E-003;-3.920605871826410E-003;
2.426000000000000E+009;1.483347266912460E-001;-1.255878508090973E-001;-1.648354111239314E-003;-3.724675625562668E-003;
2.426166666666667E+009;1.486569494009018E-001;-1.259938627481461E-001;-1.816907897591591E-003;-3.584085265174508E-003;
2.426333333333334E+009;1.486660689115524E-001;-1.261718124151230E-001;-1.978007843717933E-003;-3.520292695611715E-003;
2.426500000000000E+009;1.487308144569397E-001;-1.262735724449158E-001;-2.141731558367610E-003;-3.547374857589603E-003;
2.426666666666667E+009;1.488325148820877E-001;-1.263813376426697E-001;-2.390012610703707E-003;-3.466357011348009E-003;
2.426833333333334E+009;1.485045254230499E-001;-1.265076100826263E-001;-2.544733230024576E-003;-3.224303713068366E-003;
2.427000000000000E+009;1.483079791069031E-001;-1.266919076442719E-001;-2.646161476150155E-003;-3.097188891842961E-003;
2.427166666666667E+009;1.479932069778442E-001;-1.266091465950012E-001;-2.944439416751266E-003;-2.958514029160142E-003;
2.427333333333334E+009;1.474607437849045E-001;-1.266032755374908E-001;-2.730730688199401E-003;-2.790310187265277E-003;
2.427500000000000E+009;1.471740454435349E-001;-1.265356391668320E-001;-2.930569229647517E-003;-2.522129798308015E-003;
2.427666666666667E+009;1.464227437973023E-001;-1.264835149049759E-001;-2.988575957715511E-003;-2.508589299395680E-003;
