# Version 1.00
#
freq[Hz];re:Trc1_S11;im:Trc1_S11;re:Trc2_S21;im:Trc2_S21;
2.400000000000000E+009;1.687339097261429E-001;4.551438987255096E-002;-5.605897400528193E-003;-1.522893668152392E-003;
2.400166666666667E+009;1.699474900960922E-001;4.479498416185379E-002;-5.684748291969299E-003;-1.097742700949311E-003;
2.400333333333334E+009;1.707424372434616E-001;4.348646849393845E-002;-5.623400211334229E-003;-9.950563544407487E-004;
2.400500000000000E+009;1.718556284904480E-001;4.259289801120758E-002;-5.827635526657105E-003;-7.806099019944668E-004;
2.400666666666667E+009;1.728363484144211E-001;4.148413613438606E-002;-5.724630784243345E-003;-5.302187055349350E-004;
2.400833333333334E+009;1.736435741186142E-001;4.066231846809387E-002;-5.866175051778555E-003;-2.175642439397052E-004;
2.401000000000000E+009;1.743454784154892E-001;4.004977643489838E-002;-5.700801033526659E-003;-1.587971491971985E-004;
2.401166666666667E+009;1.752773672342300E-001;3.919268399477005E-002;-5.857180338352919E-003;2.225196076324210E-004;
2.401333333333334E+009;1.758830547332764E-001;3.845702111721039E-002;-5.624166689813137E-003;4.961890517733991E-004;
2.401500000000000E+009;1.766384989023209E-001;3.786221891641617E-002;-5.665617529302836E-003;5.686383810825646E-004;
2.401666666666667E+009;1.771573573350906E-001;3.734563663601875E-002;-5.702391266822815E-003;8.994065574370325E-004;
2.401833333333334E+009;1.776780784130096E-001;3.662392124533653E-002;-5.666195880621672E-003;1.225696876645088E-003;
2.402000000000000E+009;1.781290322542191E-001;3.617975115776062E-002;-5.515117663890123E-003;1.342463307082653E-003;
2.402166666666667E+009;1.786817759275436E-001;3.542161360383034E-002;-5.433407612144947E-003;1.518166041933000E-003;
2.402333333333334E+009;1.789177209138870E-001;3.506814315915108E-002;-5.445496644824743E-003;1.637875800952315E-003;
2.402500000000000E+009;1.793184578418732E-001;3.425360098481178E-002;-5.314793437719345E-003;1.990550663322210E-003;
2.402666666666667E+009;1.794248223304749E-001;3.375335782766342E-002;-5.359866656363010E-003;2.128545893356204E-003;
2.402833333333334E+009;1.797462701797485E-001;3.317208960652351E-002;-5.149965640157461E-003;2.447391161695123E-003;
2.403000000000000E+009;1.798057407140732E-001;3.259724006056786E-002;-4.967566113919020E-003;2.656709635630250E-003;
2.403166666666667E+009;1.798215061426163E-001;3.158128261566162E-002;-4.984896630048752E-003;2.840824658051133E-003;
2.403333333333334E+009;1.796786636114121E-001;3.092437796294689E-002;-4.706791136413813E-003;2.937154145911336E-003;
2.403500000000000E+009;1.793684363365173E-001;2.994448877871037E-002;-4.811638034880161E-003;2.949973102658987E-003;
2.403666666666667E+009;1.793432384729385E-001;2.906928211450577E-002;-4.686128348112106E-003;3.238615347072482E-003;
2.403833333333334E+009;1.793073415756226E-001;2.793891727924347E-002;-4.490738268941641E-003;3.483123145997524E-003;
2.404000000000000E+009;1.786652058362961E-001;2.697880379855633E-002;-4.159454256296158E-003;3.651648759841919E-003;
2.404166666666667E+009;1.782843470573425E-001;2.568314597010613E-002;-4.026663955301046E-003;3.949304111301899E-003;
2.404333333333334E+009;1.779213845729828E-001;2.461428195238113E-002;-3.932415507733822E-003;3.879939904436469E-003;
2.404500000000000E+009;1.772689521312714E-001;2.327807806432247E-002;-3.779085818678141E-003;4.062634892761707E-003;
2.404666666666667E+009;1.769817024469376E-001;2.185403741896153E-002;-3.445862093940377E-003;4.136950243264437E-003;
2.404833333333334E+009;1.764534711837769E-001;2.043042890727520E-002;-3.385594114661217E-003;4.358939360827208E-003;
2.405000000000000E+009;1.761068850755692E-001;1.894361339509487E-002;-3.212405601516366E-003;4.402733873575926E-003;
2.405166666666667E+009;1.755419671535492E-001;1.744092069566250E-002;-2.916711149737239E-003;4.515277221798897E-003;
2.405333333333334E+009;1.752126663923264E-001;1.561357732862234E-002;-2.801636699587107E-003;4.592565819621086E-003;
2.405500000000000E+009;1.747035682201386E-001;1.403677463531494E-002;-2.426973311230540E-003;4.698799923062325E-003;
2.405666666666667E+009;1.743727922439575E-001;1.242961082607508E-002;-2.369838068261743E-003;4.706642124801874E-003;
2.405833333333334E+009;1.737869530916214E-001;1.053392607718706E-002;-1.979547087103128E-003;4.713765345513821E-003;
2.406000000000000E+009;1.735624074935913E-001;8.565749041736126E-003;-1.760965329594910E-003;4.854731727391481E-003;
2.406166666666667E+009;1.731786280870438E-001;6.698100827634335E-003;-1.669593621045351E-003;4.836170934140682E-003;
2.406333333333334E+009;1.730609536170960E-001;4.899932537227869E-003;-1.483948668465018E-003;4.630519542843103E-003;
2.406500000000000E+009;1.729057729244232E-001;2.802405972033739E-003;-1.338441041298211E-003;4.834170918911696E-003;
2.406666666666667E+009;1.726263463497162E-001;5.887818988412619E-004;-1.196896308101714E-003;4.628370516002178E-003;
2.406833333333334E+009;1.727359294891357E-001;-1.367286778986454E-003;-1.245688064955175E-003;4.600891843438149E-003;
2.407000000000000E+009;1.725277006626129E-001;-3.492468968033791E-003;-8.418048964813352E-004;4.755207337439060E-003;
2.407166666666667E+009;1.727236509323120E-001;-5.477250553667545E-003;-6.982313934713602E-004;4.740685690194368E-003;
2.407333333333334E+009;1.728013455867767E-001;-7.718199398368597E-003;-5.126384203322232E-004;4.628323484212160E-003;
2.407500000000000E+009;1.729582846164703E-001;-9.572071023285389E-003;-4.445368831511587E-004;4.688228014856577E-003;
2.407666666666667E+009;1.733095645904541E-001;-1.175925880670548E-002;-3.613338631112129E-004;4.547031130641699E-003;
2.407833333333334E+009;1.733936220407486E-001;-1.393801625818014E-002;-9.277465323975775E-006;4.607477691024542E-003;
2.408000000000000E+009;1.738737672567368E-001;-1.602431572973728E-002;-3.145821392536163E-005;4.463420249521732E-003;
2.408166666666667E+009;1.742118000984192E-001;-1.788863725960255E-002;1.563276309752837E-004;4.566434305161238E-003;
2.408333333333334E+009;1.746341735124588E-001;-1.983623951673508E-002;3.510799724608660E-004;4.329424351453781E-003;
2.408500000000000E+009;1.749895215034485E-001;-2.185963280498982E-002;4.230657650623471E-004;4.471661988645792E-003;
2.408666666666667E+009;1.754468530416489E-001;-2.372204698622227E-002;5.699835601262748E-004;4.441644996404648E-003;
2.408833333333334E+009;1.757018119096756E-001;-2.538992837071419E-002;7.598427473567426E-004;4.301061388105154E-003;
2.409000000000000E+009;1.761302947998047E-001;-2.703001350164414E-002;7.827008375898004E-004;4.337802063673735E-003;
2.409166666666667E+009;1.766755729913712E-001;-2.866920642554760E-002;9.610701818019152E-004;4.246163647621870E-003;
2.409333333333334E+009;1.772328913211823E-001;-3.015558607876301E-002;9.448293712921441E-004;4.305211361497641E-003;
2.409500000000000E+009;1.775025278329849E-001;-3.153488039970398E-002;9.780017426237464E-004;4.143251106142998E-003;
2.409666666666667E+009;1.779397875070572E-001;-3.278136625885963E-002;1.314819674007595E-003;4.207644611597061E-003;
2.409833333333334E+009;1.783182024955750E-001;-3.367661312222481E-002;1.388734788633883E-003;4.132961854338646E-003;
2.410000000000000E+009;1.791323572397232E-001;-3.489934653043747E-002;1.588719314895570E-003;4.202654585242271E-003;
2.410166666666667E+009;1.794851571321487E-001;-3.581389412283897E-002;1.563965342938900E-003;4.119747318327427E-003;
2.410333333333334E+009;1.798255294561386E-001;-3.659871220588684E-002;1.638407469727099E-003;4.046315792948008E-003;
2.410500000000000E+009;1.803053766489029E-001;-3.744351863861084E-002;1.968988217413425E-003;3.964534495025873E-003;
2.410666666666667E+009;1.807162463665009E-001;-3.828189522027969E-002;2.109309192746878E-003;3.918719943612814E-003;
2.410833333333334E+009;1.811745911836624E-001;-3.879677876830101E-002;2.339759608730674E-003;3.764746012166143E-003;
2.411000000000000E+009;1.810503304004669E-001;-3.921911492943764E-002;2.330596558749676E-003;3.748296061530709E-003;
2.411166666666667E+009;1.813892722129822E-001;-3.995094820857048E-002;2.598143182694912E-003;3.798514138907194E-003;
2.411333333333334E+009;1.817176789045334E-001;-4.053024202585220E-002;2.770637394860387E-003;3.451159456744790E-003;
2.411500000000000E+009;1.816821843385696E-001;-4.116066545248032E-002;2.787274541333318E-003;3.495964920148253E-003;
2.411666666666667E+009;1.819100379943848E-001;-4.157496988773346E-002;3.111946629360318E-003;3.342628944665194E-003;
2.411833333333334E+009;1.817377507686615E-001;-4.175675287842751E-002;3.184768138453364E-003;3.211891744285822E-003;
2.412000000000000E+009;1.815907806158066E-001;-4.214878380298615E-002;3.182965330779553E-003;2.954662777483463E-003;
2.412166666666667E+009;1.812259107828140E-001;-4.242653772234917E-002;3.439161460846663E-003;2.828716998919845E-003;
2.412333333333334E+009;1.810893267393112E-001;-4.288146272301674E-002;3.426832146942616E-003;2.642287639901042E-003;
2.412500000000000E+009;1.803222000598908E-001;-4.313764348626137E-002;3.474515629932284E-003;2.404884900897741E-003;
2.412666666666667E+009;1.799453645944595E-001;-4.374242201447487E-002;3.465211018919945E-003;2.275761449709535E-003;
2.412833333333334E+009;1.792912185192108E-001;-4.394393414258957E-002;3.498230827972293E-003;2.154981251806021E-003;
2.413000000000000E+009;1.785552054643631E-001;-4.427794367074966E-002;3.441418055444956E-003;2.058958169072866E-003;
2.413166666666667E+009;1.776410490274429E-001;-4.476990178227425E-002;3.464344190433621E-003;1.774560310877860E-003;
2.413333333333334E+009;1.765832006931305E-001;-4.516087472438812E-002;3.491890849545598E-003;1.770978793501854E-003;
2.413500000000000E+009;1.758076250553131E-001;-4.561162739992142E-002;3.475955454632640E-003;1.599861658178270E-003;
2.413666666666667E+009;1.747693568468094E-001;-4.626230150461197E-002;3.258651820942760E-003;1.470048096962273E-003;
2.413833333333334E+009;1.735269725322723E-001;-4.685943573713303E-002;3.374982159584761E-003;1.393826445564628E-003;
2.414000000000000E+009;1.724927723407745E-001;-4.743080213665962E-002;3.401080612093210E-003;1.413331017829478E-003;
2.414166666666667E+009;1.712246090173721E-001;-4.793765023350716E-002;3.295503556728363E-003;1.169122755527496E-003;
2.414333333333334E+009;1.702642589807510E-001;-4.890314489603043E-002;3.385434160009027E-003;1.203235005959868E-003;
2.414500000000000E+009;1.691726148128510E-001;-4.973546415567398E-002;3.270492888987064E-003;1.144869951531291E-003;
2.414666666666667E+009;1.678033620119095E-001;-5.064626783132553E-002;3.446629038080573E-003;1.173779717646539E-003;
2.414833333333334E+009;1.665567755699158E-001;-5.168142542243004E-002;3.374580061063170E-003;9.611055138520896E-004;
2.415000000000000E+009;1.653209626674652E-001;-5.263483151793480E-002;3.242985345423222E-003;9.982788469642401E-004;
2.415166666666667E+009;1.641019582748413E-001;-5.396930128335953E-002;3.517871489748359E-003;9.638230549171567E-004;
2.415333333333334E+009;1.630880981683731E-001;-5.526016652584076E-002;3.526136279106140E-003;8.375208126381040E-004;
2.415500000000000E+009;1.618004590272903E-001;-5.656845495104790E-002;3.552442416548729E-003;7.817033329047263E-004;
2.415666666666667E+009;1.607256531715393E-001;-5.804145336151123E-002;3.689264412969351E-003;6.393741350620985E-004;
2.415833333333334E+009;1.597320735454559E-001;-5.954957008361816E-002;3.769157920032740E-003;5.977693363092840E-004;
2.416000000000000E+009;1.584843546152115E-001;-6.117434799671173E-002;3.572080517187715E-003;3.836431715171784E-004;
2.416166666666667E+009;1.576648652553558E-001;-6.286434829235077E-002;3.627192461863160E-003;3.150006814394146E-004;
2.416333333333334E+009;1.565929204225540E-001;-6.455427408218384E-002;3.768088528886437E-003;2.527317556086928E-004;
2.416500000000000E+009;1.557359397411346E-001;-6.639188528060913E-002;3.681210568174720E-003;-5.538539653571206E-007;
2.416666666666667E+009;1.548080295324326E-001;-6.809150427579880E-002;3.835476236417890E-003;-6.431184010580182E-005;
2.416833333333334E+009;1.540081948041916E-001;-7.012674957513809E-002;3.752959193661809E-003;-1.551468158140779E-004;
2.417000000000000E+009;1.532280296087265E-001;-7.211554050445557E-002;3.611472900956869E-003;-3.080081660300493E-004;
2.417166666666667E+009;1.525162756443024E-001;-7.394953817129135E-002;3.655657405033708E-003;-5.267114611342549E-004;
2.417333333333334E+009;1.520099341869354E-001;-7.575853168964386E-002;3.524451283738017E-003;-6.372204516083002E-004;
2.417500000000000E+009;1.514271795749664E-001;-7.785505801439285E-002;3.512031165882945E-003;-8.840447990223765E-004;
2.417666666666667E+009;1.511097699403763E-001;-7.958351075649262E-002;3.519364167004824E-003;-8.819562499411404E-004;
2.417833333333334E+009;1.505104005336762E-001;-8.144317567348480E-002;3.407294629141688E-003;-1.040690462104976E-003;
2.418000000000000E+009;1.500924378633499E-001;-8.339466154575348E-002;3.249282250180841E-003;-1.084616407752037E-003;
2.418166666666667E+009;1.498767882585526E-001;-8.491238951683044E-002;3.295283764600754E-003;-1.205215696245432E-003;
2.418333333333334E+009;1.498245596885681E-001;-8.672854304313660E-002;3.059066133573651E-003;-1.222801394760609E-003;
2.418500000000000E+009;1.496089398860931E-001;-8.845803141593933E-002;3.073488362133503E-003;-1.253783004358411E-003;
2.418666666666667E+009;1.495629847049713E-001;-8.993668109178543E-002;2.925626467913389E-003;-1.257781288586557E-003;
2.418833333333334E+009;1.493909507989883E-001;-9.140039235353470E-002;2.890967065468431E-003;-1.431832206435502E-003;
2.419000000000000E+009;1.493489295244217E-001;-9.271980822086334E-002;2.767578000202775E-003;-1.410073833540082E-003;
2.419166666666667E+009;1.495133340358734E-001;-9.411126375198364E-002;2.844699658453465E-003;-1.511034206487238E-003;
2.419333333333334E+009;1.493899822235107E-001;-9.499337524175644E-002;2.764502074569464E-003;-1.560338772833347E-003;
2.419500000000000E+009;1.496664285659790E-001;-9.615849703550339E-002;2.529564313590527E-003;-1.478950260207057E-003;
2.419666666666667E+009;1.498818993568420E-001;-9.706252068281174E-002;2.567710122093558E-003;-1.581575605086982E-003;
2.419833333333334E+009;1.499841213226318E-001;-9.768976271152496E-002;2.393212169408798E-003;-1.604174496605992E-003;
2.420000000000000E+009;1.502542644739151E-001;-9.857889264822006E-002;2.560539171099663E-003;-1.521954894997180E-003;
2.420166666666667E+009;1.505012363195419E-001;-9.919051080942154E-002;2.429638290777803E-003;-1.647953060455620E-003;
2.420333333333334E+009;1.509141623973846E-001;-9.969624876976013E-002;2.510581398382783E-003;-1.524602877907455E-003;
2.420500000000000E+009;1.511494517326355E-001;-9.982892870903015E-002;2.429707674309611E-003;-1.523157814517617E-003;
2.420666666666667E+009;1.513704210519791E-001;-9.990046173334122E-002;2.474071225151420E-003;-1.546443672850728E-003;
2.420833333333334E+009;1.516914069652557E-001;-1.002669930458069E-001;2.400774974375963E-003;-1.530919224023819E-003;
2.421000000000000E+009;1.516954451799393E-001;-1.003895774483681E-001;2.531652571633458E-003;-1.529467059299350E-003;
2.421166666666667E+009;1.520162075757980E-001;-1.003573313355446E-001;2.380806719884276E-003;-1.770618953742087E-003;
2.421333333333334E+009;1.522774994373322E-001;-1.003609821200371E-001;2.766155870631337E-003;-1.633235020563006E-003;
2.421500000000000E+009;1.522728055715561E-001;-1.001908183097839E-001;2.677506301552057E-003;-1.672963378950954E-003;
2.421666666666667E+009;1.522596031427383E-001;-1.001491248607636E-001;2.814360661432147E-003;-1.955110812559724E-003;
2.421833333333334E+009;1.523057222366333E-001;-9.992341697216034E-002;2.753643086180091E-003;-2.077585551887751E-003;
2.422000000000000E+009;1.520441621541977E-001;-9.968394041061401E-002;2.864809241145849E-003;-2.200460061430931E-003;
2.422166666666667E+009;1.517874151468277E-001;-9.950856119394302E-002;2.954932395368815E-003;-2.347261877730489E-003;
2.422333333333334E+009;1.516333073377609E-001;-9.914634376764298E-002;2.950695343315601E-003;-2.624383661895990E-003;
2.422500000000000E+009;1.510498374700546E-001;-9.869803488254547E-002;2.875543199479580E-003;-2.915680641308427E-003;
2.422666666666667E+009;1.503732800483704E-001;-9.852044284343720E-002;2.933079842478037E-003;-2.999225864186883E-003;
2.422833333333334E+009;1.499793678522110E-001;-9.820612519979477E-002;2.745600417256355E-003;-3.120624227449298E-003;
2.423000000000000E+009;1.490959823131561E-001;-9.783236682415009E-002;2.516471548005939E-003;-3.438972169533372E-003;
2.423166666666667E+009;1.481768786907196E-001;-9.754569828510284E-002;2.391334390267730E-003;-3.658168250694871E-003;
2.423333333333334E+009;1.473803669214249E-001;-9.718140959739685E-002;2.164514968171716E-003;-3.783635562285781E-003;
2.423500000000000E+009;1.462639570236206E-001;-9.703125059604645E-002;2.176437294110656E-003;-4.103530198335648E-003;
2.423666666666667E+009;1.450919359922409E-001;-9.674460440874100E-002;1.746740657836199E-003;-4.046041984111071E-003;
2.423833333333334E+009;1.439160257577896E-001;-9.659746289253235E-002;1.591673004440963E-003;-4.247443750500679E-003;
2.424000000000000E+009;1.425490975379944E-001;-9.621015936136246E-002;1.480966340750456E-003;-4.228349309414625E-003;
2.424166666666667E+009;1.412271112203598E-001;-9.612852334976196E-002;1.082539441995323E-003;-4.267124924808741E-003;
2.424333333333334E+009;1.399351656436920E-001;-9.587957710027695E-002;8.265166543424130E-004;-4.331377800554037E-003;
2.424500000000000E+009;1.385016292333603E-001;-9.618627279996872E-002;5.510833580046892E-004;-4.299484658986330E-003;
2.424666666666667E+009;1.372691839933395E-001;-9.608661383390427E-002;4.322953463997692E-004;-4.364651627838612E-003;
2.424833333333334E+009;1.356471031904221E-001;-9.643315523862839E-002;2.281346969539300E-004;-4.223946947604418E-003;
2.425000000000000E+009;1.342394351959229E-001;-9.673760086297989E-002;-1.376230939058587E-004;-4.126047715544701E-003;
2.425166666666667E+009;1.325412988662720E-001;-9.720343351364136E-002;-4.652148927561939E-004;-4.041359759867191E-003;
2.425333333333334E+009;1.311720311641693E-001;-9.763853996992111E-002;-5.703609785996378E-004;-3.991455771028996E-003;
2.425500000000000E+009;1.298084855079651E-001;-9.829034656286240E-002;-6.808604812249541E-004;-3.924637101590633E-003;
2.425666666666667E+009;1.281017363071442E-001;-9.914446622133255E-002;-8.528001490049064E-004;-3.710749559104443E-003;
2.425833333333334E+009;1.267706155776978E-001;-9.998045861721039E-002;-8.358422201126814E-004;-3.544107312336564E-003;
2.426000000000000E+009;1.253651678562164E-001;-1.010446846485138E-001;-9.607013780623674E-004;-3.499025013297796E-003;
2.426166666666667E+009;1.241437569260597E-001;-1.020608693361282E-001;-1.205185893923044E-003;-3.353032749146223E-003;
2.426333333333334E+009;1.228042170405388E-001;-1.032579392194748E-001;-1.152224605903029E-003;-3.315059468150139E-003;
2.426500000000000E+009;1.215831488370895E-001;-1.045221984386444E-001;-1.228807610459626E-003;-3.058637259528041E-003;
2.426666666666667E+009;1.204663664102554E-001;-1.058372557163239E-001;-1.355646993033588E-003;-2.926540095359087E-003;
2.426833333333334E+009;1.194091886281967E-001;-1.073449924588203E-001;-1.374298473820090E-003;-2.808597637340426E-003;
2.427000000000000E+009;1.182366535067558E-001;-1.089560166001320E-001;-1.282566925510764E-003;-2.705456223338842E-003;
2.427166666666667E+009;1.172432303428650E-001;-1.103360801935196E-001;-1.341063063591719E-003;-2.505539217963815E-003;
2.427333333333334E+009;1.162988170981407E-001;-1.121323332190514E-001;-1.265742117539048E-003;-2.549041761085391E-003;
2.427500000000000E+009;1.156314238905907E-001;-1.137508898973465E-001;-1.262652454897761E-003;-2.452466171234846E-003;
2.427666666666667E+009;1.148384809494019E-001;-1.155944243073463E-001;-1.246329513378441E-003;-2.367475070059300E-003;
