# Version 1.00
#
freq[Hz];re:Trc1_S11;im:Trc1_S11;re:Trc2_S21;im:Trc2_S21;
2.400000000000000E+009;1.689589470624924E-001;4.548690840601921E-002;-5.422195885330439E-003;-1.581272226758301E-003;
2.400166666666667E+009;1.699443012475967E-001;4.476584494113922E-002;-5.661590956151485E-003;-1.185948145575821E-003;
2.400333333333334E+009;1.709705889225006E-001;4.359359294176102E-002;-5.657599307596684E-003;-1.067669247277081E-003;
2.400500000000000E+009;1.718510836362839E-001;4.232892766594887E-002;-5.557832308113575E-003;-9.572303970344365E-004;
2.400666666666667E+009;1.726546585559845E-001;4.162927716970444E-002;-5.669137928634882E-003;-5.788336275145412E-004;
2.400833333333334E+009;1.735543459653854E-001;4.083879292011261E-002;-5.714196711778641E-003;-2.839270455297083E-004;
2.401000000000000E+009;1.743777543306351E-001;3.998910263180733E-002;-5.821408703923225E-003;-2.917860401794314E-004;
2.401166666666667E+009;1.751233190298080E-001;3.914652019739151E-002;-5.864585284143686E-003;2.420311066089198E-004;
2.401333333333334E+009;1.756598800420761E-001;3.850744292140007E-002;-5.665893666446209E-003;2.033219498116523E-004;
2.401500000000000E+009;1.765763312578201E-001;3.787889704108238E-002;-5.792377982288599E-003;7.022629142738879E-004;
2.401666666666667E+009;1.772760897874832E-001;3.740178048610687E-002;-5.665714852511883E-003;8.813917520456016E-004;
2.401833333333334E+009;1.778786927461624E-001;3.672430664300919E-002;-5.610198713839054E-003;1.126331510022283E-003;
2.402000000000000E+009;1.780949980020523E-001;3.625748679041863E-002;-5.778848659247160E-003;1.362060895189643E-003;
2.402166666666667E+009;1.787046194076538E-001;3.555103763937950E-002;-5.763347726315260E-003;1.434180885553360E-003;
2.402333333333334E+009;1.790090203285217E-001;3.482532873749733E-002;-5.477411672472954E-003;1.730551826767623E-003;
2.402500000000000E+009;1.795312911272049E-001;3.424267098307610E-002;-5.322094075381756E-003;2.034532604739070E-003;
2.402666666666667E+009;1.795969903469086E-001;3.386400267481804E-002;-5.355590488761663E-003;2.187568461522460E-003;
2.402833333333334E+009;1.797602474689484E-001;3.297343105077744E-002;-5.209310445934534E-003;2.411236753687263E-003;
2.403000000000000E+009;1.798893958330154E-001;3.228118270635605E-002;-5.119383800774813E-003;2.613549586385489E-003;
2.403166666666667E+009;1.799511164426804E-001;3.164216130971909E-002;-4.859186708927155E-003;2.862513065338135E-003;
2.403333333333334E+009;1.796853840351105E-001;3.081171028316021E-002;-4.895430058240891E-003;3.043744480237365E-003;
2.403500000000000E+009;1.796130686998367E-001;2.989232540130615E-002;-4.547225311398506E-003;3.169563831761479E-003;
2.403666666666667E+009;1.793873757123947E-001;2.880929410457611E-002;-4.356933292001486E-003;3.300965996459127E-003;
2.403833333333334E+009;1.790323108434677E-001;2.784356661140919E-002;-4.351945593953133E-003;3.595127025619149E-003;
2.404000000000000E+009;1.788159310817719E-001;2.686253562569618E-002;-4.207870457321405E-003;3.641485935077071E-003;
2.404166666666667E+009;1.784543842077255E-001;2.565289102494717E-002;-4.069566261023283E-003;3.792377887293696E-003;
2.404333333333334E+009;1.780626922845841E-001;2.447033114731312E-002;-3.780118655413389E-003;3.957453649491072E-003;
2.404500000000000E+009;1.773003786802292E-001;2.304756268858910E-002;-3.548154374584556E-003;4.058314487338066E-003;
2.404666666666667E+009;1.770684272050858E-001;2.191561274230480E-002;-3.489668946713209E-003;4.228507168591023E-003;
2.404833333333334E+009;1.765053719282150E-001;2.048320509493351E-002;-3.269510343670845E-003;4.579639993607998E-003;
2.405000000000000E+009;1.759892106056213E-001;1.893095858395100E-002;-3.101270413026214E-003;4.462638869881630E-003;
2.405166666666667E+009;1.755516380071640E-001;1.726382970809937E-002;-2.858745865523815E-003;4.599701147526503E-003;
2.405333333333334E+009;1.751694977283478E-001;1.567843556404114E-002;-2.591445110738277E-003;4.664178937673569E-003;
2.405500000000000E+009;1.746733635663986E-001;1.406509242951870E-002;-2.560772234573960E-003;4.758696071803570E-003;
2.405666666666667E+009;1.742524802684784E-001;1.231701858341694E-002;-2.358065452426672E-003;4.672344308346510E-003;
2.405833333333334E+009;1.738730520009995E-001;1.057476736605167E-002;-1.903169788420200E-003;4.780898801982403E-003;
2.406000000000000E+009;1.735607981681824E-001;8.631982840597630E-003;-2.154200104996562E-003;4.687609151005745E-003;
2.406166666666667E+009;1.731840074062347E-001;6.848303601145744E-003;-1.736109028570354E-003;4.661501385271549E-003;
2.406333333333334E+009;1.730905622243881E-001;4.836054053157568E-003;-1.579922623932362E-003;4.690748173743486E-003;
2.406500000000000E+009;1.728027462959290E-001;2.827697200700641E-003;-1.383225549943745E-003;4.648549482226372E-003;
2.406666666666667E+009;1.726855635643005E-001;8.317450992763042E-004;-1.197800389491022E-003;4.785495344549418E-003;
2.406833333333334E+009;1.727041155099869E-001;-1.347370096482337E-003;-1.099673798307777E-003;4.780315328389406E-003;
2.407000000000000E+009;1.727281808853149E-001;-3.283357713371515E-003;-8.046746952459216E-004;4.711955785751343E-003;
2.407166666666667E+009;1.729412227869034E-001;-5.351442378014326E-003;-9.051109082065523E-004;4.779242910444737E-003;
2.407333333333334E+009;1.729329079389572E-001;-7.611299864947796E-003;-6.609600386582315E-004;4.691773094236851E-003;
2.407500000000000E+009;1.730497628450394E-001;-9.708837606012821E-003;-4.939310601912439E-004;4.718642681837082E-003;
2.407666666666667E+009;1.733222156763077E-001;-1.166003756225109E-002;-3.946441283915192E-004;4.760770127177239E-003;
2.407833333333334E+009;1.734957098960877E-001;-1.395508833229542E-002;-5.267755477689207E-005;4.715259186923504E-003;
2.408000000000000E+009;1.738662272691727E-001;-1.600971817970276E-002;-1.491386065026745E-004;4.633432719856501E-003;
2.408166666666667E+009;1.741971373558044E-001;-1.775301992893219E-002;5.075492663308978E-005;4.485687706619501E-003;
2.408333333333334E+009;1.748080551624298E-001;-1.983958669006825E-002;2.633156836964190E-004;4.532788414508104E-003;
2.408500000000000E+009;1.751584112644196E-001;-2.194415032863617E-002;3.163679211866111E-004;4.485238343477249E-003;
2.408666666666667E+009;1.754591166973114E-001;-2.370123006403446E-002;4.488994309213013E-004;4.379615653306246E-003;
2.408833333333334E+009;1.757775545120239E-001;-2.544083073735237E-002;5.955305532552302E-004;4.305668175220490E-003;
2.409000000000000E+009;1.762103438377380E-001;-2.697610296308994E-002;7.146221469156444E-004;4.387076478451490E-003;
2.409166666666667E+009;1.767762750387192E-001;-2.871565148234367E-002;9.504355839453638E-004;4.212409257888794E-003;
2.409333333333334E+009;1.772525012493134E-001;-3.024155087769032E-002;9.240937652066350E-004;4.219348076730967E-003;
2.409500000000000E+009;1.776252537965775E-001;-3.167708218097687E-002;1.049372716806829E-003;4.223348107188940E-003;
2.409666666666667E+009;1.780220121145248E-001;-3.273408114910126E-002;1.207008375786245E-003;4.196670837700367E-003;
2.409833333333334E+009;1.784228980541229E-001;-3.378834947943687E-002;1.390045857988298E-003;4.156907089054585E-003;
2.410000000000000E+009;1.789826303720474E-001;-3.482323884963989E-002;1.441432395949960E-003;4.081197548657656E-003;
2.410166666666667E+009;1.795383691787720E-001;-3.584347292780876E-002;1.504100975580514E-003;4.185563884675503E-003;
2.410333333333334E+009;1.799596399068832E-001;-3.663224726915360E-002;1.692693796940148E-003;3.992967773228884E-003;
2.410500000000000E+009;1.803132742643356E-001;-3.736674413084984E-002;1.935578067786992E-003;4.009126685559750E-003;
2.410666666666667E+009;1.806403100490570E-001;-3.819936141371727E-002;2.123656915500760E-003;4.109034780412912E-003;
2.410833333333334E+009;1.810962408781052E-001;-3.886037692427635E-002;2.246891846880317E-003;3.900198265910149E-003;
2.411000000000000E+009;1.812920272350311E-001;-3.940789029002190E-002;2.425879472866654E-003;3.883270081132650E-003;
2.411166666666667E+009;1.814438998699188E-001;-4.014398530125618E-002;2.689299872145057E-003;3.740396117791534E-003;
2.411333333333334E+009;1.815706193447113E-001;-4.047292470932007E-002;2.775281434878707E-003;3.703857306391001E-003;
2.411500000000000E+009;1.818020641803742E-001;-4.119795560836792E-002;2.888449467718601E-003;3.487580455839634E-003;
2.411666666666667E+009;1.817425191402435E-001;-4.145408794283867E-002;2.997076371684670E-003;3.412592690438032E-003;
2.411833333333334E+009;1.817002445459366E-001;-4.171089828014374E-002;3.124953713268042E-003;3.154309233650565E-003;
2.412000000000000E+009;1.816301345825195E-001;-4.227557405829430E-002;3.251300659030676E-003;2.937551820650697E-003;
2.412166666666667E+009;1.811415106058121E-001;-4.251514375209808E-002;3.357954323291779E-003;2.861072542145848E-003;
2.412333333333334E+009;1.810533404350281E-001;-4.284315556287766E-002;3.460614243522286E-003;2.653422532603145E-003;
2.412500000000000E+009;1.802999228239059E-001;-4.321574419736862E-002;3.406738396733999E-003;2.433024113997817E-003;
2.412666666666667E+009;1.798527240753174E-001;-4.371331259608269E-002;3.465913934633136E-003;2.312583383172751E-003;
2.412833333333334E+009;1.793241798877716E-001;-4.413701966404915E-002;3.506500972434878E-003;2.116082003340125E-003;
2.413000000000000E+009;1.784972399473190E-001;-4.433986544609070E-002;3.549335757270455E-003;1.988752512261272E-003;
2.413166666666667E+009;1.777322441339493E-001;-4.487127810716629E-002;3.477576421573758E-003;1.882563694380224E-003;
2.413333333333334E+009;1.767286807298660E-001;-4.527478292584419E-002;3.504884429275990E-003;1.635404885746539E-003;
2.413500000000000E+009;1.756423711776733E-001;-4.573916643857956E-002;3.486630972474814E-003;1.621115487068892E-003;
2.413666666666667E+009;1.749475151300430E-001;-4.624861478805542E-002;3.441490698605776E-003;1.502268132753670E-003;
2.413833333333334E+009;1.736080646514893E-001;-4.680470377206802E-002;3.505865810438991E-003;1.312148640863597E-003;
2.414000000000000E+009;1.725307255983353E-001;-4.746734350919724E-002;3.370729507878423E-003;1.305404468439519E-003;
2.414166666666667E+009;1.714406162500382E-001;-4.808839410543442E-002;3.318735398352146E-003;1.229285378940404E-003;
2.414333333333334E+009;1.702164560556412E-001;-4.894112423062325E-002;3.339015413075686E-003;1.107456861063838E-003;
2.414500000000000E+009;1.691835373640060E-001;-4.969688877463341E-002;3.361245850101113E-003;1.278668874874711E-003;
2.414666666666667E+009;1.678813993930817E-001;-5.064402148127556E-002;3.214967437088490E-003;1.065579825080931E-003;
2.414833333333334E+009;1.665835231542587E-001;-5.173448473215103E-002;3.286103485152125E-003;1.087238546460867E-003;
2.415000000000000E+009;1.653358936309815E-001;-5.272834375500679E-002;3.349493490532041E-003;9.692620369605720E-004;
2.415166666666667E+009;1.641715317964554E-001;-5.400457605719566E-002;3.379492787644267E-003;9.403979638591409E-004;
2.415333333333334E+009;1.629839986562729E-001;-5.518159642815590E-002;3.421067725867033E-003;1.013665692880750E-003;
2.415500000000000E+009;1.618127524852753E-001;-5.654947087168694E-002;3.546754829585552E-003;7.389250677078962E-004;
2.415666666666667E+009;1.605943441390991E-001;-5.798629671335220E-002;3.539265133440495E-003;7.597400690428913E-004;
2.415833333333334E+009;1.597169339656830E-001;-5.962721630930901E-002;3.473330289125443E-003;7.477579638361931E-004;
2.416000000000000E+009;1.584382653236389E-001;-6.122875958681107E-002;3.651988925412297E-003;5.426481366157532E-004;
2.416166666666667E+009;1.577487885951996E-001;-6.286484003067017E-002;3.899787552654743E-003;3.031495434697717E-004;
2.416333333333334E+009;1.566175371408463E-001;-6.451077759265900E-002;3.852501744404435E-003;2.607261994853616E-004;
2.416500000000000E+009;1.557617485523224E-001;-6.641130894422531E-002;3.632964799180627E-003;1.296883692702977E-005;
2.416666666666667E+009;1.548060923814774E-001;-6.813889741897583E-002;3.713933983817697E-003;1.604711360414513E-005;
2.416833333333334E+009;1.542035788297653E-001;-7.024167478084564E-002;3.744546789675951E-003;-1.952855091076344E-004;
2.417000000000000E+009;1.531889587640762E-001;-7.223528623580933E-002;3.518023295328021E-003;-4.232361970935017E-004;
2.417166666666667E+009;1.525766700506210E-001;-7.400172203779221E-002;3.651016624644399E-003;-4.603812121786177E-004;
2.417333333333334E+009;1.520778089761734E-001;-7.583394646644592E-002;3.676260821521282E-003;-6.732877227477729E-004;
2.417500000000000E+009;1.514426916837692E-001;-7.791198790073395E-002;3.392579965293407E-003;-6.546415388584137E-004;
2.417666666666667E+009;1.509784907102585E-001;-7.960174232721329E-002;3.660762682557106E-003;-7.815487333573401E-004;
2.417833333333334E+009;1.506408900022507E-001;-8.146490901708603E-002;3.428832395002246E-003;-9.252906893379986E-004;
2.418000000000000E+009;1.501379460096359E-001;-8.346176147460938E-002;3.396002808585763E-003;-1.103168935514987E-003;
2.418166666666667E+009;1.498236358165741E-001;-8.496510982513428E-002;3.165545640513301E-003;-1.014164998196065E-003;
2.418333333333334E+009;1.499830186367035E-001;-8.677890896797180E-002;3.074241802096367E-003;-1.059127855114639E-003;
2.418500000000000E+009;1.495857983827591E-001;-8.837099373340607E-002;3.143756883218885E-003;-1.298119779676199E-003;
2.418666666666667E+009;1.496924608945847E-001;-8.986053615808487E-002;3.036956069990993E-003;-1.229673624038696E-003;
2.418833333333334E+009;1.493375450372696E-001;-9.149317443370819E-002;2.979409415274859E-003;-1.393838319927454E-003;
2.419000000000000E+009;1.494626253843308E-001;-9.277718514204025E-002;2.856937237083912E-003;-1.430179225280881E-003;
2.419166666666667E+009;1.495296061038971E-001;-9.394454956054688E-002;2.717897295951843E-003;-1.381355454213917E-003;
2.419333333333334E+009;1.494040936231613E-001;-9.497224539518356E-002;2.729606814682484E-003;-1.421368448063731E-003;
2.419500000000000E+009;1.496559679508209E-001;-9.616351872682571E-002;2.657719887793064E-003;-1.405572635121644E-003;
2.419666666666667E+009;1.498715877532959E-001;-9.713090211153030E-002;2.558168955147266E-003;-1.429058262147009E-003;
2.419833333333334E+009;1.499101668596268E-001;-9.780742228031158E-002;2.616321202367544E-003;-1.576461596414447E-003;
2.420000000000000E+009;1.502251327037811E-001;-9.841670840978622E-002;2.433779183775187E-003;-1.560216885991395E-003;
2.420166666666667E+009;1.505134403705597E-001;-9.912330657243729E-002;2.442514756694436E-003;-1.496259239502251E-003;
2.420333333333334E+009;1.509290337562561E-001;-9.951500594615936E-002;2.326346468180418E-003;-1.548202359117568E-003;
2.420500000000000E+009;1.511578559875488E-001;-9.977349638938904E-002;2.356991404667497E-003;-1.531236921437085E-003;
2.420666666666667E+009;1.512922942638397E-001;-1.000029072165489E-001;2.458837348967791E-003;-1.470951596274972E-003;
2.420833333333334E+009;1.516911387443543E-001;-1.003652513027191E-001;2.404485363513231E-003;-1.549204229377210E-003;
2.421000000000000E+009;1.517391055822372E-001;-1.005285978317261E-001;2.535049570724368E-003;-1.570587628521025E-003;
2.421166666666667E+009;1.519142836332321E-001;-1.002979874610901E-001;2.666231710463762E-003;-1.517968368716538E-003;
2.421333333333334E+009;1.522648036479950E-001;-1.004272922873497E-001;2.567316405475140E-003;-1.749927410855889E-003;
2.421500000000000E+009;1.522131860256195E-001;-1.002694666385651E-001;2.623201115056872E-003;-1.642581191845238E-003;
2.421666666666667E+009;1.523345261812210E-001;-1.000500991940498E-001;2.667378168553114E-003;-1.732965349219739E-003;
2.421833333333334E+009;1.523287594318390E-001;-9.974010288715363E-002;2.815307350829244E-003;-2.073592972010374E-003;
2.422000000000000E+009;1.520476341247559E-001;-9.957895427942276E-002;2.728686435148120E-003;-2.229123376309872E-003;
2.422166666666667E+009;1.519000828266144E-001;-9.950394928455353E-002;2.959927776828408E-003;-2.287375507876277E-003;
2.422333333333334E+009;1.515312939882278E-001;-9.914029389619827E-002;2.777886111289263E-003;-2.553252270445228E-003;
2.422500000000000E+009;1.510060727596283E-001;-9.877938032150269E-002;2.907071728259325E-003;-2.749630482867360E-003;
2.422666666666667E+009;1.503620594739914E-001;-9.858298301696777E-002;2.796955872327089E-003;-2.921036910265684E-003;
2.422833333333334E+009;1.498324275016785E-001;-9.823699295520783E-002;2.658459125086665E-003;-3.169956849887967E-003;
2.423000000000000E+009;1.490466594696045E-001;-9.787583351135254E-002;2.555473009124398E-003;-3.310082713142037E-003;
2.423166666666667E+009;1.483558118343353E-001;-9.758823364973068E-002;2.454951172694564E-003;-3.645388642325997E-003;
2.423333333333334E+009;1.474309116601944E-001;-9.717373549938202E-002;2.276330022141337E-003;-3.719237400218844E-003;
2.423500000000000E+009;1.462295204401016E-001;-9.696561098098755E-002;1.946439850144088E-003;-3.944390453398228E-003;
2.423666666666667E+009;1.449490189552307E-001;-9.674330800771713E-002;1.792708644643426E-003;-3.961140755563974E-003;
2.423833333333334E+009;1.439607888460159E-001;-9.653912484645844E-002;1.533848466351628E-003;-4.160372074693441E-003;
2.424000000000000E+009;1.427411735057831E-001;-9.617424011230469E-002;1.405517454259098E-003;-4.256055690348148E-003;
2.424166666666667E+009;1.412345319986343E-001;-9.610973298549652E-002;1.018851762637496E-003;-4.395520314574242E-003;
2.424333333333334E+009;1.400030404329300E-001;-9.594514966011047E-002;9.170266566798091E-004;-4.420862067490816E-003;
2.424500000000000E+009;1.384757459163666E-001;-9.619408845901489E-002;6.764462450519204E-004;-4.171609878540039E-003;
2.424666666666667E+009;1.372433453798294E-001;-9.609359502792358E-002;2.788798883557320E-004;-4.334096331149340E-003;
2.424833333333334E+009;1.354761272668839E-001;-9.640192985534668E-002;1.842169876908884E-004;-4.174655303359032E-003;
2.425000000000000E+009;1.341824382543564E-001;-9.683658927679062E-002;-6.606339593417943E-005;-4.087917041033506E-003;
2.425166666666667E+009;1.324532181024551E-001;-9.714526683092117E-002;-2.880813553929329E-004;-4.173201974481344E-003;
2.425333333333334E+009;1.311490386724472E-001;-9.763687849044800E-002;-6.363787688314915E-004;-4.026512615382671E-003;
2.425500000000000E+009;1.297730356454849E-001;-9.831327944993973E-002;-4.453825531527400E-004;-3.864576341584325E-003;
2.425666666666667E+009;1.281843632459641E-001;-9.908101707696915E-002;-7.487302063964307E-004;-3.897513030096889E-003;
2.425833333333334E+009;1.267579197883606E-001;-9.995292127132416E-002;-9.540696046315134E-004;-3.659990848973393E-003;
2.426000000000000E+009;1.253903657197952E-001;-1.010373160243034E-001;-1.003949670121074E-003;-3.524972824379802E-003;
2.426166666666667E+009;1.242062523961067E-001;-1.021050810813904E-001;-1.106114708818495E-003;-3.251028014346957E-003;
2.426333333333334E+009;1.227628067135811E-001;-1.032487377524376E-001;-1.233788556419313E-003;-3.128153970465064E-003;
2.426500000000000E+009;1.215376481413841E-001;-1.044703051447868E-001;-1.241000718437135E-003;-3.055290551856160E-003;
2.426666666666667E+009;1.204817816615105E-001;-1.058433353900909E-001;-1.340547809377313E-003;-2.927544992417097E-003;
2.426833333333334E+009;1.192761734127998E-001;-1.073166057467461E-001;-1.177755417302251E-003;-2.922470914199948E-003;
2.427000000000000E+009;1.183051615953445E-001;-1.089974194765091E-001;-1.401585177518427E-003;-2.726526930928230E-003;
2.427166666666667E+009;1.172190010547638E-001;-1.103577837347984E-001;-1.320670242421329E-003;-2.627865644171834E-003;
2.427333333333334E+009;1.163149625062943E-001;-1.120692640542984E-001;-1.462360494770110E-003;-2.438674448058009E-003;
2.427500000000000E+009;1.155777499079704E-001;-1.138216257095337E-001;-1.173365861177445E-003;-2.403961727395654E-003;
2.427666666666667E+009;1.147000193595886E-001;-1.155136376619339E-001;-1.239382196217775E-003;-2.338981023058295E-003;
