# Version 1.00
#
freq[Hz];re:Trc1_S11;im:Trc1_S11;re:Trc2_S21;im:Trc2_S21;
2.400000000000000E+009;1.573530137538910E-001;6.301509588956833E-002;-2.486020559445024E-003;-1.201284583657980E-003;
2.400166666666667E+009;1.572781503200531E-001;6.135435402393341E-002;-2.421774202957749E-003;-1.110070385038853E-003;
2.400333333333334E+009;1.571063101291657E-001;5.938661471009255E-002;-2.423871541395783E-003;-1.104067778214812E-003;
2.400500000000000E+009;1.572063565254211E-001;5.752847343683243E-002;-2.190293511375785E-003;-1.007389160804451E-003;
2.400666666666667E+009;1.570724546909332E-001;5.541754513978958E-002;-2.237837295979261E-003;-9.489759104326367E-004;
2.400833333333334E+009;1.574825793504715E-001;5.328494310379028E-002;-2.229874953627586E-003;-9.886231273412705E-004;
2.401000000000000E+009;1.573942899703980E-001;5.136361718177795E-002;-2.313501434400678E-003;-1.021155156195164E-003;
2.401166666666667E+009;1.576550900936127E-001;4.900101944804192E-002;-2.236290369182825E-003;-7.986256969161332E-004;
2.401333333333334E+009;1.578234732151032E-001;4.698134586215019E-002;-2.238302491605282E-003;-1.058106427080929E-003;
2.401500000000000E+009;1.582675278186798E-001;4.505145922303200E-002;-2.263435395434499E-003;-9.424000745639205E-004;
2.401666666666667E+009;1.586681455373764E-001;4.283851385116577E-002;-2.282363595440984E-003;-9.180214256048203E-004;
2.401833333333334E+009;1.589732617139816E-001;4.086701944470406E-002;-2.262050984427333E-003;-7.295442628674209E-004;
2.402000000000000E+009;1.594210863113403E-001;3.886049240827560E-002;-2.437255810946226E-003;-7.010649424046278E-004;
2.402166666666667E+009;1.599136143922806E-001;3.693431615829468E-002;-2.303557470440865E-003;-6.908377399668098E-004;
2.402333333333334E+009;1.604876667261124E-001;3.491802886128426E-002;-2.586139831691980E-003;-6.696478812955320E-004;
2.402500000000000E+009;1.614384502172470E-001;3.312613815069199E-002;-2.380111254751682E-003;-5.847451975569129E-004;
2.402666666666667E+009;1.619459688663483E-001;3.130443021655083E-002;-2.444642130285502E-003;-7.023928919807077E-004;
2.402833333333334E+009;1.628757119178772E-001;2.959346026182175E-002;-2.539567649364471E-003;-6.236411281861365E-004;
2.403000000000000E+009;1.637894362211227E-001;2.800193056464195E-002;-2.637564903125167E-003;-5.306456005200744E-004;
2.403166666666667E+009;1.647423654794693E-001;2.634459920227528E-002;-2.708941232413054E-003;-6.550814723595977E-004;
2.403333333333334E+009;1.656099110841751E-001;2.503723651170731E-002;-2.750386018306017E-003;-4.388658271636814E-004;
2.403500000000000E+009;1.665056645870209E-001;2.362568862736225E-002;-2.856114646419883E-003;-3.621902142185718E-004;
2.403666666666667E+009;1.676659584045410E-001;2.230486273765564E-002;-2.925624605268240E-003;-2.485788718331605E-004;
2.403833333333334E+009;1.686159372329712E-001;2.116490341722965E-002;-2.932199742645025E-003;-2.547169569879770E-004;
2.404000000000000E+009;1.696532070636749E-001;1.988564990460873E-002;-3.028957638889551E-003;-2.617969585116953E-004;
2.404166666666667E+009;1.704894900321960E-001;1.870977692306042E-002;-3.000338561832905E-003;1.015345696941949E-004;
2.404333333333334E+009;1.714409887790680E-001;1.787891797721386E-002;-3.113512648269534E-003;1.378912274958566E-004;
2.404500000000000E+009;1.725006699562073E-001;1.681048236787319E-002;-2.927459310740233E-003;1.774890988599509E-004;
2.404666666666667E+009;1.735656857490540E-001;1.591602712869644E-002;-3.031725296750665E-003;5.072278436273336E-004;
2.404833333333334E+009;1.744202077388763E-001;1.522663887590170E-002;-2.957712393254042E-003;5.247676162980497E-004;
2.405000000000000E+009;1.753398180007935E-001;1.452826242893934E-002;-2.968456130474806E-003;6.591684650629759E-004;
2.405166666666667E+009;1.761475503444672E-001;1.400755625218153E-002;-3.038803348317742E-003;8.787570986896753E-004;
2.405333333333334E+009;1.770331263542175E-001;1.328400522470474E-002;-2.950611291453242E-003;1.026923768222332E-003;
2.405500000000000E+009;1.777776330709457E-001;1.295820344239473E-002;-2.909416798502207E-003;8.949278271757066E-004;
2.405666666666667E+009;1.784102916717529E-001;1.251908950507641E-002;-2.819164656102657E-003;1.047710189595819E-003;
2.405833333333334E+009;1.789273917675018E-001;1.222420763224363E-002;-2.777338959276676E-003;1.123351277783513E-003;
2.406000000000000E+009;1.795212477445602E-001;1.177517510950565E-002;-2.786538330838084E-003;1.328573911450803E-003;
2.406166666666667E+009;1.798907071352005E-001;1.171270012855530E-002;-2.493595937266946E-003;1.288618659600616E-003;
2.406333333333334E+009;1.804750710725784E-001;1.126291323453188E-002;-2.540830289945006E-003;1.550007960759103E-003;
2.406500000000000E+009;1.807709187269211E-001;1.101598981767893E-002;-2.414280548691750E-003;1.465355278924108E-003;
2.406666666666667E+009;1.807296276092529E-001;1.079698372632265E-002;-2.363159786909819E-003;1.607876038178802E-003;
2.406833333333334E+009;1.809795796871185E-001;1.042079925537109E-002;-2.229972509667277E-003;1.735288067720830E-003;
2.407000000000000E+009;1.810540258884430E-001;1.002500671893358E-002;-2.111601177603006E-003;1.525024068541825E-003;
2.407166666666667E+009;1.811279058456421E-001;9.783158078789711E-003;-2.015698933973908E-003;1.773463445715606E-003;
2.407333333333334E+009;1.807034313678742E-001;9.377884678542614E-003;-1.941323396749795E-003;1.834089984185994E-003;
2.407500000000000E+009;1.805891692638397E-001;9.119594469666481E-003;-1.852131797932088E-003;1.787628745660186E-003;
2.407666666666667E+009;1.803683936595917E-001;8.710247464478016E-003;-1.756519079208374E-003;1.797548960894346E-003;
2.407833333333334E+009;1.798503547906876E-001;7.992071099579334E-003;-1.926531665958464E-003;1.722739427350462E-003;
2.408000000000000E+009;1.794914603233337E-001;7.338180672377348E-003;-1.700000488199294E-003;1.831453526392579E-003;
2.408166666666667E+009;1.790320426225662E-001;6.917421706020832E-003;-1.584784011356533E-003;1.840213313698769E-003;
2.408333333333334E+009;1.787018030881882E-001;6.156318355351687E-003;-1.664278097450733E-003;1.674289349466562E-003;
2.408500000000000E+009;1.779385507106781E-001;5.309294443577528E-003;-1.420171116478741E-003;1.721087144687772E-003;
2.408666666666667E+009;1.774848848581314E-001;4.350010771304369E-003;-1.633776118978858E-003;1.779887243174017E-003;
2.408833333333334E+009;1.766228675842285E-001;3.351383376866579E-003;-1.595594920217991E-003;1.765988301485777E-003;
2.409000000000000E+009;1.759017407894135E-001;2.416300820186734E-003;-1.605851226486266E-003;1.801810110919178E-003;
2.409166666666667E+009;1.754251569509506E-001;1.228079781867564E-003;-1.371220219880343E-003;1.641614828258753E-003;
2.409333333333334E+009;1.746923029422760E-001;-1.329252845607698E-004;-1.535986899398267E-003;1.868204795755446E-003;
2.409500000000000E+009;1.739146858453751E-001;-1.479515107348561E-003;-1.505558961071074E-003;1.700179069302976E-003;
2.409666666666667E+009;1.731261312961578E-001;-2.801828319206834E-003;-1.486686756834388E-003;1.762494794093072E-003;
2.409833333333334E+009;1.724621802568436E-001;-4.179772920906544E-003;-1.462761894799769E-003;1.826668623834848E-003;
2.410000000000000E+009;1.719105839729309E-001;-5.951622035354376E-003;-1.534785144031048E-003;1.948456978425384E-003;
2.410166666666667E+009;1.711351424455643E-001;-7.403177674859762E-003;-1.604146091267467E-003;2.018388593569398E-003;
2.410333333333334E+009;1.704663783311844E-001;-9.190291166305542E-003;-1.550606568343937E-003;2.094789175316691E-003;
2.410500000000000E+009;1.699555814266205E-001;-1.096733007580042E-002;-1.601924304850400E-003;2.085459884256125E-003;
2.410666666666667E+009;1.694493293762207E-001;-1.289341133087874E-002;-1.546447165310383E-003;2.152699977159500E-003;
2.410833333333334E+009;1.691673547029495E-001;-1.465290784835815E-002;-1.561192562803626E-003;2.244766103103757E-003;
2.411000000000000E+009;1.685933023691177E-001;-1.644117757678032E-002;-1.465600100345910E-003;2.460865303874016E-003;
2.411166666666667E+009;1.683060228824616E-001;-1.843525469303131E-002;-1.540105091407895E-003;2.512161387130618E-003;
2.411333333333334E+009;1.680940538644791E-001;-2.036652714014053E-002;-1.279709162190557E-003;2.645845990628004E-003;
2.411500000000000E+009;1.679113060235977E-001;-2.258205600082874E-002;-1.254204311408103E-003;2.729594008997083E-003;
2.411666666666667E+009;1.678887605667114E-001;-2.428510598838329E-002;-1.190394163131714E-003;2.798615954816341E-003;
2.411833333333334E+009;1.677865833044052E-001;-2.632282488048077E-002;-1.266239210963249E-003;2.750381594523788E-003;
2.412000000000000E+009;1.679870188236237E-001;-2.842717245221138E-002;-1.065321033820510E-003;2.969732973724604E-003;
2.412166666666667E+009;1.679115891456604E-001;-3.038541600108147E-002;-1.143766217865050E-003;3.208927577361465E-003;
2.412333333333334E+009;1.685343086719513E-001;-3.219637274742127E-002;-9.129190584644675E-004;3.098730696365237E-003;
2.412500000000000E+009;1.685964614152908E-001;-3.422113135457039E-002;-7.661881390959024E-004;3.135557752102613E-003;
2.412666666666667E+009;1.689005643129349E-001;-3.602218627929688E-002;-6.415235111489892E-004;3.304497804492712E-003;
2.412833333333334E+009;1.694583594799042E-001;-3.809856623411179E-002;-5.030902102589607E-004;3.318151924759150E-003;
2.413000000000000E+009;1.697377711534500E-001;-3.989606350660324E-002;-3.471071249805391E-004;3.334225388243794E-003;
2.413166666666667E+009;1.700672209262848E-001;-4.154165089130402E-002;-1.697552506811917E-004;3.549673128873110E-003;
2.413333333333334E+009;1.706763505935669E-001;-4.327535629272461E-002;-6.685720290988684E-005;3.632349427789450E-003;
2.413500000000000E+009;1.712327748537064E-001;-4.492092505097389E-002;1.159790408564732E-004;3.673242637887597E-003;
2.413666666666667E+009;1.719508171081543E-001;-4.639444127678871E-002;3.443648456595838E-004;3.713072510436177E-003;
2.413833333333334E+009;1.723364442586899E-001;-4.793236777186394E-002;5.279885372146964E-004;3.453602315858007E-003;
2.414000000000000E+009;1.730127781629562E-001;-4.934598132967949E-002;9.113664273172617E-004;3.673587460070849E-003;
2.414166666666667E+009;1.735776662826538E-001;-5.047809705138207E-002;9.686779230833054E-004;3.587914165109396E-003;
2.414333333333334E+009;1.740649491548538E-001;-5.184282734990120E-002;1.230788882821798E-003;3.514968324452639E-003;
2.414500000000000E+009;1.748489588499069E-001;-5.285356566309929E-002;1.195037737488747E-003;3.386250929906964E-003;
2.414666666666667E+009;1.752583384513855E-001;-5.389380827546120E-002;1.655449043028057E-003;3.381792921572924E-003;
2.414833333333334E+009;1.758377552032471E-001;-5.487216264009476E-002;1.702920068055391E-003;3.241639584302902E-003;
2.415000000000000E+009;1.763158291578293E-001;-5.561973527073860E-002;1.718654995784164E-003;3.329668659716845E-003;
2.415166666666667E+009;1.767635643482208E-001;-5.638880655169487E-002;1.850628643296659E-003;3.099959343671799E-003;
2.415333333333334E+009;1.772550344467163E-001;-5.726626142859459E-002;2.103917067870498E-003;2.822277368977666E-003;
2.415500000000000E+009;1.776987314224243E-001;-5.767337605357170E-002;2.291422802954912E-003;2.779957139864564E-003;
2.415666666666667E+009;1.777411848306656E-001;-5.803425982594490E-002;2.430762164294720E-003;2.652073279023171E-003;
2.415833333333334E+009;1.780851334333420E-001;-5.870080739259720E-002;2.544692950323224E-003;2.453546738252044E-003;
2.416000000000000E+009;1.779177635908127E-001;-5.907593294978142E-002;2.415755763649941E-003;2.268568146973848E-003;
2.416166666666667E+009;1.782618016004562E-001;-5.927774682641029E-002;2.668101806193590E-003;2.169591840356588E-003;
2.416333333333334E+009;1.781674772500992E-001;-5.971469357609749E-002;2.547151409089565E-003;2.066968474537134E-003;
2.416500000000000E+009;1.781256347894669E-001;-5.992799624800682E-002;2.645032247528434E-003;1.739554572850466E-003;
2.416666666666667E+009;1.779267489910126E-001;-6.008831411600113E-002;2.737704664468765E-003;1.760286511853337E-003;
2.416833333333334E+009;1.776236593723297E-001;-6.040686741471291E-002;2.631967188790441E-003;1.574843772687018E-003;
2.417000000000000E+009;1.771690100431442E-001;-6.048531085252762E-002;2.707213163375855E-003;1.361430156975985E-003;
2.417166666666667E+009;1.767499595880508E-001;-6.067698821425438E-002;2.702258992940188E-003;1.225752755999565E-003;
2.417333333333334E+009;1.761832833290100E-001;-6.089076399803162E-002;2.609498566016555E-003;1.084113726392388E-003;
2.417500000000000E+009;1.755347400903702E-001;-6.120445579290390E-002;2.675830153748393E-003;1.080136746168137E-003;
2.417666666666667E+009;1.748544722795487E-001;-6.123575195670128E-002;2.446202328428626E-003;7.845310610719025E-004;
2.417833333333334E+009;1.739511787891388E-001;-6.138223409652710E-002;2.520613605156541E-003;6.123325438238680E-004;
2.418000000000000E+009;1.730810105800629E-001;-6.182178109884262E-002;2.456826623529196E-003;7.141536334529519E-004;
2.418166666666667E+009;1.720009297132492E-001;-6.202220916748047E-002;2.328902948647738E-003;7.752620731480420E-004;
2.418333333333334E+009;1.711990237236023E-001;-6.251031905412674E-002;2.334492281079292E-003;4.630507610272616E-004;
2.418500000000000E+009;1.700109541416168E-001;-6.280735880136490E-002;2.140076598152518E-003;4.112487658858299E-004;
2.418666666666667E+009;1.690000593662262E-001;-6.331580132246018E-002;2.342598047107458E-003;3.322170814499259E-004;
2.418833333333334E+009;1.677500605583191E-001;-6.392745673656464E-002;2.134313574060798E-003;4.906529793515801E-004;
2.419000000000000E+009;1.665212363004684E-001;-6.437895447015762E-002;1.954109175130725E-003;2.962961152661592E-004;
2.419166666666667E+009;1.653458178043366E-001;-6.514488905668259E-002;2.090729773044586E-003;1.509405992692336E-004;
2.419333333333334E+009;1.638769656419754E-001;-6.567695736885071E-002;1.919987611472607E-003;4.436524468474090E-004;
2.419500000000000E+009;1.628156751394272E-001;-6.669878214597702E-002;2.045312430709600E-003;3.446660994086415E-004;
2.419666666666667E+009;1.617359071969986E-001;-6.755328178405762E-002;2.024190966039896E-003;2.684788487385958E-004;
2.419833333333334E+009;1.603778749704361E-001;-6.848951429128647E-002;1.967944437637925E-003;3.287693252786994E-004;
2.420000000000000E+009;1.592654883861542E-001;-6.954020261764526E-002;1.805912004783750E-003;3.232163435313851E-004;
2.420166666666667E+009;1.581838130950928E-001;-7.084260135889053E-002;1.994113205000758E-003;3.676492488011718E-004;
2.420333333333334E+009;1.570589393377304E-001;-7.207904756069183E-002;1.995456172153354E-003;3.454663965385407E-004;
2.420500000000000E+009;1.562687158584595E-001;-7.300996035337448E-002;1.897789072245359E-003;3.653424791991711E-004;
2.420666666666667E+009;1.551018804311752E-001;-7.442884892225266E-002;1.936673419550061E-003;2.583626774139702E-004;
2.420833333333334E+009;1.542376428842545E-001;-7.599847763776779E-002;1.959281973540783E-003;3.247119893785566E-004;
2.421000000000000E+009;1.532908976078033E-001;-7.751812040805817E-002;2.071488881483674E-003;3.208499983884394E-004;
2.421166666666667E+009;1.526302546262741E-001;-7.896839827299118E-002;2.091361442580819E-003;4.087873676326126E-004;
2.421333333333334E+009;1.519614309072495E-001;-8.072855323553085E-002;2.075715921819210E-003;2.484614378772676E-004;
2.421500000000000E+009;1.512360870838165E-001;-8.229321241378784E-002;2.132077701389790E-003;2.116128016496077E-004;
2.421666666666667E+009;1.507819741964340E-001;-8.398230373859406E-002;2.248878125101328E-003;1.531781017547473E-004;
2.421833333333334E+009;1.503249257802963E-001;-8.571648597717285E-002;2.109244698658586E-003;5.511568451765925E-005;
2.422000000000000E+009;1.499977707862854E-001;-8.734729886054993E-002;2.089054323732853E-003;-3.911605017492548E-005;
2.422166666666667E+009;1.497238427400589E-001;-8.918136358261108E-002;2.339639002457261E-003;-1.635312801226974E-004;
2.422333333333334E+009;1.495349109172821E-001;-9.077958017587662E-002;2.463409909978509E-003;-1.761531166266650E-004;
2.422500000000000E+009;1.495853811502457E-001;-9.253373742103577E-002;2.406892832368612E-003;-1.820540637709200E-004;
2.422666666666667E+009;1.494630575180054E-001;-9.450103342533112E-002;2.447995822876692E-003;-2.365824911976233E-004;
2.422833333333334E+009;1.494968384504318E-001;-9.617959707975388E-002;2.403248334303498E-003;-5.405616830103099E-004;
2.423000000000000E+009;1.496125310659409E-001;-9.771534800529480E-002;2.383437706157565E-003;-4.650690243579447E-004;
2.423166666666667E+009;1.498337835073471E-001;-9.932466596364975E-002;2.461252966895700E-003;-6.567034870386124E-004;
2.423333333333334E+009;1.502390503883362E-001;-1.008573248982430E-001;2.371902344748378E-003;-6.943278131075203E-004;
2.423500000000000E+009;1.505941003561020E-001;-1.025698110461235E-001;2.434770809486508E-003;-8.526773890480399E-004;
2.423666666666667E+009;1.507830917835236E-001;-1.041163802146912E-001;2.352412091568112E-003;-8.223014883697033E-004;
2.423833333333334E+009;1.513783037662506E-001;-1.054588705301285E-001;2.159719355404377E-003;-1.037365873344243E-003;
2.424000000000000E+009;1.516539156436920E-001;-1.066710799932480E-001;2.351722214370966E-003;-1.049723941832781E-003;
2.424166666666667E+009;1.521215736865997E-001;-1.080973520874977E-001;2.246999181807041E-003;-1.207880559377372E-003;
2.424333333333334E+009;1.528612375259399E-001;-1.091990694403648E-001;2.225607167929411E-003;-1.377593842335045E-003;
2.424500000000000E+009;1.531971693038940E-001;-1.104954630136490E-001;2.135124057531357E-003;-1.360104768536985E-003;
2.424666666666667E+009;1.538091301918030E-001;-1.112632453441620E-001;2.003763802349567E-003;-1.390741672366858E-003;
2.424833333333334E+009;1.541587263345718E-001;-1.124724596738815E-001;2.000918379053474E-003;-1.429841271601617E-003;
2.425000000000000E+009;1.547490209341049E-001;-1.133296117186546E-001;1.722537330351770E-003;-1.421877299435437E-003;
2.425166666666667E+009;1.550173461437225E-001;-1.140878424048424E-001;1.708433032035828E-003;-1.656073844060302E-003;
2.425333333333334E+009;1.555191874504089E-001;-1.148216873407364E-001;1.556534902192652E-003;-1.571201486513019E-003;
2.425500000000000E+009;1.559491157531738E-001;-1.155234351754189E-001;1.644941978156567E-003;-1.618797192350030E-003;
2.425666666666667E+009;1.561331003904343E-001;-1.160777211189270E-001;1.445282017812133E-003;-1.707256422378123E-003;
2.425833333333334E+009;1.564572006464005E-001;-1.165219992399216E-001;1.263958169147372E-003;-1.654409337788820E-003;
2.426000000000000E+009;1.566279679536820E-001;-1.170705333352089E-001;1.318479073233903E-003;-1.738840830512345E-003;
2.426166666666667E+009;1.568188369274139E-001;-1.174855008721352E-001;1.284244353882968E-003;-1.615248038433492E-003;
2.426333333333334E+009;1.568797826766968E-001;-1.176418364048004E-001;9.519422892481089E-004;-1.732907840050757E-003;
2.426500000000000E+009;1.568510383367539E-001;-1.178712472319603E-001;9.634700254537165E-004;-1.698594191111624E-003;
2.426666666666667E+009;1.568927317857742E-001;-1.178397685289383E-001;1.025966368615627E-003;-1.776185585185885E-003;
2.426833333333334E+009;1.567000299692154E-001;-1.181671917438507E-001;9.824231965467334E-004;-1.564611797221005E-003;
2.427000000000000E+009;1.563232243061066E-001;-1.184000745415688E-001;1.052948413416743E-003;-1.720720669254661E-003;
2.427166666666667E+009;1.560048609972000E-001;-1.183391809463501E-001;7.730060024186969E-004;-1.543307793326676E-003;
2.427333333333334E+009;1.554039269685745E-001;-1.184301152825356E-001;8.209134102798998E-004;-1.329048885963857E-003;
2.427500000000000E+009;1.549459397792816E-001;-1.185486763715744E-001;7.113402243703604E-004;-1.391674508340657E-003;
2.427666666666667E+009;1.543231755495071E-001;-1.187156960368156E-001;5.864353734068573E-004;-1.473855460062623E-003;
2.427833333333334E+009;1.532755196094513E-001;-1.186779886484146E-001;7.469927077181637E-004;-1.488776644691825E-003;
