# Version 1.00
#
freq[Hz];re:Trc1_S11;im:Trc1_S11;re:Trc2_S21;im:Trc2_S21;
2.400000000000000E+009;1.573394387960434E-001;6.296157836914063E-002;-2.276068320497870E-003;-1.091935089789331E-003;
2.400166666666667E+009;1.572267860174179E-001;6.137804314494133E-002;-2.281159861013293E-003;-9.864909807220101E-004;
2.400333333333334E+009;1.571768075227737E-001;5.952180176973343E-002;-2.300484338775277E-003;-1.024912460707128E-003;
2.400500000000000E+009;1.571989208459854E-001;5.745454505085945E-002;-2.205521101132035E-003;-1.051031053066254E-003;
2.400666666666667E+009;1.570208668708801E-001;5.531156808137894E-002;-2.239779336377978E-003;-1.056236098520458E-003;
2.400833333333334E+009;1.572470068931580E-001;5.352322384715080E-002;-2.203647047281265E-003;-9.613750735297799E-004;
2.401000000000000E+009;1.574869155883789E-001;5.126408487558365E-002;-2.383219776675105E-003;-9.546194341965020E-004;
2.401166666666667E+009;1.575182974338532E-001;4.923529177904129E-002;-2.175580710172653E-003;-8.572589722461999E-004;
2.401333333333334E+009;1.578109115362167E-001;4.715276136994362E-002;-2.180385868996382E-003;-1.015611458569765E-003;
2.401500000000000E+009;1.581479460000992E-001;4.505214095115662E-002;-2.281406894326210E-003;-9.095846908167005E-004;
2.401666666666667E+009;1.585296690464020E-001;4.302162304520607E-002;-2.263891976326704E-003;-1.076705055311322E-003;
2.401833333333334E+009;1.589669585227966E-001;4.083593189716339E-002;-2.357815159484744E-003;-9.302169200964272E-004;
2.402000000000000E+009;1.593719124794006E-001;3.889478743076325E-002;-2.375283278524876E-003;-9.181834757328033E-004;
2.402166666666667E+009;1.600322276353836E-001;3.682358190417290E-002;-2.371662529185414E-003;-8.760999189689755E-004;
2.402333333333334E+009;1.605685949325562E-001;3.495115786790848E-002;-2.490794053301215E-003;-8.007520809769630E-004;
2.402500000000000E+009;1.614171564579010E-001;3.332839161157608E-002;-2.506517572328448E-003;-7.597659132443368E-004;
2.402666666666667E+009;1.622135788202286E-001;3.145832568407059E-002;-2.389235189184547E-003;-7.315202965401113E-004;
2.402833333333334E+009;1.628368645906448E-001;2.975934930145741E-002;-2.497682813555002E-003;-6.637162296101451E-004;
2.403000000000000E+009;1.636902838945389E-001;2.790812589228153E-002;-2.600396517664194E-003;-8.333596633747220E-004;
2.403166666666667E+009;1.647506803274155E-001;2.647655270993710E-002;-2.568348776549101E-003;-5.172592937014997E-004;
2.403333333333334E+009;1.656984090805054E-001;2.522981725633144E-002;-2.642507897689939E-003;-4.874439910054207E-004;
2.403500000000000E+009;1.664609909057617E-001;2.372616156935692E-002;-2.681230427697301E-003;-2.771558065433055E-004;
2.403666666666667E+009;1.674352139234543E-001;2.232237160205841E-002;-2.860398730263114E-003;-4.292383382562548E-004;
2.403833333333334E+009;1.686600446701050E-001;2.104111760854721E-002;-2.762630116194487E-003;-2.048134192591533E-004;
2.404000000000000E+009;1.696759015321732E-001;1.982929930090904E-002;-3.069589613005519E-003;-2.352859301026911E-004;
2.404166666666667E+009;1.706127971410751E-001;1.881320215761662E-002;-3.077073022723198E-003;-1.511244336143136E-004;
2.404333333333334E+009;1.714931279420853E-001;1.771294698119164E-002;-2.906911307945848E-003;1.116426356020384E-004;
2.404500000000000E+009;1.724340766668320E-001;1.678681559860706E-002;-3.112664213404059E-003;1.806226355256513E-004;
2.404666666666667E+009;1.736272722482681E-001;1.606277190148830E-002;-3.022299148142338E-003;3.952692786697298E-004;
2.404833333333334E+009;1.743191927671433E-001;1.532640028744936E-002;-2.990921959280968E-003;4.304016765672714E-004;
2.405000000000000E+009;1.752327978610992E-001;1.472217217087746E-002;-3.131076460704207E-003;5.920899566262960E-004;
2.405166666666667E+009;1.760769486427307E-001;1.401581987738609E-002;-2.926847897469997E-003;6.860189023427665E-004;
2.405333333333334E+009;1.771355718374252E-001;1.326335966587067E-002;-3.037702292203903E-003;8.189944201149046E-004;
2.405500000000000E+009;1.777140796184540E-001;1.301469933241606E-002;-2.819207962602377E-003;9.845384629443288E-004;
2.405666666666667E+009;1.783638298511505E-001;1.241678185760975E-002;-2.817074069753289E-003;1.023670309223235E-003;
2.405833333333334E+009;1.788544952869415E-001;1.212292537093163E-002;-2.673572627827525E-003;1.228654407896102E-003;
2.406000000000000E+009;1.794890463352203E-001;1.174871064722538E-002;-2.560720080509782E-003;1.348865684121847E-003;
2.406166666666667E+009;1.797546148300171E-001;1.164920721203089E-002;-2.541506662964821E-003;1.257346244528890E-003;
2.406333333333334E+009;1.803600341081619E-001;1.124637294560671E-002;-2.394649665802717E-003;1.503911800682545E-003;
2.406500000000000E+009;1.805704981088638E-001;1.098243612796068E-002;-2.358271041885018E-003;1.554602175019682E-003;
2.406666666666667E+009;1.804993450641632E-001;1.074907649308443E-002;-2.324350643903017E-003;1.709587639197707E-003;
2.406833333333334E+009;1.807728707790375E-001;1.048559974879026E-002;-2.169114537537098E-003;1.824273378588259E-003;
2.407000000000000E+009;1.809255033731461E-001;1.020570192486048E-002;-2.135257935151458E-003;1.709780422970653E-003;
2.407166666666667E+009;1.810276955366135E-001;9.906755760312080E-003;-2.045606728643179E-003;1.807669294066727E-003;
2.407333333333334E+009;1.806655079126358E-001;9.470502845942974E-003;-1.790806534700096E-003;1.686989213339984E-003;
2.407500000000000E+009;1.805917918682098E-001;9.127018973231316E-003;-1.894471701234579E-003;1.789194182492793E-003;
2.407666666666667E+009;1.803033351898193E-001;8.490053936839104E-003;-1.788918976671994E-003;1.612649182789028E-003;
2.407833333333334E+009;1.798062473535538E-001;8.006064221262932E-003;-1.876495429314673E-003;1.798747573047876E-003;
2.408000000000000E+009;1.794063895940781E-001;7.546419743448496E-003;-1.777031342498958E-003;1.603348529897630E-003;
2.408166666666667E+009;1.790390461683273E-001;6.900284439325333E-003;-1.639223308302462E-003;1.692504272796214E-003;
2.408333333333334E+009;1.786638498306274E-001;6.116149015724659E-003;-1.621350878849626E-003;1.686700386926532E-003;
2.408500000000000E+009;1.779645234346390E-001;5.366174969822168E-003;-1.545803388580680E-003;1.758372993208468E-003;
2.408666666666667E+009;1.772318184375763E-001;4.331538919359446E-003;-1.495754928328097E-003;1.739948522299528E-003;
2.408833333333334E+009;1.766204386949539E-001;3.487081732600927E-003;-1.546606654301286E-003;1.703318674117327E-003;
2.409000000000000E+009;1.759622097015381E-001;2.497637411579490E-003;-1.483207102864981E-003;1.812564209103584E-003;
2.409166666666667E+009;1.752441823482513E-001;1.074981642886996E-003;-1.735353260301054E-003;1.633868436329067E-003;
2.409333333333334E+009;1.745163500308991E-001;-6.418427801690996E-005;-1.569129759445787E-003;1.670082914642990E-003;
2.409500000000000E+009;1.738748252391815E-001;-1.435393583960831E-003;-1.624733093194664E-003;1.808229601010680E-003;
2.409666666666667E+009;1.731903254985809E-001;-2.893977100029588E-003;-1.602140371687710E-003;1.908092875964940E-003;
2.409833333333334E+009;1.723383814096451E-001;-4.241284914314747E-003;-1.539678778499365E-003;1.825210754759610E-003;
2.410000000000000E+009;1.717544198036194E-001;-5.709525197744370E-003;-1.472676522098482E-003;1.810991088859737E-003;
2.410166666666667E+009;1.711050719022751E-001;-7.435040548443794E-003;-1.570496358908713E-003;1.947592012584209E-003;
2.410333333333334E+009;1.704261004924774E-001;-8.995060808956623E-003;-1.610870822332799E-003;2.032857388257980E-003;
2.410500000000000E+009;1.699769198894501E-001;-1.087711937725544E-002;-1.600432675331831E-003;2.215670654550195E-003;
2.410666666666667E+009;1.693591326475143E-001;-1.292411796748638E-002;-1.649581943638623E-003;2.244937233626843E-003;
2.410833333333334E+009;1.691523790359497E-001;-1.442657411098480E-002;-1.597932772710919E-003;2.220504218712449E-003;
2.411000000000000E+009;1.685612201690674E-001;-1.659571938216686E-002;-1.475665136240423E-003;2.386301755905151E-003;
2.411166666666667E+009;1.682473123073578E-001;-1.847781985998154E-002;-1.523942337371409E-003;2.440053271129727E-003;
2.411333333333334E+009;1.680846512317658E-001;-2.024890296161175E-002;-1.401536283083260E-003;2.493383130058646E-003;
2.411500000000000E+009;1.678739190101624E-001;-2.241749130189419E-002;-1.410763827152550E-003;2.583432011306286E-003;
2.411666666666667E+009;1.679451614618301E-001;-2.438507974147797E-002;-1.261983066797257E-003;2.815671730786562E-003;
2.411833333333334E+009;1.679388135671616E-001;-2.622480317950249E-002;-1.278290990740061E-003;2.845523180440068E-003;
2.412000000000000E+009;1.679619997739792E-001;-2.831697091460228E-002;-1.235499745234847E-003;2.793505089357495E-003;
2.412166666666667E+009;1.679854393005371E-001;-3.029276989400387E-002;-1.079358509741724E-003;3.080957569181919E-003;
2.412333333333334E+009;1.682863384485245E-001;-3.216036409139633E-002;-9.161573252640665E-004;3.114939667284489E-003;
2.412500000000000E+009;1.687110811471939E-001;-3.396140411496162E-002;-9.555747965350747E-004;3.216983051970601E-003;
2.412666666666667E+009;1.689334064722061E-001;-3.608548641204834E-002;-6.151102134026587E-004;3.140891436487436E-003;
2.412833333333334E+009;1.693481653928757E-001;-3.790941089391708E-002;-5.733576253987849E-004;3.517164615914226E-003;
2.413000000000000E+009;1.697141081094742E-001;-3.951451554894447E-002;-3.356752858962864E-004;3.402875736355782E-003;
2.413166666666667E+009;1.701126247644424E-001;-4.146473109722138E-002;-2.772533043753356E-004;3.753659548237920E-003;
2.413333333333334E+009;1.706819981336594E-001;-4.321924969553947E-002;-1.091411104425788E-004;3.594150766730309E-003;
2.413500000000000E+009;1.711283177137375E-001;-4.481252655386925E-002;-7.687506149522960E-005;3.672175575047731E-003;
2.413666666666667E+009;1.717316806316376E-001;-4.638480395078659E-002;4.200013645458967E-004;3.539554309099913E-003;
2.413833333333334E+009;1.723351478576660E-001;-4.776302352547646E-002;3.933191183023155E-004;3.418829292058945E-003;
2.414000000000000E+009;1.728093177080154E-001;-4.922559484839439E-002;7.429950637742877E-004;3.682682756334543E-003;
2.414166666666667E+009;1.736336797475815E-001;-5.038157850503922E-002;9.432820370420814E-004;3.658510744571686E-003;
2.414333333333334E+009;1.740465909242630E-001;-5.173051729798317E-002;1.117160194553435E-003;3.666786244139075E-003;
2.414500000000000E+009;1.748211234807968E-001;-5.283139273524284E-002;1.324479700997472E-003;3.449118463322520E-003;
2.414666666666667E+009;1.753767728805542E-001;-5.379449948668480E-002;1.489869086071849E-003;3.494016593322158E-003;
2.414833333333334E+009;1.758349984884262E-001;-5.461815372109413E-002;1.612524618394673E-003;3.317228751257062E-003;
2.415000000000000E+009;1.762139201164246E-001;-5.550020560622215E-002;1.911074388772249E-003;3.226693952456117E-003;
2.415166666666667E+009;1.765957772731781E-001;-5.632885918021202E-002;2.112339250743389E-003;3.146103816106916E-003;
2.415333333333334E+009;1.771239191293716E-001;-5.705393850803375E-002;1.992483856156468E-003;3.040494397282600E-003;
2.415500000000000E+009;1.774762570858002E-001;-5.755839496850967E-002;2.135116606950760E-003;2.843119902536273E-003;
2.415666666666667E+009;1.777411103248596E-001;-5.805207416415215E-002;2.332550240680575E-003;2.704301849007607E-003;
2.415833333333334E+009;1.780608594417572E-001;-5.852828174829483E-002;2.461071824654937E-003;2.426536753773689E-003;
2.416000000000000E+009;1.779792755842209E-001;-5.897659808397293E-002;2.562654437497258E-003;2.292549936100841E-003;
2.416166666666667E+009;1.783345937728882E-001;-5.931304022669792E-002;2.669426612555981E-003;2.178003080189228E-003;
2.416333333333334E+009;1.781705915927887E-001;-5.954683199524880E-002;2.712164074182510E-003;2.015248173847795E-003;
2.416500000000000E+009;1.780380904674530E-001;-5.980577692389488E-002;2.720585791394115E-003;1.967157935723662E-003;
2.416666666666667E+009;1.778822243213654E-001;-6.007556617259979E-002;2.784377196803689E-003;1.726893824525178E-003;
2.416833333333334E+009;1.776185035705566E-001;-6.038980558514595E-002;2.647852757945657E-003;1.673111109994352E-003;
2.417000000000000E+009;1.771866232156754E-001;-6.055809557437897E-002;2.691209549084306E-003;1.488862326368690E-003;
2.417166666666667E+009;1.767194569110870E-001;-6.055069714784622E-002;2.578213810920715E-003;1.270004897378385E-003;
2.417333333333334E+009;1.761416941881180E-001;-6.071604043245316E-002;2.603942761197686E-003;1.104356837458909E-003;
2.417500000000000E+009;1.754955202341080E-001;-6.101351976394653E-002;2.696941839531064E-003;8.751500281505287E-004;
2.417666666666667E+009;1.749027818441391E-001;-6.123661622405052E-002;2.587421098724008E-003;8.013659971766174E-004;
2.417833333333334E+009;1.740381419658661E-001;-6.129128858447075E-002;2.583848079666495E-003;5.939472466707230E-004;
2.418000000000000E+009;1.730627864599228E-001;-6.169965490698814E-002;2.514336025342345E-003;7.231689523905516E-004;
2.418166666666667E+009;1.721904277801514E-001;-6.192969158291817E-002;2.441800199449062E-003;5.809980211779475E-004;
2.418333333333334E+009;1.713819801807404E-001;-6.236119940876961E-002;2.434540539979935E-003;6.005858886055648E-004;
2.418500000000000E+009;1.700819283723831E-001;-6.273790448904038E-002;2.302087610587478E-003;4.432868154253811E-004;
2.418666666666667E+009;1.691424846649170E-001;-6.319454312324524E-002;2.238536253571510E-003;3.857906849589199E-004;
2.418833333333334E+009;1.677894443273544E-001;-6.389256566762924E-002;2.074554329738021E-003;3.562151396181434E-004;
2.419000000000000E+009;1.666569560766220E-001;-6.441739201545715E-002;2.069174312055111E-003;3.642523079179227E-004;
2.419166666666667E+009;1.655326336622238E-001;-6.503047794103622E-002;1.998409861698747E-003;3.799189580604434E-004;
2.419333333333334E+009;1.640644818544388E-001;-6.572055816650391E-002;1.925688469782472E-003;3.402488073334098E-004;
2.419500000000000E+009;1.629234403371811E-001;-6.671249121427536E-002;2.018549712374806E-003;3.084622730966657E-004;
2.419666666666667E+009;1.617444455623627E-001;-6.760498136281967E-002;1.969799399375916E-003;2.545401221141219E-004;
2.419833333333334E+009;1.605129987001419E-001;-6.845543533563614E-002;1.855369424447417E-003;3.201149229425937E-004;
2.420000000000000E+009;1.593073606491089E-001;-6.960060447454453E-002;1.899204333312810E-003;4.265620373189449E-004;
2.420166666666667E+009;1.581900268793106E-001;-7.080330699682236E-002;1.812697504647076E-003;4.883678629994392E-004;
2.420333333333334E+009;1.572324186563492E-001;-7.199893891811371E-002;2.013416495174170E-003;4.087139968760312E-004;
2.420500000000000E+009;1.562287658452988E-001;-7.320554554462433E-002;1.960215857252479E-003;3.506379725877196E-004;
2.420666666666667E+009;1.551166027784348E-001;-7.445147633552551E-002;1.951175858266652E-003;3.528910456225276E-004;
2.420833333333334E+009;1.542588025331497E-001;-7.594054192304611E-002;1.905257231555879E-003;4.086141707375646E-004;
2.421000000000000E+009;1.533058583736420E-001;-7.751930505037308E-002;2.022515283897519E-003;3.514777927193791E-004;
2.421166666666667E+009;1.527407318353653E-001;-7.901296019554138E-002;2.093423623591662E-003;1.438936742488295E-004;
2.421333333333334E+009;1.519919484853745E-001;-8.064135909080505E-002;2.257800893858075E-003;3.871259395964444E-004;
2.421500000000000E+009;1.512656658887863E-001;-8.214402943849564E-002;2.173773944377899E-003;2.911340561695397E-004;
2.421666666666667E+009;1.508521735668182E-001;-8.378437161445618E-002;2.369520952925086E-003;2.176196430809796E-004;
2.421833333333334E+009;1.504211276769638E-001;-8.559908717870712E-002;2.245903247967362E-003;1.358783192699775E-004;
2.422000000000000E+009;1.500125378370285E-001;-8.726805448532105E-002;2.285250229761004E-003;1.206719316542149E-004;
2.422166666666667E+009;1.497327834367752E-001;-8.923926204442978E-002;2.194499596953392E-003;-5.096367021906190E-005;
2.422333333333334E+009;1.496312767267227E-001;-9.082880616188049E-002;2.464902587234974E-003;-1.362933107884601E-004;
2.422500000000000E+009;1.495227962732315E-001;-9.242895990610123E-002;2.619107253849506E-003;5.541616246773629E-006;
2.422666666666667E+009;1.493919342756271E-001;-9.416191279888153E-002;2.535439329221845E-003;-2.942664723377675E-004;
2.422833333333334E+009;1.494451165199280E-001;-9.601535648107529E-002;2.449890831485391E-003;-2.201450261054561E-004;
2.423000000000000E+009;1.495224535465241E-001;-9.763370454311371E-002;2.490993589162827E-003;-4.168232553638518E-004;
2.423166666666667E+009;1.499680280685425E-001;-9.925486147403717E-002;2.455363748595119E-003;-5.755559541285038E-004;
2.423333333333334E+009;1.502714008092880E-001;-1.007482334971428E-001;2.431065775454044E-003;-6.358239916153252E-004;
2.423500000000000E+009;1.504367142915726E-001;-1.024377346038818E-001;2.432097680866718E-003;-7.029125699773431E-004;
2.423666666666667E+009;1.507839560508728E-001;-1.040433049201965E-001;2.350057940930128E-003;-8.176873670890927E-004;
2.423833333333334E+009;1.512784212827683E-001;-1.054864600300789E-001;2.541704103350639E-003;-9.090881794691086E-004;
2.424000000000000E+009;1.516429185867310E-001;-1.067334040999413E-001;2.201021183282137E-003;-9.991663973778486E-004;
2.424166666666667E+009;1.521159112453461E-001;-1.081119999289513E-001;2.236295258626342E-003;-1.036497997120023E-003;
2.424333333333334E+009;1.526461690664291E-001;-1.091771572828293E-001;2.064161235466600E-003;-1.341460039839149E-003;
2.424500000000000E+009;1.533850580453873E-001;-1.103940382599831E-001;2.124876249581575E-003;-1.279445015825331E-003;
2.424666666666667E+009;1.537930518388748E-001;-1.113469153642654E-001;2.094273921102285E-003;-1.379078254103661E-003;
2.424833333333334E+009;1.541233807802200E-001;-1.123344898223877E-001;2.032055519521236E-003;-1.412149169482291E-003;
2.425000000000000E+009;1.546762436628342E-001;-1.132535189390183E-001;1.880954601801932E-003;-1.495526754297316E-003;
2.425166666666667E+009;1.550285667181015E-001;-1.141018271446228E-001;1.767564099282026E-003;-1.455701305530965E-003;
2.425333333333334E+009;1.555452495813370E-001;-1.147312745451927E-001;1.755401957780123E-003;-1.547642517834902E-003;
2.425500000000000E+009;1.559739410877228E-001;-1.154495552182198E-001;1.523475628346205E-003;-1.735154073685408E-003;
2.425666666666667E+009;1.560519039630890E-001;-1.161317974328995E-001;1.512017799541354E-003;-1.578339957632124E-003;
2.425833333333334E+009;1.564729958772659E-001;-1.165825873613358E-001;1.499117235653102E-003;-1.819145632907748E-003;
2.426000000000000E+009;1.566002815961838E-001;-1.170721203088760E-001;1.315063796937466E-003;-1.699848100543022E-003;
2.426166666666667E+009;1.569065451622009E-001;-1.173835098743439E-001;1.303392928093672E-003;-1.537699252367020E-003;
2.426333333333334E+009;1.568873822689056E-001;-1.176939383149147E-001;1.226061023771763E-003;-1.619538525119424E-003;
2.426500000000000E+009;1.568940281867981E-001;-1.178455278277397E-001;1.131287193857133E-003;-1.666699652560055E-003;
2.426666666666667E+009;1.568715423345566E-001;-1.179177835583687E-001;1.008075894787908E-003;-1.543277059681714E-003;
2.426833333333334E+009;1.566155403852463E-001;-1.181839182972908E-001;1.005744677968323E-003;-1.541264588013291E-003;
2.427000000000000E+009;1.563722640275955E-001;-1.183850392699242E-001;8.919719257391989E-004;-1.611579442396760E-003;
2.427166666666667E+009;1.559640020132065E-001;-1.182829961180687E-001;9.358043316751719E-004;-1.507576555013657E-003;
2.427333333333334E+009;1.554089784622192E-001;-1.184634119272232E-001;9.892142843455076E-004;-1.622809446416795E-003;
2.427500000000000E+009;1.550123840570450E-001;-1.185244023799896E-001;7.447224925272167E-004;-1.415258273482323E-003;
2.427666666666667E+009;1.542272120714188E-001;-1.186650395393372E-001;8.334940066561103E-004;-1.600431278347969E-003;
2.427833333333334E+009;1.533751487731934E-001;-1.188159659504890E-001;7.822055486030877E-004;-1.509380992501974E-003;
