# Version 1.00
#
freq[Hz];re:Trc1_S11;im:Trc1_S11;re:Trc2_S21;im:Trc2_S21;
2.400000000000000E+009;1.559742540121079E-001;1.107331514358521E-001;-4.149700980633497E-003;-3.814523108303547E-003;
2.400166666666667E+009;1.554313153028488E-001;1.084249168634415E-001;-4.358206409960985E-003;-3.549196058884263E-003;
2.400333333333334E+009;1.550968438386917E-001;1.062890142202377E-001;-4.511760547757149E-003;-3.495386801660061E-003;
2.400500000000000E+009;1.548582613468170E-001;1.034714281558991E-001;-4.654119722545147E-003;-3.447865601629019E-003;
2.400666666666667E+009;1.547488719224930E-001;1.009444817900658E-001;-4.645706620067358E-003;-3.330523381009698E-003;
2.400833333333334E+009;1.543705016374588E-001;9.794214367866516E-002;-5.024082958698273E-003;-3.194983350113034E-003;
2.401000000000000E+009;1.541964411735535E-001;9.515589475631714E-002;-4.883757792413235E-003;-3.126943018287420E-003;
2.401166666666667E+009;1.539808958768845E-001;9.225592017173767E-002;-5.154212936758995E-003;-3.093396313488483E-003;
2.401333333333334E+009;1.541322320699692E-001;8.950331807136536E-002;-5.272612441331148E-003;-2.921887207776308E-003;
2.401500000000000E+009;1.542224586009979E-001;8.635001629590988E-002;-5.467377603054047E-003;-2.768964506685734E-003;
2.401666666666667E+009;1.543773710727692E-001;8.340626209974289E-002;-5.739601328969002E-003;-2.652269555255771E-003;
2.401833333333334E+009;1.545366644859314E-001;8.057839423418045E-002;-5.940709728747606E-003;-2.429021755233407E-003;
2.402000000000000E+009;1.551420092582703E-001;7.756882160902023E-002;-6.206371355801821E-003;-2.157707465812564E-003;
2.402166666666667E+009;1.558303385972977E-001;7.487244904041290E-002;-6.277585402131081E-003;-1.905712648294866E-003;
2.402333333333334E+009;1.565429419279099E-001;7.188814878463745E-002;-6.413357798010111E-003;-1.674304716289043E-003;
2.402500000000000E+009;1.576365083456039E-001;6.915701180696487E-002;-6.623673252761364E-003;-1.586590777151287E-003;
2.402666666666667E+009;1.585929542779923E-001;6.647123396396637E-002;-6.802345160394907E-003;-1.003632671199739E-003;
2.402833333333334E+009;1.598736196756363E-001;6.375693529844284E-002;-6.729209795594215E-003;-8.365434478037059E-004;
2.403000000000000E+009;1.611205786466599E-001;6.125210598111153E-002;-6.941775791347027E-003;-4.305260954424739E-004;
2.403166666666667E+009;1.628279387950897E-001;5.875450000166893E-002;-7.024383172392845E-003;-1.301104493904859E-004;
2.403333333333334E+009;1.644391268491745E-001;5.639924481511116E-002;-6.868508178740740E-003;3.622720541898161E-004;
2.403500000000000E+009;1.660286933183670E-001;5.399766936898232E-002;-6.938125938177109E-003;7.242421270348132E-004;
2.403666666666667E+009;1.679043471813202E-001;5.185213685035706E-002;-6.908590905368328E-003;1.097962376661599E-003;
2.403833333333334E+009;1.696573346853256E-001;4.982564970850945E-002;-6.853617262095213E-003;1.591718522831798E-003;
2.404000000000000E+009;1.710431873798370E-001;4.785364866256714E-002;-6.843660492449999E-003;1.832051784731448E-003;
2.404166666666667E+009;1.733011603355408E-001;4.612351953983307E-002;-7.232899311929941E-003;2.098376397043467E-003;
2.404333333333334E+009;1.749947965145111E-001;4.447104409337044E-002;-6.618303712457418E-003;2.541600959375501E-003;
2.404500000000000E+009;1.766381710767746E-001;4.262911528348923E-002;-5.680178757756949E-003;3.209011163562536E-003;
2.404666666666667E+009;1.785567104816437E-001;4.167933017015457E-002;-6.431096233427525E-003;3.313866211101413E-003;
2.404833333333334E+009;1.803866773843765E-001;4.032545909285545E-002;-6.007775664329529E-003;3.464554203674197E-003;
2.405000000000000E+009;1.817719787359238E-001;3.987356647849083E-002;-5.917839240282774E-003;2.715434413403273E-003;
2.405166666666667E+009;1.836405545473099E-001;3.884671255946159E-002;-5.392137449234724E-003;3.757392754778266E-003;
2.405333333333334E+009;1.851376146078110E-001;3.823436796665192E-002;-4.917782265692949E-003;3.667537821456790E-003;
2.405500000000000E+009;1.870920807123184E-001;3.773846477270126E-002;-4.721254110336304E-003;4.647816065698862E-003;
2.405666666666667E+009;1.881557255983353E-001;3.719609975814819E-002;-3.864427795633674E-003;3.798226825892925E-003;
2.405833333333334E+009;1.899573802947998E-001;3.715144842863083E-002;-4.169478081166744E-003;4.406665451824665E-003;
2.406000000000000E+009;1.911995261907578E-001;3.703709319233894E-002;-3.754235105589032E-003;4.609207622706890E-003;
2.406166666666667E+009;1.924724429845810E-001;3.687040135264397E-002;-3.568803658708930E-003;4.472646396607161E-003;
2.406333333333334E+009;1.936298161745071E-001;3.719549998641014E-002;-3.376457141712308E-003;4.499794449657202E-003;
2.406500000000000E+009;1.947462260723114E-001;3.723291680216789E-002;-3.161522094160318E-003;4.656633362174034E-003;
2.406666666666667E+009;1.955409944057465E-001;3.748847171664238E-002;-2.992646303027868E-003;4.618795588612557E-003;
2.406833333333334E+009;1.963084340095520E-001;3.763967379927635E-002;-2.638613805174828E-003;4.622855689376593E-003;
2.407000000000000E+009;1.966407746076584E-001;3.811507299542427E-002;-2.521342365071178E-003;4.583511967211962E-003;
2.407166666666667E+009;1.973925679922104E-001;3.822127729654312E-002;-2.320414874702692E-003;4.655738361179829E-003;
2.407333333333334E+009;1.975273191928864E-001;3.857737779617310E-002;-2.178914844989777E-003;4.660381935536861E-003;
2.407500000000000E+009;1.977295875549316E-001;3.908909484744072E-002;-1.925901859067380E-003;4.548761062324047E-003;
2.407666666666667E+009;1.978031396865845E-001;3.934645652770996E-002;-1.852913177572191E-003;4.665852524340153E-003;
2.407833333333334E+009;1.976338177919388E-001;3.962042555212975E-002;-1.680991845205426E-003;4.528704565018416E-003;
2.408000000000000E+009;1.975699812173843E-001;3.973937034606934E-002;-1.319872913882136E-003;4.701649304479361E-003;
2.408166666666667E+009;1.972660720348358E-001;3.975187242031097E-002;-1.376204192638397E-003;4.554067738354206E-003;
2.408333333333334E+009;1.967876404523850E-001;3.966724127531052E-002;-1.121543231420219E-003;4.353245720267296E-003;
2.408500000000000E+009;1.963003426790237E-001;3.978599235415459E-002;-9.368425235152245E-004;4.205461125820875E-003;
2.408666666666667E+009;1.955933570861816E-001;3.950866684317589E-002;-9.443416493013501E-004;4.246079828590155E-003;
2.408833333333334E+009;1.950179636478424E-001;3.919115290045738E-002;-8.831210434436798E-004;4.144460894167423E-003;
2.409000000000000E+009;1.940866112709045E-001;3.858861699700356E-002;-8.927473681978881E-004;4.150023683905602E-003;
2.409166666666667E+009;1.930209994316101E-001;3.808706998825073E-002;-8.622786263003945E-004;3.922436386346817E-003;
2.409333333333334E+009;1.919960379600525E-001;3.726794570684433E-002;-8.469350286759436E-004;3.950550220906735E-003;
2.409500000000000E+009;1.909465044736862E-001;3.625540435314179E-002;-8.256807923316956E-004;3.885493380948901E-003;
2.409666666666667E+009;1.898032575845718E-001;3.491593524813652E-002;-7.060883799567819E-004;3.799960715696216E-003;
2.409833333333334E+009;1.885788887739182E-001;3.378568217158318E-002;-8.908244781196117E-004;3.888835432007909E-003;
2.410000000000000E+009;1.874820590019226E-001;3.225866705179215E-002;-9.641479700803757E-004;3.822373226284981E-003;
2.410166666666667E+009;1.862920969724655E-001;3.067312203347683E-002;-9.231910808011890E-004;3.886264981701970E-003;
2.410333333333334E+009;1.850048452615738E-001;2.913293242454529E-002;-8.957009995356202E-004;4.004816059023142E-003;
2.410500000000000E+009;1.838535815477371E-001;2.728520520031452E-002;-9.236897458322346E-004;4.079183097928762E-003;
2.410666666666667E+009;1.826467067003250E-001;2.512675896286964E-002;-8.370328578166664E-004;4.306515678763390E-003;
2.410833333333334E+009;1.817695051431656E-001;2.296146377921104E-002;-6.644052336923778E-004;4.300085362046957E-003;
2.411000000000000E+009;1.807100623846054E-001;2.082244865596294E-002;-5.123012815602124E-004;4.362480714917183E-003;
2.411166666666667E+009;1.798301935195923E-001;1.861851848661900E-002;-6.185436504893005E-004;4.401475191116333E-003;
2.411333333333334E+009;1.792709380388260E-001;1.614265516400337E-002;-3.668215067591518E-004;4.483624827116728E-003;
2.411500000000000E+009;1.783329397439957E-001;1.370564848184586E-002;-4.579724336508662E-004;4.658428020775318E-003;
2.411666666666667E+009;1.780344396829605E-001;1.139138545840979E-002;-3.394134109839797E-004;4.838848952203989E-003;
2.411833333333334E+009;1.775689721107483E-001;8.847189135849476E-003;-8.469923341181129E-005;4.861996974796057E-003;
2.412000000000000E+009;1.776273399591446E-001;6.057567894458771E-003;1.618419337319210E-004;4.820595961064100E-003;
2.412166666666667E+009;1.772624254226685E-001;3.625469515100122E-003;7.096015906427056E-005;5.096451379358769E-003;
2.412333333333334E+009;1.774561703205109E-001;8.838748908601701E-004;2.379877405473962E-004;5.052296910434961E-003;
2.412500000000000E+009;1.778963357210159E-001;-1.614552456885576E-003;4.946446279063821E-004;5.126925185322762E-003;
2.412666666666667E+009;1.779525727033615E-001;-4.550256766378880E-003;8.325009257532656E-004;5.352957639843226E-003;
2.412833333333334E+009;1.787056773900986E-001;-7.091578561812639E-003;8.750176057219505E-004;5.392746999859810E-003;
2.413000000000000E+009;1.793926954269409E-001;-9.556381031870842E-003;1.221416285261512E-003;5.408047232776880E-003;
2.413166666666667E+009;1.800512969493866E-001;-1.208939775824547E-002;1.375014428049326E-003;5.423061549663544E-003;
2.413333333333334E+009;1.810100227594376E-001;-1.490310393273830E-002;1.711062621325254E-003;5.372283514589071E-003;
2.413500000000000E+009;1.818621754646301E-001;-1.747104153037071E-002;2.019642386585474E-003;5.343285854905844E-003;
2.413666666666667E+009;1.831406950950623E-001;-1.994332484900951E-002;2.274377737194300E-003;5.339233670383692E-003;
2.413833333333334E+009;1.844225823879242E-001;-2.202234789729118E-002;2.541378838941455E-003;5.243043880909681E-003;
2.414000000000000E+009;1.853317618370056E-001;-2.437392063438892E-002;2.746460260823369E-003;5.174864083528519E-003;
2.414166666666667E+009;1.867995858192444E-001;-2.646566554903984E-002;3.170823212713003E-003;5.071359686553478E-003;
2.414333333333334E+009;1.878725886344910E-001;-2.859592810273171E-002;3.356147557497025E-003;5.011484958231449E-003;
2.414500000000000E+009;1.893108934164047E-001;-3.036755695939064E-002;3.497726516798139E-003;4.714183975011110E-003;
2.414666666666667E+009;1.906306743621826E-001;-3.212144598364830E-002;3.796247532591224E-003;4.475163761526346E-003;
2.414833333333334E+009;1.918627172708511E-001;-3.355102241039276E-002;4.019873682409525E-003;4.518518690019846E-003;
2.415000000000000E+009;1.933165937662125E-001;-3.517314046621323E-002;4.144282545894384E-003;4.183219280093908E-003;
2.415166666666667E+009;1.946925669908524E-001;-3.635028749704361E-002;4.468728322535753E-003;4.128645639866591E-003;
2.415333333333334E+009;1.960030496120453E-001;-3.749609738588333E-002;4.614927805960178E-003;4.028073512017727E-003;
2.415500000000000E+009;1.973023414611816E-001;-3.838964551687241E-002;4.871062934398651E-003;3.417909145355225E-003;
2.415666666666667E+009;1.986686736345291E-001;-3.940899670124054E-002;5.014180671423674E-003;3.435377497226000E-003;
2.415833333333334E+009;1.997070461511612E-001;-4.016737639904022E-002;5.309290718287230E-003;3.059263341128826E-003;
2.416000000000000E+009;2.007326334714890E-001;-4.063540697097778E-002;5.337615497410297E-003;2.779196249321103E-003;
2.416166666666667E+009;2.017551809549332E-001;-4.135919362306595E-002;5.308187566697598E-003;2.599484520033002E-003;
2.416333333333334E+009;2.026864886283875E-001;-4.159014299511910E-002;5.517386365681887E-003;2.361292019486427E-003;
2.416500000000000E+009;2.033565938472748E-001;-4.191599786281586E-002;5.524994339793921E-003;1.978179905563593E-003;
2.416666666666667E+009;2.039542943239212E-001;-4.219704121351242E-002;5.430730059742928E-003;1.518272096291184E-003;
2.416833333333334E+009;2.044695317745209E-001;-4.205045476555824E-002;5.364218261092901E-003;1.332292333245277E-003;
2.417000000000000E+009;2.048736065626144E-001;-4.226003959774971E-002;5.386120639741421E-003;1.154366414994001E-003;
2.417166666666667E+009;2.048056721687317E-001;-4.193742573261261E-002;5.408241413533688E-003;8.982259314507246E-004;
2.417333333333334E+009;2.048380076885223E-001;-4.161811619997025E-002;5.394700914621353E-003;8.637260762043297E-004;
2.417500000000000E+009;2.048580348491669E-001;-4.149144887924194E-002;5.252265371382237E-003;4.939736681990326E-004;
2.417666666666667E+009;2.046236991882324E-001;-4.113470390439034E-002;5.178804975003004E-003;4.886718234047294E-004;
2.417833333333334E+009;2.043568044900894E-001;-4.070641100406647E-002;5.131633952260017E-003;3.095553547609597E-004;
2.418000000000000E+009;2.038940787315369E-001;-4.031595587730408E-002;5.160549655556679E-003;3.210253635188565E-005;
2.418166666666667E+009;2.033198326826096E-001;-3.995713964104652E-002;5.237259902060032E-003;-1.809487584978342E-004;
2.418333333333334E+009;2.023957073688507E-001;-3.963221609592438E-002;5.208213813602924E-003;-2.244373172288761E-004;
2.418500000000000E+009;2.015985548496246E-001;-3.943828865885735E-002;5.110194440931082E-003;-5.012522451579571E-004;
2.418666666666667E+009;2.008283436298370E-001;-3.912613168358803E-002;5.055426154285669E-003;-6.063224282115698E-004;
2.418833333333334E+009;1.995760649442673E-001;-3.909135609865189E-002;4.973700735718012E-003;-9.238246129825711E-004;
2.419000000000000E+009;1.984229683876038E-001;-3.899966180324554E-002;4.966069944202900E-003;-8.831698214635253E-004;
2.419166666666667E+009;1.970356106758118E-001;-3.922198340296745E-002;4.702722653746605E-003;-1.288731815293431E-003;
2.419333333333334E+009;1.957316845655441E-001;-3.940434008836746E-002;4.697842523455620E-003;-1.393755315802991E-003;
2.419500000000000E+009;1.941293329000473E-001;-3.951508179306984E-002;4.685017745941877E-003;-1.565070590004325E-003;
2.419666666666667E+009;1.925450265407562E-001;-4.007780179381371E-002;4.556235391646624E-003;-1.714697922579944E-003;
2.419833333333334E+009;1.908089816570282E-001;-4.055503010749817E-002;4.346705507487059E-003;-1.770392991602421E-003;
2.420000000000000E+009;1.893209069967270E-001;-4.120115935802460E-002;4.265021532773972E-003;-1.928109675645828E-003;
2.420166666666667E+009;1.874739974737167E-001;-4.209342971444130E-002;3.982643131166697E-003;-1.848931307904422E-003;
2.420333333333334E+009;1.857910305261612E-001;-4.307045042514801E-002;3.978702239692211E-003;-2.152598695829511E-003;
2.420500000000000E+009;1.838850975036621E-001;-4.430367425084114E-002;3.970863763242960E-003;-2.063774038106203E-003;
2.420666666666667E+009;1.821073293685913E-001;-4.523872956633568E-002;3.697109408676624E-003;-2.044522203505039E-003;
2.420833333333334E+009;1.803137511014938E-001;-4.665722325444222E-002;3.651714883744717E-003;-2.121458062902093E-003;
2.421000000000000E+009;1.785441786050797E-001;-4.819080606102943E-002;3.489046124741435E-003;-2.213182160630822E-003;
2.421166666666667E+009;1.770800501108170E-001;-4.968432337045670E-002;3.476521233096719E-003;-2.279809210449457E-003;
2.421333333333334E+009;1.751684993505478E-001;-5.140981823205948E-002;3.618175396695733E-003;-2.234270563349128E-003;
2.421500000000000E+009;1.736757457256317E-001;-5.319698899984360E-002;3.513308940455318E-003;-2.436849754303694E-003;
2.421666666666667E+009;1.722265034914017E-001;-5.518111214041710E-002;3.384808311238885E-003;-2.572057070210576E-003;
2.421833333333334E+009;1.707821041345596E-001;-5.713938176631928E-002;3.255245275795460E-003;-2.489465055987239E-003;
2.422000000000000E+009;1.694501340389252E-001;-5.910120159387589E-002;3.287777537479997E-003;-2.679781988263130E-003;
2.422166666666667E+009;1.684795767068863E-001;-6.129257008433342E-002;3.242059843614698E-003;-2.775658620521426E-003;
2.422333333333334E+009;1.672661304473877E-001;-6.356373429298401E-002;3.191971452906728E-003;-2.825007308274508E-003;
2.422500000000000E+009;1.663189232349396E-001;-6.573601812124252E-002;3.069709986448288E-003;-2.834167564287782E-003;
2.422666666666667E+009;1.655070036649704E-001;-6.784874945878983E-002;2.959626028314233E-003;-3.016873495653272E-003;
2.422833333333334E+009;1.649099141359329E-001;-7.009937614202499E-002;2.822251990437508E-003;-3.018178977072239E-003;
2.423000000000000E+009;1.642227917909622E-001;-7.249021530151367E-002;2.676596865057945E-003;-3.173321951180697E-003;
2.423166666666667E+009;1.637303978204727E-001;-7.449116557836533E-002;2.718050498515368E-003;-3.343244781717658E-003;
2.423333333333334E+009;1.635342687368393E-001;-7.681387662887573E-002;2.512137871235609E-003;-3.333153203129768E-003;
2.423500000000000E+009;1.632992476224899E-001;-7.871861755847931E-002;2.372832736000419E-003;-3.466288559138775E-003;
2.423666666666667E+009;1.633981019258499E-001;-8.097422868013382E-002;2.389997243881226E-003;-3.485452383756638E-003;
2.423833333333334E+009;1.633049547672272E-001;-8.304730802774429E-002;2.104695187881589E-003;-3.803476225584745E-003;
2.424000000000000E+009;1.634828597307205E-001;-8.509469032287598E-002;1.992137171328068E-003;-3.627277212217450E-003;
2.424166666666667E+009;1.635850667953491E-001;-8.692322671413422E-002;1.747430302202702E-003;-3.852048888802528E-003;
2.424333333333334E+009;1.638927161693573E-001;-8.881624788045883E-002;1.715559279546142E-003;-3.884418634697795E-003;
2.424500000000000E+009;1.642518788576126E-001;-9.074614197015762E-002;1.424143090844154E-003;-3.760881721973419E-003;
2.424666666666667E+009;1.645800918340683E-001;-9.240151941776276E-002;1.248304150067270E-003;-3.947085700929165E-003;
2.424833333333334E+009;1.653226017951965E-001;-9.385393559932709E-002;1.041382085531950E-003;-3.903632750734687E-003;
2.425000000000000E+009;1.657618135213852E-001;-9.539785981178284E-002;8.547935867682099E-004;-3.933034837245941E-003;
2.425166666666667E+009;1.662197709083557E-001;-9.662548452615738E-002;7.484931848011911E-004;-3.835855750367045E-003;
2.425333333333334E+009;1.668086647987366E-001;-9.777098149061203E-002;6.763691781088710E-004;-3.965497948229313E-003;
2.425500000000000E+009;1.675050258636475E-001;-9.897908568382263E-002;5.494720535352826E-004;-3.668110584840179E-003;
2.425666666666667E+009;1.680619567632675E-001;-9.980261325836182E-002;4.356209246907383E-004;-3.690003184601665E-003;
2.425833333333334E+009;1.685658693313599E-001;-1.008339449763298E-001;2.921844425145537E-004;-3.568997373804450E-003;
2.426000000000000E+009;1.692205220460892E-001;-1.013333201408386E-001;4.832060221815482E-005;-3.584045683965087E-003;
2.426166666666667E+009;1.698959469795227E-001;-1.020201668143272E-001;1.051935687428340E-004;-3.576792776584625E-003;
2.426333333333334E+009;1.702280044555664E-001;-1.027376204729080E-001;1.121753812185489E-004;-3.493479220196605E-003;
2.426500000000000E+009;1.709037274122238E-001;-1.030517145991325E-001;-1.366622109344462E-005;-3.374023130163550E-003;
2.426666666666667E+009;1.712870150804520E-001;-1.033754795789719E-001;-1.817237643990666E-004;-3.345233388245106E-003;
2.426833333333334E+009;1.717897057533264E-001;-1.037491559982300E-001;-2.957523975055665E-004;-3.266963642090559E-003;
2.427000000000000E+009;1.720897257328033E-001;-1.038917079567909E-001;-3.875141846947372E-004;-3.322135657072067E-003;
2.427166666666667E+009;1.723247319459915E-001;-1.040086895227432E-001;-5.789706483483315E-004;-3.327630925923586E-003;
2.427333333333334E+009;1.725897490978241E-001;-1.042517125606537E-001;-5.649488884955645E-004;-3.328517312183976E-003;
2.427500000000000E+009;1.724880486726761E-001;-1.042832434177399E-001;-5.840456578880549E-004;-3.196401754394174E-003;
2.427666666666667E+009;1.723808497190476E-001;-1.042469739913940E-001;-5.482062115333974E-004;-3.243244253098965E-003;
2.427833333333334E+009;1.722517013549805E-001;-1.043385565280914E-001;-7.135503110475838E-004;-2.934321528300643E-003;
