# Version 1.00
#
freq[Hz];re:Trc1_S11;im:Trc1_S11;re:Trc2_S21;im:Trc2_S21;
2.400000000000000E+009;1.554720848798752E-001;1.112023666501045E-001;-4.298681393265724E-003;-3.546800464391708E-003;
2.400166666666667E+009;1.550179719924927E-001;1.091613695025444E-001;-4.364913329482079E-003;-3.535322844982147E-003;
2.400333333333334E+009;1.548170447349548E-001;1.067022532224655E-001;-4.514581989496946E-003;-3.330567386001349E-003;
2.400500000000000E+009;1.543405801057816E-001;1.040729880332947E-001;-4.669181071221829E-003;-3.346697892993689E-003;
2.400666666666667E+009;1.542903929948807E-001;1.017914637923241E-001;-4.714636132121086E-003;-3.280670382082462E-003;
2.400833333333334E+009;1.539661437273026E-001;9.878940880298615E-002;-4.896307829767466E-003;-2.913845935836434E-003;
2.401000000000000E+009;1.539311259984970E-001;9.593677520751953E-002;-4.918579012155533E-003;-2.991838613525033E-003;
2.401166666666667E+009;1.536741852760315E-001;9.316115081310272E-002;-5.152495577931404E-003;-2.835681661963463E-003;
2.401333333333334E+009;1.536950916051865E-001;9.035026282072067E-002;-5.233566276729107E-003;-2.785407006740570E-003;
2.401500000000000E+009;1.539359092712402E-001;8.714294433593750E-002;-5.478210747241974E-003;-2.689106389880180E-003;
2.401666666666667E+009;1.541473567485809E-001;8.424528688192368E-002;-5.483841057866812E-003;-2.586261369287968E-003;
2.401833333333334E+009;1.543886363506317E-001;8.155436813831329E-002;-5.774199962615967E-003;-2.317031379789114E-003;
2.402000000000000E+009;1.551116406917572E-001;7.852111756801605E-002;-5.949486047029495E-003;-2.123375190421939E-003;
2.402166666666667E+009;1.557333022356033E-001;7.563077658414841E-002;-6.163109559565783E-003;-1.713003613986075E-003;
2.402333333333334E+009;1.565413773059845E-001;7.278455793857575E-002;-6.391072180122137E-003;-1.502368948422372E-003;
2.402500000000000E+009;1.575926244258881E-001;7.003440707921982E-002;-6.550958380103111E-003;-1.195371383801103E-003;
2.402666666666667E+009;1.587512493133545E-001;6.737916916608810E-002;-6.679079495370388E-003;-8.991046925075352E-004;
2.402833333333334E+009;1.599435657262802E-001;6.491437554359436E-002;-6.580390967428684E-003;-6.895182887092233E-004;
2.403000000000000E+009;1.613262146711350E-001;6.223570555448532E-002;-6.886105518788099E-003;-4.869178810622543E-004;
2.403166666666667E+009;1.630169600248337E-001;5.973473936319351E-002;-6.864811759442091E-003;6.131948612164706E-005;
2.403333333333334E+009;1.645374298095703E-001;5.722267925739288E-002;-6.936354562640190E-003;4.560328961815685E-004;
2.403500000000000E+009;1.662305742502213E-001;5.504298210144043E-002;-6.774593144655228E-003;6.538333836942911E-004;
2.403666666666667E+009;1.681466102600098E-001;5.280225723981857E-002;-6.745474413037300E-003;1.172126852907240E-003;
2.403833333333334E+009;1.700190603733063E-001;5.083253607153893E-002;-6.756349466741085E-003;1.418952364474535E-003;
2.404000000000000E+009;1.716244965791702E-001;4.869748279452324E-002;-6.659256760030985E-003;1.903309952467680E-003;
2.404166666666667E+009;1.734463423490524E-001;4.698559641838074E-002;-6.513735745102167E-003;2.260975074023008E-003;
2.404333333333334E+009;1.752178221940994E-001;4.526428133249283E-002;-6.358657963573933E-003;2.615165663883090E-003;
2.404500000000000E+009;1.771725565195084E-001;4.376596212387085E-002;-6.186092272400856E-003;2.879396080970764E-003;
2.404666666666667E+009;1.789800673723221E-001;4.246327280998230E-002;-6.073917262256146E-003;3.332377877086401E-003;
2.404833333333334E+009;1.810072213411331E-001;4.120702296495438E-002;-5.563736893236637E-003;3.333342727273703E-003;
2.405000000000000E+009;1.824697405099869E-001;4.059945791959763E-002;-5.281161982566118E-003;3.827591193839908E-003;
2.405166666666667E+009;1.842053383588791E-001;3.977365791797638E-002;-5.235607735812664E-003;3.980239387601614E-003;
2.405333333333334E+009;1.859745830297470E-001;3.912268206477165E-002;-4.996155388653278E-003;4.031992983072996E-003;
2.405500000000000E+009;1.874348968267441E-001;3.864327818155289E-002;-4.461318720132113E-003;4.317835904657841E-003;
2.405666666666667E+009;1.890043765306473E-001;3.818779438734055E-002;-4.244757350534201E-003;4.530234728008509E-003;
2.405833333333334E+009;1.906792074441910E-001;3.801239654421806E-002;-3.954787738621235E-003;4.419882781803608E-003;
2.406000000000000E+009;1.919379234313965E-001;3.788527846336365E-002;-3.725515212863684E-003;4.585839807987213E-003;
2.406166666666667E+009;1.932521760463715E-001;3.764737024903297E-002;-3.566587809473276E-003;4.585214890539646E-003;
2.406333333333334E+009;1.944912374019623E-001;3.780623525381088E-002;-3.132013836875558E-003;4.595948383212090E-003;
2.406500000000000E+009;1.954981088638306E-001;3.797305375337601E-002;-2.973484341055155E-003;4.610337782651186E-003;
2.406666666666667E+009;1.963850855827332E-001;3.818641602993012E-002;-2.766992431133986E-003;4.562681075185537E-003;
2.406833333333334E+009;1.972468793392181E-001;3.828321024775505E-002;-2.711704466491938E-003;4.689658991992474E-003;
2.407000000000000E+009;1.977633237838745E-001;3.879228606820107E-002;-2.423875033855438E-003;4.607438575476408E-003;
2.407166666666667E+009;1.984652429819107E-001;3.883755579590797E-002;-2.272279234603047E-003;4.597098566591740E-003;
2.407333333333334E+009;1.985115259885788E-001;3.928708657622337E-002;-2.104318235069513E-003;4.515912383794785E-003;
2.407500000000000E+009;1.986373513936997E-001;3.963428735733032E-002;-1.897408743388951E-003;4.296712111681700E-003;
2.407666666666667E+009;1.989169716835022E-001;3.974890708923340E-002;-1.471420400775969E-003;4.547340329736471E-003;
2.407833333333334E+009;1.986923366785049E-001;4.011336341500282E-002;-2.288950607180595E-003;4.715374205261469E-003;
2.408000000000000E+009;1.987306773662567E-001;4.021251201629639E-002;-1.765762688592076E-003;4.605473484843969E-003;
2.408166666666667E+009;1.983578056097031E-001;4.011662676930428E-002;-1.142138615250588E-003;4.806390032172203E-003;
2.408333333333334E+009;1.979129910469055E-001;3.993905335664749E-002;-1.057886984199286E-003;3.957783803343773E-003;
2.408500000000000E+009;1.972284615039825E-001;3.983890637755394E-002;-7.277821423485875E-004;4.124055616557598E-003;
2.408666666666667E+009;1.966113895177841E-001;3.957849740982056E-002;-7.632415508851409E-004;3.969314042478800E-003;
2.408833333333334E+009;1.959661841392517E-001;3.922596573829651E-002;-1.144370646215975E-003;4.041699692606926E-003;
2.409000000000000E+009;1.950504034757614E-001;3.860121220350266E-002;-8.232379332184792E-004;4.035647492855787E-003;
2.409166666666667E+009;1.939598470926285E-001;3.784658014774323E-002;-7.651292835362256E-004;3.808947978541255E-003;
2.409333333333334E+009;1.931025534868240E-001;3.699206933379173E-002;-7.467620307579637E-004;3.800960956141353E-003;
2.409500000000000E+009;1.917289942502976E-001;3.613781929016113E-002;-7.473410805687308E-004;3.749451367184520E-003;
2.409666666666667E+009;1.906992495059967E-001;3.478313609957695E-002;-8.194029214791954E-004;3.716433886438608E-003;
2.409833333333334E+009;1.895142346620560E-001;3.344276174902916E-002;-8.016485953703523E-004;3.762580687180162E-003;
2.410000000000000E+009;1.882971525192261E-001;3.213152289390564E-002;-8.615026599727571E-004;3.762261942028999E-003;
2.410166666666667E+009;1.870155036449432E-001;3.034882433712483E-002;-9.244990069419146E-004;3.884085919708014E-003;
2.410333333333334E+009;1.857997477054596E-001;2.864340879023075E-002;-8.539985283277929E-004;3.873491426929832E-003;
2.410500000000000E+009;1.845154464244843E-001;2.671045809984207E-002;-9.589196997694671E-004;3.936229739338160E-003;
2.410666666666667E+009;1.834657043218613E-001;2.462446503341198E-002;-7.156724459491670E-004;4.137463402003050E-003;
2.410833333333334E+009;1.824941039085388E-001;2.263619564473629E-002;-6.847922923043370E-004;4.283675458282232E-003;
2.411000000000000E+009;1.814911514520645E-001;2.056661061942577E-002;-5.370478611439467E-004;4.278576467186213E-003;
2.411166666666667E+009;1.804888099431992E-001;1.816943474113941E-002;-6.485384074039757E-004;4.298149608075619E-003;
2.411333333333334E+009;1.797097176313400E-001;1.563685014843941E-002;-5.230093374848366E-004;4.458649083971977E-003;
2.411500000000000E+009;1.792127937078476E-001;1.323740649968386E-002;-4.853539576288313E-004;4.597387276589871E-003;
2.411666666666667E+009;1.787209361791611E-001;1.079240906983614E-002;-2.567016344983131E-004;4.645636305212975E-003;
2.411833333333334E+009;1.780028343200684E-001;8.186731487512589E-003;-1.890606217784807E-004;4.835458472371101E-003;
2.412000000000000E+009;1.779682487249374E-001;5.500779021531344E-003;3.905146513716318E-006;4.818889778107405E-003;
2.412166666666667E+009;1.780112385749817E-001;3.025351092219353E-003;8.253373380284756E-005;4.940760787576437E-003;
2.412333333333334E+009;1.778340488672257E-001;3.633230226114392E-004;3.034321707673371E-004;5.081896670162678E-003;
2.412500000000000E+009;1.783620566129684E-001;-2.263279864564538E-003;6.362059502862394E-004;5.164906848222017E-003;
2.412666666666667E+009;1.786312609910965E-001;-4.857586231082678E-003;8.527493337169290E-004;5.175992846488953E-003;
2.412833333333334E+009;1.790422648191452E-001;-7.660922128707171E-003;9.623636142350733E-004;5.352346226572990E-003;
2.413000000000000E+009;1.796822398900986E-001;-1.016957219690085E-002;1.207955530844629E-003;5.280355457216501E-003;
2.413166666666667E+009;1.804040819406509E-001;-1.284624170511961E-002;1.512444694526494E-003;5.394924432039261E-003;
2.413333333333334E+009;1.813043802976608E-001;-1.527267973870039E-002;1.879406743682921E-003;5.322207696735859E-003;
2.413500000000000E+009;1.821522712707520E-001;-1.789992488920689E-002;2.169639337807894E-003;5.362784489989281E-003;
2.413666666666667E+009;1.834265887737274E-001;-2.028935216367245E-002;2.136789727956057E-003;5.144187249243259E-003;
2.413833333333334E+009;1.845280081033707E-001;-2.258023247122765E-002;2.582185436040163E-003;5.162803456187248E-003;
2.414000000000000E+009;1.857484430074692E-001;-2.466317638754845E-002;2.777858404442668E-003;5.046334583312273E-003;
2.414166666666667E+009;1.870814561843872E-001;-2.683618105947971E-002;3.074692329391837E-003;4.821099340915680E-003;
2.414333333333334E+009;1.881702542304993E-001;-2.909050323069096E-002;3.213574178516865E-003;4.911281168460846E-003;
2.414500000000000E+009;1.895159631967545E-001;-3.078911453485489E-002;3.584913210943341E-003;4.708185791969299E-003;
2.414666666666667E+009;1.908942162990570E-001;-3.248614445328713E-002;3.802391001954675E-003;4.548938013613224E-003;
2.414833333333334E+009;1.919611394405365E-001;-3.399294242262840E-002;3.881696844473481E-003;4.445813130587339E-003;
2.415000000000000E+009;1.935606598854065E-001;-3.540096431970596E-002;3.996199928224087E-003;4.219604190438986E-003;
2.415166666666667E+009;1.948618739843369E-001;-3.679047897458077E-002;4.399318248033524E-003;4.112056456506252E-003;
2.415333333333334E+009;1.961448639631271E-001;-3.800813481211662E-002;4.530878271907568E-003;3.855701303109527E-003;
2.415500000000000E+009;1.976026147603989E-001;-3.873398900032044E-002;4.751605913043022E-003;3.640194190666080E-003;
2.415666666666667E+009;1.988066583871841E-001;-3.972434252500534E-002;4.968028049916029E-003;3.411214565858245E-003;
2.415833333333334E+009;1.999573856592178E-001;-4.040715843439102E-002;5.127465818077326E-003;3.149717347696424E-003;
2.416000000000000E+009;2.010403275489807E-001;-4.105871543288231E-002;5.193289835005999E-003;2.702522091567516E-003;
2.416166666666667E+009;2.019685208797455E-001;-4.166701063513756E-002;5.379768088459969E-003;2.599874977022409E-003;
2.416333333333334E+009;2.028473615646362E-001;-4.206456243991852E-002;5.277269519865513E-003;2.296047052368522E-003;
2.416500000000000E+009;2.035813480615616E-001;-4.216185584664345E-002;5.405049305409193E-003;1.949997385963798E-003;
2.416666666666667E+009;2.042608708143234E-001;-4.253439605236054E-002;5.446008406579495E-003;1.684608520008624E-003;
2.416833333333334E+009;2.046873122453690E-001;-4.250607639551163E-002;5.393724888563156E-003;1.401480869390070E-003;
2.417000000000000E+009;2.051046043634415E-001;-4.240516945719719E-002;5.271951667964459E-003;1.151433796621859E-003;
2.417166666666667E+009;2.049850374460220E-001;-4.225874692201614E-002;5.215065088123083E-003;8.938355022110045E-004;
2.417333333333334E+009;2.050224095582962E-001;-4.208893701434135E-002;5.198943894356489E-003;6.509085069410503E-004;
2.417500000000000E+009;2.050598263740540E-001;-4.197591543197632E-002;5.154757294803858E-003;5.409460864029825E-004;
2.417666666666667E+009;2.047148197889328E-001;-4.147082567214966E-002;5.125815980136395E-003;4.723636957351118E-004;
2.417833333333334E+009;2.046560794115067E-001;-4.122381284832954E-002;5.187132395803928E-003;3.216339100617915E-004;
2.418000000000000E+009;2.041591107845306E-001;-4.074785858392716E-002;5.203579552471638E-003;1.697188563412055E-004;
2.418166666666667E+009;2.035762965679169E-001;-4.045037925243378E-002;5.018623545765877E-003;-7.317722338484600E-005;
2.418333333333334E+009;2.027574181556702E-001;-4.011961072683334E-002;5.036048125475645E-003;-7.053270383039489E-005;
2.418500000000000E+009;2.019212543964386E-001;-3.986410796642304E-002;4.999727942049503E-003;-4.138241638429463E-004;
2.418666666666667E+009;2.009724080562592E-001;-3.950622677803040E-002;4.949011839926243E-003;-5.738906911574304E-004;
2.418833333333334E+009;1.998189091682434E-001;-3.957587480545044E-002;4.932796116918325E-003;-7.525147520937026E-004;
2.419000000000000E+009;1.985410153865814E-001;-3.951607272028923E-002;4.962632898241282E-003;-9.519277373328805E-004;
2.419166666666667E+009;1.971672028303146E-001;-3.953043743968010E-002;4.719716031104326E-003;-1.317246700637043E-003;
2.419333333333334E+009;1.958489418029785E-001;-3.982238471508026E-002;4.692766815423966E-003;-1.212521689012647E-003;
2.419500000000000E+009;1.944009363651276E-001;-3.998732566833496E-002;4.643360618501902E-003;-1.437587896361947E-003;
2.419666666666667E+009;1.926608383655548E-001;-4.065287485718727E-002;4.477004520595074E-003;-1.494210446253419E-003;
2.419833333333334E+009;1.910037249326706E-001;-4.101488366723061E-002;4.261603113263845E-003;-1.643148716539145E-003;
2.420000000000000E+009;1.894201785326004E-001;-4.171286523342133E-002;4.248291254043579E-003;-1.872739754617214E-003;
2.420166666666667E+009;1.875847429037094E-001;-4.260114952921867E-002;3.965258132666349E-003;-1.774452510289848E-003;
2.420333333333334E+009;1.859634071588516E-001;-4.363920912146568E-002;3.919905517250300E-003;-1.869281171821058E-003;
2.420500000000000E+009;1.840296536684036E-001;-4.462941735982895E-002;3.888362785801292E-003;-1.926310942508280E-003;
2.420666666666667E+009;1.821825355291367E-001;-4.556602612137795E-002;3.764078719541431E-003;-2.007056260481477E-003;
2.420833333333334E+009;1.804124265909195E-001;-4.711689054965973E-002;3.738637315109372E-003;-2.033259486779571E-003;
2.421000000000000E+009;1.786587983369827E-001;-4.861704632639885E-002;3.518837969750166E-003;-2.026292728260160E-003;
2.421166666666667E+009;1.771252304315567E-001;-5.024916306138039E-002;3.574715927243233E-003;-2.132954075932503E-003;
2.421333333333334E+009;1.753502190113068E-001;-5.199528858065605E-002;3.455232130363584E-003;-2.167760394513607E-003;
2.421500000000000E+009;1.737830340862274E-001;-5.383847653865814E-002;3.450631862506270E-003;-2.307616639882326E-003;
2.421666666666667E+009;1.722180545330048E-001;-5.561729520559311E-002;3.403863171115518E-003;-2.249636454507709E-003;
2.421833333333334E+009;1.708153188228607E-001;-5.760391056537628E-002;3.379615489393473E-003;-2.518511377274990E-003;
2.422000000000000E+009;1.695347279310226E-001;-5.964418873190880E-002;3.449885640293360E-003;-2.465362427756190E-003;
2.422166666666667E+009;1.684612780809403E-001;-6.200912594795227E-002;3.342580748721957E-003;-2.575990511104465E-003;
2.422333333333334E+009;1.672854572534561E-001;-6.411352753639221E-002;3.144676797091961E-003;-2.782922470942140E-003;
2.422500000000000E+009;1.662495136260986E-001;-6.615347415208817E-002;3.076782915741205E-003;-2.876356244087219E-003;
2.422666666666667E+009;1.654411554336548E-001;-6.834036856889725E-002;3.122069640085101E-003;-2.787909004837275E-003;
2.422833333333334E+009;1.648209989070892E-001;-7.044469565153122E-002;3.063159063458443E-003;-3.033797722309828E-003;
2.423000000000000E+009;1.642126142978668E-001;-7.288208603858948E-002;2.862162189558148E-003;-3.141374094411731E-003;
2.423166666666667E+009;1.636682897806168E-001;-7.500501722097397E-002;2.813223283737898E-003;-3.104550531134009E-003;
2.423333333333334E+009;1.634447723627091E-001;-7.723756879568100E-002;2.722200937569141E-003;-3.403789829462767E-003;
2.423500000000000E+009;1.632192581892014E-001;-7.936397194862366E-002;2.584366360679269E-003;-3.405900206416845E-003;
2.423666666666667E+009;1.632962524890900E-001;-8.152594417333603E-002;2.431477885693312E-003;-3.670298261567950E-003;
2.423833333333334E+009;1.629547029733658E-001;-8.355063199996948E-002;2.291551558300853E-003;-3.710832213982940E-003;
2.424000000000000E+009;1.632482409477234E-001;-8.553896844387054E-002;2.043331740424037E-003;-3.750769887119532E-003;
2.424166666666667E+009;1.632194668054581E-001;-8.741047978401184E-002;1.827753847464919E-003;-3.826437285169959E-003;
2.424333333333334E+009;1.636886149644852E-001;-8.926852792501450E-002;1.793838455341756E-003;-3.869256237521768E-003;
2.424500000000000E+009;1.641232073307037E-001;-9.127695113420487E-002;1.630243728868663E-003;-3.991970792412758E-003;
2.424666666666667E+009;1.643741428852081E-001;-9.274782985448837E-002;1.411446253769100E-003;-3.922628238797188E-003;
2.424833333333334E+009;1.649653762578964E-001;-9.439682960510254E-002;1.285295118577778E-003;-3.907175268977881E-003;
2.425000000000000E+009;1.655064225196838E-001;-9.578274935483933E-002;1.083423034287989E-003;-3.899375442415476E-003;
2.425166666666667E+009;1.659335047006607E-001;-9.714289754629135E-002;8.365252288058400E-004;-3.953879233449698E-003;
2.425333333333334E+009;1.663221418857575E-001;-9.822110831737518E-002;7.292470545507968E-004;-3.876241389662027E-003;
2.425500000000000E+009;1.670684516429901E-001;-9.944964200258255E-002;6.925818743184209E-004;-3.766085021197796E-003;
2.425666666666667E+009;1.675548255443573E-001;-1.002605333924294E-001;4.463278164621443E-004;-3.730031661689282E-003;
2.425833333333334E+009;1.681378632783890E-001;-1.012673974037170E-001;3.672430757433176E-004;-3.602589247748256E-003;
2.426000000000000E+009;1.688570380210877E-001;-1.018813475966454E-001;2.070821356028318E-004;-3.752528456971049E-003;
2.426166666666667E+009;1.694271266460419E-001;-1.024430170655251E-001;1.049673082889058E-004;-3.670151811093092E-003;
2.426333333333334E+009;1.698505431413651E-001;-1.029840707778931E-001;2.086367021547630E-005;-3.567146835848689E-003;
2.426500000000000E+009;1.703129112720490E-001;-1.033586189150810E-001;5.118981425766833E-005;-3.458025865256786E-003;
2.426666666666667E+009;1.708631664514542E-001;-1.035819053649902E-001;-7.397936133202165E-005;-3.492420539259911E-003;
2.426833333333334E+009;1.714459806680679E-001;-1.038904264569283E-001;-3.046324709430337E-004;-3.505827160552144E-003;
2.427000000000000E+009;1.715677976608276E-001;-1.041811406612396E-001;-3.398242988623679E-004;-3.454912919551134E-003;
2.427166666666667E+009;1.719011515378952E-001;-1.042547374963760E-001;-4.384518833830953E-004;-3.342952812090516E-003;
2.427333333333334E+009;1.720787137746811E-001;-1.044124737381935E-001;-4.271377110853791E-004;-3.359532216563821E-003;
2.427500000000000E+009;1.720115393400192E-001;-1.045338362455368E-001;-6.563349743373692E-004;-3.241522237658501E-003;
2.427666666666667E+009;1.719565540552139E-001;-1.044882610440254E-001;-6.062950706109405E-004;-3.080778988078237E-003;
2.427833333333334E+009;1.718499958515167E-001;-1.044366583228111E-001;-6.195976748131216E-004;-2.953258575871587E-003;
