# Version 1.00
#
freq[Hz];re:Trc1_S11;im:Trc1_S11;re:Trc2_S21;im:Trc2_S21;
2.400000000000000E+009;1.694690585136414E-001;4.592678695917130E-002;1.873868517577648E-003;-4.539084155112505E-003;
2.400166666666667E+009;1.705237179994583E-001;4.491629078984261E-002;1.912447973154485E-003;-4.435209091752768E-003;
2.400333333333334E+009;1.715364903211594E-001;4.398344084620476E-002;1.868317020125687E-003;-4.536335356533527E-003;
2.400500000000000E+009;1.724914908409119E-001;4.285525903105736E-002;1.843838021159172E-003;-4.555000923573971E-003;
2.400666666666667E+009;1.733007133007050E-001;4.192689061164856E-002;1.829683315008879E-003;-4.657607991248369E-003;
2.400833333333334E+009;1.741700321435928E-001;4.125544428825378E-002;1.900027855299413E-003;-4.696321208029985E-003;
2.401000000000000E+009;1.750685721635819E-001;4.043566063046455E-002;1.962295966222882E-003;-4.839141387492418E-003;
2.401166666666667E+009;1.758534014225006E-001;3.953863680362701E-002;1.834160881116986E-003;-4.822216928005219E-003;
2.401333333333334E+009;1.764076352119446E-001;3.894928097724915E-002;1.857204944826663E-003;-5.030258558690548E-003;
2.401500000000000E+009;1.773953586816788E-001;3.839208558201790E-002;1.764772459864616E-003;-5.343305878341198E-003;
2.401666666666667E+009;1.778554916381836E-001;3.784439712762833E-002;1.663801725953817E-003;-5.516555625945330E-003;
2.401833333333334E+009;1.783971190452576E-001;3.720099478960037E-002;1.579507719725370E-003;-5.511189345270395E-003;
2.402000000000000E+009;1.787128001451492E-001;3.653770685195923E-002;1.550670131109655E-003;-5.691707134246826E-003;
2.402166666666667E+009;1.789627373218536E-001;3.599850833415985E-002;1.355096232146025E-003;-5.741345230489969E-003;
2.402333333333334E+009;1.794496327638626E-001;3.531054034829140E-002;1.074201078154147E-003;-5.997333675622940E-003;
2.402500000000000E+009;1.797822564840317E-001;3.491909056901932E-002;8.426036802120507E-004;-6.089698988944292E-003;
2.402666666666667E+009;1.799243986606598E-001;3.426952287554741E-002;6.394793745130301E-004;-6.459153722971678E-003;
2.402833333333334E+009;1.801428049802780E-001;3.368648514151573E-002;4.003627109341323E-004;-6.402425933629274E-003;
2.403000000000000E+009;1.799190491437912E-001;3.291187435388565E-002;2.848457661457360E-004;-6.673015188425779E-003;
2.403166666666667E+009;1.798771321773529E-001;3.215680643916130E-002;1.890535531856585E-005;-6.843036971986294E-003;
2.403333333333334E+009;1.799079477787018E-001;3.132027760148048E-002;-3.016107657458633E-004;-6.816060747951269E-003;
2.403500000000000E+009;1.796676963567734E-001;3.049410879611969E-002;-5.220783641561866E-004;-6.990642286837101E-003;
2.403666666666667E+009;1.792929619550705E-001;2.942844107747078E-002;-8.313444559462369E-004;-6.997166667133570E-003;
2.403833333333334E+009;1.790100336074829E-001;2.839630469679833E-002;-1.215956173837185E-003;-6.993818096816540E-003;
2.404000000000000E+009;1.787709444761276E-001;2.739687636494637E-002;-1.694631529971957E-003;-6.965517066419125E-003;
2.404166666666667E+009;1.781713068485260E-001;2.626433037221432E-002;-1.993950223550201E-003;-7.059724070131779E-003;
2.404333333333334E+009;1.777246594429016E-001;2.497433125972748E-002;-2.123072277754545E-003;-7.099477574229240E-003;
2.404500000000000E+009;1.771374940872192E-001;2.360809035599232E-002;-2.392635447904468E-003;-7.015098817646503E-003;
2.404666666666667E+009;1.766666024923325E-001;2.215613797307015E-002;-2.665968611836433E-003;-6.913482677191496E-003;
2.404833333333334E+009;1.762118041515350E-001;2.075106091797352E-002;-3.207256784662604E-003;-6.808375474065542E-003;
2.405000000000000E+009;1.755852103233337E-001;1.922030746936798E-002;-3.549750195816159E-003;-6.742049939930439E-003;
2.405166666666667E+009;1.750486940145493E-001;1.775230281054974E-002;-3.778489306569099E-003;-6.724741775542498E-003;
2.405333333333334E+009;1.746854633092880E-001;1.595435850322247E-002;-4.032771568745375E-003;-6.605389062315226E-003;
2.405500000000000E+009;1.741292625665665E-001;1.448451168835163E-002;-4.324568435549736E-003;-6.281436886638403E-003;
2.405666666666667E+009;1.737898588180542E-001;1.264218427240849E-002;-4.584964364767075E-003;-5.952532868832350E-003;
2.405833333333334E+009;1.733113229274750E-001;1.096134912222624E-002;-4.829880781471729E-003;-5.963114555925131E-003;
2.406000000000000E+009;1.730054467916489E-001;8.725414983928204E-003;-5.231822840869427E-003;-5.687740631401539E-003;
2.406166666666667E+009;1.726662069559097E-001;7.160018198192120E-003;-5.486522335559130E-003;-5.463473964482546E-003;
2.406333333333334E+009;1.726275533437729E-001;5.128043238073587E-003;-5.645995028316975E-003;-5.273095332086086E-003;
2.406500000000000E+009;1.723558455705643E-001;3.119424916803837E-003;-5.655645392835140E-003;-5.161583423614502E-003;
2.406666666666667E+009;1.721132695674896E-001;1.053831423632801E-003;-6.005495786666870E-003;-5.052387248724699E-003;
2.406833333333334E+009;1.722974032163620E-001;-1.156013342551887E-003;-6.347148213535547E-003;-4.559026565402746E-003;
2.407000000000000E+009;1.723196655511856E-001;-3.263644874095917E-003;-6.446246057748795E-003;-4.325040150433779E-003;
2.407166666666667E+009;1.725183576345444E-001;-5.193682853132486E-003;-6.699937395751476E-003;-4.157572519034147E-003;
2.407333333333334E+009;1.726506501436234E-001;-7.494941353797913E-003;-7.020199205726385E-003;-3.735875710844994E-003;
2.407500000000000E+009;1.728592962026596E-001;-9.545360691845417E-003;-6.979109719395638E-003;-3.553353250026703E-003;
2.407666666666667E+009;1.731600761413574E-001;-1.152496784925461E-002;-7.254385389387608E-003;-3.130369121208787E-003;
2.407833333333334E+009;1.734213531017304E-001;-1.388852670788765E-002;-7.333103101700544E-003;-2.775758504867554E-003;
2.408000000000000E+009;1.738870888948441E-001;-1.594304665923119E-002;-7.502626162022352E-003;-2.386684529483318E-003;
2.408166666666667E+009;1.742650419473648E-001;-1.786533929407597E-002;-7.681756280362606E-003;-2.000583102926612E-003;
2.408333333333334E+009;1.750082820653915E-001;-1.991523802280426E-002;-7.621527649462223E-003;-1.656333566643298E-003;
2.408500000000000E+009;1.752006262540817E-001;-2.173254452645779E-002;-7.843579165637493E-003;-1.172959455288947E-003;
2.408666666666667E+009;1.756923794746399E-001;-2.375909872353077E-002;-7.677701767534018E-003;-8.617890416644514E-004;
2.408833333333334E+009;1.760008037090302E-001;-2.556418813765049E-002;-7.669244892895222E-003;-3.988459066022188E-004;
2.409000000000000E+009;1.763549149036408E-001;-2.709921821951866E-002;-7.637885399162769E-003;-4.538083157967776E-005;
2.409166666666667E+009;1.767825335264206E-001;-2.868703380227089E-002;-7.426393218338490E-003;4.440655466169119E-004;
2.409333333333334E+009;1.774962246417999E-001;-3.032238781452179E-002;-7.173532154411078E-003;6.624936941079795E-004;
2.409500000000000E+009;1.777918189764023E-001;-3.166998550295830E-002;-7.139123510569334E-003;1.039686379954219E-003;
2.409666666666667E+009;1.782902479171753E-001;-3.289474546909332E-002;-6.914519704878330E-003;1.345386146567762E-003;
2.409833333333334E+009;1.785227954387665E-001;-3.363046050071716E-002;-6.892992649227381E-003;1.510387286543846E-003;
2.410000000000000E+009;1.792079359292984E-001;-3.474884107708931E-002;-6.675051059573889E-003;1.754165627062321E-003;
2.410166666666667E+009;1.797272413969040E-001;-3.557293862104416E-002;-6.546061486005783E-003;1.984781818464398E-003;
2.410333333333334E+009;1.802369356155396E-001;-3.652383759617806E-002;-6.181757897138596E-003;2.286495873704553E-003;
2.410500000000000E+009;1.807743012905121E-001;-3.726170212030411E-002;-6.138556636869907E-003;2.250787103548646E-003;
2.410666666666667E+009;1.809342801570892E-001;-3.800329938530922E-002;-6.013643462210894E-003;2.463221317157149E-003;
2.410833333333334E+009;1.813466697931290E-001;-3.858961537480354E-002;-5.819215904921293E-003;2.665037056431174E-003;
2.411000000000000E+009;1.816921979188919E-001;-3.906898945569992E-002;-5.684282165020704E-003;2.967645879834890E-003;
2.411166666666667E+009;1.817927658557892E-001;-3.958150744438171E-002;-5.490457173436880E-003;3.005549078807235E-003;
2.411333333333334E+009;1.821139305830002E-001;-4.000598564743996E-002;-5.461561959236860E-003;3.146922215819359E-003;
2.411500000000000E+009;1.820123642683029E-001;-4.048049822449684E-002;-5.117170512676239E-003;3.367461496964097E-003;
2.411666666666667E+009;1.823564916849136E-001;-4.074055328965187E-002;-5.026888567954302E-003;3.416945924982429E-003;
2.411833333333334E+009;1.820244342088699E-001;-4.094450920820236E-002;-4.958323203027248E-003;3.503932151943445E-003;
2.412000000000000E+009;1.820284724235535E-001;-4.141113534569740E-002;-4.656312521547079E-003;3.665171330794692E-003;
2.412166666666667E+009;1.816364675760269E-001;-4.171282425522804E-002;-4.741032607853413E-003;3.729951102286577E-003;
2.412333333333334E+009;1.815028786659241E-001;-4.201678931713104E-002;-4.357282072305679E-003;3.773451549932361E-003;
2.412500000000000E+009;1.808167248964310E-001;-4.240069165825844E-002;-4.122575744986534E-003;3.749178256839514E-003;
2.412666666666667E+009;1.803787648677826E-001;-4.271439090371132E-002;-3.983167931437492E-003;3.964816220104694E-003;
2.412833333333334E+009;1.798503249883652E-001;-4.303661361336708E-002;-3.820388112217188E-003;4.038009326905012E-003;
2.413000000000000E+009;1.789719760417938E-001;-4.325078055262566E-002;-3.620644565671682E-003;4.061999265104532E-003;
2.413166666666667E+009;1.780487447977066E-001;-4.374101385474205E-002;-3.585744416341186E-003;4.144939128309488E-003;
2.413333333333334E+009;1.771063655614853E-001;-4.418152198195458E-002;-3.400813555344939E-003;4.185629077255726E-003;
2.413500000000000E+009;1.763059198856354E-001;-4.458896815776825E-002;-3.329764120280743E-003;4.323221277445555E-003;
2.413666666666667E+009;1.753579229116440E-001;-4.521281644701958E-002;-3.130330238491297E-003;4.306669346988201E-003;
2.413833333333334E+009;1.740940213203430E-001;-4.570950940251350E-002;-2.910895040258765E-003;4.427159670740366E-003;
2.414000000000000E+009;1.727787107229233E-001;-4.640513658523560E-002;-2.772783627733588E-003;4.172643646597862E-003;
2.414166666666667E+009;1.717606335878372E-001;-4.706986993551254E-002;-2.771405037492514E-003;4.235441330820322E-003;
2.414333333333334E+009;1.704380363225937E-001;-4.790556803345680E-002;-2.699974458664656E-003;4.351722542196512E-003;
2.414500000000000E+009;1.694992035627365E-001;-4.854679852724075E-002;-2.603689674288034E-003;4.368993919342756E-003;
2.414666666666667E+009;1.680389344692230E-001;-4.953473433852196E-002;-2.414945978671312E-003;4.445302300155163E-003;
2.414833333333334E+009;1.668034493923187E-001;-5.082911252975464E-002;-2.454356290400028E-003;4.440233111381531E-003;
2.415000000000000E+009;1.655917763710022E-001;-5.178249627351761E-002;-2.467881655320525E-003;4.586755298078060E-003;
2.415166666666667E+009;1.642900258302689E-001;-5.303728580474854E-002;-2.283135429024696E-003;4.590531811118126E-003;
2.415333333333334E+009;1.632679253816605E-001;-5.457378178834915E-002;-2.116293180733919E-003;4.774719476699829E-003;
2.415500000000000E+009;1.620793491601944E-001;-5.580236390233040E-002;-2.225274685770273E-003;4.782027099281550E-003;
2.415666666666667E+009;1.609887182712555E-001;-5.735645443201065E-002;-1.953857950866222E-003;4.781581927090883E-003;
2.415833333333334E+009;1.599086076021195E-001;-5.891902372241020E-002;-1.902879914268851E-003;4.967589862644672E-003;
2.416000000000000E+009;1.586509197950363E-001;-6.059160828590393E-002;-1.866234699264169E-003;5.014009773731232E-003;
2.416166666666667E+009;1.578523814678192E-001;-6.245781853795052E-002;-1.535359770059586E-003;5.085162352770567E-003;
2.416333333333334E+009;1.568148136138916E-001;-6.423074752092362E-002;-1.570334658026695E-003;5.209987051784992E-003;
2.416500000000000E+009;1.558406502008438E-001;-6.615568697452545E-002;-1.373445498757064E-003;5.379198119044304E-003;
2.416666666666667E+009;1.548986136913300E-001;-6.800992786884308E-002;-1.154499128460884E-003;5.563134793192148E-003;
2.416833333333334E+009;1.541939228773117E-001;-7.018916308879852E-002;-9.501092135906220E-004;5.489841569215059E-003;
2.417000000000000E+009;1.533636599779129E-001;-7.215125858783722E-002;-7.942743250168860E-004;5.739074666053057E-003;
2.417166666666667E+009;1.527477651834488E-001;-7.392360270023346E-002;-5.372142186388373E-004;5.720495246350765E-003;
2.417333333333334E+009;1.520455181598663E-001;-7.588231563568115E-002;-3.016505506820977E-004;5.685767624527216E-003;
2.417500000000000E+009;1.514346152544022E-001;-7.806161791086197E-002;-1.474902237532660E-004;5.898040719330311E-003;
2.417666666666667E+009;1.511772722005844E-001;-7.977803796529770E-002;2.426659630145878E-004;5.889517255127430E-003;
2.417833333333334E+009;1.506499201059341E-001;-8.172898739576340E-002;5.245988722890616E-004;5.781372077763081E-003;
2.418000000000000E+009;1.501502692699432E-001;-8.369687199592590E-002;7.412269478663802E-004;5.828672088682652E-003;
2.418166666666667E+009;1.499351710081101E-001;-8.519129455089569E-002;9.546492947265506E-004;5.825673695653677E-003;
2.418333333333334E+009;1.499675512313843E-001;-8.708477765321732E-002;1.322026713751257E-003;5.775704979896545E-003;
2.418500000000000E+009;1.497620195150375E-001;-8.862563222646713E-002;1.501231221482158E-003;5.668417550623417E-003;
2.418666666666667E+009;1.498171389102936E-001;-9.020683914422989E-002;1.766714965924621E-003;5.536780692636967E-003;
2.418833333333334E+009;1.496224105358124E-001;-9.173939377069473E-002;2.152381697669625E-003;5.393521860241890E-003;
2.419000000000000E+009;1.496352106332779E-001;-9.311332553625107E-002;2.333502518013120E-003;5.293597467243671E-003;
2.419166666666667E+009;1.497912108898163E-001;-9.440195560455322E-002;2.616594545543194E-003;5.016812589019537E-003;
2.419333333333334E+009;1.497688889503479E-001;-9.523568302392960E-002;2.867955248802900E-003;4.887132905423641E-003;
2.419500000000000E+009;1.499239653348923E-001;-9.642689675092697E-002;3.023002995178103E-003;4.595571197569370E-003;
2.419666666666667E+009;1.503661274909973E-001;-9.744132310152054E-002;3.298845840618014E-003;4.429080523550510E-003;
2.419833333333334E+009;1.503617316484451E-001;-9.811449050903320E-002;3.280292730778456E-003;4.140330944210291E-003;
2.420000000000000E+009;1.510002762079239E-001;-9.878085553646088E-002;3.406344447284937E-003;3.940399736166000E-003;
2.420166666666667E+009;1.510995328426361E-001;-9.940442442893982E-002;3.504819702357054E-003;3.769598202779889E-003;
2.420333333333334E+009;1.515656858682632E-001;-9.974809736013413E-002;3.502350999042392E-003;3.523046150803566E-003;
2.420500000000000E+009;1.519292145967484E-001;-1.000807881355286E-001;3.465088782832027E-003;3.356565721333027E-003;
2.420666666666667E+009;1.520095169544220E-001;-1.002474576234818E-001;3.623578231781721E-003;3.051690291613340E-003;
2.420833333333334E+009;1.523921340703964E-001;-1.004558429121971E-001;3.646978409960866E-003;2.981260418891907E-003;
2.421000000000000E+009;1.525817066431046E-001;-1.006587073206902E-001;3.580034943297505E-003;2.900817431509495E-003;
2.421166666666667E+009;1.528045833110809E-001;-1.005430594086647E-001;3.533722134307027E-003;2.721597906202078E-003;
2.421333333333334E+009;1.531390249729157E-001;-1.005590036511421E-001;3.626642283052206E-003;2.622224157676101E-003;
2.421500000000000E+009;1.531389802694321E-001;-1.002302393317223E-001;3.649803809821606E-003;2.561268862336874E-003;
2.421666666666667E+009;1.531167775392532E-001;-1.002982333302498E-001;3.602834418416023E-003;2.349390881136060E-003;
2.421833333333334E+009;1.531117856502533E-001;-9.990470111370087E-002;3.566212253645062E-003;2.255967119708657E-003;
2.422000000000000E+009;1.529795676469803E-001;-9.976404905319214E-002;3.366783494129777E-003;2.105493796989322E-003;
2.422166666666667E+009;1.525978446006775E-001;-9.963023662567139E-002;3.515479154884815E-003;2.045564819127321E-003;
2.422333333333334E+009;1.523059010505676E-001;-9.923516213893890E-002;3.662170143797994E-003;1.897414796985686E-003;
2.422500000000000E+009;1.518031805753708E-001;-9.881705790758133E-002;3.594181733205915E-003;1.745464163832367E-003;
2.422666666666667E+009;1.510717272758484E-001;-9.853341430425644E-002;3.532063448801637E-003;1.719517051242292E-003;
2.422833333333334E+009;1.505160182714462E-001;-9.843298047780991E-002;3.666458185762167E-003;1.529331901110709E-003;
2.423000000000000E+009;1.495603471994400E-001;-9.771542251110077E-002;3.683084389194846E-003;1.410745433531702E-003;
2.423166666666667E+009;1.486928910017014E-001;-9.742251783609390E-002;3.533360548317432E-003;1.393070910125971E-003;
2.423333333333334E+009;1.478621661663055E-001;-9.698688238859177E-002;3.504864405840635E-003;1.182410866022110E-003;
2.423500000000000E+009;1.466243118047714E-001;-9.675441682338715E-002;3.659928916022182E-003;1.153275021351874E-003;
2.423666666666667E+009;1.451297998428345E-001;-9.658099710941315E-002;3.436431288719177E-003;1.124854432418943E-003;
2.423833333333334E+009;1.441287100315094E-001;-9.620951861143112E-002;3.576671238988638E-003;1.017940114252269E-003;
2.424000000000000E+009;1.427075117826462E-001;-9.590487927198410E-002;3.335983259603381E-003;9.471740340813994E-004;
2.424166666666667E+009;1.412578523159027E-001;-9.568235278129578E-002;3.429050557315350E-003;9.112725965678692E-004;
2.424333333333334E+009;1.399822086095810E-001;-9.555535018444061E-002;3.530776361003518E-003;8.736937306821346E-004;
2.424500000000000E+009;1.385165750980377E-001;-9.553536772727966E-002;3.359297057613730E-003;7.551629096269608E-004;
2.424666666666667E+009;1.370878666639328E-001;-9.552386403083801E-002;3.339591203257442E-003;8.598850108683109E-004;
2.424833333333334E+009;1.353961825370789E-001;-9.570618718862534E-002;3.463971195742488E-003;8.237855508923531E-004;
2.425000000000000E+009;1.341223567724228E-001;-9.598226100206375E-002;3.432537661865354E-003;6.996410083957017E-004;
2.425166666666667E+009;1.324121057987213E-001;-9.645051509141922E-002;3.469807561486960E-003;8.871207246556878E-004;
2.425333333333334E+009;1.309035122394562E-001;-9.697894006967545E-002;3.357884241268039E-003;7.281900034286082E-004;
2.425500000000000E+009;1.295453161001205E-001;-9.761361032724381E-002;3.547525266185403E-003;5.596230039373040E-004;
2.425666666666667E+009;1.279508173465729E-001;-9.833284467458725E-002;3.588079707697034E-003;6.222805241122842E-004;
2.425833333333334E+009;1.265434473752976E-001;-9.916247427463532E-002;3.442118177190423E-003;5.786027759313583E-004;
2.426000000000000E+009;1.251544356346130E-001;-1.003099530935288E-001;3.748966613784432E-003;5.073499632999301E-004;
2.426166666666667E+009;1.238548383116722E-001;-1.014521867036820E-001;3.730782540515065E-003;4.103339451830834E-004;
2.426333333333334E+009;1.224983483552933E-001;-1.026533842086792E-001;3.916721791028976E-003;4.452950379345566E-004;
2.426500000000000E+009;1.213037371635437E-001;-1.039465218782425E-001;3.860154189169407E-003;1.479450729675591E-004;
2.426666666666667E+009;1.202626675367355E-001;-1.052726209163666E-001;3.929805010557175E-003;1.815937866922468E-004;
2.426833333333334E+009;1.190346404910088E-001;-1.068964302539825E-001;3.894433612003923E-003;-8.247355435742065E-005;
2.427000000000000E+009;1.178153082728386E-001;-1.084853634238243E-001;3.958433866500855E-003;-9.638338815420866E-005;
2.427166666666667E+009;1.169080659747124E-001;-1.099769026041031E-001;3.870624583214521E-003;-1.602588163223118E-004;
2.427333333333334E+009;1.160113513469696E-001;-1.117384433746338E-001;3.966131713241339E-003;-3.782065468840301E-004;
2.427500000000000E+009;1.152251586318016E-001;-1.134661212563515E-001;3.960623405873776E-003;-3.766699519474059E-004;
2.427666666666667E+009;1.145129576325417E-001;-1.152129620313644E-001;3.931937273591757E-003;-6.111360853537917E-004;
