# Version 1.00
#
freq[Hz];re:Trc1_S11;im:Trc1_S11;re:Trc2_S21;im:Trc2_S21;
2.400000000000000E+009;1.696058511734009E-001;4.581766948103905E-002;1.985461451113224E-003;-4.401501268148422E-003;
2.400166666666667E+009;1.703631728887558E-001;4.502572864294052E-002;1.823449623771012E-003;-4.404533188790083E-003;
2.400333333333334E+009;1.714934557676315E-001;4.387059435248375E-002;2.019303385168314E-003;-4.322857130318880E-003;
2.400500000000000E+009;1.725097745656967E-001;4.268461093306541E-002;1.741161686368287E-003;-4.308052361011505E-003;
2.400666666666667E+009;1.733136475086212E-001;4.165168851613998E-002;1.932914252392948E-003;-4.599186126142740E-003;
2.400833333333334E+009;1.742726117372513E-001;4.123963788151741E-002;1.883408986032009E-003;-4.739179741591215E-003;
2.401000000000000E+009;1.750797778367996E-001;4.032237455248833E-002;1.737552811391652E-003;-4.856130108237267E-003;
2.401166666666667E+009;1.759688556194305E-001;3.934774175286293E-002;1.801978214643896E-003;-4.821667913347483E-003;
2.401333333333334E+009;1.764658689498901E-001;3.883963450789452E-002;1.823769882321358E-003;-5.151416640728712E-003;
2.401500000000000E+009;1.773238331079483E-001;3.821130469441414E-002;1.669001183472574E-003;-5.249055102467537E-003;
2.401666666666667E+009;1.779216229915619E-001;3.772152215242386E-002;1.667092903517187E-003;-5.346651654690504E-003;
2.401833333333334E+009;1.782899945974350E-001;3.701903298497200E-002;1.547882333397865E-003;-5.471176002174616E-003;
2.402000000000000E+009;1.787046939134598E-001;3.670262172818184E-002;1.565386774018407E-003;-5.708123557269573E-003;
2.402166666666667E+009;1.792881935834885E-001;3.585679829120636E-002;1.269760425202549E-003;-5.768279079347849E-003;
2.402333333333334E+009;1.794677227735519E-001;3.534587472677231E-002;1.147400122135878E-003;-5.964046344161034E-003;
2.402500000000000E+009;1.798372119665146E-001;3.474585711956024E-002;9.241906809620559E-004;-6.095563527196646E-003;
2.402666666666667E+009;1.799295991659164E-001;3.424743935465813E-002;7.773445686325431E-004;-6.327049341052771E-003;
2.402833333333334E+009;1.799747347831726E-001;3.357757627964020E-002;6.211159634403884E-004;-6.613788660615683E-003;
2.403000000000000E+009;1.801751106977463E-001;3.281317651271820E-002;2.387112617725506E-004;-6.553892977535725E-003;
2.403166666666667E+009;1.800815165042877E-001;3.204785659909248E-002;7.522265150328167E-006;-6.983278784900904E-003;
2.403333333333334E+009;1.799121797084808E-001;3.137261420488358E-002;-2.578266139607877E-004;-6.866776850074530E-003;
2.403500000000000E+009;1.794418096542358E-001;3.033263795077801E-002;-4.726603219751269E-004;-7.075318135321140E-003;
2.403666666666667E+009;1.795364618301392E-001;2.951903641223908E-002;-8.628082578070462E-004;-6.974810268729925E-003;
2.403833333333334E+009;1.791846752166748E-001;2.843946777284145E-002;-1.276072463952005E-003;-7.058682385832071E-003;
2.404000000000000E+009;1.786335408687592E-001;2.732799760997295E-002;-1.456139376387000E-003;-7.041208911687136E-003;
2.404166666666667E+009;1.781595796346664E-001;2.619817107915878E-002;-1.872481661848724E-003;-7.092851214110851E-003;
2.404333333333334E+009;1.774575263261795E-001;2.502775378525257E-002;-2.277080435305834E-003;-7.067729253321886E-003;
2.404500000000000E+009;1.770136803388596E-001;2.361569181084633E-002;-2.526688622310758E-003;-7.105702534317970E-003;
2.404666666666667E+009;1.766669899225235E-001;2.222294919192791E-002;-2.862533787265420E-003;-6.689027883112431E-003;
2.404833333333334E+009;1.761380583047867E-001;2.086991816759110E-002;-3.146283328533173E-003;-6.787220016121864E-003;
2.405000000000000E+009;1.756249070167542E-001;1.923677884042263E-002;-3.467194037511945E-003;-6.852663587778807E-003;
2.405166666666667E+009;1.751688271760941E-001;1.775110512971878E-002;-3.716644598171115E-003;-6.657820660620928E-003;
2.405333333333334E+009;1.745939999818802E-001;1.589982025325298E-002;-4.043168853968382E-003;-6.395329255610704E-003;
2.405500000000000E+009;1.742040216922760E-001;1.432371325790882E-002;-4.457899369299412E-003;-6.259453017264605E-003;
2.405666666666667E+009;1.737985759973526E-001;1.263612322509289E-002;-4.638423677533865E-003;-6.000911351293325E-003;
2.405833333333334E+009;1.733256280422211E-001;1.088615972548723E-002;-4.866669420152903E-003;-6.006948649883270E-003;
2.406000000000000E+009;1.729683876037598E-001;8.921001106500626E-003;-5.123822949826717E-003;-5.730692297220230E-003;
2.406166666666667E+009;1.725913286209106E-001;7.088163867592812E-003;-5.371697247028351E-003;-5.510458722710609E-003;
2.406333333333334E+009;1.726568937301636E-001;5.056919995695353E-003;-5.507518071681261E-003;-5.044634919613600E-003;
2.406500000000000E+009;1.724191009998322E-001;3.037419868633151E-003;-5.911200772970915E-003;-5.066450685262680E-003;
2.406666666666667E+009;1.722071617841721E-001;1.017778064124286E-003;-6.063519511371851E-003;-4.747013095766306E-003;
2.406833333333334E+009;1.722591519355774E-001;-1.247256528586149E-003;-6.250878330320120E-003;-4.399054683744907E-003;
2.407000000000000E+009;1.722892373800278E-001;-3.374536056071520E-003;-6.355054210871458E-003;-4.291360266506672E-003;
2.407166666666667E+009;1.724975705146790E-001;-5.363497883081436E-003;-6.665666587650776E-003;-3.974341321736574E-003;
2.407333333333334E+009;1.725456714630127E-001;-7.579309400171042E-003;-6.819009315222502E-003;-3.667613258585334E-003;
2.407500000000000E+009;1.727419644594193E-001;-9.530303999781609E-003;-6.988802924752235E-003;-3.467335831373930E-003;
2.407666666666667E+009;1.730622351169586E-001;-1.153003238141537E-002;-7.111990358680487E-003;-3.115461440756917E-003;
2.407833333333334E+009;1.732308119535446E-001;-1.386025734245777E-002;-7.409261539578438E-003;-2.940347185358405E-003;
2.408000000000000E+009;1.737523078918457E-001;-1.577390544116497E-002;-7.278149947524071E-003;-2.475270302966237E-003;
2.408166666666667E+009;1.741785258054733E-001;-1.786965504288673E-002;-7.588032633066177E-003;-2.079330384731293E-003;
2.408333333333334E+009;1.748744696378708E-001;-1.981327868998051E-002;-7.650609593838453E-003;-1.531287562102079E-003;
2.408500000000000E+009;1.751167327165604E-001;-2.183764614164829E-002;-7.707464508712292E-003;-1.387791242450476E-003;
2.408666666666667E+009;1.757110953330994E-001;-2.381167560815811E-002;-7.636013906449080E-003;-8.008535951375961E-004;
2.408833333333334E+009;1.758260875940323E-001;-2.548283152282238E-002;-7.454716134816408E-003;-4.851728444918990E-004;
2.409000000000000E+009;1.764284968376160E-001;-2.706593088805676E-002;-7.557274773716927E-003;-1.735321857267991E-004;
2.409166666666667E+009;1.770078688859940E-001;-2.873821556568146E-002;-7.601487450301647E-003;1.710488431854174E-004;
2.409333333333334E+009;1.774675548076630E-001;-3.014353848993778E-002;-7.423324044793844E-003;5.829919246025384E-004;
2.409500000000000E+009;1.779063045978546E-001;-3.169402480125427E-002;-7.325235754251480E-003;9.670239523984492E-004;
2.409666666666667E+009;1.782325804233551E-001;-3.273978829383850E-002;-7.120378315448761E-003;1.192106516100466E-003;
2.409833333333334E+009;1.787565052509308E-001;-3.382130712270737E-002;-6.928653921931982E-003;1.456696772947907E-003;
2.410000000000000E+009;1.793679445981979E-001;-3.486059606075287E-002;-6.721308920532465E-003;1.884956844151020E-003;
2.410166666666667E+009;1.797721385955811E-001;-3.570803999900818E-002;-6.610896904021502E-003;1.864065416157246E-003;
2.410333333333334E+009;1.800646334886551E-001;-3.640341386198998E-002;-6.307593081146479E-003;2.171229338273406E-003;
2.410500000000000E+009;1.808169633150101E-001;-3.728270530700684E-002;-6.189673207700253E-003;2.421031706035137E-003;
2.410666666666667E+009;1.809932887554169E-001;-3.804138675332069E-002;-5.969907157123089E-003;2.607844071462750E-003;
2.410833333333334E+009;1.814652979373932E-001;-3.857570514082909E-002;-5.927378777414560E-003;2.648856025189161E-003;
2.411000000000000E+009;1.817706525325775E-001;-3.912600129842758E-002;-5.703687202185392E-003;2.835895866155624E-003;
2.411166666666667E+009;1.819779276847839E-001;-3.941375389695168E-002;-5.477752536535263E-003;3.012706525623798E-003;
2.411333333333334E+009;1.821856945753098E-001;-3.993653506040573E-002;-5.338168237358332E-003;3.225588472560048E-003;
2.411500000000000E+009;1.821845471858978E-001;-4.065151885151863E-002;-5.173071287572384E-003;3.270841669291258E-003;
2.411666666666667E+009;1.822322309017181E-001;-4.087039828300476E-002;-4.964093212038279E-003;3.418650478124619E-003;
2.411833333333334E+009;1.821202933788300E-001;-4.092681035399437E-002;-4.778701346367598E-003;3.513534320518374E-003;
2.412000000000000E+009;1.818704009056091E-001;-4.158547893166542E-002;-4.709692671895027E-003;3.540343837812543E-003;
2.412166666666667E+009;1.816293150186539E-001;-4.188133031129837E-002;-4.543372429907322E-003;3.702070796862245E-003;
2.412333333333334E+009;1.814650297164917E-001;-4.199757054448128E-002;-4.333775956183672E-003;3.804984269663692E-003;
2.412500000000000E+009;1.809282451868057E-001;-4.238102585077286E-002;-4.145520273596048E-003;3.994648810476065E-003;
2.412666666666667E+009;1.803156435489655E-001;-4.277891665697098E-002;-3.957437817007303E-003;3.886975347995758E-003;
2.412833333333334E+009;1.796907633543015E-001;-4.304275661706924E-002;-3.792219096794725E-003;4.108484368771315E-003;
2.413000000000000E+009;1.788128614425659E-001;-4.352103546261787E-002;-3.615966066718102E-003;4.142246674746275E-003;
2.413166666666667E+009;1.781229525804520E-001;-4.383764788508415E-002;-3.326305421069264E-003;4.271138925105333E-003;
2.413333333333334E+009;1.770833432674408E-001;-4.426116868853569E-002;-3.353776643052697E-003;4.257168620824814E-003;
2.413500000000000E+009;1.761004179716110E-001;-4.480948671698570E-002;-3.210631664842367E-003;4.365557339042425E-003;
2.413666666666667E+009;1.751044541597366E-001;-4.519221559166908E-002;-3.212638432160020E-003;4.362273495644331E-003;
2.413833333333334E+009;1.739346683025360E-001;-4.573117196559906E-002;-2.926119603216648E-003;4.285497125238180E-003;
2.414000000000000E+009;1.726811677217484E-001;-4.656511917710304E-002;-2.829076722264290E-003;4.334755241870880E-003;
2.414166666666667E+009;1.715079396963120E-001;-4.694772511720657E-002;-2.651788759976625E-003;4.372339695692062E-003;
2.414333333333334E+009;1.703886091709137E-001;-4.799264669418335E-002;-2.632715739309788E-003;4.319610074162483E-003;
2.414500000000000E+009;1.693722158670425E-001;-4.865207150578499E-002;-2.370477654039860E-003;4.282352048903704E-003;
2.414666666666667E+009;1.679910421371460E-001;-4.958817362785339E-002;-2.475183457136154E-003;4.363021347671747E-003;
2.414833333333334E+009;1.667240411043167E-001;-5.073256790637970E-002;-2.436968265101314E-003;4.403040744364262E-003;
2.415000000000000E+009;1.654892116785049E-001;-5.172834545373917E-002;-2.246408723294735E-003;4.491518251597881E-003;
2.415166666666667E+009;1.641840040683746E-001;-5.309586226940155E-002;-2.400081837549806E-003;4.541228991001844E-003;
2.415333333333334E+009;1.632508188486099E-001;-5.444778874516487E-002;-2.164031611755490E-003;4.794736858457327E-003;
2.415500000000000E+009;1.620636135339737E-001;-5.581896007061005E-002;-2.065288135781884E-003;4.815185908228159E-003;
2.415666666666667E+009;1.607531756162643E-001;-5.734306573867798E-002;-2.188907703384757E-003;4.825382959097624E-003;
2.415833333333334E+009;1.598009616136551E-001;-5.899358540773392E-002;-2.019517123699188E-003;5.056038033217192E-003;
2.416000000000000E+009;1.584993600845337E-001;-6.062269583344460E-002;-1.621530391275883E-003;5.067717749625444E-003;
2.416166666666667E+009;1.576755195856094E-001;-6.230987980961800E-002;-1.641913666389883E-003;5.064120981842279E-003;
2.416333333333334E+009;1.567518413066864E-001;-6.415508687496185E-002;-1.481246785260737E-003;5.159908439964056E-003;
2.416500000000000E+009;1.558602899312973E-001;-6.615284830331802E-002;-1.332338433712721E-003;5.392184946686029E-003;
2.416666666666667E+009;1.548784822225571E-001;-6.795914471149445E-002;-1.166497007943690E-003;5.586287006735802E-003;
2.416833333333334E+009;1.541696786880493E-001;-7.008965313434601E-002;-1.009869971312583E-003;5.604091100394726E-003;
2.417000000000000E+009;1.532142907381058E-001;-7.206825166940689E-002;-6.654100725427270E-004;5.651272833347321E-003;
2.417166666666667E+009;1.527005583047867E-001;-7.387647032737732E-002;-5.285914521664381E-004;5.608519073575735E-003;
2.417333333333334E+009;1.521279513835907E-001;-7.584758102893829E-002;-2.685352519620210E-004;5.727618001401424E-003;
2.417500000000000E+009;1.514488011598587E-001;-7.806066423654556E-002;-1.937119814101607E-004;5.840495694428682E-003;
2.417666666666667E+009;1.511903405189514E-001;-7.976853102445602E-002;1.982463290914893E-004;5.937833804637194E-003;
2.417833333333334E+009;1.506799310445786E-001;-8.169991523027420E-002;4.040846251882613E-004;5.901810247451067E-003;
2.418000000000000E+009;1.503212302923203E-001;-8.366658538579941E-002;8.738361648283899E-004;5.801080260425806E-003;
2.418166666666667E+009;1.498746275901794E-001;-8.523989468812943E-002;9.923077886924148E-004;5.784916691482067E-003;
2.418333333333334E+009;1.499581485986710E-001;-8.700472861528397E-002;1.240730751305819E-003;5.845923442393541E-003;
2.418500000000000E+009;1.497734934091568E-001;-8.876265585422516E-002;1.507745939306915E-003;5.685845855623484E-003;
2.418666666666667E+009;1.497597545385361E-001;-9.034526348114014E-002;1.779793063178659E-003;5.525703076273203E-003;
2.418833333333334E+009;1.496568471193314E-001;-9.175651520490646E-002;2.079347381368280E-003;5.383399315178394E-003;
2.419000000000000E+009;1.494688242673874E-001;-9.301767498254776E-002;2.455480862408876E-003;5.248367320746183E-003;
2.419166666666667E+009;1.496548503637314E-001;-9.438392519950867E-002;2.410005312412977E-003;5.066759418696165E-003;
2.419333333333334E+009;1.496100425720215E-001;-9.527274966239929E-002;2.725579077377915E-003;4.771338775753975E-003;
2.419500000000000E+009;1.501139253377914E-001;-9.651575982570648E-002;3.001817502081394E-003;4.742530174553394E-003;
2.419666666666667E+009;1.502897590398789E-001;-9.739947319030762E-002;3.215748351067305E-003;4.427358508110046E-003;
2.419833333333334E+009;1.505019515752792E-001;-9.799139946699143E-002;3.284661099314690E-003;4.332005977630615E-003;
2.420000000000000E+009;1.509488224983215E-001;-9.880682080984116E-002;3.337906440719962E-003;4.012659192085266E-003;
2.420166666666667E+009;1.510947197675705E-001;-9.922325611114502E-002;3.499221522361040E-003;3.665851894766092E-003;
2.420333333333334E+009;1.514362543821335E-001;-9.964347630739212E-002;3.474045312032104E-003;3.634580643847585E-003;
2.420500000000000E+009;1.516726166009903E-001;-9.995974600315094E-002;3.659180831164122E-003;3.436490660533309E-003;
2.420666666666667E+009;1.521272957324982E-001;-1.000902429223061E-001;3.484800457954407E-003;3.090207464993000E-003;
2.420833333333334E+009;1.525287628173828E-001;-1.003714874386787E-001;3.729691961780191E-003;2.954145427793264E-003;
2.421000000000000E+009;1.525519490242004E-001;-1.004513874650002E-001;3.616866655647755E-003;2.803889568895102E-003;
2.421166666666667E+009;1.529297530651093E-001;-1.004632562398911E-001;3.541308455169201E-003;2.613829448819161E-003;
2.421333333333334E+009;1.531105637550354E-001;-1.004468426108360E-001;3.626015968620777E-003;2.505013486370444E-003;
2.421500000000000E+009;1.530385166406632E-001;-1.003597155213356E-001;3.562792437151074E-003;2.374919597059488E-003;
2.421666666666667E+009;1.530881226062775E-001;-1.002096086740494E-001;3.654209198430181E-003;2.286192262545228E-003;
2.421833333333334E+009;1.530983150005341E-001;-9.987085312604904E-002;3.516623750329018E-003;2.165513345971704E-003;
2.422000000000000E+009;1.529417037963867E-001;-9.979609400033951E-002;3.579897340387106E-003;2.253603888675571E-003;
2.422166666666667E+009;1.526941061019898E-001;-9.962406754493713E-002;3.554324852302671E-003;2.079917583614588E-003;
2.422333333333334E+009;1.522575020790100E-001;-9.915321320295334E-002;3.395384643226862E-003;1.806886401027441E-003;
2.422500000000000E+009;1.516998261213303E-001;-9.866406023502350E-002;3.548801178112626E-003;1.764069660566747E-003;
2.422666666666667E+009;1.510711908340454E-001;-9.857495129108429E-002;3.648369340226054E-003;1.712029799818993E-003;
2.422833333333334E+009;1.505307406187058E-001;-9.824991971254349E-002;3.513777628540993E-003;1.581416581757367E-003;
2.423000000000000E+009;1.497255116701126E-001;-9.776338189840317E-002;3.619767492637038E-003;1.401148736476898E-003;
2.423166666666667E+009;1.486737579107285E-001;-9.744220972061157E-002;3.475228091701865E-003;1.425376045517623E-003;
2.423333333333334E+009;1.478213071823120E-001;-9.684490412473679E-002;3.527485532686114E-003;1.309736631810665E-003;
2.423500000000000E+009;1.465264260768890E-001;-9.667368233203888E-002;3.624112578108907E-003;1.127658877521753E-003;
2.423666666666667E+009;1.452603191137314E-001;-9.643387049436569E-002;3.521972335875034E-003;1.058540074154735E-003;
2.423833333333334E+009;1.440851688385010E-001;-9.614168852567673E-002;3.460448700934649E-003;1.011361368000507E-003;
2.424000000000000E+009;1.428378969430924E-001;-9.573668241500855E-002;3.537392942234874E-003;8.841900271363556E-004;
2.424166666666667E+009;1.412727832794190E-001;-9.566130489110947E-002;3.388282377272844E-003;8.570681093260646E-004;
2.424333333333334E+009;1.400134414434433E-001;-9.549891948699951E-002;3.401083173230290E-003;8.464182610623539E-004;
2.424500000000000E+009;1.386218667030335E-001;-9.554840624332428E-002;3.523815656080842E-003;8.864609408192337E-004;
2.424666666666667E+009;1.372487246990204E-001;-9.539468586444855E-002;3.232100280001760E-003;7.955898763611913E-004;
2.424833333333334E+009;1.355448365211487E-001;-9.555956721305847E-002;3.273138543590903E-003;6.780111580155790E-004;
2.425000000000000E+009;1.340668648481369E-001;-9.592891484498978E-002;3.351294202730060E-003;7.294985116459429E-004;
2.425166666666667E+009;1.324301511049271E-001;-9.638953953981400E-002;3.331460990011692E-003;7.636735099367797E-004;
2.425333333333334E+009;1.310608983039856E-001;-9.682639688253403E-002;3.353798994794488E-003;7.961380179040134E-004;
2.425500000000000E+009;1.296254247426987E-001;-9.768919646739960E-002;3.353826468810439E-003;6.961061153560877E-004;
2.425666666666667E+009;1.279911249876022E-001;-9.841150790452957E-002;3.532248316332698E-003;6.445592734962702E-004;
2.425833333333334E+009;1.266225874423981E-001;-9.929922968149185E-002;3.658237401396036E-003;6.603156216442585E-004;
2.426000000000000E+009;1.251919865608215E-001;-1.004072576761246E-001;3.631701925769448E-003;5.028782761655748E-004;
2.426166666666667E+009;1.239363923668861E-001;-1.014696210622788E-001;3.753839759156108E-003;5.137203261256218E-004;
2.426333333333334E+009;1.225137487053871E-001;-1.026099100708962E-001;3.709715791046619E-003;4.577589279506356E-004;
2.426500000000000E+009;1.212863773107529E-001;-1.040248423814774E-001;3.892781445756555E-003;2.400518278591335E-004;
2.426666666666667E+009;1.202625557780266E-001;-1.053180024027824E-001;3.832605900242925E-003;2.570838842075318E-004;
2.426833333333334E+009;1.190763190388680E-001;-1.069117188453674E-001;3.838198492303491E-003;3.747476512216963E-005;
2.427000000000000E+009;1.178833246231079E-001;-1.084943190217018E-001;3.947530407458544E-003;-1.208332396345213E-004;
2.427166666666667E+009;1.169529631733894E-001;-1.099489256739616E-001;3.946864977478981E-003;-2.291917917318642E-004;
2.427333333333334E+009;1.160003244876862E-001;-1.116739138960838E-001;3.891237778589129E-003;-3.493450640235096E-004;
2.427500000000000E+009;1.153345257043839E-001;-1.136021912097931E-001;3.850136883556843E-003;-3.923995536752045E-004;
2.427666666666667E+009;1.146187633275986E-001;-1.151868924498558E-001;4.013523459434509E-003;-5.467057926580310E-004;
