# Version 1.00
#
freq[Hz];re:Trc1_S11;im:Trc1_S11;re:Trc2_S21;im:Trc2_S21;
2.400000000000000E+009;1.542926579713821E-001;5.923262611031532E-002;-3.550544148311019E-003;-3.534354036673904E-004;
2.400166666666667E+009;1.544655114412308E-001;5.745800212025642E-002;-3.531311638653278E-003;-4.914960009045899E-004;
2.400333333333334E+009;1.547187566757202E-001;5.531215295195580E-002;-3.673217492178083E-003;-3.450349904596806E-004;
2.400500000000000E+009;1.551427990198135E-001;5.312078446149826E-002;-3.604619530960918E-003;-1.147367584053427E-004;
2.400666666666667E+009;1.554097533226013E-001;5.107638984918594E-002;-3.605956444516778E-003;-9.380794654134661E-005;
2.400833333333334E+009;1.559433639049530E-001;4.900927841663361E-002;-3.749023890122771E-003;3.870343334710924E-006;
2.401000000000000E+009;1.565580368041992E-001;4.700189828872681E-002;-3.681426867842674E-003;1.937980268849060E-004;
2.401166666666667E+009;1.572109460830689E-001;4.471239075064659E-002;-3.591071115806699E-003;2.394397888565436E-004;
2.401333333333334E+009;1.575978100299835E-001;4.260306805372238E-002;-3.471924457699060E-003;5.523050785996020E-004;
2.401500000000000E+009;1.585488021373749E-001;4.067736119031906E-002;-3.719623899087310E-003;6.457155686803162E-004;
2.401666666666667E+009;1.593987047672272E-001;3.867861256003380E-002;-3.654721891507506E-003;6.245485856197774E-004;
2.401833333333334E+009;1.602954417467117E-001;3.663885220885277E-002;-3.580231219530106E-003;9.272720199078322E-004;
2.402000000000000E+009;1.609693765640259E-001;3.486606106162071E-002;-3.525895532220602E-003;1.004163292236626E-003;
2.402166666666667E+009;1.618149429559708E-001;3.289695456624031E-002;-3.545575542375445E-003;9.681645315140486E-004;
2.402333333333334E+009;1.628098040819168E-001;3.133146092295647E-002;-3.367922967299819E-003;1.072820858098567E-003;
2.402500000000000E+009;1.639903634786606E-001;2.982539497315884E-002;-3.460573730990291E-003;1.289190957322717E-003;
2.402666666666667E+009;1.648874133825302E-001;2.833415381610394E-002;-3.458532737568021E-003;1.481865183450282E-003;
2.402833333333334E+009;1.660538017749786E-001;2.696119248867035E-002;-3.459799801930785E-003;1.626295619644225E-003;
2.403000000000000E+009;1.670499444007874E-001;2.546275407075882E-002;-3.476221812888980E-003;1.504709711298347E-003;
2.403166666666667E+009;1.682888865470886E-001;2.427076548337936E-002;-3.187810070812702E-003;1.744616194628179E-003;
2.403333333333334E+009;1.694329380989075E-001;2.308233082294464E-002;-3.079444635659456E-003;1.889156061224639E-003;
2.403500000000000E+009;1.703185439109802E-001;2.215542085468769E-002;-3.253329778090119E-003;1.931231701746583E-003;
2.403666666666667E+009;1.714392006397247E-001;2.088986337184906E-002;-3.053838154301047E-003;2.070079790428281E-003;
2.403833333333334E+009;1.725003868341446E-001;2.031141892075539E-002;-3.126472467556596E-003;2.184636658057571E-003;
2.404000000000000E+009;1.734888106584549E-001;1.941663399338722E-002;-2.848788863047957E-003;2.272184705361724E-003;
2.404166666666667E+009;1.744181066751480E-001;1.867969520390034E-002;-2.725342521443963E-003;2.215911401435733E-003;
2.404333333333334E+009;1.752641648054123E-001;1.788974367082119E-002;-2.731031039729714E-003;2.540062880143523E-003;
2.404500000000000E+009;1.761042624711990E-001;1.730887591838837E-002;-2.641750499606133E-003;2.633960219100118E-003;
2.404666666666667E+009;1.769547611474991E-001;1.684849895536900E-002;-2.580900909379125E-003;2.627661451697350E-003;
2.404833333333334E+009;1.776356250047684E-001;1.649263687431812E-002;-2.548688324168325E-003;2.845053328201175E-003;
2.405000000000000E+009;1.783836483955383E-001;1.590295881032944E-002;-2.454640576615930E-003;3.086900571361184E-003;
2.405166666666667E+009;1.788974702358246E-001;1.564553752541542E-002;-2.345686778426170E-003;3.074018284678459E-003;
2.405333333333334E+009;1.795234382152557E-001;1.520282309502363E-002;-2.199298236519098E-003;3.152768593281508E-003;
2.405500000000000E+009;1.799513846635819E-001;1.513482350856066E-002;-2.143522724509239E-003;3.221855731680989E-003;
2.405666666666667E+009;1.801001578569412E-001;1.485411636531353E-002;-1.880174153484404E-003;3.282111370936036E-003;
2.405833333333334E+009;1.802447289228439E-001;1.467158272862434E-002;-1.706955838017166E-003;3.278725780546665E-003;
2.406000000000000E+009;1.805135607719421E-001;1.447722502052784E-002;-1.564203761518002E-003;3.441139357164502E-003;
2.406166666666667E+009;1.803377717733383E-001;1.430359855294228E-002;-1.515284413471818E-003;3.509500529617071E-003;
2.406333333333334E+009;1.804480552673340E-001;1.409648731350899E-002;-1.341487164609134E-003;3.725934773683548E-003;
2.406500000000000E+009;1.803826093673706E-001;1.372125651687384E-002;-1.020188559778035E-003;3.556187264621258E-003;
2.406666666666667E+009;1.799319833517075E-001;1.356722880154848E-002;-9.808978065848351E-004;3.549301763996482E-003;
2.406833333333334E+009;1.797290891408920E-001;1.316324807703495E-002;-9.561315528117120E-004;3.648313693702221E-003;
2.407000000000000E+009;1.795102208852768E-001;1.275844499468803E-002;-7.247966714203358E-004;3.730048891156912E-003;
2.407166666666667E+009;1.791081726551056E-001;1.231886353343725E-002;-5.924963043071330E-004;3.619498573243618E-003;
2.407333333333334E+009;1.784930974245071E-001;1.169628277420998E-002;-6.093199481256306E-004;3.678978886455298E-003;
2.407500000000000E+009;1.779303699731827E-001;1.117271278053522E-002;-2.948923211079091E-004;3.674951614812017E-003;
2.407666666666667E+009;1.774435788393021E-001;1.048289425671101E-002;-2.029334864346311E-004;3.565256018191576E-003;
2.407833333333334E+009;1.765802502632141E-001;9.595508687198162E-003;5.977163368697802E-007;3.491804236546159E-003;
2.408000000000000E+009;1.759216636419296E-001;8.719048462808132E-003;1.898967457236722E-004;3.609315957874060E-003;
2.408166666666667E+009;1.751883625984192E-001;7.954972796142101E-003;2.827004645951092E-004;3.483397653326392E-003;
2.408333333333334E+009;1.745886653661728E-001;6.848722696304321E-003;4.097218916285783E-004;3.401922062039375E-003;
2.408500000000000E+009;1.736502498388290E-001;5.738010630011559E-003;4.350740346126258E-004;3.407694632187486E-003;
2.408666666666667E+009;1.728577166795731E-001;4.437745083123446E-003;6.238704663701356E-004;3.353692125529051E-003;
2.408833333333334E+009;1.721269041299820E-001;3.216704819351435E-003;6.880274740979075E-004;3.141118679195643E-003;
2.409000000000000E+009;1.712882518768311E-001;1.626945100724697E-003;9.478276479057968E-004;3.153101773932576E-003;
2.409166666666667E+009;1.705639511346817E-001;9.350397158414125E-005;8.485052385367453E-004;3.117967164143920E-003;
2.409333333333334E+009;1.699510812759399E-001;-1.526088686659932E-003;8.817572379484773E-004;3.002543700858951E-003;
2.409500000000000E+009;1.692495942115784E-001;-3.188199130818248E-003;1.150885014794767E-003;3.015273250639439E-003;
2.409666666666667E+009;1.684836000204086E-001;-4.875429440289736E-003;1.144938752986491E-003;3.024342935532332E-003;
2.409833333333334E+009;1.678803712129593E-001;-6.504309363663197E-003;1.139648957177997E-003;2.825751202180982E-003;
2.410000000000000E+009;1.675426512956619E-001;-8.333339355885983E-003;1.320681301876903E-003;2.838152227923274E-003;
2.410166666666667E+009;1.671715974807739E-001;-1.040854211896658E-002;1.326723839156330E-003;2.685901476070285E-003;
2.410333333333334E+009;1.665954142808914E-001;-1.218744087964296E-002;1.482661464251578E-003;2.572177210822702E-003;
2.410500000000000E+009;1.663916409015656E-001;-1.424827892333269E-002;1.492326264269650E-003;2.563018118962646E-003;
2.410666666666667E+009;1.660279184579849E-001;-1.641819812357426E-002;1.552661764435470E-003;2.359251957386732E-003;
2.410833333333334E+009;1.660095304250717E-001;-1.815019361674786E-002;1.598911010660231E-003;2.359193982556462E-003;
2.411000000000000E+009;1.657645851373673E-001;-2.040726877748966E-002;1.510184258222580E-003;2.329664537683129E-003;
2.411166666666667E+009;1.658707857131958E-001;-2.252710424363613E-002;1.647212193347514E-003;2.133809728547931E-003;
2.411333333333334E+009;1.658681780099869E-001;-2.448523417115212E-002;1.763012842275202E-003;2.276640385389328E-003;
2.411500000000000E+009;1.661369949579239E-001;-2.649781294167042E-002;1.899386057630181E-003;2.117978176102042E-003;
2.411666666666667E+009;1.665014624595642E-001;-2.838909439742565E-002;1.883908407762647E-003;2.081701532006264E-003;
2.411833333333334E+009;1.667697429656982E-001;-3.036068007349968E-002;1.924443291500211E-003;1.840980490669608E-003;
2.412000000000000E+009;1.671953797340393E-001;-3.216755762696266E-002;1.956852385774255E-003;1.753651304170489E-003;
2.412166666666667E+009;1.676023900508881E-001;-3.412928804755211E-002;1.975577557459474E-003;1.795099116861820E-003;
2.412333333333334E+009;1.684392839670181E-001;-3.567370027303696E-002;2.067150082439184E-003;1.696942490525544E-003;
2.412500000000000E+009;1.688967347145081E-001;-3.736181557178497E-002;2.120380057021976E-003;1.626705168746412E-003;
2.412666666666667E+009;1.696209162473679E-001;-3.930106014013290E-002;2.090465277433395E-003;1.486505731008947E-003;
2.412833333333334E+009;1.704014539718628E-001;-4.088864475488663E-002;2.061077626422048E-003;1.332939486019313E-003;
2.413000000000000E+009;1.712684035301209E-001;-4.236624762415886E-002;2.212942577898502E-003;1.297942944802344E-003;
2.413166666666667E+009;1.715696603059769E-001;-4.380895197391510E-002;2.037068130448461E-003;1.131044817157090E-003;
2.413333333333334E+009;1.723768711090088E-001;-4.510580748319626E-002;2.252181759104133E-003;1.047918223775923E-003;
2.413500000000000E+009;1.732954233884811E-001;-4.656922817230225E-002;2.028043847531080E-003;1.025088829919696E-003;
2.413666666666667E+009;1.741075813770294E-001;-4.783644527196884E-002;2.150783082470298E-003;1.000847551040351E-003;
2.413833333333334E+009;1.750363111495972E-001;-4.887495189905167E-002;2.136300550773740E-003;9.765999857336283E-004;
2.414000000000000E+009;1.754050850868225E-001;-5.010038986802101E-002;1.990434015169740E-003;7.359415176324546E-004;
2.414166666666667E+009;1.761344075202942E-001;-5.084909126162529E-002;2.050225855782628E-003;7.791821262799203E-004;
2.414333333333334E+009;1.769362390041351E-001;-5.175786465406418E-002;1.916310633532703E-003;7.063664961606264E-004;
2.414500000000000E+009;1.775708198547363E-001;-5.244199559092522E-002;2.093496732413769E-003;5.752753932029009E-004;
2.414666666666667E+009;1.782025247812271E-001;-5.311392247676849E-002;1.931459759362042E-003;5.834082257933915E-004;
2.414833333333334E+009;1.785519421100617E-001;-5.380228906869888E-002;1.821915386244655E-003;5.391777376644313E-004;
2.415000000000000E+009;1.790160387754440E-001;-5.427280813455582E-002;1.857292256318033E-003;5.329174455255270E-004;
2.415166666666667E+009;1.792034208774567E-001;-5.478447303175926E-002;1.924792770296335E-003;4.752630484290421E-004;
2.415333333333334E+009;1.797026693820953E-001;-5.516050383448601E-002;1.942474860697985E-003;5.091475904919207E-004;
2.415500000000000E+009;1.797982305288315E-001;-5.555453896522522E-002;1.711136894300580E-003;4.810916434507817E-004;
2.415666666666667E+009;1.798929125070572E-001;-5.567196011543274E-002;2.000865060836077E-003;4.580277018249035E-004;
2.415833333333334E+009;1.799078285694122E-001;-5.610495805740356E-002;1.798545010387898E-003;4.093088500667363E-004;
2.416000000000000E+009;1.797328293323517E-001;-5.620058625936508E-002;1.696937368251383E-003;4.487026308197528E-004;
2.416166666666667E+009;1.796723008155823E-001;-5.637251213192940E-002;1.713367993943393E-003;2.551414945628494E-004;
2.416333333333334E+009;1.793018579483032E-001;-5.650692060589790E-002;1.625018077902496E-003;2.199780719820410E-004;
2.416500000000000E+009;1.789177507162094E-001;-5.681500956416130E-002;1.598233939148486E-003;4.379272577352822E-004;
2.416666666666667E+009;1.783978343009949E-001;-5.686574429273605E-002;1.718974905088544E-003;2.327024267287925E-004;
2.416833333333334E+009;1.777960062026978E-001;-5.713986232876778E-002;1.591958804056048E-003;3.040579613298178E-004;
2.417000000000000E+009;1.768983751535416E-001;-5.739917233586311E-002;1.704213791526854E-003;2.169170766137540E-004;
2.417166666666667E+009;1.760672032833099E-001;-5.752761289477348E-002;1.566862920299172E-003;2.831242745742202E-004;
2.417333333333334E+009;1.752887666225433E-001;-5.781646445393562E-002;1.704735681414604E-003;3.688678043545224E-005;
2.417500000000000E+009;1.743242442607880E-001;-5.823939666152000E-002;1.725521637126803E-003;1.963714021258056E-004;
2.417666666666667E+009;1.733160018920898E-001;-5.850033834576607E-002;1.702060573734343E-003;3.608104088925757E-005;
2.417833333333334E+009;1.721321344375610E-001;-5.895479395985603E-002;1.675570150837302E-003;1.001891650957987E-004;
2.418000000000000E+009;1.709491312503815E-001;-5.949240550398827E-002;1.616035355255008E-003;8.315974264405668E-005;
2.418166666666667E+009;1.696403771638870E-001;-5.988492444157600E-002;1.547443564049900E-003;9.388171747559682E-005;
2.418333333333334E+009;1.685385257005692E-001;-6.068458408117294E-002;1.651559257879853E-003;3.965249925386161E-005;
2.418500000000000E+009;1.670995354652405E-001;-6.137862801551819E-002;1.624401193112135E-003;1.878331386251375E-004;
2.418666666666667E+009;1.659722477197647E-001;-6.220800429582596E-002;1.669236691668630E-003;6.461313023464754E-005;
2.418833333333334E+009;1.644297540187836E-001;-6.307638436555862E-002;1.771336887031794E-003;-6.106556975282729E-005;
2.419000000000000E+009;1.629027873277664E-001;-6.392922252416611E-002;1.595089328475297E-003;-1.917116169352084E-004;
2.419166666666667E+009;1.616904437541962E-001;-6.515325605869293E-002;1.634084852412343E-003;-5.388288263930008E-005;
2.419333333333334E+009;1.601981967687607E-001;-6.602121144533157E-002;1.623522839508951E-003;-1.536273921374232E-004;
2.419500000000000E+009;1.589498966932297E-001;-6.724816560745239E-002;1.662789843976498E-003;-1.589461753610522E-004;
2.419666666666667E+009;1.578991264104843E-001;-6.859204173088074E-002;1.667761011049151E-003;-1.845035876613110E-004;
2.419833333333334E+009;1.564706265926361E-001;-6.978564709424973E-002;1.630728133022785E-003;-2.817654458340257E-004;
2.420000000000000E+009;1.554649174213409E-001;-7.128662616014481E-002;1.596810994669795E-003;-2.526266907807440E-004;
2.420166666666667E+009;1.542892009019852E-001;-7.279074937105179E-002;1.571449451148510E-003;-2.450214815326035E-004;
2.420333333333334E+009;1.532918512821198E-001;-7.425064593553543E-002;1.588672166690230E-003;-2.731560380198062E-004;
2.420500000000000E+009;1.524137109518051E-001;-7.580123096704483E-002;1.524700201116502E-003;-2.797997440211475E-004;
2.420666666666667E+009;1.514941751956940E-001;-7.721955329179764E-002;1.514984411187470E-003;-3.997586609330028E-004;
2.420833333333334E+009;1.507915109395981E-001;-7.899108529090881E-002;1.541989855468273E-003;-3.022233140654862E-004;
2.421000000000000E+009;1.500042825937271E-001;-8.072436600923538E-002;1.518163015134633E-003;-3.824543964583427E-004;
2.421166666666667E+009;1.495340913534164E-001;-8.240169286727905E-002;1.577766030095518E-003;-4.889055271632969E-004;
2.421333333333334E+009;1.492227315902710E-001;-8.423442393541336E-002;1.386166899465025E-003;-5.786987603642047E-004;
2.421500000000000E+009;1.487118154764175E-001;-8.585514128208160E-002;1.551160588860512E-003;-5.614203400909901E-004;
2.421666666666667E+009;1.486384123563767E-001;-8.768022060394287E-002;1.499755773693323E-003;-4.707754414994270E-004;
2.421833333333334E+009;1.484885066747665E-001;-8.923050016164780E-002;1.395675819367170E-003;-5.821911618113518E-004;
2.422000000000000E+009;1.481624245643616E-001;-9.097532182931900E-002;1.446384936571121E-003;-6.681180675514042E-004;
2.422166666666667E+009;1.484114527702332E-001;-9.290209412574768E-002;1.340406946837902E-003;-7.169172749854624E-004;
2.422333333333334E+009;1.485752016305924E-001;-9.442531317472458E-002;1.439303276129067E-003;-6.614241865463555E-004;
2.422500000000000E+009;1.485076695680618E-001;-9.608767181634903E-002;1.474881195463240E-003;-6.859169807285070E-004;
2.422666666666667E+009;1.487140208482742E-001;-9.760486334562302E-002;1.468175440095365E-003;-6.945817731320858E-004;
2.422833333333334E+009;1.493076682090759E-001;-9.911218285560608E-002;1.320289098657668E-003;-6.876458064652979E-004;
2.423000000000000E+009;1.495980173349381E-001;-1.007818803191185E-001;1.186217879876494E-003;-6.709774024784565E-004;
2.423166666666667E+009;1.502026170492172E-001;-1.021165251731873E-001;1.321039046160877E-003;-7.926387479528785E-004;
2.423333333333334E+009;1.508197486400604E-001;-1.032700389623642E-001;1.296989270485938E-003;-8.014964405447245E-004;
2.423500000000000E+009;1.513863503932953E-001;-1.045975387096405E-001;1.121345907449722E-003;-7.744312752038240E-004;
2.423666666666667E+009;1.517979353666306E-001;-1.059961915016174E-001;1.263056066818535E-003;-6.358437822200358E-004;
2.423833333333334E+009;1.525392830371857E-001;-1.071797385811806E-001;1.036509289406240E-003;-6.961378385312855E-004;
2.424000000000000E+009;1.529878824949265E-001;-1.079825013875961E-001;1.198704587295651E-003;-8.478560484945774E-004;
2.424166666666667E+009;1.536381989717484E-001;-1.090481430292130E-001;1.140621025115252E-003;-8.062785491347313E-004;
2.424333333333334E+009;1.543775349855423E-001;-1.099079474806786E-001;1.126976683735848E-003;-8.455296629108489E-004;
2.424500000000000E+009;1.548016369342804E-001;-1.107563525438309E-001;1.106136827729642E-003;-9.697905625216663E-004;
2.424666666666667E+009;1.555585861206055E-001;-1.112653240561485E-001;1.087342388927937E-003;-7.774932309985161E-004;
2.424833333333334E+009;1.559373587369919E-001;-1.121450513601303E-001;9.852444054558873E-004;-8.450610912404954E-004;
2.425000000000000E+009;1.566013991832733E-001;-1.126514002680779E-001;1.124787260778248E-003;-9.420640999451280E-004;
2.425166666666667E+009;1.566750407218933E-001;-1.131364628672600E-001;1.187302288599312E-003;-8.487243321724236E-004;
2.425333333333334E+009;1.570982038974762E-001;-1.135006248950958E-001;1.152531476691365E-003;-8.985058520920575E-004;
2.425500000000000E+009;1.575758606195450E-001;-1.139144003391266E-001;1.178825274109840E-003;-8.667636429890990E-004;
2.425666666666667E+009;1.575730293989182E-001;-1.142775267362595E-001;8.871033205650747E-004;-8.048187592066824E-004;
2.425833333333334E+009;1.577705442905426E-001;-1.145031154155731E-001;1.014590845443308E-003;-8.301147609017789E-004;
2.426000000000000E+009;1.578965783119202E-001;-1.147324591875076E-001;1.041137380525470E-003;-8.831322193145752E-004;
2.426166666666667E+009;1.579415649175644E-001;-1.149182766675949E-001;1.144300331361592E-003;-1.010336680337787E-003;
2.426333333333334E+009;1.576558351516724E-001;-1.150276735424995E-001;1.169997616671026E-003;-9.390286286361516E-004;
2.426500000000000E+009;1.574243903160095E-001;-1.149909272789955E-001;1.122906338423491E-003;-9.358023526147008E-004;
2.426666666666667E+009;1.572605222463608E-001;-1.150033473968506E-001;1.226575113832951E-003;-9.106989018619061E-004;
2.426833333333334E+009;1.567687392234802E-001;-1.150626912713051E-001;1.083108363673091E-003;-9.250963921658695E-004;
2.427000000000000E+009;1.561921834945679E-001;-1.153428480029106E-001;1.075656386092305E-003;-1.095492742024362E-003;
2.427166666666667E+009;1.555290967226028E-001;-1.151122823357582E-001;1.019164104945958E-003;-1.014694105833769E-003;
2.427333333333334E+009;1.546842604875565E-001;-1.153698787093163E-001;1.090673264116049E-003;-1.115846796892583E-003;
2.427500000000000E+009;1.539824306964874E-001;-1.154425814747810E-001;1.129103708080947E-003;-1.229260466061533E-003;
2.427666666666667E+009;1.529519408941269E-001;-1.156059354543686E-001;1.171758864074945E-003;-1.138408551923931E-003;
2.427833333333334E+009;1.517171263694763E-001;-1.157853603363037E-001;1.171783194877207E-003;-1.124622649513185E-003;
