# Version 1.00
#
freq[Hz];re:Trc1_S11;im:Trc1_S11;re:Trc2_S21;im:Trc2_S21;
2.400000000000000E+009;1.543350666761398E-001;5.920365452766419E-002;-3.711619414389134E-003;-2.670767426025122E-004;
2.400166666666667E+009;1.545640677213669E-001;5.730755254626274E-002;-3.742806380614638E-003;-2.707795356400311E-004;
2.400333333333334E+009;1.546758264303207E-001;5.523587018251419E-002;-3.719751024618745E-003;-1.264228922082111E-004;
2.400500000000000E+009;1.551262885332108E-001;5.309805274009705E-002;-3.874985501170158E-003;-5.491910997079685E-005;
2.400666666666667E+009;1.554532200098038E-001;5.089440569281578E-002;-3.867876017466188E-003;7.658544200239703E-005;
2.400833333333334E+009;1.558613330125809E-001;4.893889650702477E-002;-3.737122984603047E-003;3.024938632734120E-004;
2.401000000000000E+009;1.564238965511322E-001;4.682277515530586E-002;-4.097679629921913E-003;5.315254093147814E-004;
2.401166666666667E+009;1.570022553205490E-001;4.472930356860161E-002;-3.899022005498409E-003;5.347847472876310E-004;
2.401333333333334E+009;1.575798541307449E-001;4.254536703228951E-002;-3.831732552498579E-003;6.530759856104851E-004;
2.401500000000000E+009;1.584365367889404E-001;4.055512696504593E-002;-3.779605263844132E-003;8.483271230943501E-004;
2.401666666666667E+009;1.591716259717941E-001;3.877790644764900E-002;-3.915412351489067E-003;1.000396325252950E-003;
2.401833333333334E+009;1.600822657346726E-001;3.645520284771919E-002;-3.766063367947936E-003;1.113603124395013E-003;
2.402000000000000E+009;1.607892364263535E-001;3.490864858031273E-002;-3.759898478165269E-003;1.261692261323333E-003;
2.402166666666667E+009;1.616575568914414E-001;3.288127109408379E-002;-3.717858344316483E-003;1.391353085637093E-003;
2.402333333333334E+009;1.626037657260895E-001;3.140461817383766E-002;-3.617722075432539E-003;1.539454096928239E-003;
2.402500000000000E+009;1.638320982456207E-001;2.974002622067928E-002;-3.610852872952819E-003;1.655713771469891E-003;
2.402666666666667E+009;1.647368371486664E-001;2.823063172399998E-002;-3.622766816988587E-003;1.821149373427033E-003;
2.402833333333334E+009;1.658261865377426E-001;2.685032971203327E-002;-3.503570798784494E-003;2.020262181758881E-003;
2.403000000000000E+009;1.669876128435135E-001;2.534781955182552E-002;-3.329623956233263E-003;2.262371126562357E-003;
2.403166666666667E+009;1.679771393537521E-001;2.429440058767796E-002;-3.383754286915064E-003;2.205292927101255E-003;
2.403333333333334E+009;1.691617816686630E-001;2.309712208807468E-002;-3.172201570123434E-003;2.234185114502907E-003;
2.403500000000000E+009;1.702144891023636E-001;2.218429371714592E-002;-3.055316163226962E-003;2.334348857402802E-003;
2.403666666666667E+009;1.712209284305573E-001;2.096668072044849E-002;-2.861021785065532E-003;2.746280515566468E-003;
2.403833333333334E+009;1.724638342857361E-001;2.014783583581448E-002;-3.045978723093867E-003;2.793827094137669E-003;
2.404000000000000E+009;1.734618097543716E-001;1.930489204823971E-002;-2.816841937601566E-003;2.911186078563333E-003;
2.404166666666667E+009;1.743916869163513E-001;1.867310889065266E-002;-2.803857671096921E-003;2.854391001164913E-003;
2.404333333333334E+009;1.752002090215683E-001;1.795737631618977E-002;-2.654578071087599E-003;2.921775449067354E-003;
2.404500000000000E+009;1.759704500436783E-001;1.732561737298966E-002;-2.537235384806991E-003;3.152712248265743E-003;
2.404666666666667E+009;1.767497807741165E-001;1.688243634998798E-002;-2.407613908872008E-003;3.195987548679113E-003;
2.404833333333334E+009;1.775192469358444E-001;1.655616983771324E-002;-2.324057975783944E-003;3.364108968526125E-003;
2.405000000000000E+009;1.782749295234680E-001;1.616393402218819E-002;-2.088801702484489E-003;3.337210277095437E-003;
2.405166666666667E+009;1.788113862276077E-001;1.564518176019192E-002;-2.008948475122452E-003;3.359213238582015E-003;
2.405333333333334E+009;1.794054210186005E-001;1.533745974302292E-002;-1.873313914984465E-003;3.525331383571029E-003;
2.405500000000000E+009;1.796972453594208E-001;1.526134181767702E-002;-1.564604812301695E-003;3.614168148487806E-003;
2.405666666666667E+009;1.801180541515350E-001;1.493482757359743E-002;-1.547911786474288E-003;3.694670042023063E-003;
2.405833333333334E+009;1.801762133836746E-001;1.472873985767365E-002;-1.440339372493327E-003;3.835696727037430E-003;
2.406000000000000E+009;1.803479343652725E-001;1.460694056004286E-002;-1.209956593811512E-003;3.830399131402373E-003;
2.406166666666667E+009;1.803887337446213E-001;1.450977660715580E-002;-1.089624362066388E-003;3.798428224399686E-003;
2.406333333333334E+009;1.805257648229599E-001;1.424464210867882E-002;-8.847030112519860E-004;3.760458901524544E-003;
2.406500000000000E+009;1.803275197744370E-001;1.395093835890293E-002;-6.426623440347612E-004;3.818753873929381E-003;
2.406666666666667E+009;1.799755692481995E-001;1.359310280531645E-002;-5.378111964091659E-004;3.776574740186334E-003;
2.406833333333334E+009;1.798099279403687E-001;1.319751143455505E-002;-3.222367377020419E-004;3.831955837085843E-003;
2.407000000000000E+009;1.795419305562973E-001;1.292055193334818E-002;-1.516374177299440E-004;3.906725905835629E-003;
2.407166666666667E+009;1.791987270116806E-001;1.243428979068995E-002;5.962363502476364E-005;3.763132728636265E-003;
2.407333333333334E+009;1.786093562841415E-001;1.186061184853315E-002;2.195989873143844E-005;3.844561055302620E-003;
2.407500000000000E+009;1.779372841119766E-001;1.137468311935663E-002;2.655393618624657E-004;3.579608863219619E-003;
2.407666666666667E+009;1.774147599935532E-001;1.064847130328417E-002;4.816130967810750E-004;3.718794556334615E-003;
2.407833333333334E+009;1.765263378620148E-001;9.863742627203465E-003;4.838601453229785E-004;3.550652414560318E-003;
2.408000000000000E+009;1.759094148874283E-001;8.994092233479023E-003;7.046594982966781E-004;3.556502517312765E-003;
2.408166666666667E+009;1.751754730939865E-001;8.045253343880177E-003;6.977876182645559E-004;3.459473839029670E-003;
2.408333333333334E+009;1.746126562356949E-001;7.060191128402948E-003;8.517801179550588E-004;3.269061446189880E-003;
2.408500000000000E+009;1.737686693668366E-001;5.905783269554377E-003;1.021648058667779E-003;3.240174613893032E-003;
2.408666666666667E+009;1.729774773120880E-001;4.698859062045813E-003;1.128398114815354E-003;3.158152801916003E-003;
2.408833333333334E+009;1.720242649316788E-001;3.294188063591719E-003;1.008016406558454E-003;3.182562068104744E-003;
2.409000000000000E+009;1.712563037872315E-001;1.876471797004342E-003;1.285836449824274E-003;2.989890985190868E-003;
2.409166666666667E+009;1.706376969814301E-001;2.116892574122176E-004;1.093851285986602E-003;2.812505234032869E-003;
2.409333333333334E+009;1.702103316783905E-001;-1.387707074172795E-003;1.304414123296738E-003;2.888177987188101E-003;
2.409500000000000E+009;1.692705601453781E-001;-3.201220184564591E-003;1.418235129676759E-003;2.698516706004739E-003;
2.409666666666667E+009;1.686532646417618E-001;-4.812097642570734E-003;1.437282888218761E-003;2.654150361195207E-003;
2.409833333333334E+009;1.680375188589096E-001;-6.482564378529787E-003;1.601424650289118E-003;2.587767783552408E-003;
2.410000000000000E+009;1.676123589277268E-001;-8.298606611788273E-003;1.426859060302377E-003;2.477035624906421E-003;
2.410166666666667E+009;1.671184599399567E-001;-1.034925784915686E-002;1.542135258205235E-003;2.380344783887267E-003;
2.410333333333334E+009;1.668101102113724E-001;-1.239551696926355E-002;1.710965880192816E-003;2.513970248401165E-003;
2.410500000000000E+009;1.664763987064362E-001;-1.422555092722178E-002;1.801611157134175E-003;2.277811989188194E-003;
2.410666666666667E+009;1.660528033971787E-001;-1.633308641612530E-002;1.840611454099417E-003;2.122216159477830E-003;
2.410833333333334E+009;1.660549044609070E-001;-1.827714778482914E-002;1.916577690280974E-003;2.085938351228833E-003;
2.411000000000000E+009;1.660673469305039E-001;-2.019990608096123E-002;1.925906399264932E-003;2.091480419039726E-003;
2.411166666666667E+009;1.659405976533890E-001;-2.242993563413620E-002;2.093198476359248E-003;1.834804075770080E-003;
2.411333333333334E+009;1.660704463720322E-001;-2.423002757132053E-002;2.081995597109199E-003;1.885105506516993E-003;
2.411500000000000E+009;1.662639975547791E-001;-2.652170322835445E-002;2.105181105434895E-003;1.656252425163984E-003;
2.411666666666667E+009;1.666059494018555E-001;-2.841808460652828E-002;2.144356258213520E-003;1.682191737927496E-003;
2.411833333333334E+009;1.669717729091644E-001;-3.026307374238968E-002;1.991834957152605E-003;1.693171216174960E-003;
2.412000000000000E+009;1.674740612506867E-001;-3.229644522070885E-002;2.049522940069437E-003;1.343484153039753E-003;
2.412166666666667E+009;1.678869277238846E-001;-3.405001014471054E-002;2.232987666502595E-003;1.369553385302424E-003;
2.412333333333334E+009;1.685594171285629E-001;-3.569403290748596E-002;2.133304951712489E-003;1.221830374561250E-003;
2.412500000000000E+009;1.689860820770264E-001;-3.763627260923386E-002;2.140183467417955E-003;1.132146222516894E-003;
2.412666666666667E+009;1.697808057069778E-001;-3.948384150862694E-002;2.149985171854496E-003;9.570049005560577E-004;
2.412833333333334E+009;1.704340279102325E-001;-4.099640995264053E-002;2.151932101696730E-003;9.950159583240748E-004;
2.413000000000000E+009;1.711627393960953E-001;-4.236244037747383E-002;2.276615938171744E-003;8.316216408275068E-004;
2.413166666666667E+009;1.718460917472839E-001;-4.407899081707001E-002;1.921853632666171E-003;7.742189336568117E-004;
2.413333333333334E+009;1.725230067968369E-001;-4.538669809699059E-002;2.140357159078121E-003;6.517228321172297E-004;
2.413500000000000E+009;1.733822077512741E-001;-4.670528322458267E-002;1.931958016939461E-003;7.237428799271584E-004;
2.413666666666667E+009;1.742100417613983E-001;-4.779217392206192E-002;1.858263625763357E-003;4.721551958937198E-004;
2.413833333333334E+009;1.748478561639786E-001;-4.901089519262314E-002;1.861471682786942E-003;3.310008614789695E-004;
2.414000000000000E+009;1.755204349756241E-001;-5.021622404456139E-002;1.860177260823548E-003;5.147773772478104E-004;
2.414166666666667E+009;1.763539165258408E-001;-5.099338293075562E-002;1.819081371650100E-003;2.698014432098717E-004;
2.414333333333334E+009;1.768987923860550E-001;-5.194777622818947E-002;1.837607705965638E-003;4.269100609235466E-004;
2.414500000000000E+009;1.778722852468491E-001;-5.265767872333527E-002;1.801864709705114E-003;2.506904711481184E-004;
2.414666666666667E+009;1.781675815582275E-001;-5.337232351303101E-002;1.735021127387881E-003;1.283941674046218E-004;
2.414833333333334E+009;1.785039305686951E-001;-5.391111224889755E-002;1.609379658475518E-003;2.098792174365372E-004;
2.415000000000000E+009;1.788682043552399E-001;-5.448850244283676E-002;1.499782083556056E-003;5.648234582622536E-005;
2.415166666666667E+009;1.792452633380890E-001;-5.487770214676857E-002;1.566461869515479E-003;1.339613081654534E-004;
2.415333333333334E+009;1.795775145292282E-001;-5.520728603005409E-002;1.461157226003707E-003;2.217762084910646E-004;
2.415500000000000E+009;1.797840446233749E-001;-5.549949780106545E-002;1.388574135489762E-003;2.228033845312893E-004;
2.415666666666667E+009;1.797905862331390E-001;-5.575210228562355E-002;1.297865179367364E-003;1.740034640533850E-004;
2.415833333333334E+009;1.799181401729584E-001;-5.606742575764656E-002;1.378068001940846E-003;9.425060852663592E-005;
2.416000000000000E+009;1.796111464500427E-001;-5.615086108446121E-002;1.393644255585969E-003;-6.771457992726937E-005;
2.416166666666667E+009;1.796501725912094E-001;-5.646347254514694E-002;1.396145788021386E-003;8.667222573421896E-006;
2.416333333333334E+009;1.791713684797287E-001;-5.648548156023026E-002;1.212585018947721E-003;1.929010468302295E-004;
2.416500000000000E+009;1.788500249385834E-001;-5.673935636878014E-002;1.338605303317308E-003;5.516040255315602E-005;
2.416666666666667E+009;1.782914549112320E-001;-5.681194365024567E-002;1.307151280343533E-003;8.816499030217528E-005;
2.416833333333334E+009;1.777381449937820E-001;-5.719031020998955E-002;1.427156035788357E-003;7.438719330821186E-005;
2.417000000000000E+009;1.768744587898254E-001;-5.732815340161324E-002;1.491151633672416E-003;1.369098754366860E-004;
2.417166666666667E+009;1.762079000473023E-001;-5.754666030406952E-002;1.454306882806122E-003;-5.295336814015172E-005;
2.417333333333334E+009;1.752030104398727E-001;-5.778804793953896E-002;1.392247155308723E-003;8.878242078935728E-005;
2.417500000000000E+009;1.741470992565155E-001;-5.821395665407181E-002;1.513807335868478E-003;1.020510608213954E-004;
2.417666666666667E+009;1.732776612043381E-001;-5.839921534061432E-002;1.504033803939819E-003;1.114026017603464E-004;
2.417833333333334E+009;1.720030158758164E-001;-5.878863856196404E-002;1.376992207951844E-003;1.662159047555178E-004;
2.418000000000000E+009;1.708783507347107E-001;-5.942360684275627E-002;1.355982851237059E-003;1.099346918636002E-004;
2.418166666666667E+009;1.695828437805176E-001;-5.985253304243088E-002;1.388230011798441E-003;-5.125343159306794E-005;
2.418333333333334E+009;1.684913337230682E-001;-6.057044863700867E-002;1.404067501425743E-003;-1.950786099769175E-005;
2.418500000000000E+009;1.671456843614578E-001;-6.122121959924698E-002;1.337187015451491E-003;1.391042678733356E-005;
2.418666666666667E+009;1.659000366926193E-001;-6.204348802566528E-002;1.245356514118612E-003;-1.308179489569739E-004;
2.418833333333334E+009;1.642805784940720E-001;-6.301290541887283E-002;1.394642866216600E-003;-1.388921518810093E-004;
2.419000000000000E+009;1.628242284059525E-001;-6.380049884319305E-002;1.393875805661082E-003;-3.036604721273761E-005;
2.419166666666667E+009;1.617345660924912E-001;-6.497651338577271E-002;1.374618965201080E-003;-8.075089135672897E-005;
2.419333333333334E+009;1.602299064397812E-001;-6.574431061744690E-002;1.535464776679874E-003;-1.320804731221870E-004;
2.419500000000000E+009;1.589774638414383E-001;-6.713474541902542E-002;1.431401353329420E-003;-1.791408431017771E-004;
2.419666666666667E+009;1.579006612300873E-001;-6.848067790269852E-002;1.312973909080029E-003;-1.395744184264913E-004;
2.419833333333334E+009;1.565122008323669E-001;-6.963885575532913E-002;1.308073638938367E-003;-2.779330134217162E-005;
2.420000000000000E+009;1.554571092128754E-001;-7.120106369256973E-002;1.287362189032137E-003;-5.350708670448512E-005;
2.420166666666667E+009;1.542962193489075E-001;-7.257339358329773E-002;1.340570626780391E-003;-1.513883908046410E-004;
2.420333333333334E+009;1.533865034580231E-001;-7.411874085664749E-002;1.295959344133735E-003;-1.561622484587133E-004;
2.420500000000000E+009;1.524844616651535E-001;-7.553535699844360E-002;1.312745269387960E-003;-2.626803179737181E-004;
2.420666666666667E+009;1.515274792909622E-001;-7.701234519481659E-002;1.466376474127173E-003;-1.489111309638247E-004;
2.420833333333334E+009;1.509080380201340E-001;-7.905325293540955E-002;1.307683647610247E-003;-1.735408732201904E-004;
2.421000000000000E+009;1.502360850572586E-001;-8.058841526508331E-002;1.392150297760963E-003;-4.484887467697263E-004;
2.421166666666667E+009;1.496675312519074E-001;-8.230113983154297E-002;1.380943576805294E-003;-3.427749616093934E-004;
2.421333333333334E+009;1.493204236030579E-001;-8.416609466075897E-002;1.345839700661600E-003;-2.107640757458285E-004;
2.421500000000000E+009;1.487343758344650E-001;-8.562350273132324E-002;1.251528970897198E-003;-3.178465995006263E-004;
2.421666666666667E+009;1.486486643552780E-001;-8.760175108909607E-002;1.207200693897903E-003;-3.289724991191179E-004;
2.421833333333334E+009;1.486081928014755E-001;-8.919939398765564E-002;1.352490973658860E-003;-4.586830036714673E-004;
2.422000000000000E+009;1.484246104955673E-001;-9.095036238431931E-002;1.326968311332166E-003;-4.287111805751920E-004;
2.422166666666667E+009;1.485107690095902E-001;-9.280616790056229E-002;1.317038084380329E-003;-4.215987864881754E-004;
2.422333333333334E+009;1.486649066209793E-001;-9.427716583013535E-002;1.370462239719927E-003;-4.047265683766455E-004;
2.422500000000000E+009;1.486559957265854E-001;-9.596263617277145E-002;1.423120498657227E-003;-5.908102029934526E-004;
2.422666666666667E+009;1.488088518381119E-001;-9.755587577819824E-002;1.223801984451711E-003;-6.405425956472755E-004;
2.422833333333334E+009;1.494127660989761E-001;-9.917838871479034E-002;1.303638680838049E-003;-5.788364214822650E-004;
2.423000000000000E+009;1.497565805912018E-001;-1.006835326552391E-001;1.157894497737289E-003;-5.545801250264049E-004;
2.423166666666667E+009;1.502748429775238E-001;-1.020679995417595E-001;1.094166305847466E-003;-5.108005134388804E-004;
2.423333333333334E+009;1.509304493665695E-001;-1.032754108309746E-001;1.345127820968628E-003;-5.176555714569986E-004;
2.423500000000000E+009;1.512504070997238E-001;-1.048122048377991E-001;1.219679717905819E-003;-5.988475168123841E-004;
2.423666666666667E+009;1.518688350915909E-001;-1.059691607952118E-001;1.082624541595578E-003;-5.216770223341882E-004;
2.423833333333334E+009;1.525618284940720E-001;-1.071992069482803E-001;1.217894256114960E-003;-5.980108981020749E-004;
2.424000000000000E+009;1.531069278717041E-001;-1.080500707030296E-001;1.206303713843226E-003;-6.119987228885293E-004;
2.424166666666667E+009;1.536154747009277E-001;-1.090792044997215E-001;1.219681813381612E-003;-6.825223681516945E-004;
2.424333333333334E+009;1.543138623237610E-001;-1.098620966076851E-001;9.617113973945379E-004;-4.881900676991791E-004;
2.424500000000000E+009;1.549634188413620E-001;-1.108794808387756E-001;1.096009276807308E-003;-5.657941219396889E-004;
2.424666666666667E+009;1.555576324462891E-001;-1.113367602229118E-001;1.118360320106149E-003;-6.501919706352055E-004;
2.424833333333334E+009;1.558922827243805E-001;-1.121559888124466E-001;1.095789019018412E-003;-6.180189084261656E-004;
2.425000000000000E+009;1.565995365381241E-001;-1.126493215560913E-001;1.241549034602940E-003;-4.858020110987127E-004;
2.425166666666667E+009;1.567642539739609E-001;-1.132077127695084E-001;1.201333245262504E-003;-6.453582900576294E-004;
2.425333333333334E+009;1.571972817182541E-001;-1.135772615671158E-001;1.200377824716270E-003;-6.325572612695396E-004;
2.425500000000000E+009;1.575829237699509E-001;-1.139978170394898E-001;1.155716134235263E-003;-6.684400723315775E-004;
2.425666666666667E+009;1.575509607791901E-001;-1.143616959452629E-001;1.186097972095013E-003;-7.770425290800631E-004;
2.425833333333334E+009;1.577009558677673E-001;-1.145232766866684E-001;1.125739538110793E-003;-7.264572195708752E-004;
2.426000000000000E+009;1.576368808746338E-001;-1.147369816899300E-001;1.112992176786065E-003;-5.793187883682549E-004;
2.426166666666667E+009;1.578747481107712E-001;-1.149132996797562E-001;1.271258457563818E-003;-7.036455208435655E-004;
2.426333333333334E+009;1.576113700866699E-001;-1.150500476360321E-001;1.217777607962489E-003;-8.264473872259259E-004;
2.426500000000000E+009;1.574587374925613E-001;-1.151420623064041E-001;1.288527972064912E-003;-5.888868472538889E-004;
2.426666666666667E+009;1.572323590517044E-001;-1.149997487664223E-001;1.427297131158412E-003;-8.007975993677974E-004;
2.426833333333334E+009;1.566530019044876E-001;-1.151313409209251E-001;1.306062447838485E-003;-7.786409696564078E-004;
2.427000000000000E+009;1.561535447835922E-001;-1.152832657098770E-001;1.148795243352652E-003;-9.147597011178732E-004;
2.427166666666667E+009;1.554513871669769E-001;-1.152764335274696E-001;1.347943907603622E-003;-1.026638201437891E-003;
2.427333333333334E+009;1.547094732522965E-001;-1.153023913502693E-001;1.363913645036519E-003;-9.344622376374900E-004;
2.427500000000000E+009;1.539213508367539E-001;-1.154665946960449E-001;1.408741693012416E-003;-1.096793450415134E-003;
2.427666666666667E+009;1.529643237590790E-001;-1.156364828348160E-001;1.313693006522954E-003;-9.926829952746630E-004;
2.427833333333334E+009;1.517407894134522E-001;-1.158919259905815E-001;1.193431206047535E-003;-1.337045105174184E-003;
