# Version 1.00
#
freq[Hz];re:Trc1_S11;im:Trc1_S11;re:Trc2_S21;im:Trc2_S21;
2.400000000000000E+009;1.519916504621506E-001;1.155892536044121E-001;1.114552374929190E-003;5.599268712103367E-003;
2.400166666666667E+009;1.514724045991898E-001;1.132769510149956E-001;1.317961025051773E-003;5.419858731329441E-003;
2.400333333333334E+009;1.514001041650772E-001;1.110830381512642E-001;1.452439697459340E-003;5.251697730273008E-003;
2.400500000000000E+009;1.515307575464249E-001;1.084654107689858E-001;1.748327398672700E-003;4.918059334158897E-003;
2.400666666666667E+009;1.514354199171066E-001;1.059083864092827E-001;1.841211458668113E-003;4.776205867528915E-003;
2.400833333333334E+009;1.512355357408524E-001;1.031363308429718E-001;1.991277560591698E-003;4.587317351251841E-003;
2.401000000000000E+009;1.513363420963287E-001;1.003249213099480E-001;2.141764387488365E-003;4.316999576985836E-003;
2.401166666666667E+009;1.513547301292419E-001;9.742140769958496E-002;2.040304709225893E-003;4.051654133945704E-003;
2.401333333333334E+009;1.516223400831223E-001;9.459647536277771E-002;2.140857279300690E-003;3.765019355341792E-003;
2.401500000000000E+009;1.519187241792679E-001;9.172245860099793E-002;2.031893003731966E-003;3.540486795827746E-003;
2.401666666666667E+009;1.521890461444855E-001;8.878044784069061E-002;1.788906054571271E-003;3.684430150315166E-003;
2.401833333333334E+009;1.527644097805023E-001;8.594924956560135E-002;1.981053501367569E-003;3.502117237076163E-003;
2.402000000000000E+009;1.534487307071686E-001;8.308384567499161E-002;1.912863226607442E-003;3.474474418908358E-003;
2.402166666666667E+009;1.541893929243088E-001;8.053945004940033E-002;1.847464358434081E-003;3.455691505223513E-003;
2.402333333333334E+009;1.551338285207748E-001;7.760468125343323E-002;1.960845664143562E-003;3.563142148777843E-003;
2.402500000000000E+009;1.565677970647812E-001;7.484082877635956E-002;1.976688625290990E-003;3.564012004062533E-003;
2.402666666666667E+009;1.577001363039017E-001;7.248100638389587E-002;2.068807836622000E-003;3.475415054708719E-003;
2.402833333333334E+009;1.590644270181656E-001;6.979227066040039E-002;2.140033524483442E-003;3.639161819592118E-003;
2.403000000000000E+009;1.606148779392242E-001;6.730216741561890E-002;2.391120651736856E-003;3.683618037030101E-003;
2.403166666666667E+009;1.625203192234039E-001;6.506088376045227E-002;2.517029643058777E-003;3.628491656854749E-003;
2.403333333333334E+009;1.640288680791855E-001;6.260881572961807E-002;2.656035590916872E-003;3.630804130807519E-003;
2.403500000000000E+009;1.660218089818955E-001;6.036235764622688E-002;3.002355340868235E-003;3.530288813635707E-003;
2.403666666666667E+009;1.680377423763275E-001;5.819009989500046E-002;3.134151687845588E-003;3.409788245335221E-003;
2.403833333333334E+009;1.697909832000732E-001;5.624707043170929E-002;3.304244950413704E-003;3.478521713986993E-003;
2.404000000000000E+009;1.715074479579926E-001;5.411076918244362E-002;3.445683512836695E-003;3.267084015533328E-003;
2.404166666666667E+009;1.736668944358826E-001;5.255091562867165E-002;3.626282326877117E-003;3.003377234563232E-003;
2.404333333333334E+009;1.754993647336960E-001;5.082146078348160E-002;3.722431603819132E-003;2.782271709293127E-003;
2.404500000000000E+009;1.774256527423859E-001;4.912859201431274E-002;3.839189885184169E-003;2.469421364367008E-003;
2.404666666666667E+009;1.792858839035034E-001;4.778715595602989E-002;3.900184994563460E-003;2.220494439825416E-003;
2.404833333333334E+009;1.810598671436310E-001;4.658485949039459E-002;3.796892939135432E-003;2.053233794867992E-003;
2.405000000000000E+009;1.827886551618576E-001;4.590190201997757E-002;3.914958797395229E-003;1.824337756261230E-003;
2.405166666666667E+009;1.844136118888855E-001;4.485698416829109E-002;3.909069579094648E-003;1.610596547834575E-003;
2.405333333333334E+009;1.862784624099731E-001;4.424494504928589E-002;3.707517171278596E-003;1.455944031476975E-003;
2.405500000000000E+009;1.879528164863586E-001;4.374159500002861E-002;3.921311348676682E-003;1.329856575466692E-003;
2.405666666666667E+009;1.892928779125214E-001;4.324299842119217E-002;3.844573628157377E-003;1.197487814351916E-003;
2.405833333333334E+009;1.909523010253906E-001;4.286214336752892E-002;3.621714189648628E-003;9.909875225275755E-004;
2.406000000000000E+009;1.923190653324127E-001;4.273817688226700E-002;3.611732739955187E-003;9.295570780523121E-004;
2.406166666666667E+009;1.935304999351502E-001;4.251809790730476E-002;3.626942867413163E-003;9.038145071826875E-004;
2.406333333333334E+009;1.947891861200333E-001;4.242506995797157E-002;3.383191535249353E-003;8.220343734137714E-004;
2.406500000000000E+009;1.959062516689301E-001;4.254741221666336E-002;3.437700914219022E-003;8.695565629750490E-004;
2.406666666666667E+009;1.966347843408585E-001;4.241957888007164E-002;3.413108643144369E-003;8.318999316543341E-004;
2.406833333333334E+009;1.974679082632065E-001;4.252241551876068E-002;3.409369615837932E-003;7.282785372808576E-004;
2.407000000000000E+009;1.979998052120209E-001;4.283092543482781E-002;3.428076626732945E-003;8.015955681912601E-004;
2.407166666666667E+009;1.986461877822876E-001;4.260979220271111E-002;3.492538817226887E-003;6.523085758090019E-004;
2.407333333333334E+009;1.988479942083359E-001;4.286747425794601E-002;3.462006105110049E-003;6.364563596434891E-004;
2.407500000000000E+009;1.988888084888458E-001;4.299443587660790E-002;3.400370245799422E-003;6.672405288554728E-004;
2.407666666666667E+009;1.991818696260452E-001;4.291027039289475E-002;3.643408650532365E-003;7.525826222263277E-004;
2.407833333333334E+009;1.987599581480026E-001;4.289582744240761E-002;3.781753825023770E-003;5.441593821160495E-004;
2.408000000000000E+009;1.987125873565674E-001;4.284388944506645E-002;3.766995389014483E-003;7.393328705802560E-004;
2.408166666666667E+009;1.981915980577469E-001;4.263768345117569E-002;3.754439996555448E-003;4.385982174426317E-004;
2.408333333333334E+009;1.977678984403610E-001;4.225316643714905E-002;3.860099473968148E-003;4.488635750021786E-004;
2.408500000000000E+009;1.970653235912323E-001;4.209534078836441E-002;4.037472885102034E-003;4.543855902738869E-004;
2.408666666666667E+009;1.963398903608322E-001;4.159238189458847E-002;4.026532638818026E-003;3.685517876874656E-004;
2.408833333333334E+009;1.956001520156860E-001;4.104843363165855E-002;4.071082919836044E-003;8.156472904374823E-005;
2.409000000000000E+009;1.946636438369751E-001;4.039352014660835E-002;4.268918652087450E-003;6.561855116160587E-005;
2.409166666666667E+009;1.936972886323929E-001;3.950139135122299E-002;4.338059574365616E-003;-1.532162859803066E-004;
2.409333333333334E+009;1.926542222499847E-001;3.859306499361992E-002;4.400833044201136E-003;-2.095062809530646E-004;
2.409500000000000E+009;1.912627816200256E-001;3.755834698677063E-002;4.475005902349949E-003;-2.842211106326431E-004;
2.409666666666667E+009;1.901147961616516E-001;3.630470484495163E-002;4.383620806038380E-003;-6.772238411940634E-004;
2.409833333333334E+009;1.887413412332535E-001;3.480568900704384E-002;4.480714909732342E-003;-8.302443311549723E-004;
2.410000000000000E+009;1.876337379217148E-001;3.349927812814713E-002;4.488424398005009E-003;-7.253646035678685E-004;
2.410166666666667E+009;1.864373981952667E-001;3.181258961558342E-002;4.381425213068724E-003;-1.013197936117649E-003;
2.410333333333334E+009;1.852322220802307E-001;3.013705089688301E-002;4.556226544082165E-003;-1.451293821446598E-003;
2.410500000000000E+009;1.840526014566422E-001;2.828918211162090E-002;4.447212442755699E-003;-1.519505633041263E-003;
2.410666666666667E+009;1.830807626247406E-001;2.609339728951454E-002;4.370798822492361E-003;-1.731301425024867E-003;
2.410833333333334E+009;1.819777041673660E-001;2.406742237508297E-002;4.430742003023624E-003;-1.953051891177893E-003;
2.411000000000000E+009;1.812454313039780E-001;2.195833809673786E-002;4.351800307631493E-003;-2.069163834676147E-003;
2.411166666666667E+009;1.802182048559189E-001;1.975583471357822E-002;4.179684910923243E-003;-2.321457723155618E-003;
2.411333333333334E+009;1.795178949832916E-001;1.727573573589325E-002;4.086079075932503E-003;-2.314687706530094E-003;
2.411500000000000E+009;1.788541376590729E-001;1.491383556276560E-002;4.026869311928749E-003;-2.600928302854300E-003;
2.411666666666667E+009;1.784839481115341E-001;1.263608410954475E-002;3.926755860447884E-003;-2.689281944185495E-003;
2.411833333333334E+009;1.780005097389221E-001;1.021325774490833E-002;3.815122880041599E-003;-2.781548537313938E-003;
2.412000000000000E+009;1.779498308897018E-001;7.448759861290455E-003;3.701532958075404E-003;-2.923286287114024E-003;
2.412166666666667E+009;1.777738779783249E-001;5.150472745299339E-003;3.711320227012038E-003;-3.066733945161104E-003;
2.412333333333334E+009;1.777167767286301E-001;2.500978996977210E-003;3.428738564252853E-003;-3.216751385480166E-003;
2.412500000000000E+009;1.780083775520325E-001;-1.086452102754265E-004;3.439282067120075E-003;-3.235067008063197E-003;
2.412666666666667E+009;1.784895211458206E-001;-2.691824221983552E-003;3.249567467719317E-003;-3.357364796102047E-003;
2.412833333333334E+009;1.791258305311203E-001;-5.291347857564688E-003;3.171905642375350E-003;-3.572980407625437E-003;
2.413000000000000E+009;1.795779466629028E-001;-7.556585595011711E-003;3.133051563054323E-003;-3.690931713208556E-003;
2.413166666666667E+009;1.803147494792938E-001;-1.004404481500387E-002;2.917807782068849E-003;-3.801189130172133E-003;
2.413333333333334E+009;1.812806278467178E-001;-1.245617121458054E-002;2.773385494947434E-003;-3.878487506881356E-003;
2.413500000000000E+009;1.820907294750214E-001;-1.502150297164917E-002;2.638914156705141E-003;-3.970957361161709E-003;
2.413666666666667E+009;1.833596825599670E-001;-1.733836159110069E-002;2.587910741567612E-003;-4.069489426910877E-003;
2.413833333333334E+009;1.845179349184036E-001;-1.943480037152767E-002;2.253702376037836E-003;-4.038714338093996E-003;
2.414000000000000E+009;1.854207068681717E-001;-2.152350358664990E-002;2.449804684147239E-003;-4.241235554218292E-003;
2.414166666666667E+009;1.868363469839096E-001;-2.352938987314701E-002;2.066430402919650E-003;-4.413571674376726E-003;
2.414333333333334E+009;1.879895478487015E-001;-2.560523711144924E-002;2.020025160163641E-003;-4.556873347610235E-003;
2.414500000000000E+009;1.893417984247208E-001;-2.716605365276337E-002;1.946550561115146E-003;-4.641205538064241E-003;
2.414666666666667E+009;1.906110793352127E-001;-2.879560180008411E-002;1.727664726786315E-003;-4.943665117025375E-003;
2.414833333333334E+009;1.918835788965225E-001;-3.049064241349697E-002;1.520658959634602E-003;-5.059664137661457E-003;
2.415000000000000E+009;1.931824684143066E-001;-3.186628967523575E-002;1.223951694555581E-003;-4.960068035870791E-003;
2.415166666666667E+009;1.945409625768662E-001;-3.321651741862297E-002;9.694650070741773E-004;-5.245462525635958E-003;
2.415333333333334E+009;1.956234276294708E-001;-3.416923061013222E-002;7.550585432909429E-004;-5.210439674556255E-003;
2.415500000000000E+009;1.970470994710922E-001;-3.497314080595970E-002;3.111284750048071E-004;-5.410335026681423E-003;
2.415666666666667E+009;1.981168389320374E-001;-3.590622171759605E-002;1.059517817338929E-004;-5.380038172006607E-003;
2.415833333333334E+009;1.991567313671112E-001;-3.662362694740295E-002;-3.003981255460531E-004;-5.413338541984558E-003;
2.416000000000000E+009;2.000451385974884E-001;-3.728903457522392E-002;-5.433151382021606E-004;-5.259421654045582E-003;
2.416166666666667E+009;2.009540498256683E-001;-3.787776455283165E-002;-8.567814948037267E-004;-4.979016259312630E-003;
2.416333333333334E+009;2.017754316329956E-001;-3.810589388012886E-002;-1.328540034592152E-003;-4.958454053848982E-003;
2.416500000000000E+009;2.024259716272354E-001;-3.840644285082817E-002;-1.301127835176885E-003;-4.894743207842112E-003;
2.416666666666667E+009;2.028704583644867E-001;-3.873753547668457E-002;-1.601324882358313E-003;-4.519175272434950E-003;
2.416833333333334E+009;2.032296508550644E-001;-3.853205963969231E-002;-1.634496846236289E-003;-4.286684095859528E-003;
2.417000000000000E+009;2.035918384790421E-001;-3.864153474569321E-002;-1.775712938979268E-003;-4.129581619054079E-003;
2.417166666666667E+009;2.034866213798523E-001;-3.835538402199745E-002;-1.960673602297902E-003;-4.067418631166220E-003;
2.417333333333334E+009;2.034660726785660E-001;-3.807575628161430E-002;-1.952785183675587E-003;-4.024721682071686E-003;
2.417500000000000E+009;2.033750116825104E-001;-3.800781071186066E-002;-2.105330349877477E-003;-3.852715715765953E-003;
2.417666666666667E+009;2.030486464500427E-001;-3.757068514823914E-002;-2.081865444779396E-003;-3.685190575197339E-003;
2.417833333333334E+009;2.028255909681320E-001;-3.716281428933144E-002;-1.989561365917325E-003;-3.470184048637748E-003;
2.418000000000000E+009;2.022838443517685E-001;-3.677788004279137E-002;-2.178432652726769E-003;-3.447889583185315E-003;
2.418166666666667E+009;2.017167955636978E-001;-3.653281927108765E-002;-2.122606150805950E-003;-3.346797311678529E-003;
2.418333333333334E+009;2.009245306253433E-001;-3.611605986952782E-002;-2.127826912328601E-003;-3.233235562220216E-003;
2.418500000000000E+009;2.002591937780380E-001;-3.591011464595795E-002;-2.387894550338388E-003;-3.271842608228326E-003;
2.418666666666667E+009;1.993302553892136E-001;-3.578878194093704E-002;-2.316063037142158E-003;-3.204611362889409E-003;
2.418833333333334E+009;1.982378661632538E-001;-3.558980301022530E-002;-2.432424807921052E-003;-3.119177417829633E-003;
2.419000000000000E+009;1.971339583396912E-001;-3.559806570410729E-002;-2.485336968675256E-003;-2.984518185257912E-003;
2.419166666666667E+009;1.959964036941528E-001;-3.571682050824165E-002;-2.647481393069029E-003;-3.054051892831922E-003;
2.419333333333334E+009;1.946943700313568E-001;-3.603961318731308E-002;-2.709721680730581E-003;-2.884791698306799E-003;
2.419500000000000E+009;1.933360993862152E-001;-3.629660606384277E-002;-2.880523679777980E-003;-2.715918235480785E-003;
2.419666666666667E+009;1.917422711849213E-001;-3.696225583553314E-002;-2.958335680887103E-003;-2.650134032592177E-003;
2.419833333333334E+009;1.902075707912445E-001;-3.744347766041756E-002;-3.005558159202337E-003;-2.589230425655842E-003;
2.420000000000000E+009;1.887311190366745E-001;-3.827782347798348E-002;-3.150088479742408E-003;-2.326582558453083E-003;
2.420166666666667E+009;1.869625896215439E-001;-3.906035795807838E-002;-3.111984813585877E-003;-2.316810423508287E-003;
2.420333333333334E+009;1.852302849292755E-001;-4.015443101525307E-002;-3.194273682311177E-003;-2.016935264691711E-003;
2.420500000000000E+009;1.834843754768372E-001;-4.134112223982811E-002;-3.159453626722097E-003;-1.811618451029062E-003;
2.420666666666667E+009;1.815886646509171E-001;-4.240528494119644E-002;-3.191986121237278E-003;-1.636577188037336E-003;
2.420833333333334E+009;1.800223290920258E-001;-4.378177225589752E-002;-3.064636141061783E-003;-1.443338347598910E-003;
2.421000000000000E+009;1.785372793674469E-001;-4.522646963596344E-002;-3.050971543416381E-003;-1.154962345026434E-003;
2.421166666666667E+009;1.767661124467850E-001;-4.694322124123573E-002;-2.943125786259770E-003;-1.279854914173484E-003;
2.421333333333334E+009;1.749928891658783E-001;-4.832770302891731E-002;-2.524680225178599E-003;-1.123503316193819E-003;
2.421500000000000E+009;1.736643612384796E-001;-5.029515177011490E-002;-2.433855319395661E-003;-1.028613070957363E-003;
2.421666666666667E+009;1.722736060619354E-001;-5.190170556306839E-002;-2.310483017936349E-003;-1.197227626107633E-003;
2.421833333333334E+009;1.711341291666031E-001;-5.378725752234459E-002;-2.191521693021059E-003;-1.094304723665118E-003;
2.422000000000000E+009;1.696376353502274E-001;-5.558143928647041E-002;-2.231701742857695E-003;-1.125893439166248E-003;
2.422166666666667E+009;1.688993573188782E-001;-5.779463052749634E-002;-2.145748818293214E-003;-1.243105856701732E-003;
2.422333333333334E+009;1.677202880382538E-001;-5.962150171399117E-002;-2.253002952784300E-003;-1.348261372186244E-003;
2.422500000000000E+009;1.668383628129959E-001;-6.170738488435745E-002;-2.250875346362591E-003;-1.537175383418798E-003;
2.422666666666667E+009;1.659785211086273E-001;-6.387200206518173E-002;-2.261476125568152E-003;-1.694819424301386E-003;
2.422833333333334E+009;1.655769944190979E-001;-6.605175882577896E-002;-2.319830935448408E-003;-1.701353699900210E-003;
2.423000000000000E+009;1.649290174245834E-001;-6.808622926473618E-002;-2.485163975507021E-003;-1.653145649470389E-003;
2.423166666666667E+009;1.646587401628494E-001;-7.018695771694183E-002;-2.725793747231364E-003;-1.802183105610311E-003;
2.423333333333334E+009;1.644188612699509E-001;-7.223732024431229E-002;-2.762360032647848E-003;-1.844375394284725E-003;
2.423500000000000E+009;1.643105149269104E-001;-7.416780292987824E-002;-2.985941478982568E-003;-1.876073423773050E-003;
2.423666666666667E+009;1.644317507743835E-001;-7.629188895225525E-002;-3.216079901903868E-003;-1.727488590404391E-003;
2.423833333333334E+009;1.643921583890915E-001;-7.809416949748993E-002;-3.457780927419663E-003;-1.558291376568377E-003;
2.424000000000000E+009;1.644790768623352E-001;-7.990782707929611E-002;-3.522657556459308E-003;-1.579219475388527E-003;
2.424166666666667E+009;1.647749245166779E-001;-8.171648532152176E-002;-3.790855174884200E-003;-1.432317658327520E-003;
2.424333333333334E+009;1.650325059890747E-001;-8.342061191797257E-002;-3.708566771820188E-003;-1.265906728804112E-003;
2.424500000000000E+009;1.654122173786163E-001;-8.532258868217468E-002;-3.938956186175346E-003;-1.151129137724638E-003;
2.424666666666667E+009;1.657243967056274E-001;-8.688249439001083E-002;-3.951912280172110E-003;-1.085374387912452E-003;
2.424833333333334E+009;1.665809154510498E-001;-8.822406828403473E-002;-3.876399714499712E-003;-8.952027419582009E-004;
2.425000000000000E+009;1.670593172311783E-001;-8.967465907335281E-002;-4.216165747493506E-003;-7.131394813768566E-004;
2.425166666666667E+009;1.675526499748230E-001;-9.097172319889069E-002;-4.046832676976919E-003;-4.338673606980592E-004;
2.425333333333334E+009;1.681265085935593E-001;-9.205238521099091E-002;-4.329433664679527E-003;-3.650012367870659E-004;
2.425500000000000E+009;1.686869859695435E-001;-9.327808767557144E-002;-4.340472631156445E-003;-1.946839984157123E-005;
2.425666666666667E+009;1.694240570068359E-001;-9.400122612714768E-002;-4.309139680117369E-003;-2.201473835157231E-004;
2.425833333333334E+009;1.699930578470230E-001;-9.503901004791260E-002;-4.373961593955755E-003;2.623634063638747E-004;
2.426000000000000E+009;1.706313490867615E-001;-9.560190141201019E-002;-4.399041179567576E-003;2.687028318177909E-004;
2.426166666666667E+009;1.712332963943481E-001;-9.631300717592239E-002;-4.304991569370031E-003;5.470169126056135E-004;
2.426333333333334E+009;1.717723160982132E-001;-9.698005020618439E-002;-4.354581702500582E-003;8.069791947491467E-004;
2.426500000000000E+009;1.723069548606873E-001;-9.738132357597351E-002;-4.364558495581150E-003;8.928478928282857E-004;
2.426666666666667E+009;1.729124635457993E-001;-9.777275472879410E-002;-4.315749276429415E-003;1.108153373934329E-003;
2.426833333333334E+009;1.733994781970978E-001;-9.818209707736969E-002;-4.355954471975565E-003;1.285059493966401E-003;
2.427000000000000E+009;1.736926585435867E-001;-9.855208545923233E-002;-4.165954887866974E-003;1.544866594485939E-003;
2.427166666666667E+009;1.739075928926468E-001;-9.870042651891708E-002;-4.138100426644087E-003;1.549854874610901E-003;
2.427333333333334E+009;1.741160154342651E-001;-9.906174987554550E-002;-4.113841801881790E-003;1.608112361282110E-003;
2.427500000000000E+009;1.740166991949081E-001;-9.932845085859299E-002;-4.071158356964588E-003;1.833300921134651E-003;
2.427666666666667E+009;1.740651726722717E-001;-9.953607618808746E-002;-4.099292214959860E-003;1.913655200041831E-003;
2.427833333333334E+009;1.737671494483948E-001;-9.965705126523972E-002;-4.118189681321383E-003;2.065760549157858E-003;
