# Version 1.00
#
freq[Hz];re:Trc1_S11;im:Trc1_S11;re:Trc2_S21;im:Trc2_S21;
2.400000000000000E+009;1.507623046636581E-001;1.154437065124512E-001;6.899082800373435E-004;5.746361799538136E-003;
2.400166666666667E+009;1.502718776464462E-001;1.130562424659729E-001;1.059439848177135E-003;5.623363889753819E-003;
2.400333333333334E+009;1.502539962530136E-001;1.108225211501122E-001;1.297700335271657E-003;5.359041504561901E-003;
2.400500000000000E+009;1.501798927783966E-001;1.083025783300400E-001;1.394927152432501E-003;5.234874319285154E-003;
2.400666666666667E+009;1.501546204090118E-001;1.058728545904160E-001;1.624755794182420E-003;4.880763590335846E-003;
2.400833333333334E+009;1.499535292387009E-001;1.028852686285973E-001;1.877905917353928E-003;4.595764447003603E-003;
2.401000000000000E+009;1.501239538192749E-001;1.002146676182747E-001;1.793688163161278E-003;4.487925674766302E-003;
2.401166666666667E+009;1.499241292476654E-001;9.742851555347443E-002;1.889280625618994E-003;4.195156972855330E-003;
2.401333333333334E+009;1.503832191228867E-001;9.467399865388870E-002;1.989955082535744E-003;4.057006910443306E-003;
2.401500000000000E+009;1.505933851003647E-001;9.167277067899704E-002;1.798967481590807E-003;4.030170384794474E-003;
2.401666666666667E+009;1.509663909673691E-001;8.875158429145813E-002;1.785275177098811E-003;3.779248101636767E-003;
2.401833333333334E+009;1.513772159814835E-001;8.608896285295487E-002;1.686263130977750E-003;3.750179428607225E-003;
2.402000000000000E+009;1.523840874433518E-001;8.318970352411270E-002;1.789214555174112E-003;3.697708714753389E-003;
2.402166666666667E+009;1.530153453350067E-001;8.055923134088516E-002;1.725126523524523E-003;3.705997485667467E-003;
2.402333333333334E+009;1.538902670145035E-001;7.775539904832840E-002;1.791885471902788E-003;3.952497150748968E-003;
2.402500000000000E+009;1.550575792789459E-001;7.532563805580139E-002;1.783161191269755E-003;3.904927521944046E-003;
2.402666666666667E+009;1.563992500305176E-001;7.287130504846573E-002;1.870526815764606E-003;4.022729117423296E-003;
2.402833333333334E+009;1.577263772487640E-001;7.034777849912643E-002;2.095748204737902E-003;4.090513102710247E-003;
2.403000000000000E+009;1.593664437532425E-001;6.774118542671204E-002;2.303407527506352E-003;4.084299784153700E-003;
2.403166666666667E+009;1.612427681684494E-001;6.549001485109329E-002;2.558348933234811E-003;4.110011272132397E-003;
2.403333333333334E+009;1.628978699445725E-001;6.303388625383377E-002;2.850913675501943E-003;4.053633660078049E-003;
2.403500000000000E+009;1.648162305355072E-001;6.090139225125313E-002;3.005199134349823E-003;3.955913241952658E-003;
2.403666666666667E+009;1.667389720678330E-001;5.881992354989052E-002;3.121549496427178E-003;3.877808572724462E-003;
2.403833333333334E+009;1.687993258237839E-001;5.685618147253990E-002;3.446496324613690E-003;3.757354803383350E-003;
2.404000000000000E+009;1.704467087984085E-001;5.484146252274513E-002;3.635792760178447E-003;3.662757342681289E-003;
2.404166666666667E+009;1.725686192512512E-001;5.323141068220139E-002;3.836923744529486E-003;3.437252249568701E-003;
2.404333333333334E+009;1.745349019765854E-001;5.162163823843002E-002;3.957705106586218E-003;3.142160829156637E-003;
2.404500000000000E+009;1.763246059417725E-001;4.992100223898888E-002;4.101532511413097E-003;2.821829169988632E-003;
2.404666666666667E+009;1.784057915210724E-001;4.879735037684441E-002;4.072743467986584E-003;2.626825356855989E-003;
2.404833333333334E+009;1.803183704614639E-001;4.746936261653900E-002;4.250964149832726E-003;2.306848531588912E-003;
2.405000000000000E+009;1.820969134569168E-001;4.667436331510544E-002;3.989065065979958E-003;2.125235041603446E-003;
2.405166666666667E+009;1.837217360734940E-001;4.578746482729912E-002;4.188056569546461E-003;1.870895037427545E-003;
2.405333333333334E+009;1.855311840772629E-001;4.526864737272263E-002;4.103153478354216E-003;1.783141284249723E-003;
2.405500000000000E+009;1.873203814029694E-001;4.468715563416481E-002;4.178323317319155E-003;1.472289324738085E-003;
2.405666666666667E+009;1.889437735080719E-001;4.417807608842850E-002;4.126754589378834E-003;1.458202605135739E-003;
2.405833333333334E+009;1.905302703380585E-001;4.391255602240562E-002;4.039581399410963E-003;1.216927077621222E-003;
2.406000000000000E+009;1.918188333511353E-001;4.368833452463150E-002;3.898866707459092E-003;1.093249185942113E-003;
2.406166666666667E+009;1.932136416435242E-001;4.333903640508652E-002;3.812931012362242E-003;1.000543008558452E-003;
2.406333333333334E+009;1.944431662559509E-001;4.345477744936943E-002;3.713521640747786E-003;8.800846990197897E-004;
2.406500000000000E+009;1.954109817743301E-001;4.357018321752548E-002;3.740655956789851E-003;8.459509699605405E-004;
2.406666666666667E+009;1.963065117597580E-001;4.344172775745392E-002;3.789593465626240E-003;9.853168157860637E-004;
2.406833333333334E+009;1.972516328096390E-001;4.359874874353409E-002;3.793865442276001E-003;7.212903583422303E-004;
2.407000000000000E+009;1.978687494993210E-001;4.378619045019150E-002;3.770572831854224E-003;8.773544686846435E-004;
2.407166666666667E+009;1.984099894762039E-001;4.358084127306938E-002;3.754239063709974E-003;7.937501650303602E-004;
2.407333333333334E+009;1.985475569963455E-001;4.387529939413071E-002;3.683865070343018E-003;7.004379294812679E-004;
2.407500000000000E+009;1.988174766302109E-001;4.391327872872353E-002;3.822659375146031E-003;7.162719848565757E-004;
2.407666666666667E+009;1.988935619592667E-001;4.400589689612389E-002;4.046771209686995E-003;6.456765113398433E-004;
2.407833333333334E+009;1.986143887042999E-001;4.397483915090561E-002;4.003050271421671E-003;4.983207327313721E-004;
2.408000000000000E+009;1.986722797155380E-001;4.396257922053337E-002;4.040614701807499E-003;5.224885535426438E-004;
2.408166666666667E+009;1.981534063816071E-001;4.365327954292297E-002;4.215437918901444E-003;4.732224333565682E-004;
2.408333333333334E+009;1.977202594280243E-001;4.330265894532204E-002;4.247772973030806E-003;3.960573521908373E-004;
2.408500000000000E+009;1.970863938331604E-001;4.315069317817688E-002;4.254341125488281E-003;2.860803506337106E-004;
2.408666666666667E+009;1.963584870100021E-001;4.275190457701683E-002;4.324050154536963E-003;2.434021880617365E-004;
2.408833333333334E+009;1.956818848848343E-001;4.220455512404442E-002;4.274278879165649E-003;-1.668314507696778E-004;
2.409000000000000E+009;1.947657614946365E-001;4.153493791818619E-002;4.452615976333618E-003;-5.398906796472147E-005;
2.409166666666667E+009;1.936589628458023E-001;4.051532223820686E-002;4.629727452993393E-003;-1.614041539141908E-004;
2.409333333333334E+009;1.928047686815262E-001;3.968328237533569E-002;4.639773629605770E-003;-3.653011808637530E-004;
2.409500000000000E+009;1.914627254009247E-001;3.862345963716507E-002;4.634325858205557E-003;-4.888183902949095E-004;
2.409666666666667E+009;1.902761757373810E-001;3.742737695574760E-002;4.629405215382576E-003;-7.668102625757456E-004;
2.409833333333334E+009;1.890303641557694E-001;3.621041402220726E-002;4.747597500681877E-003;-9.196419268846512E-004;
2.410000000000000E+009;1.879725009202957E-001;3.452732786536217E-002;4.571756813675165E-003;-1.068356330506504E-003;
2.410166666666667E+009;1.866357773542404E-001;3.299475461244583E-002;4.694440402090550E-003;-1.329500460997224E-003;
2.410333333333334E+009;1.857315301895142E-001;3.121859207749367E-002;4.729454871267080E-003;-1.520096673630178E-003;
2.410500000000000E+009;1.845641434192658E-001;2.949704043567181E-002;4.599740263074637E-003;-1.574668451212347E-003;
2.410666666666667E+009;1.834476292133331E-001;2.725523151457310E-002;4.662851337343454E-003;-1.909186481498182E-003;
2.410833333333334E+009;1.825163513422012E-001;2.513264678418636E-002;4.551580641418695E-003;-2.104084705933929E-003;
2.411000000000000E+009;1.817224621772766E-001;2.303687483072281E-002;4.432232584804297E-003;-2.089952584356070E-003;
2.411166666666667E+009;1.808273196220398E-001;2.079630643129349E-002;4.353287629783154E-003;-2.422288758680224E-003;
2.411333333333334E+009;1.800771504640579E-001;1.833039522171021E-002;4.316798411309719E-003;-2.615109086036682E-003;
2.411500000000000E+009;1.794045567512512E-001;1.589443162083626E-002;4.156521987169981E-003;-2.790552331134677E-003;
2.411666666666667E+009;1.792894750833511E-001;1.347764395177364E-002;4.153467714786530E-003;-3.018390852957964E-003;
2.411833333333334E+009;1.786730736494064E-001;1.088158693164587E-002;3.940891474485397E-003;-3.263403428718448E-003;
2.412000000000000E+009;1.787284910678864E-001;8.242798037827015E-003;3.873932175338268E-003;-3.244023770093918E-003;
2.412166666666667E+009;1.785742938518524E-001;5.890458822250366E-003;3.729675896465778E-003;-3.385227173566818E-003;
2.412333333333334E+009;1.788107156753540E-001;3.060405608266592E-003;3.624525154009461E-003;-3.493926720693708E-003;
2.412500000000000E+009;1.787617802619934E-001;7.379843736998737E-004;3.476150333881378E-003;-3.629679325968027E-003;
2.412666666666667E+009;1.794279962778091E-001;-2.100169425830245E-003;3.350315149873495E-003;-3.690298646688461E-003;
2.412833333333334E+009;1.798928678035736E-001;-4.614123143255711E-003;3.201013896614313E-003;-3.803511383011937E-003;
2.413000000000000E+009;1.805365234613419E-001;-7.119896356016398E-003;2.862573368474841E-003;-3.929265774786472E-003;
2.413166666666667E+009;1.810909807682037E-001;-9.562212042510510E-003;2.929545473307371E-003;-3.904427168890834E-003;
2.413333333333334E+009;1.822577863931656E-001;-1.201273128390312E-002;2.818425651639700E-003;-3.933779895305634E-003;
2.413500000000000E+009;1.829835623502731E-001;-1.453736051917076E-002;2.562397625297308E-003;-4.217696841806173E-003;
2.413666666666667E+009;1.841972321271896E-001;-1.689988933503628E-002;2.498964313417673E-003;-4.308295901864767E-003;
2.413833333333334E+009;1.852099895477295E-001;-1.911118254065514E-002;2.423022175207734E-003;-4.561107605695725E-003;
2.414000000000000E+009;1.862888932228088E-001;-2.128789387643337E-002;2.180210547521710E-003;-4.543399438261986E-003;
2.414166666666667E+009;1.877336204051971E-001;-2.329506911337376E-002;2.013069344684482E-003;-4.540535155683756E-003;
2.414333333333334E+009;1.888073980808258E-001;-2.536674961447716E-002;1.831914880312979E-003;-4.721561446785927E-003;
2.414500000000000E+009;1.900332868099213E-001;-2.708539925515652E-002;1.761724357493222E-003;-4.794454202055931E-003;
2.414666666666667E+009;1.914459317922592E-001;-2.862040698528290E-002;1.601305673830211E-003;-4.933840595185757E-003;
2.414833333333334E+009;1.925864815711975E-001;-3.034523874521256E-002;1.280175754800439E-003;-5.165948998183012E-003;
2.415000000000000E+009;1.938176751136780E-001;-3.174404799938202E-002;1.187434769235551E-003;-5.185778718441725E-003;
2.415166666666667E+009;1.953075081110001E-001;-3.299530223011971E-002;8.159381686709821E-004;-5.415463354438543E-003;
2.415333333333334E+009;1.964988410472870E-001;-3.414990752935410E-002;6.323617999441922E-004;-5.350649822503328E-003;
2.415500000000000E+009;1.979055851697922E-001;-3.478819131851196E-002;1.974281767616049E-004;-5.562558770179749E-003;
2.415666666666667E+009;1.990761160850525E-001;-3.593346104025841E-002;-1.363882620353252E-004;-5.502159707248211E-003;
2.415833333333334E+009;2.000016123056412E-001;-3.655302897095680E-002;-4.435230512171984E-004;-5.377042572945356E-003;
2.416000000000000E+009;2.009521424770355E-001;-3.731916099786758E-002;-5.930505576543510E-004;-5.214748904109001E-003;
2.416166666666667E+009;2.019492983818054E-001;-3.791946172714233E-002;-1.032526488415897E-003;-5.303831771016121E-003;
2.416333333333334E+009;2.027553915977478E-001;-3.807962685823441E-002;-1.151696196757257E-003;-5.041572730988264E-003;
2.416500000000000E+009;2.033520489931107E-001;-3.839851170778275E-002;-1.648661331273615E-003;-4.842274356633425E-003;
2.416666666666667E+009;2.038501054048538E-001;-3.867515549063683E-002;-1.581572112627327E-003;-4.648874513804913E-003;
2.416833333333334E+009;2.041404545307159E-001;-3.862146288156509E-002;-1.823803875595331E-003;-4.435095936059952E-003;
2.417000000000000E+009;2.045882493257523E-001;-3.880808129906654E-002;-1.967948861420155E-003;-4.260281100869179E-003;
2.417166666666667E+009;2.045302391052246E-001;-3.864027559757233E-002;-2.186809433624148E-003;-4.079475998878479E-003;
2.417333333333334E+009;2.043861001729965E-001;-3.834750875830650E-002;-2.224347088485956E-003;-4.067174624651671E-003;
2.417500000000000E+009;2.044177502393723E-001;-3.824789822101593E-002;-2.237236360087991E-003;-3.833559807389975E-003;
2.417666666666667E+009;2.041174471378326E-001;-3.784423321485519E-002;-2.190946601331234E-003;-3.519332269206643E-003;
2.417833333333334E+009;2.038627713918686E-001;-3.756121918559074E-002;-2.386417938396335E-003;-3.543524537235498E-003;
2.418000000000000E+009;2.034287005662918E-001;-3.714200109243393E-002;-2.329538110643625E-003;-3.396617714315653E-003;
2.418166666666667E+009;2.027759552001953E-001;-3.689453005790710E-002;-2.328373957425356E-003;-3.338130656629801E-003;
2.418333333333334E+009;2.019694447517395E-001;-3.665076196193695E-002;-2.554042264819145E-003;-3.137998515740037E-003;
2.418500000000000E+009;2.011327594518662E-001;-3.647070005536079E-002;-2.379895886406303E-003;-3.186718327924609E-003;
2.418666666666667E+009;2.003769427537918E-001;-3.617362305521965E-002;-2.537437248975039E-003;-3.066309727728367E-003;
2.418833333333334E+009;1.993141919374466E-001;-3.624306246638298E-002;-2.617971505969763E-003;-3.025630721822381E-003;
2.419000000000000E+009;1.980920433998108E-001;-3.631367161870003E-002;-2.684513805434108E-003;-3.072109771892428E-003;
2.419166666666667E+009;1.969079375267029E-001;-3.647639974951744E-002;-2.799623645842075E-003;-2.946823136880994E-003;
2.419333333333334E+009;1.956217736005783E-001;-3.680312260985375E-002;-2.903583459556103E-003;-2.877476392313838E-003;
2.419500000000000E+009;1.940943896770477E-001;-3.699748590588570E-002;-2.886289497837424E-003;-2.802979899570346E-003;
2.419666666666667E+009;1.925328671932221E-001;-3.768051043152809E-002;-3.042896278202534E-003;-2.571335993707180E-003;
2.419833333333334E+009;1.909938156604767E-001;-3.816995769739151E-002;-3.159353043884039E-003;-2.524496056139469E-003;
2.420000000000000E+009;1.893014162778854E-001;-3.905982524156570E-002;-3.360688453540206E-003;-2.195418579503894E-003;
2.420166666666667E+009;1.875905990600586E-001;-3.980676457285881E-002;-3.366799559444189E-003;-2.202954376116395E-003;
2.420333333333334E+009;1.858365237712860E-001;-4.097247123718262E-002;-3.346564713865519E-003;-1.856491435319185E-003;
2.420500000000000E+009;1.840340644121170E-001;-4.207283258438110E-002;-3.465932561084628E-003;-1.627883641049266E-003;
2.420666666666667E+009;1.823213547468185E-001;-4.315093159675598E-002;-3.395769279450178E-003;-1.476383884437382E-003;
2.420833333333334E+009;1.805628240108490E-001;-4.468665644526482E-002;-3.150492906570435E-003;-1.180211547762156E-003;
2.421000000000000E+009;1.788881570100784E-001;-4.612795263528824E-002;-3.167419461533427E-003;-1.187566667795181E-003;
2.421166666666667E+009;1.774254292249680E-001;-4.762423411011696E-002;-2.952113514766097E-003;-9.311980102211237E-004;
2.421333333333334E+009;1.753981858491898E-001;-4.923483356833458E-002;-2.834087004885078E-003;-8.938219398260117E-004;
2.421500000000000E+009;1.739888638257980E-001;-5.112819746136665E-002;-2.615906065329909E-003;-8.532624342478812E-004;
2.421666666666667E+009;1.726276427507401E-001;-5.280835181474686E-002;-2.463737968355417E-003;-8.321176865138114E-004;
2.421833333333334E+009;1.713022142648697E-001;-5.459854379296303E-002;-2.448694081977010E-003;-9.175513405352831E-004;
2.422000000000000E+009;1.699409037828445E-001;-5.646835267543793E-002;-2.306700218468905E-003;-1.044828910380602E-003;
2.422166666666667E+009;1.689977496862412E-001;-5.863723903894424E-002;-2.257528482005000E-003;-1.300697913393378E-003;
2.422333333333334E+009;1.677729338407517E-001;-6.077411398291588E-002;-2.186276251450181E-003;-1.231785514391959E-003;
2.422500000000000E+009;1.670068651437759E-001;-6.267038732767105E-002;-2.272118115797639E-003;-1.334620174020529E-003;
2.422666666666667E+009;1.661921590566635E-001;-6.482806056737900E-002;-2.403854159638286E-003;-1.414180500432849E-003;
2.422833333333334E+009;1.656205356121063E-001;-6.687164306640625E-002;-2.368152607232332E-003;-1.503876992501319E-003;
2.423000000000000E+009;1.649785041809082E-001;-6.902912259101868E-002;-2.524459967389703E-003;-1.561054028570652E-003;
2.423166666666667E+009;1.646263748407364E-001;-7.102256268262863E-002;-2.717344090342522E-003;-1.628483063541353E-003;
2.423333333333334E+009;1.643120050430298E-001;-7.315362989902496E-002;-2.629777649417520E-003;-1.700477441772819E-003;
2.423500000000000E+009;1.641894727945328E-001;-7.514921575784683E-002;-2.986938459798694E-003;-1.662107068113983E-003;
2.423666666666667E+009;1.643344163894653E-001;-7.721229642629623E-002;-3.019206924363971E-003;-1.491028349846602E-003;
2.423833333333334E+009;1.642935127019882E-001;-7.906256616115570E-002;-3.377503249794245E-003;-1.471851021051407E-003;
2.424000000000000E+009;1.642601191997528E-001;-8.106311410665512E-002;-3.537245560437441E-003;-1.392729929648340E-003;
2.424166666666667E+009;1.644778102636337E-001;-8.272863179445267E-002;-3.621715120971203E-003;-1.289487117901444E-003;
2.424333333333334E+009;1.645824462175369E-001;-8.448505401611328E-002;-3.627647180110216E-003;-1.105502364225686E-003;
2.424500000000000E+009;1.651422679424286E-001;-8.636479079723358E-002;-3.870336338877678E-003;-9.520603343844414E-004;
2.424666666666667E+009;1.654181629419327E-001;-8.783367276191711E-002;-3.797654062509537E-003;-7.730181678198278E-004;
2.424833333333334E+009;1.661878228187561E-001;-8.932606130838394E-002;-3.757457714527845E-003;-7.329353247769177E-004;
2.425000000000000E+009;1.664991825819016E-001;-9.061779826879501E-002;-3.993050660938025E-003;-3.906063793692738E-004;
2.425166666666667E+009;1.671603471040726E-001;-9.188377857208252E-002;-3.924095537513495E-003;-4.142618854530156E-004;
2.425333333333334E+009;1.676199734210968E-001;-9.296763688325882E-002;-4.023418761789799E-003;-1.713385572656989E-004;
2.425500000000000E+009;1.682650148868561E-001;-9.413709491491318E-002;-4.016654100269079E-003;-1.001083146547899E-004;
2.425666666666667E+009;1.687258780002594E-001;-9.483708441257477E-002;-4.073563963174820E-003;1.426264207111672E-004;
2.425833333333334E+009;1.693217754364014E-001;-9.582853317260742E-002;-4.145666025578976E-003;3.549724642653018E-004;
2.426000000000000E+009;1.698897629976273E-001;-9.631887823343277E-002;-4.237247630953789E-003;3.261563833802939E-004;
2.426166666666667E+009;1.705710440874100E-001;-9.700538218021393E-002;-4.126270301640034E-003;6.391978240571916E-004;
2.426333333333334E+009;1.709450483322144E-001;-9.773904085159302E-002;-4.151686094701290E-003;7.456822786480188E-004;
2.426500000000000E+009;1.715618222951889E-001;-9.815619140863419E-002;-4.090735223144293E-003;9.247059933841229E-004;
2.426666666666667E+009;1.720030009746552E-001;-9.849303960800171E-002;-4.010198172181845E-003;1.247224514372647E-003;
2.426833333333334E+009;1.726005077362061E-001;-9.881529211997986E-002;-4.130966961383820E-003;1.102081499993801E-003;
2.427000000000000E+009;1.728576123714447E-001;-9.914296120405197E-002;-3.984831273555756E-003;1.372554223053157E-003;
2.427166666666667E+009;1.731018275022507E-001;-9.925701469182968E-002;-3.843788523226976E-003;1.506039639934897E-003;
2.427333333333334E+009;1.732788085937500E-001;-9.954533725976944E-002;-3.927125595510006E-003;1.586931990459561E-003;
2.427500000000000E+009;1.733002662658691E-001;-9.989462047815323E-002;-3.854868235066533E-003;1.681836205534637E-003;
2.427666666666667E+009;1.730312108993530E-001;-9.993153810501099E-002;-3.817789023742080E-003;1.888639526441693E-003;
