# Version 1.00
#
freq[Hz];re:Trc1_S11;im:Trc1_S11;re:Trc2_S21;im:Trc2_S21;
2.400000000000000E+009;1.513541042804718E-001;1.159183830022812E-001;8.916862425394356E-004;5.857587791979313E-003;
2.400166666666667E+009;1.509845703840256E-001;1.137092038989067E-001;1.088026678189635E-003;5.608457140624523E-003;
2.400333333333334E+009;1.510021537542343E-001;1.114515140652657E-001;1.467017224058509E-003;5.553245544433594E-003;
2.400500000000000E+009;1.508936434984207E-001;1.085919737815857E-001;1.647518249228597E-003;5.124220624566078E-003;
2.400666666666667E+009;1.509251296520233E-001;1.062247455120087E-001;1.785405445843935E-003;5.019003059715033E-003;
2.400833333333334E+009;1.506688445806503E-001;1.034183651208878E-001;1.872365362942219E-003;4.695282783359289E-003;
2.401000000000000E+009;1.508816778659821E-001;1.006770506501198E-001;1.972122117877007E-003;4.351615440100431E-003;
2.401166666666667E+009;1.507598310709000E-001;9.787405282258987E-002;1.852569635957480E-003;4.257394000887871E-003;
2.401333333333334E+009;1.511012166738510E-001;9.501893818378449E-002;2.016205340623856E-003;4.074605647474527E-003;
2.401500000000000E+009;1.513941735029221E-001;9.211112558841705E-002;1.812358736060560E-003;3.859225194901228E-003;
2.401666666666667E+009;1.518007516860962E-001;8.920536190271378E-002;1.883485587313771E-003;3.738651983439922E-003;
2.401833333333334E+009;1.522424370050430E-001;8.647353202104569E-002;1.788524677976966E-003;3.745304187759757E-003;
2.402000000000000E+009;1.531202793121338E-001;8.338497579097748E-002;1.692753867246211E-003;3.549654269590974E-003;
2.402166666666667E+009;1.537949740886688E-001;8.096191287040710E-002;1.833533286117017E-003;3.722183872014284E-003;
2.402333333333334E+009;1.549058407545090E-001;7.818547636270523E-002;1.905533601529896E-003;3.885207232087851E-003;
2.402500000000000E+009;1.560651659965515E-001;7.531211525201798E-002;1.829573302529752E-003;3.800645470619202E-003;
2.402666666666667E+009;1.572760790586472E-001;7.291448861360550E-002;2.137884730473161E-003;3.959259949624538E-003;
2.402833333333334E+009;1.585844904184341E-001;7.048296928405762E-002;2.221748232841492E-003;4.017086699604988E-003;
2.403000000000000E+009;1.603187918663025E-001;6.807103753089905E-002;2.448590705171228E-003;4.076666198670864E-003;
2.403166666666667E+009;1.619915962219238E-001;6.562993675470352E-002;2.532711252570152E-003;3.882212331518531E-003;
2.403333333333334E+009;1.637072563171387E-001;6.323543190956116E-002;2.720519201830030E-003;3.892782144248486E-003;
2.403500000000000E+009;1.657459586858749E-001;6.108225882053375E-002;3.083442570641637E-003;3.968411590903997E-003;
2.403666666666667E+009;1.675392091274262E-001;5.878171697258949E-002;3.292768495157361E-003;3.952083177864552E-003;
2.403833333333334E+009;1.694575548171997E-001;5.690800026059151E-002;3.441170789301395E-003;3.564589191228151E-003;
2.404000000000000E+009;1.713085323572159E-001;5.480806529521942E-002;3.683980787172914E-003;3.417316125705838E-003;
2.404166666666667E+009;1.735012680292130E-001;5.302806943655014E-002;3.782249987125397E-003;3.073464613407850E-003;
2.404333333333334E+009;1.752741187810898E-001;5.133981257677078E-002;3.924142569303513E-003;2.901487750932574E-003;
2.404500000000000E+009;1.772990822792053E-001;4.982795938849449E-002;4.031656775623560E-003;2.815762301906943E-003;
2.404666666666667E+009;1.791924536228180E-001;4.854231327772141E-002;4.129686858505011E-003;2.447683596983552E-003;
2.404833333333334E+009;1.810716241598129E-001;4.704932123422623E-002;4.219694063067436E-003;2.101487247273326E-003;
2.405000000000000E+009;1.828425675630570E-001;4.655097424983978E-002;4.256540443748236E-003;2.063723048195243E-003;
2.405166666666667E+009;1.846146285533905E-001;4.565589129924774E-002;4.181478172540665E-003;1.791577786207199E-003;
2.405333333333334E+009;1.861720681190491E-001;4.500457271933556E-002;4.088128451257944E-003;1.472533796913922E-003;
2.405500000000000E+009;1.880937665700913E-001;4.434804618358612E-002;4.114419221878052E-003;1.571780303493142E-003;
2.405666666666667E+009;1.895708739757538E-001;4.377281293272972E-002;3.895585192367435E-003;1.267595915123820E-003;
2.405833333333334E+009;1.912229806184769E-001;4.339051246643066E-002;4.071014001965523E-003;1.056098146364093E-003;
2.406000000000000E+009;1.925169378519058E-001;4.332630708813667E-002;3.898436436429620E-003;1.136996317654848E-003;
2.406166666666667E+009;1.938130557537079E-001;4.304682463407517E-002;3.845449071377516E-003;9.810073534026742E-004;
2.406333333333334E+009;1.950835436582565E-001;4.300331324338913E-002;3.973694983869791E-003;9.375575464218855E-004;
2.406500000000000E+009;1.960286051034927E-001;4.296355322003365E-002;3.695382736623287E-003;8.628132054582238E-004;
2.406666666666667E+009;1.968928575515747E-001;4.295386001467705E-002;3.789820708334446E-003;6.247343262657523E-004;
2.406833333333334E+009;1.977888047695160E-001;4.298138618469238E-002;3.684071591123939E-003;7.330216467380524E-004;
2.407000000000000E+009;1.984142959117889E-001;4.322889074683189E-002;3.663573646917939E-003;8.425318519584835E-004;
2.407166666666667E+009;1.989288926124573E-001;4.306546598672867E-002;3.697546431794763E-003;7.811287650838494E-004;
2.407333333333334E+009;1.991717666387558E-001;4.321311041712761E-002;3.708512987941504E-003;6.866966141387820E-004;
2.407500000000000E+009;1.993409544229507E-001;4.336456209421158E-002;3.895496716722846E-003;6.007600459270179E-004;
2.407666666666667E+009;1.994447261095047E-001;4.344884306192398E-002;3.759573912248015E-003;6.869375356473029E-004;
2.407833333333334E+009;1.991051435470581E-001;4.339377209544182E-002;3.895194968208671E-003;5.892315530218184E-004;
2.408000000000000E+009;1.989979892969132E-001;4.321120679378510E-002;3.944707568734884E-003;6.146501982584596E-004;
2.408166666666667E+009;1.984186321496964E-001;4.303251951932907E-002;4.110896028578281E-003;5.158185958862305E-004;
2.408333333333334E+009;1.980673819780350E-001;4.267262294888496E-002;3.929622471332550E-003;3.565590304788202E-004;
2.408500000000000E+009;1.974504888057709E-001;4.247103631496429E-002;4.131974186748266E-003;2.936533710453659E-004;
2.408666666666667E+009;1.967540383338928E-001;4.219661653041840E-002;4.181917291134596E-003;2.311243588337675E-004;
2.408833333333334E+009;1.959510147571564E-001;4.149054363369942E-002;4.289387259632349E-003;1.331456587649882E-005;
2.409000000000000E+009;1.950034797191620E-001;4.058741405606270E-002;4.433389753103256E-003;-8.489784522680566E-005;
2.409166666666667E+009;1.938966065645218E-001;3.985019400715828E-002;4.432918969541788E-003;-2.776616020128131E-004;
2.409333333333334E+009;1.930049806833267E-001;3.905983641743660E-002;4.558849148452282E-003;-2.809785655699670E-004;
2.409500000000000E+009;1.917677223682404E-001;3.792252391576767E-002;4.626423120498657E-003;-5.561401485465467E-004;
2.409666666666667E+009;1.905537545681000E-001;3.682314604520798E-002;4.723095335066319E-003;-6.394456140697002E-004;
2.409833333333334E+009;1.893285065889359E-001;3.533341363072395E-002;4.525081720203161E-003;-1.008006627671421E-003;
2.410000000000000E+009;1.881011575460434E-001;3.376605361700058E-002;4.597889259457588E-003;-1.170285861007869E-003;
2.410166666666667E+009;1.869919300079346E-001;3.203023597598076E-002;4.763001110404730E-003;-1.376901869662106E-003;
2.410333333333334E+009;1.857237666845322E-001;3.048245608806610E-002;4.645152483135462E-003;-1.496578566730022E-003;
2.410500000000000E+009;1.845606118440628E-001;2.862276323139668E-002;4.633183591067791E-003;-1.633423613384366E-003;
2.410666666666667E+009;1.834432035684586E-001;2.651425823569298E-002;4.524383228272200E-003;-1.899572205729783E-003;
2.410833333333334E+009;1.827428638935089E-001;2.437854371964932E-002;4.451894201338291E-003;-1.933805178850889E-003;
2.411000000000000E+009;1.816274374723434E-001;2.237113751471043E-002;4.538779146969318E-003;-2.281026914715767E-003;
2.411166666666667E+009;1.808180958032608E-001;2.021264657378197E-002;4.218345973640680E-003;-2.412984380498529E-003;
2.411333333333334E+009;1.800355166196823E-001;1.756308414041996E-002;4.181117285043001E-003;-2.528456971049309E-003;
2.411500000000000E+009;1.793570518493652E-001;1.536823716014624E-002;4.081376828253269E-003;-2.851587254554033E-003;
2.411666666666667E+009;1.789404153823853E-001;1.279370300471783E-002;3.998540341854096E-003;-2.856688806787133E-003;
2.411833333333334E+009;1.786332130432129E-001;1.037277840077877E-002;3.889444516971707E-003;-2.993743168190122E-003;
2.412000000000000E+009;1.784839928150177E-001;7.568430155515671E-003;3.751106094568968E-003;-3.141146386042237E-003;
2.412166666666667E+009;1.784422546625137E-001;5.156634375452995E-003;3.615307854488492E-003;-3.322875825688243E-003;
2.412333333333334E+009;1.784494519233704E-001;2.558423206210136E-003;3.597612492740154E-003;-3.419331973418593E-003;
2.412500000000000E+009;1.788768023252487E-001;1.375823740090709E-005;3.454157849773765E-003;-3.520410973578692E-003;
2.412666666666667E+009;1.791063398122788E-001;-2.551145618781447E-003;3.172537544742227E-003;-3.812613664194942E-003;
2.412833333333334E+009;1.795915067195892E-001;-5.170669872313738E-003;3.089996986091137E-003;-3.818790195509791E-003;
2.413000000000000E+009;1.802473664283752E-001;-7.660756353288889E-003;2.979438519105315E-003;-3.906366415321827E-003;
2.413166666666667E+009;1.808758080005646E-001;-9.896639734506607E-003;2.882022643461824E-003;-3.912162967026234E-003;
2.413333333333334E+009;1.818548887968063E-001;-1.266861427575350E-002;2.688535256311297E-003;-4.146243911236525E-003;
2.413500000000000E+009;1.827640384435654E-001;-1.515928283333778E-002;2.678679535165429E-003;-4.229031037539244E-003;
2.413666666666667E+009;1.838351786136627E-001;-1.739457435905933E-002;2.421195618808270E-003;-4.341449122875929E-003;
2.413833333333334E+009;1.849262565374374E-001;-1.947703957557678E-002;2.273005200549960E-003;-4.354546312242746E-003;
2.414000000000000E+009;1.860047578811646E-001;-2.186367101967335E-002;2.223192015662789E-003;-4.586681723594666E-003;
2.414166666666667E+009;1.874560862779617E-001;-2.373651415109634E-002;2.001163782551885E-003;-4.548341501504183E-003;
2.414333333333334E+009;1.885073632001877E-001;-2.588285133242607E-002;1.902615535072982E-003;-4.672676324844360E-003;
2.414500000000000E+009;1.897663176059723E-001;-2.756603993475437E-002;1.670666271820664E-003;-4.936867393553257E-003;
2.414666666666667E+009;1.909439414739609E-001;-2.935142628848553E-002;1.539051998406649E-003;-4.986370448023081E-003;
2.414833333333334E+009;1.922516971826553E-001;-3.072091750800610E-002;1.293475856073201E-003;-5.091887433081865E-003;
2.415000000000000E+009;1.935215443372726E-001;-3.204828873276711E-002;8.882522815838456E-004;-5.278350319713354E-003;
2.415166666666667E+009;1.948972046375275E-001;-3.338990733027458E-002;7.419209578074515E-004;-5.390993785113096E-003;
2.415333333333334E+009;1.961042732000351E-001;-3.446184098720551E-002;6.094269920140505E-004;-5.253192037343979E-003;
2.415500000000000E+009;1.974945813417435E-001;-3.529424220323563E-002;9.381717973155901E-005;-5.537841934710741E-003;
2.415666666666667E+009;1.985949128866196E-001;-3.624110668897629E-002;-6.920119631104171E-005;-5.376940127462149E-003;
2.415833333333334E+009;1.995894163846970E-001;-3.684832155704498E-002;-2.878670056816191E-004;-5.444255191832781E-003;
2.416000000000000E+009;2.004562020301819E-001;-3.759486600756645E-002;-6.585764349438250E-004;-5.376629531383514E-003;
2.416166666666667E+009;2.013852894306183E-001;-3.816725313663483E-002;-8.744796505197883E-004;-5.089196376502514E-003;
2.416333333333334E+009;2.023210227489471E-001;-3.836290538311005E-002;-1.196640543639660E-003;-4.981507081538439E-003;
2.416500000000000E+009;2.029417455196381E-001;-3.857581317424774E-002;-1.684358576312661E-003;-4.894494544714689E-003;
2.416666666666667E+009;2.034209519624710E-001;-3.893500193953514E-002;-1.692600315436721E-003;-4.687447566539049E-003;
2.416833333333334E+009;2.036544829607010E-001;-3.902319446206093E-002;-1.893708831630647E-003;-4.443588200956583E-003;
2.417000000000000E+009;2.039604038000107E-001;-3.909197822213173E-002;-2.063142601400614E-003;-4.188242834061384E-003;
2.417166666666667E+009;2.039344906806946E-001;-3.878319635987282E-002;-2.252573845908046E-003;-4.147040192037821E-003;
2.417333333333334E+009;2.038437426090241E-001;-3.849696367979050E-002;-2.202427480369806E-003;-3.917525522410870E-003;
2.417500000000000E+009;2.037798762321472E-001;-3.842098638415337E-002;-2.358953701332212E-003;-3.834031755104661E-003;
2.417666666666667E+009;2.035237550735474E-001;-3.807921707630158E-002;-2.362832659855485E-003;-3.620459698140621E-003;
2.417833333333334E+009;2.032253295183182E-001;-3.770517557859421E-002;-2.300422172993422E-003;-3.463723929598928E-003;
2.418000000000000E+009;2.027494311332703E-001;-3.727496042847633E-002;-2.447867766022682E-003;-3.276548814028502E-003;
2.418166666666667E+009;2.021575719118118E-001;-3.702252358198166E-002;-2.309864386916161E-003;-3.310569329187274E-003;
2.418333333333334E+009;2.014588713645935E-001;-3.652954101562500E-002;-2.524420851841569E-003;-3.373570507392287E-003;
2.418500000000000E+009;2.006118595600128E-001;-3.651399910449982E-002;-2.582477405667305E-003;-3.254932118579745E-003;
2.418666666666667E+009;1.998775005340576E-001;-3.624787181615830E-002;-2.489599864929915E-003;-3.053288906812668E-003;
2.418833333333334E+009;1.986362040042877E-001;-3.623882308602333E-002;-2.586202928796411E-003;-3.024817910045385E-003;
2.419000000000000E+009;1.974096149206162E-001;-3.631351143121719E-002;-2.763818716630340E-003;-2.866259776055813E-003;
2.419166666666667E+009;1.963363587856293E-001;-3.637567907571793E-002;-2.842945512384176E-003;-2.917504170909524E-003;
2.419333333333334E+009;1.950525641441345E-001;-3.674386441707611E-002;-2.896942198276520E-003;-2.754376037046313E-003;
2.419500000000000E+009;1.934602409601212E-001;-3.703536465764046E-002;-3.122795606032014E-003;-2.600745996460319E-003;
2.419666666666667E+009;1.919867247343063E-001;-3.765817731618881E-002;-3.219694830477238E-003;-2.595693571493030E-003;
2.419833333333334E+009;1.904221028089523E-001;-3.811775520443916E-002;-3.273429814726114E-003;-2.295592101290822E-003;
2.420000000000000E+009;1.888496726751328E-001;-3.889755904674530E-002;-3.296757815405726E-003;-2.269823104143143E-003;
2.420166666666667E+009;1.870319992303848E-001;-3.963580355048180E-002;-3.365730401128531E-003;-2.104497049003840E-003;
2.420333333333334E+009;1.854628175497055E-001;-4.075446352362633E-002;-3.330872161313891E-003;-1.744641456753016E-003;
2.420500000000000E+009;1.836218088865280E-001;-4.193745926022530E-002;-3.307704580947757E-003;-1.563586061820388E-003;
2.420666666666667E+009;1.818077713251114E-001;-4.297780990600586E-002;-3.375798230990768E-003;-1.497064949944615E-003;
2.420833333333334E+009;1.799761950969696E-001;-4.450774565339088E-002;-3.122481750324369E-003;-1.236274954862893E-003;
2.421000000000000E+009;1.784197241067886E-001;-4.594925418496132E-002;-3.106564283370972E-003;-1.108030555769801E-003;
2.421166666666667E+009;1.768499910831451E-001;-4.747640714049339E-002;-2.877389779314399E-003;-8.382577798329294E-004;
2.421333333333334E+009;1.750722825527191E-001;-4.898131266236305E-002;-2.915524877607822E-003;-7.890985580161214E-004;
2.421500000000000E+009;1.736143529415131E-001;-5.073852837085724E-002;-2.582316519692540E-003;-8.189262007363141E-004;
2.421666666666667E+009;1.722278296947479E-001;-5.259492620825768E-002;-2.393394010141492E-003;-8.704810752533376E-004;
2.421833333333334E+009;1.708434075117111E-001;-5.441236123442650E-002;-2.316153375431895E-003;-8.810712606646121E-004;
2.422000000000000E+009;1.696942001581192E-001;-5.615410953760147E-002;-2.229740610346198E-003;-1.073031337000430E-003;
2.422166666666667E+009;1.685759872198105E-001;-5.829943343997002E-002;-2.214585896581411E-003;-9.298523655161262E-004;
2.422333333333334E+009;1.674714535474777E-001;-6.018923968076706E-002;-2.117970725521445E-003;-1.042051357217133E-003;
2.422500000000000E+009;1.665997505187988E-001;-6.219298020005226E-002;-2.288293093442917E-003;-1.292195869609714E-003;
2.422666666666667E+009;1.657364815473557E-001;-6.426411122083664E-002;-2.390304114669561E-003;-1.280949683859944E-003;
2.422833333333334E+009;1.652525812387466E-001;-6.637234985828400E-002;-2.327740890905261E-003;-1.507653971202672E-003;
2.423000000000000E+009;1.646644622087479E-001;-6.867059320211411E-002;-2.422103658318520E-003;-1.356466207653284E-003;
2.423166666666667E+009;1.644394099712372E-001;-7.060217857360840E-002;-2.530855126678944E-003;-1.477437443099916E-003;
2.423333333333334E+009;1.639345586299896E-001;-7.267444580793381E-002;-2.773799700662494E-003;-1.624504569917917E-003;
2.423500000000000E+009;1.641343832015991E-001;-7.458119839429855E-002;-2.969847992062569E-003;-1.563216443173587E-003;
2.423666666666667E+009;1.638891994953156E-001;-7.669968158006668E-002;-2.963860752061009E-003;-1.522143720649183E-003;
2.423833333333334E+009;1.639389842748642E-001;-7.862910628318787E-002;-3.335899906232953E-003;-1.356760156340897E-003;
2.424000000000000E+009;1.640963554382324E-001;-8.057743310928345E-002;-3.380514914169908E-003;-1.246192841790617E-003;
2.424166666666667E+009;1.641899943351746E-001;-8.222214132547379E-002;-3.420595312491059E-003;-1.319163013249636E-003;
2.424333333333334E+009;1.645495891571045E-001;-8.406166732311249E-002;-3.558796830475330E-003;-9.990121470764279E-004;
2.424500000000000E+009;1.648604720830917E-001;-8.574631065130234E-002;-3.810901427641511E-003;-8.811678853817284E-004;
2.424666666666667E+009;1.654051989316940E-001;-8.729943633079529E-002;-3.650711383670569E-003;-8.612414821982384E-004;
2.424833333333334E+009;1.659594774246216E-001;-8.864730596542358E-002;-3.782403655350208E-003;-7.468840340152383E-004;
2.425000000000000E+009;1.665976196527481E-001;-9.019672870635986E-002;-3.848979016765952E-003;-5.148089258000255E-004;
2.425166666666667E+009;1.670428365468979E-001;-9.125656634569168E-002;-3.902086755260825E-003;-4.210865881759673E-004;
2.425333333333334E+009;1.675967127084732E-001;-9.227016568183899E-002;-4.008088726550341E-003;-1.377738808514550E-004;
2.425500000000000E+009;1.682420819997788E-001;-9.354785829782486E-002;-4.030729178339243E-003;-1.842167148424778E-005;
2.425666666666667E+009;1.688453555107117E-001;-9.423963725566864E-002;-4.041441716253758E-003;1.741364976624027E-004;
2.425833333333334E+009;1.694010645151138E-001;-9.540935605764389E-002;-4.015639889985323E-003;1.967744756257162E-004;
2.426000000000000E+009;1.700662076473236E-001;-9.593735635280609E-002;-4.143359139561653E-003;4.609314200934023E-004;
2.426166666666667E+009;1.706664711236954E-001;-9.662442654371262E-002;-4.026446491479874E-003;6.926496862433851E-004;
2.426333333333334E+009;1.710723191499710E-001;-9.722762554883957E-002;-4.131595138460398E-003;7.889280095696449E-004;
2.426500000000000E+009;1.717189848423004E-001;-9.755796939134598E-002;-4.034814890474081E-003;9.359626565128565E-004;
2.426666666666667E+009;1.722195446491242E-001;-9.803524613380432E-002;-4.032608587294817E-003;9.322088444605470E-004;
2.426833333333334E+009;1.727524101734161E-001;-9.842570126056671E-002;-3.901691175997257E-003;1.155355013906956E-003;
2.427000000000000E+009;1.730019599199295E-001;-9.871400892734528E-002;-3.897591959685087E-003;1.450247131288052E-003;
2.427166666666667E+009;1.733836531639099E-001;-9.887323528528214E-002;-4.002974368631840E-003;1.467417692765594E-003;
2.427333333333334E+009;1.733771264553070E-001;-9.928841888904572E-002;-3.880491713061929E-003;1.600753515958786E-003;
2.427500000000000E+009;1.733987331390381E-001;-9.932891279459000E-002;-3.772459691390395E-003;1.756640151143074E-003;
2.427666666666667E+009;1.733241230249405E-001;-9.960234910249710E-002;-3.982776310294867E-003;1.900876173749566E-003;
2.427833333333334E+009;1.732125282287598E-001;-9.965872764587402E-002;-3.735447768121958E-003;2.064197557047010E-003;
