# Version 1.00
#
freq[Hz];re:Trc1_S11;im:Trc1_S11;re:Trc2_S21;im:Trc2_S21;
2.400000000000000E+009;1.510039865970612E-001;1.156105771660805E-001;7.012989372014999E-004;5.684008356183767E-003;
2.400166666666667E+009;1.506340354681015E-001;1.134856119751930E-001;9.929271182045341E-004;5.664419848471880E-003;
2.400333333333334E+009;1.506699323654175E-001;1.113198176026344E-001;1.263803103938699E-003;5.517384968698025E-003;
2.400500000000000E+009;1.505864113569260E-001;1.086564287543297E-001;1.557045266963542E-003;5.128389690071344E-003;
2.400666666666667E+009;1.505416482686997E-001;1.062488332390785E-001;1.732216915115714E-003;4.924214445054531E-003;
2.400833333333334E+009;1.503941565752029E-001;1.035767421126366E-001;1.883695600554347E-003;4.806545097380877E-003;
2.401000000000000E+009;1.505342870950699E-001;1.006645038723946E-001;2.018649829551578E-003;4.456390626728535E-003;
2.401166666666667E+009;1.505558341741562E-001;9.799962490797043E-002;1.787986024282873E-003;4.229931626468897E-003;
2.401333333333334E+009;1.509990990161896E-001;9.513276815414429E-002;1.842930098064244E-003;4.042927641421557E-003;
2.401500000000000E+009;1.513200253248215E-001;9.218341857194901E-002;1.791208633221686E-003;3.944722469896078E-003;
2.401666666666667E+009;1.515842080116272E-001;8.921346068382263E-002;1.680646673776209E-003;3.812131704762578E-003;
2.401833333333334E+009;1.520619839429855E-001;8.643247932195664E-002;1.770485425367951E-003;3.686575219035149E-003;
2.402000000000000E+009;1.528712809085846E-001;8.363465219736099E-002;1.786288456059992E-003;3.714962163940072E-003;
2.402166666666667E+009;1.536961048841476E-001;8.106618374586105E-002;1.677577267400920E-003;3.745157504454255E-003;
2.402333333333334E+009;1.546899378299713E-001;7.812871783971787E-002;1.688797608949244E-003;3.933942876756191E-003;
2.402500000000000E+009;1.559845507144928E-001;7.555540651082993E-002;1.695724902674556E-003;3.930100705474615E-003;
2.402666666666667E+009;1.570954918861389E-001;7.299682497978210E-002;1.833383110351861E-003;4.005292430520058E-003;
2.402833333333334E+009;1.585620641708374E-001;7.046800106763840E-002;2.010795753449202E-003;4.033366218209267E-003;
2.403000000000000E+009;1.602551341056824E-001;6.798151135444641E-002;2.083398867398500E-003;4.037611186504364E-003;
2.403166666666667E+009;1.619833558797836E-001;6.577380001544952E-002;2.437295857816935E-003;4.074557684361935E-003;
2.403333333333334E+009;1.636807024478912E-001;6.343375146389008E-002;2.513748593628407E-003;3.942148759961128E-003;
2.403500000000000E+009;1.655804216861725E-001;6.107525527477264E-002;2.940803999081254E-003;3.997961059212685E-003;
2.403666666666667E+009;1.677139550447464E-001;5.906863883137703E-002;3.010292537510395E-003;4.013838712126017E-003;
2.403833333333334E+009;1.693223565816879E-001;5.686927586793900E-002;3.391538513824344E-003;3.597313538193703E-003;
2.404000000000000E+009;1.712282896041870E-001;5.504741147160530E-002;3.605688223615289E-003;3.518950892612338E-003;
2.404166666666667E+009;1.734501123428345E-001;5.329493433237076E-002;3.825000720098615E-003;3.234505886211991E-003;
2.404333333333334E+009;1.753428429365158E-001;5.167481303215027E-002;3.951430320739746E-003;3.103541443124414E-003;
2.404500000000000E+009;1.771905869245529E-001;4.991912096738815E-002;4.097194410860539E-003;2.873670076951385E-003;
2.404666666666667E+009;1.791398376226425E-001;4.861876368522644E-002;4.116279538720846E-003;2.676977077499032E-003;
2.404833333333334E+009;1.809143722057343E-001;4.736818745732307E-002;4.221214447170496E-003;2.281185472384095E-003;
2.405000000000000E+009;1.827518045902252E-001;4.665585979819298E-002;4.119752440601587E-003;2.140945987775922E-003;
2.405166666666667E+009;1.845896393060684E-001;4.576840251684189E-002;4.215398803353310E-003;1.888164202682674E-003;
2.405333333333334E+009;1.861941814422607E-001;4.511718079447746E-002;3.989209420979023E-003;1.736825681291521E-003;
2.405500000000000E+009;1.880562752485275E-001;4.449564591050148E-002;4.047038033604622E-003;1.570335938595235E-003;
2.405666666666667E+009;1.895541995763779E-001;4.420284181833267E-002;4.214285872876644E-003;1.372250495478511E-003;
2.405833333333334E+009;1.911692321300507E-001;4.372804984450340E-002;3.945054486393929E-003;1.241519348695874E-003;
2.406000000000000E+009;1.924759447574616E-001;4.355519637465477E-002;3.891709493473172E-003;1.143833156675100E-003;
2.406166666666667E+009;1.937483698129654E-001;4.322098940610886E-002;3.845718922093511E-003;9.611940477043390E-004;
2.406333333333334E+009;1.951138824224472E-001;4.319911077618599E-002;3.920478746294975E-003;9.537540609017015E-004;
2.406500000000000E+009;1.961199194192886E-001;4.327851533889771E-002;3.821335500106216E-003;9.558530291542411E-004;
2.406666666666667E+009;1.969432681798935E-001;4.318972676992416E-002;3.758779959753156E-003;9.053773828782141E-004;
2.406833333333334E+009;1.977323144674301E-001;4.322919622063637E-002;3.576262854039669E-003;7.460130727849901E-004;
2.407000000000000E+009;1.983574777841568E-001;4.337225481867790E-002;3.585841506719589E-003;7.789532537572086E-004;
2.407166666666667E+009;1.989080607891083E-001;4.327744990587235E-002;3.764962544664741E-003;7.977198110893369E-004;
2.407333333333334E+009;1.990550607442856E-001;4.344773292541504E-002;3.822970902547240E-003;7.034190930426121E-004;
2.407500000000000E+009;1.991701871156693E-001;4.367667436599731E-002;3.684450872242451E-003;6.639719940721989E-004;
2.407666666666667E+009;1.993103325366974E-001;4.359705746173859E-002;3.959485795348883E-003;5.738029140047729E-004;
2.407833333333334E+009;1.990499347448349E-001;4.357507079839706E-002;3.860673634335399E-003;6.503902259282768E-004;
2.408000000000000E+009;1.991655826568604E-001;4.341034591197968E-002;3.986327443271875E-003;4.892155411653221E-004;
2.408166666666667E+009;1.985569000244141E-001;4.325203597545624E-002;4.143613856285811E-003;5.173294339329004E-004;
2.408333333333334E+009;1.981152892112732E-001;4.289373755455017E-002;4.063818138092756E-003;4.313098324928433E-004;
2.408500000000000E+009;1.974697709083557E-001;4.269523918628693E-002;4.203493706882000E-003;3.481480234768242E-004;
2.408666666666667E+009;1.969160586595535E-001;4.219674319028854E-002;4.270093981176615E-003;2.306884125573561E-004;
2.408833333333334E+009;1.959427148103714E-001;4.160472005605698E-002;4.395497497171164E-003;-1.578914088895544E-005;
2.409000000000000E+009;1.949868649244309E-001;4.081544652581215E-002;4.327057395130396E-003;-1.902081276057288E-004;
2.409166666666667E+009;1.939834207296372E-001;4.005376622080803E-002;4.491717554628849E-003;-2.071834605885670E-004;
2.409333333333334E+009;1.929585039615631E-001;3.919072821736336E-002;4.436943680047989E-003;-4.595437785610557E-004;
2.409500000000000E+009;1.916855424642563E-001;3.802034631371498E-002;4.640714265406132E-003;-5.170670920051634E-004;
2.409666666666667E+009;1.904413402080536E-001;3.682411089539528E-002;4.598402418196201E-003;-6.577914464287460E-004;
2.409833333333334E+009;1.893949806690216E-001;3.552075475454330E-002;4.613273311406374E-003;-9.267695713788271E-004;
2.410000000000000E+009;1.882355064153671E-001;3.387624397873879E-002;4.616793245077133E-003;-1.138063962571323E-003;
2.410166666666667E+009;1.868803948163986E-001;3.235941007733345E-002;4.653124604374170E-003;-1.260017510503531E-003;
2.410333333333334E+009;1.857918500900269E-001;3.049415908753872E-002;4.670266993343830E-003;-1.633662264794111E-003;
2.410500000000000E+009;1.845745891332626E-001;2.874386869370937E-002;4.441919736564159E-003;-1.618843525648117E-003;
2.410666666666667E+009;1.835206598043442E-001;2.653762511909008E-002;4.589147400110960E-003;-1.778283854946494E-003;
2.410833333333334E+009;1.826184093952179E-001;2.435287088155747E-002;4.532685969024897E-003;-2.082407707348466E-003;
2.411000000000000E+009;1.816268116235733E-001;2.230720594525337E-002;4.547600168734789E-003;-2.179143484681845E-003;
2.411166666666667E+009;1.808488816022873E-001;2.013748139142990E-002;4.399867728352547E-003;-2.210313687101007E-003;
2.411333333333334E+009;1.801063865423203E-001;1.766119524836540E-002;4.060905426740646E-003;-2.655006945133209E-003;
2.411500000000000E+009;1.795277148485184E-001;1.521726511418819E-002;4.063157830387354E-003;-2.677310025319457E-003;
2.411666666666667E+009;1.791173815727234E-001;1.269884221255779E-002;4.078347235918045E-003;-2.942969789728522E-003;
2.411833333333334E+009;1.786488145589829E-001;1.026377640664578E-002;3.893940243870020E-003;-2.982370322570205E-003;
2.412000000000000E+009;1.785947829484940E-001;7.775654084980488E-003;3.829685039818287E-003;-3.081115661188960E-003;
2.412166666666667E+009;1.785330176353455E-001;5.304023157805204E-003;3.603331511840224E-003;-3.182655433192849E-003;
2.412333333333334E+009;1.785669624805450E-001;2.550972392782569E-003;3.545926883816719E-003;-3.365133656188846E-003;
2.412500000000000E+009;1.787878870964050E-001;1.463444787077606E-004;3.436320694163442E-003;-3.419457003474236E-003;
2.412666666666667E+009;1.791678965091705E-001;-2.503833966329694E-003;3.288272069767118E-003;-3.681405913084745E-003;
2.412833333333334E+009;1.796766966581345E-001;-5.208721850067377E-003;3.133896971121430E-003;-3.800513455644250E-003;
2.413000000000000E+009;1.805139780044556E-001;-7.673145737498999E-003;3.012129571288824E-003;-3.950293175876141E-003;
2.413166666666667E+009;1.809215992689133E-001;-1.004131883382797E-002;3.009346546605229E-003;-3.893383312970400E-003;
2.413333333333334E+009;1.820482313632965E-001;-1.271315012127161E-002;2.833383856341243E-003;-4.190436564385891E-003;
2.413500000000000E+009;1.828563064336777E-001;-1.503528002649546E-002;2.652392722666264E-003;-4.170929547399283E-003;
2.413666666666667E+009;1.839744001626968E-001;-1.738142035901547E-002;2.445610705763102E-003;-4.320706706494093E-003;
2.413833333333334E+009;1.850648820400238E-001;-1.952798105776310E-002;2.393615897744894E-003;-4.379329271614552E-003;
2.414000000000000E+009;1.861894428730011E-001;-2.168597094714642E-002;2.321653300896287E-003;-4.430671222507954E-003;
2.414166666666667E+009;1.873924285173416E-001;-2.361584268510342E-002;2.146552084013820E-003;-4.684836603701115E-003;
2.414333333333334E+009;1.885761916637421E-001;-2.574054338037968E-002;1.853419351391494E-003;-4.781714174896479E-003;
2.414500000000000E+009;1.897904276847839E-001;-2.730108611285687E-002;1.654753112234175E-003;-4.786584060639143E-003;
2.414666666666667E+009;1.911776512861252E-001;-2.901832200586796E-002;1.604727120138705E-003;-4.832136910408735E-003;
2.414833333333334E+009;1.925051510334015E-001;-3.043230436742306E-002;1.336108776740730E-003;-5.123350303620100E-003;
2.415000000000000E+009;1.936544477939606E-001;-3.197910636663437E-002;1.111037097871304E-003;-5.158776417374611E-003;
2.415166666666667E+009;1.950832456350327E-001;-3.325178474187851E-002;8.058018283918500E-004;-5.305733531713486E-003;
2.415333333333334E+009;1.963739842176437E-001;-3.435897454619408E-002;4.874206497333944E-004;-5.359530448913574E-003;
2.415500000000000E+009;1.975411474704742E-001;-3.507940471172333E-002;2.571431396063417E-004;-5.553143564611673E-003;
2.415666666666667E+009;1.987946033477783E-001;-3.601548820734024E-002;-1.983771508093923E-004;-5.624674726277590E-003;
2.415833333333334E+009;1.997390687465668E-001;-3.667276352643967E-002;-4.314499383326620E-004;-5.504207685589790E-003;
2.416000000000000E+009;2.008133679628372E-001;-3.737775236368179E-002;-8.848971338011324E-004;-5.363016389310360E-003;
2.416166666666667E+009;2.017338573932648E-001;-3.796608000993729E-002;-9.498486178927124E-004;-5.154582671821117E-003;
2.416333333333334E+009;2.023945748806000E-001;-3.834224492311478E-002;-1.235600677318871E-003;-4.966894630342722E-003;
2.416500000000000E+009;2.031279951334000E-001;-3.862416371703148E-002;-1.461795414797962E-003;-4.896328784525394E-003;
2.416666666666667E+009;2.035513967275620E-001;-3.898578509688377E-002;-1.710581360384822E-003;-4.802539013326168E-003;
2.416833333333334E+009;2.039210647344589E-001;-3.890084475278854E-002;-2.023305511102080E-003;-4.545502364635468E-003;
2.417000000000000E+009;2.042135745286942E-001;-3.893671929836273E-002;-1.962339738383889E-003;-4.207172896713018E-003;
2.417166666666667E+009;2.040590047836304E-001;-3.875128924846649E-002;-2.086252905428410E-003;-4.058348480612040E-003;
2.417333333333334E+009;2.041304707527161E-001;-3.850306943058968E-002;-2.111906884238124E-003;-3.862361889332533E-003;
2.417500000000000E+009;2.040157765150070E-001;-3.844802454113960E-002;-2.182600786909461E-003;-3.846747567877173E-003;
2.417666666666667E+009;2.036470770835877E-001;-3.791999071836472E-002;-2.283220645040274E-003;-3.621755633503199E-003;
2.417833333333334E+009;2.033786624670029E-001;-3.763712942600250E-002;-2.393041970208287E-003;-3.523925552144647E-003;
2.418000000000000E+009;2.028688490390778E-001;-3.716547787189484E-002;-2.403758931905031E-003;-3.461634973064065E-003;
2.418166666666667E+009;2.022558897733688E-001;-3.702102974057198E-002;-2.259197412058711E-003;-3.337502246722579E-003;
2.418333333333334E+009;2.015572190284729E-001;-3.667007759213448E-002;-2.562232548370957E-003;-3.210827941074967E-003;
2.418500000000000E+009;2.007953524589539E-001;-3.652010858058929E-002;-2.593630924820900E-003;-3.172678174450994E-003;
2.418666666666667E+009;1.999318748712540E-001;-3.616518154740334E-002;-2.456553978845477E-003;-3.029982093721628E-003;
2.418833333333334E+009;1.988295763731003E-001;-3.629598394036293E-002;-2.736971480771899E-003;-3.163652960211039E-003;
2.419000000000000E+009;1.975823044776917E-001;-3.632611781358719E-002;-2.753919688984752E-003;-3.015665337443352E-003;
2.419166666666667E+009;1.964135318994522E-001;-3.639616072177887E-002;-2.804504940286279E-003;-2.847966505214572E-003;
2.419333333333334E+009;1.951381266117096E-001;-3.670979663729668E-002;-2.847762778401375E-003;-2.597818849608302E-003;
2.419500000000000E+009;1.936762481927872E-001;-3.703145310282707E-002;-2.944213338196278E-003;-2.705089747905731E-003;
2.419666666666667E+009;1.920027434825897E-001;-3.762915357947350E-002;-3.135867184028029E-003;-2.555329352617264E-003;
2.419833333333334E+009;1.904442459344864E-001;-3.823177888989449E-002;-3.251443151384592E-003;-2.389364410191774E-003;
2.420000000000000E+009;1.888719201087952E-001;-3.910038620233536E-002;-3.301712684333324E-003;-2.367148641496897E-003;
2.420166666666667E+009;1.872866600751877E-001;-3.986871242523193E-002;-3.291471861302853E-003;-2.025589346885681E-003;
2.420333333333334E+009;1.855540424585342E-001;-4.084004461765289E-002;-3.380693495273590E-003;-1.944394083693624E-003;
2.420500000000000E+009;1.838760077953339E-001;-4.208269342780113E-002;-3.231694689020515E-003;-1.643713330850005E-003;
2.420666666666667E+009;1.820786297321320E-001;-4.332720115780830E-002;-3.283603116869927E-003;-1.458584563806653E-003;
2.420833333333334E+009;1.802505403757095E-001;-4.453245177865028E-002;-3.256152383983135E-003;-1.289141364395618E-003;
2.421000000000000E+009;1.787298768758774E-001;-4.602497443556786E-002;-3.141844645142555E-003;-1.049724523909390E-003;
2.421166666666667E+009;1.770055890083313E-001;-4.762447997927666E-002;-2.916391938924789E-003;-9.252013987861574E-004;
2.421333333333334E+009;1.753488183021545E-001;-4.905755445361137E-002;-2.798469970002770E-003;-9.340480319224298E-004;
2.421500000000000E+009;1.738230288028717E-001;-5.108481645584106E-002;-2.726466162130237E-003;-7.345853955484927E-004;
2.421666666666667E+009;1.724062263965607E-001;-5.274669080972672E-002;-2.478012582287192E-003;-8.621819433756173E-004;
2.421833333333334E+009;1.710570305585861E-001;-5.455315485596657E-002;-2.376451157033444E-003;-8.753213915042579E-004;
2.422000000000000E+009;1.698293089866638E-001;-5.644456297159195E-002;-2.358385361731052E-003;-9.269698639400303E-004;
2.422166666666667E+009;1.688123345375061E-001;-5.860578268766403E-002;-2.242104150354862E-003;-1.048102509230375E-003;
2.422333333333334E+009;1.677144765853882E-001;-6.064667552709580E-002;-2.264104317873716E-003;-1.094682957045734E-003;
2.422500000000000E+009;1.668657958507538E-001;-6.267187744379044E-002;-2.149644773453474E-003;-1.297574723139405E-003;
2.422666666666667E+009;1.660272628068924E-001;-6.482203304767609E-002;-2.325773239135742E-003;-1.323096919804812E-003;
2.422833333333334E+009;1.653571575880051E-001;-6.677603721618652E-002;-2.399221295490861E-003;-1.410960103385150E-003;
2.423000000000000E+009;1.647944003343582E-001;-6.900060176849365E-002;-2.460516756400466E-003;-1.445406232960522E-003;
2.423166666666667E+009;1.645240932703018E-001;-7.104919105768204E-002;-2.654517302289605E-003;-1.471914467401803E-003;
2.423333333333334E+009;1.641963273286820E-001;-7.324816286563873E-002;-2.856848062947393E-003;-1.579887699335814E-003;
2.423500000000000E+009;1.639403849840164E-001;-7.509145885705948E-002;-2.992135705426335E-003;-1.436190679669380E-003;
2.423666666666667E+009;1.641430109739304E-001;-7.712958753108978E-002;-3.168664406985045E-003;-1.529205939732492E-003;
2.423833333333334E+009;1.639481037855148E-001;-7.899142801761627E-002;-3.287479281425476E-003;-1.421835971996188E-003;
2.424000000000000E+009;1.642449349164963E-001;-8.079425245523453E-002;-3.330963198095560E-003;-1.138878054916859E-003;
2.424166666666667E+009;1.643757820129395E-001;-8.269472420215607E-002;-3.434930695220828E-003;-1.165079651400447E-003;
2.424333333333334E+009;1.645266562700272E-001;-8.427676558494568E-002;-3.500173566862941E-003;-1.157130347564817E-003;
2.424500000000000E+009;1.650024950504303E-001;-8.620800077915192E-002;-3.662456758320332E-003;-9.163552895188332E-004;
2.424666666666667E+009;1.652819663286209E-001;-8.768952637910843E-002;-3.818229539319873E-003;-7.188870804384351E-004;
2.424833333333334E+009;1.659518480300903E-001;-8.911171555519104E-002;-3.859796095639467E-003;-6.187967956066132E-004;
2.425000000000000E+009;1.664291173219681E-001;-9.053901582956314E-002;-3.954992629587650E-003;-5.525805754587054E-004;
2.425166666666667E+009;1.669711470603943E-001;-9.156739711761475E-002;-4.019083455204964E-003;-4.110424779355526E-004;
2.425333333333334E+009;1.674301773309708E-001;-9.278766810894013E-002;-4.212243948131800E-003;-1.625178119866177E-004;
2.425500000000000E+009;1.681805104017258E-001;-9.378655999898911E-002;-4.016875755041838E-003;6.863716407679021E-005;
2.425666666666667E+009;1.687610000371933E-001;-9.463392943143845E-002;-3.992551006376743E-003;1.868908730102703E-004;
2.425833333333334E+009;1.693633347749710E-001;-9.551877528429031E-002;-4.180593416094780E-003;3.564408689271659E-004;
2.426000000000000E+009;1.700239181518555E-001;-9.628226608037949E-002;-4.055233672261238E-003;4.567443393170834E-004;
2.426166666666667E+009;1.704877763986588E-001;-9.670747816562653E-002;-4.195571877062321E-003;6.467915372923017E-004;
2.426333333333334E+009;1.709057390689850E-001;-9.743589162826538E-002;-4.061492159962654E-003;7.440540939569473E-004;
2.426500000000000E+009;1.715632081031799E-001;-9.777040034532547E-002;-4.049012437462807E-003;8.758764015510678E-004;
2.426666666666667E+009;1.720645278692246E-001;-9.825980663299561E-002;-4.045596346259117E-003;1.095845596864820E-003;
2.426833333333334E+009;1.725215613842011E-001;-9.854541718959808E-002;-4.050093237310648E-003;1.293363398872316E-003;
2.427000000000000E+009;1.727570444345474E-001;-9.888104349374771E-002;-4.007861949503422E-003;1.372287399135530E-003;
2.427166666666667E+009;1.731142848730087E-001;-9.899919480085373E-002;-4.062378779053688E-003;1.595003297552466E-003;
2.427333333333334E+009;1.733178347349167E-001;-9.927901625633240E-002;-3.796625183895230E-003;1.601562369614840E-003;
2.427500000000000E+009;1.733342558145523E-001;-9.960576146841049E-002;-3.937593661248684E-003;1.815735246054828E-003;
2.427666666666667E+009;1.730280518531799E-001;-9.961825609207153E-002;-3.769210772588849E-003;1.713653327897191E-003;
2.427833333333334E+009;1.729992628097534E-001;-9.987749159336090E-002;-3.872342640534043E-003;1.979147084057331E-003;
