# Version 1.00
#
freq[Hz];re:Trc1_S11;im:Trc1_S11;re:Trc2_S21;im:Trc2_S21;
2.400000000000000E+009;1.574663966894150E-001;6.283126771450043E-002;-2.102510072290897E-003;-5.155661492608488E-004;
2.400166666666667E+009;1.573624163866043E-001;6.134174391627312E-002;-2.116620540618897E-003;-5.302248173393309E-004;
2.400333333333334E+009;1.572302281856537E-001;5.931490287184715E-002;-2.070024609565735E-003;-2.646266948431730E-004;
2.400500000000000E+009;1.570938676595688E-001;5.746727809309959E-002;-1.986346906051040E-003;-2.831132442224771E-004;
2.400666666666667E+009;1.570781022310257E-001;5.534771457314491E-002;-2.084268722683191E-003;-2.555971441324800E-004;
2.400833333333334E+009;1.571292281150818E-001;5.357778444886208E-002;-2.073341747745872E-003;-1.496779295848683E-004;
2.401000000000000E+009;1.572611480951309E-001;5.137930810451508E-002;-1.982025336474180E-003;-1.271219953196123E-004;
2.401166666666667E+009;1.575693190097809E-001;4.940292984247208E-002;-2.062624087557197E-003;-6.209906860021874E-005;
2.401333333333334E+009;1.575512588024139E-001;4.726537317037582E-002;-1.922582508996129E-003;-7.666627061553299E-005;
2.401500000000000E+009;1.579902619123459E-001;4.506209865212441E-002;-1.808775821700692E-003;-4.535739208222367E-005;
2.401666666666667E+009;1.584334075450897E-001;4.316804558038712E-002;-1.832114183343947E-003;-7.824645581422374E-005;
2.401833333333334E+009;1.587294638156891E-001;4.116437211632729E-002;-1.963469432666898E-003;1.241107383975759E-004;
2.402000000000000E+009;1.590068340301514E-001;3.898587822914124E-002;-1.806471147574484E-003;4.848621392739005E-005;
2.402166666666667E+009;1.595979034900665E-001;3.704923391342163E-002;-1.915441825985909E-003;4.874050137004815E-005;
2.402333333333334E+009;1.603746414184570E-001;3.516181930899620E-002;-1.799023826606572E-003;1.164806235465221E-004;
2.402500000000000E+009;1.611025631427765E-001;3.339406475424767E-002;-1.811382011510432E-003;1.035139357554726E-004;
2.402666666666667E+009;1.616836041212082E-001;3.168967738747597E-002;-1.887437188997865E-003;5.239756137598306E-005;
2.402833333333334E+009;1.626037955284119E-001;2.992695383727551E-002;-1.697444240562618E-003;2.670638205017895E-004;
2.403000000000000E+009;1.634787172079086E-001;2.824182063341141E-002;-1.692998223006725E-003;2.046190347755328E-004;
2.403166666666667E+009;1.646874696016312E-001;2.676299028098583E-002;-1.801963546313345E-003;3.500300226733089E-004;
2.403333333333334E+009;1.654595881700516E-001;2.530091069638729E-002;-1.688458374701440E-003;2.110475325025618E-004;
2.403500000000000E+009;1.661324948072434E-001;2.384082414209843E-002;-1.700198045000434E-003;4.139464872423559E-004;
2.403666666666667E+009;1.672320961952210E-001;2.250095084309578E-002;-1.760255312547088E-003;1.873870060080662E-004;
2.403833333333334E+009;1.684884130954742E-001;2.125666849315167E-002;-1.702977693639696E-003;3.443394671194255E-004;
2.404000000000000E+009;1.694327890872955E-001;2.019890956580639E-002;-1.598401693627238E-003;3.474186523817480E-004;
2.404166666666667E+009;1.705190539360046E-001;1.905378885567188E-002;-1.724963658489287E-003;4.982550162822008E-004;
2.404333333333334E+009;1.714270263910294E-001;1.789501868188381E-002;-1.734577468596399E-003;5.149418720975518E-004;
2.404500000000000E+009;1.722046136856079E-001;1.695322990417481E-002;-1.793544506654143E-003;4.861834750045091E-004;
2.404666666666667E+009;1.733433306217194E-001;1.619403995573521E-002;-1.702874200418592E-003;6.918762810528278E-004;
2.404833333333334E+009;1.742211878299713E-001;1.535979472100735E-002;-1.726586255244911E-003;6.584591465070844E-004;
2.405000000000000E+009;1.751313805580139E-001;1.466230861842632E-002;-1.760224229656160E-003;7.761428132653236E-004;
2.405166666666667E+009;1.760014444589615E-001;1.404352951794863E-002;-1.691834884695709E-003;8.230591774918139E-004;
2.405333333333334E+009;1.767329573631287E-001;1.336514577269554E-002;-1.761290594004095E-003;9.764431160874665E-004;
2.405500000000000E+009;1.775453984737396E-001;1.299089565873146E-002;-1.653451123274863E-003;8.608783246017993E-004;
2.405666666666667E+009;1.781040579080582E-001;1.257742755115032E-002;-1.594113069586456E-003;1.056334469467402E-003;
2.405833333333334E+009;1.787654459476471E-001;1.228573080152273E-002;-1.515104784630239E-003;1.188430353067815E-003;
2.406000000000000E+009;1.793577075004578E-001;1.168962474912405E-002;-1.417875057086349E-003;1.270200358703733E-003;
2.406166666666667E+009;1.797654330730438E-001;1.163698174059391E-002;-1.386777730658650E-003;1.223368220962584E-003;
2.406333333333334E+009;1.801470369100571E-001;1.126784179359675E-002;-1.421729684807360E-003;1.301358104683459E-003;
2.406500000000000E+009;1.803730577230454E-001;1.093378663063049E-002;-1.222666818648577E-003;1.236718031577766E-003;
2.406666666666667E+009;1.805938929319382E-001;1.072659529745579E-002;-1.183981890790165E-003;1.376482774503529E-003;
2.406833333333334E+009;1.806851476430893E-001;1.045912038534880E-002;-9.573164861649275E-004;1.431868760846555E-003;
2.407000000000000E+009;1.809481531381607E-001;1.000088267028332E-002;-1.093329628929496E-003;1.389515469782054E-003;
2.407166666666667E+009;1.808588057756424E-001;9.868293069303036E-003;-8.490851032547653E-004;1.345961354672909E-003;
2.407333333333334E+009;1.806337386369705E-001;9.325159713625908E-003;-7.993283797986805E-004;1.363964402116835E-003;
2.407500000000000E+009;1.805609613656998E-001;8.911043405532837E-003;-7.841948536224663E-004;1.442710170522332E-003;
2.407666666666667E+009;1.802426725625992E-001;8.689951151609421E-003;-5.758352926932275E-004;1.326740020886064E-003;
2.407833333333334E+009;1.797911673784256E-001;7.907700724899769E-003;-8.060258696787059E-004;1.221498241648078E-003;
2.408000000000000E+009;1.795383542776108E-001;7.378593552857637E-003;-6.350320181809366E-004;1.295568305067718E-003;
2.408166666666667E+009;1.791258752346039E-001;6.688151974231005E-003;-5.402853712439537E-004;1.142941182479262E-003;
2.408333333333334E+009;1.787274032831192E-001;6.056215148419142E-003;-5.494183860719204E-004;1.173814758658409E-003;
2.408500000000000E+009;1.779987066984177E-001;5.154823884367943E-003;-5.669952952302992E-004;1.241827732883394E-003;
2.408666666666667E+009;1.773775219917297E-001;4.281104076653719E-003;-3.716307401191443E-004;1.236880896613002E-003;
2.408833333333334E+009;1.766766011714935E-001;3.410696750506759E-003;-2.814201579894871E-004;1.101378584280610E-003;
2.409000000000000E+009;1.760220229625702E-001;2.402207348495722E-003;-4.179849638603628E-004;1.022924203425646E-003;
2.409166666666667E+009;1.753898561000824E-001;1.276317285373807E-003;-4.189096216578037E-004;1.053968677297235E-003;
2.409333333333334E+009;1.747451126575470E-001;-1.028002006933093E-004;-4.404188657645136E-004;1.240090699866414E-003;
2.409500000000000E+009;1.740495115518570E-001;-1.347884186543524E-003;-3.785317239817232E-004;9.623788646422327E-004;
2.409666666666667E+009;1.731044054031372E-001;-2.878272673115134E-003;-4.741679586004466E-004;1.026009907945991E-003;
2.409833333333334E+009;1.723964661359787E-001;-4.182557109743357E-003;-3.254198236390948E-004;1.026773126795888E-003;
2.410000000000000E+009;1.720419973134995E-001;-5.742775276303291E-003;-4.611723998095840E-004;9.490433149039745E-004;
2.410166666666667E+009;1.712097525596619E-001;-7.363193668425083E-003;-4.913642187602818E-004;1.087418757379055E-003;
2.410333333333334E+009;1.705807596445084E-001;-9.075392037630081E-003;-4.552006721496582E-004;1.058192225173116E-003;
2.410500000000000E+009;1.700586825609207E-001;-1.071231439709663E-002;-3.536439326126128E-004;9.437759290449321E-004;
2.410666666666667E+009;1.694527715444565E-001;-1.268004719167948E-002;-3.073668340221047E-004;1.161284628324211E-003;
2.410833333333334E+009;1.690763384103775E-001;-1.437252201139927E-002;-5.254187854006887E-004;9.714925545267761E-004;
2.411000000000000E+009;1.687318980693817E-001;-1.627423800528050E-002;-3.775551158469170E-004;1.041077310219407E-003;
2.411166666666667E+009;1.683613508939743E-001;-1.816720142960548E-002;-4.117340722586960E-004;1.220145146362484E-003;
2.411333333333334E+009;1.681472957134247E-001;-2.000162005424500E-002;-4.068170674145222E-004;9.561800397932529E-004;
2.411500000000000E+009;1.678022295236588E-001;-2.223788388073444E-002;-3.291951434221119E-004;1.077940571121872E-003;
2.411666666666667E+009;1.679207682609558E-001;-2.421353571116924E-002;-3.507732762955129E-004;1.158980885520577E-003;
2.411833333333334E+009;1.677960604429245E-001;-2.595339715480804E-002;-4.111426824238151E-004;1.072641578502953E-003;
2.412000000000000E+009;1.679500937461853E-001;-2.801741100847721E-002;-2.671360853128135E-004;1.187608228065074E-003;
2.412166666666667E+009;1.679320186376572E-001;-2.995253913104534E-002;-3.189475100953132E-004;1.189976115711033E-003;
2.412333333333334E+009;1.683895736932755E-001;-3.179324418306351E-002;-2.757396723609418E-004;1.152148004621267E-003;
2.412500000000000E+009;1.684952378273010E-001;-3.386065363883972E-002;-1.697432744549587E-004;1.167103298939765E-003;
2.412666666666667E+009;1.686103790998459E-001;-3.588752448558807E-002;-2.646321081556380E-004;1.134911086410284E-003;
2.412833333333334E+009;1.692965477705002E-001;-3.766367956995964E-002;-2.235344436485320E-004;1.034009503200650E-003;
2.413000000000000E+009;1.696843802928925E-001;-3.932836651802063E-002;-1.357951259706169E-004;1.118729007430375E-003;
2.413166666666667E+009;1.698554605245590E-001;-4.111852124333382E-002;-5.584161408478394E-005;1.254056813195348E-003;
2.413333333333334E+009;1.705500632524490E-001;-4.282372817397118E-002;-1.224816514877603E-004;1.072667888365686E-003;
2.413500000000000E+009;1.710833609104157E-001;-4.450499266386032E-002;-9.558474630466662E-006;1.202668412588537E-003;
2.413666666666667E+009;1.715635955333710E-001;-4.598798602819443E-002;-1.728731149341911E-004;1.304071978665888E-003;
2.413833333333334E+009;1.722406595945358E-001;-4.739289730787277E-002;9.599475561117288E-006;1.182374660857022E-003;
2.414000000000000E+009;1.727486997842789E-001;-4.897978156805039E-002;1.086559059331194E-004;1.093920087441802E-003;
2.414166666666667E+009;1.733220517635346E-001;-5.024057626724243E-002;4.019608604721725E-005;1.147342729382217E-003;
2.414333333333334E+009;1.740412265062332E-001;-5.148805677890778E-002;7.718814595136792E-005;1.204179949127138E-003;
2.414500000000000E+009;1.746997684240341E-001;-5.248642712831497E-002;5.966522803646512E-005;1.045520184561610E-003;
2.414666666666667E+009;1.752266883850098E-001;-5.355228856205940E-002;1.635404623812065E-004;1.090547768399119E-003;
2.414833333333334E+009;1.756645739078522E-001;-5.462948232889175E-002;-2.793130261125043E-005;1.169966650195420E-003;
2.415000000000000E+009;1.760031282901764E-001;-5.539721995592117E-002;1.036785906762816E-004;1.062634983099997E-003;
2.415166666666667E+009;1.765461862087250E-001;-5.622170120477676E-002;1.014976151054725E-004;1.036520116031170E-003;
2.415333333333334E+009;1.769209653139114E-001;-5.686202272772789E-002;4.075215474586003E-005;1.194096053950489E-003;
2.415500000000000E+009;1.773139089345932E-001;-5.750726163387299E-002;-1.417895560962279E-007;1.150391646660864E-003;
2.415666666666667E+009;1.774961054325104E-001;-5.788459256291390E-002;-8.846180890031974E-007;1.009345520287752E-003;
2.415833333333334E+009;1.777870208024979E-001;-5.853370577096939E-002;2.518023247830570E-004;1.082712202332914E-003;
2.416000000000000E+009;1.778399944305420E-001;-5.887003988027573E-002;2.072370698442683E-004;1.005311496555805E-003;
2.416166666666667E+009;1.781456321477890E-001;-5.930252000689507E-002;2.251063560834155E-004;1.086064963601530E-003;
2.416333333333334E+009;1.781135052442551E-001;-5.954952538013458E-002;1.987963041756302E-004;9.941590251401067E-004;
2.416500000000000E+009;1.779791563749313E-001;-5.987288802862167E-002;7.048930274322629E-005;1.075471984222531E-003;
2.416666666666667E+009;1.777500063180924E-001;-6.003153696656227E-002;4.183136115898378E-005;1.148645533248782E-003;
2.416833333333334E+009;1.775258332490921E-001;-6.022924184799194E-002;3.106665099039674E-004;1.008027815259993E-003;
2.417000000000000E+009;1.770105808973312E-001;-6.059938296675682E-002;2.068814501399174E-004;1.158761675469577E-003;
2.417166666666667E+009;1.766035556793213E-001;-6.060761958360672E-002;3.355666121933609E-004;9.774810168892145E-004;
2.417333333333334E+009;1.760125905275345E-001;-6.077205017209053E-002;2.823641698341817E-004;9.737357613630593E-004;
2.417500000000000E+009;1.753405034542084E-001;-6.116356328129768E-002;1.697577827144414E-004;1.122050103731453E-003;
2.417666666666667E+009;1.747792661190033E-001;-6.133333593606949E-002;3.211630973964930E-004;1.059774309396744E-003;
2.417833333333334E+009;1.738831549882889E-001;-6.149242073297501E-002;2.271814446430653E-004;1.073304680176079E-003;
2.418000000000000E+009;1.728987395763397E-001;-6.185678392648697E-002;1.077367051038891E-004;1.132973353378475E-003;
2.418166666666667E+009;1.721141040325165E-001;-6.207042559981346E-002;2.580682048574090E-004;1.065347110852599E-003;
2.418333333333334E+009;1.712035387754440E-001;-6.263133883476257E-002;1.261306169908494E-004;1.052803825587034E-003;
2.418500000000000E+009;1.701440066099167E-001;-6.286438554525375E-002;1.427850656909868E-004;1.044230419211090E-003;
2.418666666666667E+009;1.691213995218277E-001;-6.330251693725586E-002;2.503621799405664E-004;1.069653895683587E-003;
2.418833333333334E+009;1.677426099777222E-001;-6.399051100015640E-002;2.928108442574740E-004;1.017031958326697E-003;
2.419000000000000E+009;1.665669679641724E-001;-6.456323713064194E-002;2.919930848293006E-004;1.295330701395869E-003;
2.419166666666667E+009;1.655434817075729E-001;-6.519044190645218E-002;2.700694021768868E-004;1.197370234876871E-003;
2.419333333333334E+009;1.640483736991882E-001;-6.575986742973328E-002;8.202465687645599E-005;1.265250612050295E-003;
2.419500000000000E+009;1.630291044712067E-001;-6.679680198431015E-002;2.886201255023480E-004;1.323023810982704E-003;
2.419666666666667E+009;1.618607491254807E-001;-6.768564879894257E-002;2.703785139601678E-004;1.246118452399969E-003;
2.419833333333334E+009;1.605965942144394E-001;-6.860161572694778E-002;3.625055833254010E-004;1.280158641748130E-003;
2.420000000000000E+009;1.597043573856354E-001;-6.961286813020706E-002;5.122756119817495E-004;1.433806377463043E-003;
2.420166666666667E+009;1.584497094154358E-001;-7.065565884113312E-002;3.977095184382051E-004;1.427912968210876E-003;
2.420333333333334E+009;1.574409157037735E-001;-7.202173024415970E-002;5.001041572540999E-004;1.529769506305456E-003;
2.420500000000000E+009;1.563070267438889E-001;-7.318036258220673E-002;5.084500880911946E-004;1.528970198705792E-003;
2.420666666666667E+009;1.553985476493835E-001;-7.438880950212479E-002;5.803739768452942E-004;1.593203051015735E-003;
2.420833333333334E+009;1.545682102441788E-001;-7.590334862470627E-002;6.477896240539849E-004;1.654619001783431E-003;
2.421000000000000E+009;1.535362750291824E-001;-7.743298262357712E-002;7.805151981301606E-004;1.759708742611110E-003;
2.421166666666667E+009;1.527988910675049E-001;-7.883237302303314E-002;8.139910642057657E-004;1.595820765942335E-003;
2.421333333333334E+009;1.523362845182419E-001;-8.040805906057358E-002;8.950115879997611E-004;1.759616541676223E-003;
2.421500000000000E+009;1.515128910541534E-001;-8.205183595418930E-002;1.026210957206786E-003;1.637030625715852E-003;
2.421666666666667E+009;1.510155498981476E-001;-8.381097763776779E-002;1.115465420298278E-003;1.665225718170404E-003;
2.421833333333334E+009;1.506822407245636E-001;-8.535540848970413E-002;1.209714449942112E-003;1.898507005535066E-003;
2.422000000000000E+009;1.501505970954895E-001;-8.710626512765884E-002;1.396186766214669E-003;1.840645563788712E-003;
2.422166666666667E+009;1.499470323324204E-001;-8.898364752531052E-002;1.450494979508221E-003;1.825218903832138E-003;
2.422333333333334E+009;1.499005705118179E-001;-9.044691175222397E-002;1.457239268347621E-003;1.721007516607642E-003;
2.422500000000000E+009;1.496559828519821E-001;-9.220969676971436E-002;1.558296033181250E-003;1.695413840934634E-003;
2.422666666666667E+009;1.495131552219391E-001;-9.396823495626450E-002;1.714879530481994E-003;1.691200770437717E-003;
2.422833333333334E+009;1.497073471546173E-001;-9.568461775779724E-002;1.910198479890823E-003;1.627908786758781E-003;
2.423000000000000E+009;1.498591452836990E-001;-9.734182804822922E-002;2.019988605752587E-003;1.482844818383455E-003;
2.423166666666667E+009;1.501162499189377E-001;-9.902573376893997E-002;2.004622016102076E-003;1.412736717611551E-003;
2.423333333333334E+009;1.504364311695099E-001;-1.004671305418015E-001;2.048939000815153E-003;1.323317643254995E-003;
2.423500000000000E+009;1.507351845502853E-001;-1.022007912397385E-001;2.249653683975339E-003;1.216291449964047E-003;
2.423666666666667E+009;1.510610133409500E-001;-1.038403511047363E-001;2.362665254622698E-003;1.218448625877500E-003;
2.423833333333334E+009;1.514740735292435E-001;-1.052090004086494E-001;2.515677129849792E-003;1.066479831933975E-003;
2.424000000000000E+009;1.517615318298340E-001;-1.064214631915093E-001;2.316893544048071E-003;9.045792394317687E-004;
2.424166666666667E+009;1.521693021059036E-001;-1.078461036086083E-001;2.492095576599240E-003;7.628125604242086E-004;
2.424333333333334E+009;1.527726203203201E-001;-1.090118736028671E-001;2.519759349524975E-003;6.676986231468618E-004;
2.424500000000000E+009;1.533691734075546E-001;-1.100812330842018E-001;2.589699346572161E-003;5.586534971371293E-004;
2.424666666666667E+009;1.539212912321091E-001;-1.110627502202988E-001;2.609084360301495E-003;5.565025494433940E-004;
2.424833333333334E+009;1.541268974542618E-001;-1.120975017547607E-001;2.592135220766068E-003;4.269703349564225E-004;
2.425000000000000E+009;1.546699702739716E-001;-1.130936965346336E-001;2.467460231855512E-003;2.829496515914798E-004;
2.425166666666667E+009;1.549408137798309E-001;-1.138193905353546E-001;2.357298741117120E-003;2.092251816065982E-004;
2.425333333333334E+009;1.554672867059708E-001;-1.146079972386360E-001;2.634294796735048E-003;1.756419515004382E-004;
2.425500000000000E+009;1.559571474790573E-001;-1.153220310807228E-001;2.660826314240694E-003;1.215083320857957E-004;
2.425666666666667E+009;1.561259329319000E-001;-1.159022077918053E-001;2.547649433836341E-003;-2.110457280650735E-004;
2.425833333333334E+009;1.563355475664139E-001;-1.164200529456139E-001;2.430459950119257E-003;-2.361577353440225E-004;
2.426000000000000E+009;1.565226465463638E-001;-1.169790700078011E-001;2.508328063413501E-003;-3.093783743679524E-004;
2.426166666666667E+009;1.567599028348923E-001;-1.172844767570496E-001;2.513190731406212E-003;-4.756720445584506E-004;
2.426333333333334E+009;1.567663997411728E-001;-1.176374480128288E-001;2.390013076364994E-003;-4.615402431227267E-004;
2.426500000000000E+009;1.567603647708893E-001;-1.177771016955376E-001;2.450747415423393E-003;-4.730547952931374E-004;
2.426666666666667E+009;1.568293720483780E-001;-1.178190410137177E-001;2.411747351288796E-003;-6.657504127360880E-004;
2.426833333333334E+009;1.565145552158356E-001;-1.181080043315888E-001;2.284473972395062E-003;-6.435996037907898E-004;
2.427000000000000E+009;1.562363803386688E-001;-1.184503734111786E-001;2.408292843028903E-003;-8.271301048807800E-004;
2.427166666666667E+009;1.557615250349045E-001;-1.184423267841339E-001;2.190699568018317E-003;-9.220445062965155E-004;
2.427333333333334E+009;1.552616655826569E-001;-1.185459271073341E-001;2.097806194797158E-003;-8.273940184153616E-004;
2.427500000000000E+009;1.548678427934647E-001;-1.185898855328560E-001;2.142641693353653E-003;-9.567405795678496E-004;
2.427666666666667E+009;1.540711671113968E-001;-1.187702044844627E-001;2.154421759769321E-003;-8.415831252932549E-004;
2.427833333333334E+009;1.532972753047943E-001;-1.188265681266785E-001;2.286110771819949E-003;-1.096469932235777E-003;
