# Version 1.00
#
freq[Hz];re:Trc1_S11;im:Trc1_S11;re:Trc2_S21;im:Trc2_S21;
2.400000000000000E+009;1.574028581380844E-001;6.285521388053894E-002;-2.161774784326553E-003;-4.809802630916238E-004;
2.400166666666667E+009;1.572718173265457E-001;6.138426437973976E-002;-2.100800629705191E-003;-3.652676241472364E-004;
2.400333333333334E+009;1.572496145963669E-001;5.932305008172989E-002;-2.108565298840404E-003;-4.120417579542846E-004;
2.400500000000000E+009;1.570834368467331E-001;5.746041238307953E-002;-2.050210954621434E-003;-3.735803766176105E-004;
2.400666666666667E+009;1.571231186389923E-001;5.539375916123390E-002;-2.027467591688037E-003;-3.237437631469220E-004;
2.400833333333334E+009;1.571104377508164E-001;5.361020192503929E-002;-1.983663532882929E-003;-2.657992590684444E-004;
2.401000000000000E+009;1.573714762926102E-001;5.138890817761421E-002;-1.884687575511634E-003;-1.070805737981573E-004;
2.401166666666667E+009;1.574961841106415E-001;4.921092092990875E-002;-1.925661461427808E-003;-7.761290180496872E-005;
2.401333333333334E+009;1.576913595199585E-001;4.709025099873543E-002;-1.929607242345810E-003;-9.251306619262323E-005;
2.401500000000000E+009;1.580147892236710E-001;4.497079178690910E-002;-1.829286688007414E-003;-1.083511742763221E-004;
2.401666666666667E+009;1.583662629127502E-001;4.316435381770134E-002;-1.805302454158664E-003;8.029968739720061E-006;
2.401833333333334E+009;1.588544845581055E-001;4.100634902715683E-002;-1.898189890198410E-003;4.886584792984650E-005;
2.402000000000000E+009;1.592100560665131E-001;3.894242644309998E-002;-1.738968654535711E-003;7.970991282491013E-005;
2.402166666666667E+009;1.597153842449188E-001;3.696630895137787E-002;-1.870162319391966E-003;1.707501069176942E-004;
2.402333333333334E+009;1.603208333253861E-001;3.511193022131920E-002;-1.759484643116593E-003;2.144501195289195E-004;
2.402500000000000E+009;1.611734479665756E-001;3.333180397748947E-002;-1.709885895252228E-003;1.098017819458619E-004;
2.402666666666667E+009;1.618302762508392E-001;3.157095983624458E-002;-1.849609310738742E-003;1.927986595546827E-004;
2.402833333333334E+009;1.625469177961350E-001;2.993731200695038E-002;-1.791215967386961E-003;8.882574184099212E-005;
2.403000000000000E+009;1.634230166673660E-001;2.811027690768242E-002;-1.794442883692682E-003;2.170645020669326E-004;
2.403166666666667E+009;1.643510013818741E-001;2.659924700856209E-002;-1.750434166751802E-003;1.389026874676347E-004;
2.403333333333334E+009;1.654825657606125E-001;2.528830245137215E-002;-1.747631467878819E-003;2.572718367446214E-004;
2.403500000000000E+009;1.660660803318024E-001;2.391766756772995E-002;-1.682282309047878E-003;1.481861982028931E-004;
2.403666666666667E+009;1.671577095985413E-001;2.242619544267654E-002;-1.683272887021303E-003;1.836528826970607E-004;
2.403833333333334E+009;1.683535128831863E-001;2.115900069475174E-002;-1.631165272556245E-003;3.912834217771888E-004;
2.404000000000000E+009;1.692544668912888E-001;1.989960856735706E-002;-1.811731257475913E-003;3.738054074347019E-004;
2.404166666666667E+009;1.704093515872955E-001;1.873211748898029E-002;-1.712191849946976E-003;3.727533330675215E-004;
2.404333333333334E+009;1.712422370910645E-001;1.781778596341610E-002;-1.665092422626913E-003;3.571768756955862E-004;
2.404500000000000E+009;1.721220016479492E-001;1.683652214705944E-002;-1.818977529183030E-003;3.894113760907203E-004;
2.404666666666667E+009;1.732081323862076E-001;1.610816828906536E-002;-1.744987093843520E-003;6.681028171442449E-004;
2.404833333333334E+009;1.740562319755554E-001;1.531712524592876E-002;-1.730766845867038E-003;8.348099072463810E-004;
2.405000000000000E+009;1.748835593461990E-001;1.468552090227604E-002;-1.839696080423892E-003;7.938583730719984E-004;
2.405166666666667E+009;1.759423762559891E-001;1.390677969902754E-002;-1.716769533231854E-003;8.782047661952674E-004;
2.405333333333334E+009;1.766846477985382E-001;1.339602470397949E-002;-1.599806710146368E-003;8.932324708439410E-004;
2.405500000000000E+009;1.774318963289261E-001;1.292820181697607E-002;-1.583826611749828E-003;9.503455949015915E-004;
2.405666666666667E+009;1.781695634126663E-001;1.257334835827351E-002;-1.765460590831935E-003;9.909546934068203E-004;
2.405833333333334E+009;1.785864084959030E-001;1.229774113744497E-002;-1.481923507526517E-003;1.126495539210737E-003;
2.406000000000000E+009;1.792712807655335E-001;1.167135499417782E-002;-1.508112647570670E-003;1.148425042629242E-003;
2.406166666666667E+009;1.796009689569473E-001;1.173068955540657E-002;-1.365717500448227E-003;1.260953606106341E-003;
2.406333333333334E+009;1.801158189773560E-001;1.134477835148573E-002;-1.388191245496273E-003;1.484048902057111E-003;
2.406500000000000E+009;1.803898811340332E-001;1.097280532121658E-002;-1.297281705774367E-003;1.385002047754824E-003;
2.406666666666667E+009;1.804237812757492E-001;1.074109133332968E-002;-1.107100979425013E-003;1.275135437026620E-003;
2.406833333333334E+009;1.806935071945190E-001;1.036631129682064E-002;-1.179446233436465E-003;1.472800271585584E-003;
2.407000000000000E+009;1.808282583951950E-001;1.004198472946882E-002;-1.065414049662650E-003;1.452735741622746E-003;
2.407166666666667E+009;1.809324920177460E-001;9.872144088149071E-003;-9.744518320076168E-004;1.339298789389432E-003;
2.407333333333334E+009;1.806697696447372E-001;9.256167337298393E-003;-9.704763069748879E-004;1.401202986016870E-003;
2.407500000000000E+009;1.805093884468079E-001;9.008015505969524E-003;-8.413097239099443E-004;1.414937432855368E-003;
2.407666666666667E+009;1.802410036325455E-001;8.589296601712704E-003;-6.791607593186200E-004;1.299232942983508E-003;
2.407833333333334E+009;1.798183321952820E-001;7.855332456529141E-003;-6.406049942597747E-004;1.423783483915031E-003;
2.408000000000000E+009;1.793861836194992E-001;7.303286343812943E-003;-6.189226987771690E-004;1.177486497908831E-003;
2.408166666666667E+009;1.789753884077072E-001;6.864350754767656E-003;-5.976420361548662E-004;1.268990221433342E-003;
2.408333333333334E+009;1.787856966257095E-001;6.066574715077877E-003;-5.760682397522032E-004;1.290806103497744E-003;
2.408500000000000E+009;1.780284047126770E-001;5.205055233091116E-003;-5.417129141278565E-004;1.173359574750066E-003;
2.408666666666667E+009;1.774707585573196E-001;4.344820976257324E-003;-5.017921794205904E-004;1.103903516195715E-003;
2.408833333333334E+009;1.766177415847778E-001;3.357930341735482E-003;-4.220411065034568E-004;1.255729584954679E-003;
2.409000000000000E+009;1.760566234588623E-001;2.434961730614305E-003;-4.409780667629093E-004;9.938445873558521E-004;
2.409166666666667E+009;1.753582060337067E-001;1.180237275548279E-003;-4.940542858093977E-004;1.065393094904721E-003;
2.409333333333334E+009;1.747195720672607E-001;-9.669114660937339E-005;-3.509532252792269E-004;1.137484796345234E-003;
2.409500000000000E+009;1.740257591009140E-001;-1.543823513202369E-003;-3.666277043521404E-004;1.020637108013034E-003;
2.409666666666667E+009;1.733588427305222E-001;-2.843039343133569E-003;-3.201712388545275E-004;9.349720203317702E-004;
2.409833333333334E+009;1.724554598331451E-001;-4.189004190266132E-003;-5.154676036909223E-004;1.012529595755041E-003;
2.410000000000000E+009;1.719716042280197E-001;-5.810123868286610E-003;-3.036437847185880E-004;8.662387263029814E-004;
2.410166666666667E+009;1.713064461946487E-001;-7.457753643393517E-003;-5.392157472670078E-004;1.045661512762308E-003;
2.410333333333334E+009;1.704303771257401E-001;-9.041358716785908E-003;-4.595156351570040E-004;8.967593894340098E-004;
2.410500000000000E+009;1.699265837669373E-001;-1.081435382366180E-002;-2.839452063199133E-004;1.009141677059233E-003;
2.410666666666667E+009;1.694657057523727E-001;-1.287790481001139E-002;-5.960091366432607E-004;8.992399671114981E-004;
2.410833333333334E+009;1.689372956752777E-001;-1.453548297286034E-002;-3.897266869898886E-004;1.069911406375468E-003;
2.411000000000000E+009;1.685391217470169E-001;-1.634576916694641E-002;-5.217223078943789E-004;9.842094732448459E-004;
2.411166666666667E+009;1.681687980890274E-001;-1.829679869115353E-002;-4.729749343823642E-004;1.023409538902342E-003;
2.411333333333334E+009;1.681400537490845E-001;-2.004800178110600E-002;-5.668048979714513E-004;1.030437182635069E-003;
2.411500000000000E+009;1.677099913358688E-001;-2.226614952087402E-002;-5.404480034485459E-004;9.229041752405465E-004;
2.411666666666667E+009;1.679093241691589E-001;-2.410526387393475E-002;-4.098559729754925E-004;1.074704923667014E-003;
2.411833333333334E+009;1.677903234958649E-001;-2.607247605919838E-002;-2.228489174740389E-004;1.056032022461295E-003;
2.412000000000000E+009;1.676614135503769E-001;-2.794221788644791E-002;-3.975333529524505E-004;1.111418474465609E-003;
2.412166666666667E+009;1.678691059350967E-001;-3.013652563095093E-002;-1.724308385746554E-004;1.086180331185460E-003;
2.412333333333334E+009;1.683579385280609E-001;-3.181106224656105E-002;-4.281364090275019E-004;1.084478921256959E-003;
2.412500000000000E+009;1.683386266231537E-001;-3.373967856168747E-002;-3.719454107340425E-004;1.188377267681062E-003;
2.412666666666667E+009;1.687203198671341E-001;-3.585174679756165E-002;-3.382790309842676E-004;1.320906216278672E-003;
2.412833333333334E+009;1.692073494195938E-001;-3.769535571336746E-002;-1.854850997915492E-004;1.050101476721466E-003;
2.413000000000000E+009;1.695691496133804E-001;-3.940362110733986E-002;-7.675443339394406E-005;1.124140224419534E-003;
2.413166666666667E+009;1.700040549039841E-001;-4.121824726462364E-002;-2.264792710775510E-004;1.059126923792064E-003;
2.413333333333334E+009;1.703554689884186E-001;-4.285243526101112E-002;-1.671862264629453E-004;1.119834836572409E-003;
2.413500000000000E+009;1.708974838256836E-001;-4.451109841465950E-002;-2.188441612815950E-005;9.996914304792881E-004;
2.413666666666667E+009;1.717425137758255E-001;-4.616229236125946E-002;-1.376537547912449E-004;1.079447683878243E-003;
2.413833333333334E+009;1.721380650997162E-001;-4.761954024434090E-002;-1.142462788266130E-004;1.150078140199184E-003;
2.414000000000000E+009;1.725501418113709E-001;-4.888411611318588E-002;8.116318349493668E-005;1.125029055401683E-003;
2.414166666666667E+009;1.732740551233292E-001;-5.018664523959160E-002;-2.324514935025945E-005;9.811026975512505E-004;
2.414333333333334E+009;1.737978607416153E-001;-5.138764530420303E-002;7.760236258036457E-006;1.163382665254176E-003;
2.414500000000000E+009;1.746647357940674E-001;-5.254325270652771E-002;3.055858087464003E-006;1.085780211724341E-003;
2.414666666666667E+009;1.750562041997910E-001;-5.363266170024872E-002;-3.733702760655433E-005;1.272078836336732E-003;
2.414833333333334E+009;1.756310462951660E-001;-5.454941838979721E-002;2.504602161934599E-005;1.094087609089911E-003;
2.415000000000000E+009;1.760249286890030E-001;-5.544509738683701E-002;8.184296893887222E-005;1.043763011693955E-003;
2.415166666666667E+009;1.763468980789185E-001;-5.608573555946350E-002;-4.136573988944292E-005;9.595855372026563E-004;
2.415333333333334E+009;1.769574135541916E-001;-5.694554746150971E-002;1.114746701205149E-004;1.052661216817796E-003;
2.415500000000000E+009;1.772536933422089E-001;-5.741779878735542E-002;2.147278137272224E-004;1.181333675049245E-003;
2.415666666666667E+009;1.774346381425858E-001;-5.797529220581055E-002;1.277373521588743E-004;1.121237524785101E-003;
2.415833333333334E+009;1.777914911508560E-001;-5.845479667186737E-002;7.918851042632014E-005;1.121966517530382E-003;
2.416000000000000E+009;1.778660416603088E-001;-5.886177346110344E-002;2.399714503553696E-005;1.021132688038051E-003;
2.416166666666667E+009;1.780878305435181E-001;-5.927705764770508E-002;1.076551998266950E-004;1.038490911014378E-003;
2.416333333333334E+009;1.779679656028748E-001;-5.940265208482742E-002;1.505271939095110E-004;9.656109614297748E-004;
2.416500000000000E+009;1.778871268033981E-001;-5.986661463975906E-002;2.381765079917386E-004;9.888075292110443E-004;
2.416666666666667E+009;1.777126938104630E-001;-5.999780073761940E-002;-1.465320201532450E-005;1.036233617924154E-003;
2.416833333333334E+009;1.775522828102112E-001;-6.044090539216995E-002;2.409118023933843E-004;9.792834753170610E-004;
2.417000000000000E+009;1.769099980592728E-001;-6.049217656254768E-002;7.439263072228641E-007;1.069899764843285E-003;
2.417166666666667E+009;1.766108125448227E-001;-6.057683378458023E-002;2.098661352647468E-004;9.208903647959232E-004;
2.417333333333334E+009;1.761152893304825E-001;-6.077653542160988E-002;2.768027188722044E-004;9.040900040417910E-004;
2.417500000000000E+009;1.754406094551086E-001;-6.121104583144188E-002;1.626172888791189E-004;1.026342622935772E-003;
2.417666666666667E+009;1.748116612434387E-001;-6.128456443548203E-002;1.880817580968142E-004;1.078517409041524E-003;
2.417833333333334E+009;1.738398522138596E-001;-6.161839142441750E-002;2.774301974568516E-004;1.027973368763924E-003;
2.418000000000000E+009;1.728805899620056E-001;-6.195129454135895E-002;1.942252565640956E-004;1.089295838028193E-003;
2.418166666666667E+009;1.721210181713104E-001;-6.201093643903732E-002;1.887777179945260E-004;1.033761422149837E-003;
2.418333333333334E+009;1.712962538003922E-001;-6.245514005422592E-002;9.328456508228555E-005;1.108742086216807E-003;
2.418500000000000E+009;1.700307279825211E-001;-6.293903291225433E-002;1.566399150760844E-004;1.289775245822966E-003;
2.418666666666667E+009;1.690184175968170E-001;-6.350902467966080E-002;1.725540641928092E-004;1.168046612292528E-003;
2.418833333333334E+009;1.677766442298889E-001;-6.405792385339737E-002;1.682049332885072E-004;1.319897244684398E-003;
2.419000000000000E+009;1.665830314159393E-001;-6.457217037677765E-002;2.342995285289362E-004;1.346945064142346E-003;
2.419166666666667E+009;1.653894186019898E-001;-6.530129164457321E-002;7.233690848806873E-005;1.379974419251084E-003;
2.419333333333334E+009;1.641156524419785E-001;-6.581091880798340E-002;2.527045726310462E-004;1.429470605216920E-003;
2.419500000000000E+009;1.630035936832428E-001;-6.684170663356781E-002;3.246256674174219E-004;1.426875707693398E-003;
2.419666666666667E+009;1.618022918701172E-001;-6.764296442270279E-002;3.967208904214203E-004;1.385430223308504E-003;
2.419833333333334E+009;1.605216711759567E-001;-6.853539496660233E-002;2.862194960471243E-004;1.418010215274990E-003;
2.420000000000000E+009;1.595716476440430E-001;-6.969577819108963E-002;4.163973790127784E-004;1.473567448556423E-003;
2.420166666666667E+009;1.584336161613464E-001;-7.080680131912231E-002;5.325368256308138E-004;1.449699746444821E-003;
2.420333333333334E+009;1.574086695909500E-001;-7.207214087247849E-002;3.715975908562541E-004;1.591534004546702E-003;
2.420500000000000E+009;1.563105136156082E-001;-7.323900610208511E-002;6.566007505171001E-004;1.612476422451437E-003;
2.420666666666667E+009;1.552195698022842E-001;-7.431150972843170E-002;5.842598620802164E-004;1.554475980810821E-003;
2.420833333333334E+009;1.542664766311646E-001;-7.589276134967804E-002;6.624542293138802E-004;1.718926941975951E-003;
2.421000000000000E+009;1.534562855958939E-001;-7.736694067716599E-002;7.186107686720789E-004;1.625602482818067E-003;
2.421166666666667E+009;1.528196334838867E-001;-7.892116159200668E-002;8.251775288954377E-004;1.806714222766459E-003;
2.421333333333334E+009;1.521881073713303E-001;-8.042186498641968E-002;1.018891227431595E-003;1.706105307675898E-003;
2.421500000000000E+009;1.514056324958801E-001;-8.206091821193695E-002;9.985734941437841E-004;1.879098010249436E-003;
2.421666666666667E+009;1.508332788944244E-001;-8.379989117383957E-002;1.108279800973833E-003;1.810637651942670E-003;
2.421833333333334E+009;1.506719738245010E-001;-8.533304929733276E-002;1.189493224956095E-003;1.890063285827637E-003;
2.422000000000000E+009;1.502050906419754E-001;-8.711741119623184E-002;1.349946018308401E-003;1.725042122416198E-003;
2.422166666666667E+009;1.499568969011307E-001;-8.894843608140945E-002;1.504899119026959E-003;1.807197229936719E-003;
2.422333333333334E+009;1.499155610799789E-001;-9.060025215148926E-002;1.628411584533751E-003;1.830295776017010E-003;
2.422500000000000E+009;1.496625095605850E-001;-9.211032837629318E-002;1.611095038242638E-003;1.724313362501562E-003;
2.422666666666667E+009;1.495224237442017E-001;-9.396465122699738E-002;1.826765830628574E-003;1.607368583790958E-003;
2.422833333333334E+009;1.498065888881683E-001;-9.571747481822968E-002;1.762199914082885E-003;1.645546290092170E-003;
2.423000000000000E+009;1.499114632606506E-001;-9.725539386272430E-002;2.040916122496128E-003;1.608804799616337E-003;
2.423166666666667E+009;1.501004844903946E-001;-9.901178628206253E-002;2.083965810015798E-003;1.382711925543845E-003;
2.423333333333334E+009;1.504548639059067E-001;-1.004949584603310E-001;2.137620467692614E-003;1.420703134499490E-003;
2.423500000000000E+009;1.508383750915527E-001;-1.021796464920044E-001;2.224216936156154E-003;1.319520408287644E-003;
2.423666666666667E+009;1.509370356798172E-001;-1.037369519472122E-001;2.244349569082260E-003;1.327401376329362E-003;
2.423833333333334E+009;1.513835936784744E-001;-1.051459759473801E-001;2.342859283089638E-003;1.173272146843374E-003;
2.424000000000000E+009;1.518157273530960E-001;-1.065214201807976E-001;2.359283389523625E-003;9.668468264862895E-004;
2.424166666666667E+009;1.522394567728043E-001;-1.077488884329796E-001;2.474781824275851E-003;8.925970760174096E-004;
2.424333333333334E+009;1.528882384300232E-001;-1.089377999305725E-001;2.335799857974052E-003;7.461774512194097E-004;
2.424500000000000E+009;1.532418727874756E-001;-1.101327389478684E-001;2.559060929343104E-003;6.523486226797104E-004;
2.424666666666667E+009;1.538262367248535E-001;-1.109978333115578E-001;2.501771785318852E-003;4.083504027221352E-004;
2.424833333333334E+009;1.541751474142075E-001;-1.122083738446236E-001;2.541441237553954E-003;5.133075173944235E-004;
2.425000000000000E+009;1.547869145870209E-001;-1.131584942340851E-001;2.653947565704584E-003;3.910566156264395E-004;
2.425166666666667E+009;1.550258249044418E-001;-1.138943582773209E-001;2.663894556462765E-003;3.175314050167799E-004;
2.425333333333334E+009;1.554673761129379E-001;-1.146122142672539E-001;2.604819135740399E-003;1.811261172406375E-004;
2.425500000000000E+009;1.559749841690064E-001;-1.154335662722588E-001;2.609695773571730E-003;-1.232456997968257E-004;
2.425666666666667E+009;1.560914069414139E-001;-1.158580482006073E-001;2.575269201770425E-003;-1.551145251141861E-004;
2.425833333333334E+009;1.564035117626190E-001;-1.164243444800377E-001;2.550467383116484E-003;-1.703657762845978E-004;
2.426000000000000E+009;1.565661430358887E-001;-1.169614493846893E-001;2.471432322636247E-003;-3.348887257743627E-004;
2.426166666666667E+009;1.567144691944122E-001;-1.173534765839577E-001;2.553205937147141E-003;-4.177826049271971E-004;
2.426333333333334E+009;1.567163467407227E-001;-1.176865622401238E-001;2.488096710294485E-003;-5.043740384280682E-004;
2.426500000000000E+009;1.567131280899048E-001;-1.179472878575325E-001;2.363378647714853E-003;-5.536499083973467E-004;
2.426666666666667E+009;1.567762941122055E-001;-1.179916337132454E-001;2.436086069792509E-003;-6.036259001120925E-004;
2.426833333333334E+009;1.564527153968811E-001;-1.181845963001251E-001;2.378645353019238E-003;-7.226796587929130E-004;
2.427000000000000E+009;1.561055183410645E-001;-1.184915974736214E-001;2.271346515044570E-003;-7.538748905062676E-004;
2.427166666666667E+009;1.557037085294724E-001;-1.182787865400314E-001;2.348634414374828E-003;-7.132609607651830E-004;
2.427333333333334E+009;1.552026718854904E-001;-1.185612678527832E-001;2.243567258119583E-003;-7.319808937609196E-004;
2.427500000000000E+009;1.547948271036148E-001;-1.186167448759079E-001;2.060535596683621E-003;-8.096898673102260E-004;
2.427666666666667E+009;1.539850234985352E-001;-1.187924221158028E-001;2.238285494968295E-003;-9.587938548065722E-004;
2.427833333333334E+009;1.531694382429123E-001;-1.187507957220078E-001;2.157199429348111E-003;-8.966302266344428E-004;
