# Version 1.00
#
freq[Hz];re:Trc1_S11;im:Trc1_S11;re:Trc2_S21;im:Trc2_S21;
2.400000000000000E+009;1.575029194355011E-001;6.296759098768234E-002;-1.953914994373918E-003;-5.469502066262066E-004;
2.400166666666667E+009;1.572481989860535E-001;6.137512996792793E-002;-1.861466909758747E-003;-6.563693750649691E-004;
2.400333333333334E+009;1.572467237710953E-001;5.929857492446899E-002;-2.076901495456696E-003;-4.628337046597153E-004;
2.400500000000000E+009;1.572175025939941E-001;5.735366046428680E-002;-2.044321736320853E-003;-3.285924904048443E-004;
2.400666666666667E+009;1.572366356849670E-001;5.547294765710831E-002;-1.860762713477016E-003;-3.832028887700290E-004;
2.400833333333334E+009;1.573165655136108E-001;5.358140543103218E-002;-1.901223324239254E-003;-2.799344074446708E-004;
2.401000000000000E+009;1.573336869478226E-001;5.131193995475769E-002;-1.800979836843908E-003;-2.439718809910119E-004;
2.401166666666667E+009;1.574874669313431E-001;4.940190538764000E-002;-1.920725684612989E-003;-3.027931379619986E-004;
2.401333333333334E+009;1.576799154281616E-001;4.721890762448311E-002;-1.851933891884983E-003;-3.448934585321695E-004;
2.401500000000000E+009;1.581783592700958E-001;4.507295414805412E-002;-1.659260946325958E-003;-9.937453432939947E-005;
2.401666666666667E+009;1.585144251585007E-001;4.299776256084442E-002;-1.930822036229074E-003;-7.355974230449647E-005;
2.401833333333334E+009;1.588382273912430E-001;4.101980477571487E-002;-1.791340298950672E-003;-5.726512245018967E-005;
2.402000000000000E+009;1.591670066118240E-001;3.904425725340843E-002;-1.853863359428942E-003;-9.742460679262877E-005;
2.402166666666667E+009;1.597072184085846E-001;3.692055121064186E-002;-1.688880729489029E-003;1.768752372299787E-005;
2.402333333333334E+009;1.603733152151108E-001;3.518222644925118E-002;-1.672642771154642E-003;-1.318985159741715E-004;
2.402500000000000E+009;1.613207906484604E-001;3.325867652893066E-002;-1.752937329001725E-003;-5.127454642206430E-005;
2.402666666666667E+009;1.619649380445480E-001;3.148084506392479E-002;-1.871038577519357E-003;-4.343891851021908E-005;
2.402833333333334E+009;1.627549231052399E-001;3.001719340682030E-002;-1.672653947025538E-003;1.443384389858693E-004;
2.403000000000000E+009;1.635165959596634E-001;2.834581397473812E-002;-1.652034232392907E-003;2.129352833435405E-005;
2.403166666666667E+009;1.644307374954224E-001;2.674107439815998E-002;-1.680651213973761E-003;3.939380258088931E-005;
2.403333333333334E+009;1.654407829046249E-001;2.523411810398102E-002;-1.525114756077528E-003;9.651869913795963E-005;
2.403500000000000E+009;1.663555204868317E-001;2.389152161777020E-002;-1.762991305440664E-003;1.789941015886143E-004;
2.403666666666667E+009;1.674757897853851E-001;2.251584827899933E-002;-1.832171110436320E-003;1.747314236126840E-004;
2.403833333333334E+009;1.685342192649841E-001;2.121248096227646E-002;-1.598334056325257E-003;2.197449503000826E-004;
2.404000000000000E+009;1.694522500038147E-001;2.005207538604736E-002;-1.667300122790039E-003;3.452171222306788E-004;
2.404166666666667E+009;1.704271435737610E-001;1.893877796828747E-002;-1.855921931564808E-003;3.322466800455004E-004;
2.404333333333334E+009;1.713535785675049E-001;1.794287562370300E-002;-1.729844952933490E-003;4.026617680210620E-004;
2.404500000000000E+009;1.723297089338303E-001;1.684490963816643E-002;-1.671766280196607E-003;4.347543872427195E-004;
2.404666666666667E+009;1.733544766902924E-001;1.611941307783127E-002;-1.658722991123796E-003;3.314388741273433E-004;
2.404833333333334E+009;1.742520332336426E-001;1.539239007979631E-002;-1.787874847650528E-003;7.365950732491911E-004;
2.405000000000000E+009;1.752769500017166E-001;1.459139958024025E-002;-1.822857884690166E-003;7.547821733169258E-004;
2.405166666666667E+009;1.759424656629562E-001;1.408230978995562E-002;-1.757023273967207E-003;7.002895581535995E-004;
2.405333333333334E+009;1.769122779369354E-001;1.337114721536636E-002;-1.608813414350152E-003;8.609060896560550E-004;
2.405500000000000E+009;1.775310933589935E-001;1.292698364704847E-002;-1.709381816908717E-003;9.806237649172545E-004;
2.405666666666667E+009;1.782828569412231E-001;1.257332134991884E-002;-1.726074260659516E-003;8.567946497350931E-004;
2.405833333333334E+009;1.787444204092026E-001;1.219192892313004E-002;-1.458641374483705E-003;1.128075295127928E-003;
2.406000000000000E+009;1.794041842222214E-001;1.174051035195589E-002;-1.519877929240465E-003;1.177219673991203E-003;
2.406166666666667E+009;1.796755045652390E-001;1.155510824173689E-002;-1.232205540873110E-003;1.116853323765099E-003;
2.406333333333334E+009;1.802783906459808E-001;1.130009163171053E-002;-1.349947415292263E-003;1.123558846302331E-003;
2.406500000000000E+009;1.804283857345581E-001;1.100848615169525E-002;-1.232689130119979E-003;1.343200099654496E-003;
2.406666666666667E+009;1.805487573146820E-001;1.074628252536058E-002;-1.278788782656193E-003;1.262146979570389E-003;
2.406833333333334E+009;1.807477325201035E-001;1.028829440474510E-002;-1.027945196256042E-003;1.344351097941399E-003;
2.407000000000000E+009;1.809009909629822E-001;9.999575093388557E-003;-1.238513388670981E-003;1.345771248452365E-003;
2.407166666666667E+009;1.810548752546310E-001;9.826513938605785E-003;-1.039638766087592E-003;1.296472735702992E-003;
2.407333333333334E+009;1.808015704154968E-001;9.394340217113495E-003;-9.575898293405771E-004;1.330032595433295E-003;
2.407500000000000E+009;1.805892437696457E-001;8.977903053164482E-003;-9.379256516695023E-004;1.325224526226521E-003;
2.407666666666667E+009;1.803475916385651E-001;8.526452817022800E-003;-8.951214258559048E-004;1.184920431114733E-003;
2.407833333333334E+009;1.799121499061585E-001;7.888611406087875E-003;-5.548554472625256E-004;1.171278767287731E-003;
2.408000000000000E+009;1.795034408569336E-001;7.259924430400133E-003;-6.215424509719014E-004;1.303673372603953E-003;
2.408166666666667E+009;1.789930164813995E-001;6.780525203794241E-003;-5.709431134164333E-004;1.270273700356484E-003;
2.408333333333334E+009;1.787235736846924E-001;6.133250426501036E-003;-5.883378325961530E-004;1.251977169886231E-003;
2.408500000000000E+009;1.780417114496231E-001;5.274877417832613E-003;-5.586437182500958E-004;1.123889465816319E-003;
2.408666666666667E+009;1.775210946798325E-001;4.254651255905628E-003;-6.320179672911763E-004;1.036759815178812E-003;
2.408833333333334E+009;1.766251623630524E-001;3.279467811807990E-003;-6.016094703227282E-004;9.859215933829546E-004;
2.409000000000000E+009;1.758975833654404E-001;2.306023845449090E-003;-5.320081254467368E-004;1.185363042168319E-003;
2.409166666666667E+009;1.753901839256287E-001;1.096053514629602E-003;-5.580389988608658E-004;9.794303914532065E-004;
2.409333333333334E+009;1.746363490819931E-001;-1.961742964340374E-004;-5.126350442878902E-004;9.794724173843861E-004;
2.409500000000000E+009;1.738752573728561E-001;-1.517458236776292E-003;-6.410063360817730E-004;8.569353958591819E-004;
2.409666666666667E+009;1.732465624809265E-001;-2.842700341716409E-003;-4.778318398166448E-004;9.922791505232453E-004;
2.409833333333334E+009;1.724267154932022E-001;-4.386037588119507E-003;-6.073214462958276E-004;9.276118362322450E-004;
2.410000000000000E+009;1.720298230648041E-001;-5.779557395726442E-003;-5.549962515942752E-004;9.083612821996212E-004;
2.410166666666667E+009;1.711965948343277E-001;-7.376856636255980E-003;-5.360992508940399E-004;1.006365520879626E-003;
2.410333333333334E+009;1.705505549907684E-001;-9.161485359072685E-003;-5.065294681116939E-004;9.943881304934621E-004;
2.410500000000000E+009;1.701090186834335E-001;-1.089003868401051E-002;-5.759848863817751E-004;9.651312138885260E-004;
2.410666666666667E+009;1.695866733789444E-001;-1.270475983619690E-002;-4.834901192225516E-004;9.983872296288610E-004;
2.410833333333334E+009;1.690709143877029E-001;-1.449868362396956E-002;-4.952379968017340E-004;9.886241750791669E-004;
2.411000000000000E+009;1.686249971389771E-001;-1.627655513584614E-002;-4.383625055197626E-004;9.513123659417033E-004;
2.411166666666667E+009;1.683666110038757E-001;-1.837604679167271E-002;-4.839567991439253E-004;1.007689395919442E-003;
2.411333333333334E+009;1.680267900228500E-001;-2.011625654995441E-002;-4.514771280810237E-004;1.022541895508766E-003;
2.411500000000000E+009;1.678542047739029E-001;-2.219034172594547E-002;-4.187483282294124E-004;1.177204190753400E-003;
2.411666666666667E+009;1.678046435117722E-001;-2.413020469248295E-002;-4.837246669922024E-004;1.165466732345522E-003;
2.411833333333334E+009;1.677777469158173E-001;-2.600657194852829E-002;-4.697525873780251E-004;1.080855610780418E-003;
2.412000000000000E+009;1.679290235042572E-001;-2.810164541006088E-002;-4.619618703145534E-004;1.137302606366575E-003;
2.412166666666667E+009;1.678010821342468E-001;-3.017615713179112E-002;-3.829155466519296E-004;1.204495318233967E-003;
2.412333333333334E+009;1.682418286800385E-001;-3.195592015981674E-002;-3.985667135566473E-004;1.181324594654143E-003;
2.412500000000000E+009;1.683656275272369E-001;-3.382439166307449E-002;-3.021715383511037E-004;1.112272730097175E-003;
2.412666666666667E+009;1.687754541635513E-001;-3.584996610879898E-002;-1.875536254374310E-004;1.225415500812233E-003;
2.412833333333334E+009;1.691581010818481E-001;-3.765720501542091E-002;-2.696679730433971E-004;1.028180704452097E-003;
2.413000000000000E+009;1.696464121341705E-001;-3.953158482909203E-002;-3.264246042817831E-004;1.050800667144358E-003;
2.413166666666667E+009;1.699520200490952E-001;-4.136477410793304E-002;-2.517465618439019E-004;1.216175849549472E-003;
2.413333333333334E+009;1.705848872661591E-001;-4.306147620081902E-002;-1.895931782200933E-004;1.113582286052406E-003;
2.413500000000000E+009;1.710363477468491E-001;-4.456957802176476E-002;-2.245117502752692E-004;1.009462750516832E-003;
2.413666666666667E+009;1.716760396957398E-001;-4.614072665572166E-002;-1.535797637188807E-004;1.213943236507475E-003;
2.413833333333334E+009;1.720529198646545E-001;-4.761096835136414E-002;-1.842313795350492E-004;1.187267596833408E-003;
2.414000000000000E+009;1.726235151290894E-001;-4.905438050627708E-002;-9.518888691673055E-005;1.044660340994597E-003;
2.414166666666667E+009;1.734266281127930E-001;-5.033968389034271E-002;-7.689185622439254E-006;1.172089017927647E-003;
2.414333333333334E+009;1.738721132278442E-001;-5.145292729139328E-002;-8.342879300471395E-005;1.112726866267622E-003;
2.414500000000000E+009;1.745172888040543E-001;-5.245134979486466E-002;-1.579517265781760E-004;1.289269770495594E-003;
2.414666666666667E+009;1.750397831201553E-001;-5.359227955341339E-002;-6.556434527738020E-005;1.303730998188257E-003;
2.414833333333334E+009;1.755417734384537E-001;-5.466425791382790E-002;1.615858200239018E-004;1.225247513502836E-003;
2.415000000000000E+009;1.759908944368362E-001;-5.541916936635971E-002;1.678860717220232E-004;1.196483965031803E-003;
2.415166666666667E+009;1.763972938060761E-001;-5.620206892490387E-002;-1.039402486640029E-004;1.221012440510094E-003;
2.415333333333334E+009;1.769337952136993E-001;-5.688013136386871E-002;-4.493794767768122E-005;1.120804343372583E-003;
2.415500000000000E+009;1.771216392517090E-001;-5.742577835917473E-002;1.383088238071650E-004;1.119219465181232E-003;
2.415666666666667E+009;1.775242984294891E-001;-5.796212702989578E-002;1.194404831039719E-004;1.127751078456640E-003;
2.415833333333334E+009;1.777445971965790E-001;-5.841333791613579E-002;4.890955460723490E-005;1.122879213653505E-003;
2.416000000000000E+009;1.778304576873779E-001;-5.889405310153961E-002;2.323482476640493E-004;1.066067488864064E-003;
2.416166666666667E+009;1.782206594944000E-001;-5.924851447343826E-002;1.172786724055186E-004;1.152776065282524E-003;
2.416333333333334E+009;1.780612468719482E-001;-5.937743186950684E-002;1.756667916197330E-004;1.095594372600317E-003;
2.416500000000000E+009;1.777802556753159E-001;-5.979244038462639E-002;5.789088390883990E-005;1.211563125252724E-003;
2.416666666666667E+009;1.776994019746780E-001;-6.000116840004921E-002;1.578504889039323E-004;1.099466346204281E-003;
2.416833333333334E+009;1.775415837764740E-001;-6.026418879628182E-002;2.240781323052943E-004;9.657887276262045E-004;
2.417000000000000E+009;1.769274622201920E-001;-6.050507724285126E-002;2.530580677557737E-004;1.125201466493309E-003;
2.417166666666667E+009;1.765648275613785E-001;-6.061360239982605E-002;2.704641374293715E-004;9.898884454742074E-004;
2.417333333333334E+009;1.759794354438782E-001;-6.067303940653801E-002;2.361669903621078E-004;1.215272350236774E-003;
2.417500000000000E+009;1.752959787845612E-001;-6.117749214172363E-002;2.843350812327117E-004;1.153510413132608E-003;
2.417666666666667E+009;1.747296601533890E-001;-6.109315901994705E-002;2.906941808760166E-004;1.125180511735380E-003;
2.417833333333334E+009;1.738711893558502E-001;-6.143792718648911E-002;1.913761079777032E-004;1.160278683528304E-003;
2.418000000000000E+009;1.728818565607071E-001;-6.183767691254616E-002;2.911289338953793E-004;1.072207116521895E-003;
2.418166666666667E+009;1.721188426017761E-001;-6.198820099234581E-002;1.798548328224570E-004;1.054971828125417E-003;
2.418333333333334E+009;1.712740063667297E-001;-6.245337054133415E-002;2.439457748550922E-004;1.097230822779238E-003;
2.418500000000000E+009;1.700192391872406E-001;-6.278538703918457E-002;2.459478273522109E-004;1.199726597405970E-003;
2.418666666666667E+009;1.691408455371857E-001;-6.336697190999985E-002;3.543828788679093E-004;1.124105765484273E-003;
2.418833333333334E+009;1.678091883659363E-001;-6.393040716648102E-002;2.813638420775533E-004;1.146491384133697E-003;
2.419000000000000E+009;1.665239334106445E-001;-6.452758610248566E-002;4.083646053913981E-004;1.287595718167722E-003;
2.419166666666667E+009;1.654697954654694E-001;-6.523570418357849E-002;2.351445582462475E-004;1.164165092632175E-003;
2.419333333333334E+009;1.641370505094528E-001;-6.566794216632843E-002;2.752583241090179E-004;1.221970887854695E-003;
2.419500000000000E+009;1.629327386617661E-001;-6.674843281507492E-002;2.974176895804703E-004;1.403087168000639E-003;
2.419666666666667E+009;1.618667393922806E-001;-6.773477792739868E-002;3.102539340034127E-004;1.285603968426585E-003;
2.419833333333334E+009;1.606511473655701E-001;-6.848668307065964E-002;3.709895245265216E-004;1.361674978397787E-003;
2.420000000000000E+009;1.595523357391357E-001;-6.957135349512100E-002;4.695962124969810E-004;1.425344380550087E-003;
2.420166666666667E+009;1.584665477275848E-001;-7.078211009502411E-002;4.538451030384749E-004;1.314676599577069E-003;
2.420333333333334E+009;1.573189049959183E-001;-7.201457023620606E-002;5.480637191794813E-004;1.558565883897245E-003;
2.420500000000000E+009;1.563407927751541E-001;-7.311753183603287E-002;4.164191777817905E-004;1.548307947814465E-003;
2.420666666666667E+009;1.554009169340134E-001;-7.447805255651474E-002;7.579563534818590E-004;1.478571561165154E-003;
2.420833333333334E+009;1.543861180543900E-001;-7.587402313947678E-002;6.226522382348776E-004;1.544090220704675E-003;
2.421000000000000E+009;1.533950865268707E-001;-7.740097492933273E-002;6.549865938723087E-004;1.650906866416335E-003;
2.421166666666667E+009;1.528269797563553E-001;-7.884094119071960E-002;7.616541115567088E-004;1.726465765386820E-003;
2.421333333333334E+009;1.522847712039948E-001;-8.060427010059357E-002;9.550951654091477E-004;1.774383708834648E-003;
2.421500000000000E+009;1.514125764369965E-001;-8.213712275028229E-002;1.068816753104329E-003;1.745759393088520E-003;
2.421666666666667E+009;1.510676592588425E-001;-8.372610807418823E-002;1.084199408069253E-003;1.693886937573552E-003;
2.421833333333334E+009;1.506314128637314E-001;-8.535765856504440E-002;1.203312654979527E-003;1.830505789257586E-003;
2.422000000000000E+009;1.502489000558853E-001;-8.713468164205551E-002;1.321056974120438E-003;1.700765918940306E-003;
2.422166666666667E+009;1.499410569667816E-001;-8.893253654241562E-002;1.414814963936806E-003;1.806894200854003E-003;
2.422333333333334E+009;1.497034579515457E-001;-9.054818004369736E-002;1.690840465016663E-003;1.720703672617674E-003;
2.422500000000000E+009;1.495597660541534E-001;-9.230106323957443E-002;1.690504606813192E-003;1.788935391232371E-003;
2.422666666666667E+009;1.495656967163086E-001;-9.410925209522247E-002;1.714762649498880E-003;1.639844500459731E-003;
2.422833333333334E+009;1.497519463300705E-001;-9.579508006572723E-002;1.858479110524058E-003;1.584612531587482E-003;
2.423000000000000E+009;1.498386561870575E-001;-9.736739844083786E-002;2.004565438255668E-003;1.528575667180121E-003;
2.423166666666667E+009;1.500924825668335E-001;-9.898184984922409E-002;1.995151629671454E-003;1.434331992641091E-003;
2.423333333333334E+009;1.503608077764511E-001;-1.004661321640015E-001;2.229735022410750E-003;1.411790726706386E-003;
2.423500000000000E+009;1.506729125976563E-001;-1.022223681211472E-001;2.371041802689433E-003;1.208563800901175E-003;
2.423666666666667E+009;1.508603990077972E-001;-1.037790328264237E-001;2.359174890443683E-003;1.201709848828614E-003;
2.423833333333334E+009;1.514910757541657E-001;-1.051842868328095E-001;2.449485007673502E-003;1.140625914558768E-003;
2.424000000000000E+009;1.517397761344910E-001;-1.064196079969406E-001;2.561395987868309E-003;1.056788256391883E-003;
2.424166666666667E+009;1.521715223789215E-001;-1.077985092997551E-001;2.556595951318741E-003;8.082030690275133E-004;
2.424333333333334E+009;1.527133285999298E-001;-1.088550463318825E-001;2.640894148498774E-003;8.620774606242776E-004;
2.424500000000000E+009;1.533430516719818E-001;-1.100615411996841E-001;2.582311164587736E-003;7.078265189193189E-004;
2.424666666666667E+009;1.538084894418716E-001;-1.111370399594307E-001;2.588290721178055E-003;4.656453093048185E-004;
2.424833333333334E+009;1.540053933858872E-001;-1.120267957448959E-001;2.618823898956180E-003;4.232652427162975E-004;
2.425000000000000E+009;1.546626091003418E-001;-1.130724847316742E-001;2.725775586441159E-003;2.551482466515154E-004;
2.425166666666667E+009;1.548947989940643E-001;-1.137933284044266E-001;2.694483147934079E-003;7.395177090074867E-005;
2.425333333333334E+009;1.554540842771530E-001;-1.145064681768417E-001;2.641048980876803E-003;5.247108128969558E-005;
2.425500000000000E+009;1.559286415576935E-001;-1.153132393956184E-001;2.615926554426551E-003;-2.723966827034019E-005;
2.425666666666667E+009;1.560034304857254E-001;-1.158321946859360E-001;2.590818563476205E-003;-1.817071315599605E-004;
2.425833333333334E+009;1.562575995922089E-001;-1.164207905530930E-001;2.674175659194589E-003;-2.370908623561263E-004;
2.426000000000000E+009;1.564359068870544E-001;-1.169210076332092E-001;2.552618971094489E-003;-2.509854966774583E-004;
2.426166666666667E+009;1.567820310592651E-001;-1.172427833080292E-001;2.398823387920857E-003;-3.744632413145155E-004;
2.426333333333334E+009;1.567420959472656E-001;-1.175345852971077E-001;2.517808461561799E-003;-4.593846388161182E-004;
2.426500000000000E+009;1.567210108041763E-001;-1.178081110119820E-001;2.430630149319768E-003;-6.661816150881350E-004;
2.426666666666667E+009;1.568231880664825E-001;-1.179418563842773E-001;2.605915535241365E-003;-6.516772555187345E-004;
2.426833333333334E+009;1.565909236669540E-001;-1.181574240326881E-001;2.489595906808972E-003;-7.332456880249083E-004;
2.427000000000000E+009;1.561886072158814E-001;-1.183162853121758E-001;2.255822531878948E-003;-8.039742824621499E-004;
2.427166666666667E+009;1.557834446430206E-001;-1.183825060725212E-001;2.251211553812027E-003;-7.974075851961970E-004;
2.427333333333334E+009;1.552649438381195E-001;-1.185203716158867E-001;2.303899032995105E-003;-9.000630234368146E-004;
2.427500000000000E+009;1.547997146844864E-001;-1.185953766107559E-001;2.174528781324625E-003;-1.036560512147844E-003;
2.427666666666667E+009;1.540610343217850E-001;-1.186929419636726E-001;2.223343122750521E-003;-1.029270468279719E-003;
2.427833333333334E+009;1.532765924930573E-001;-1.187661290168762E-001;2.190272090956569E-003;-1.058530295267701E-003;
