# Version 1.00
#
freq[Hz];re:Trc1_S11;im:Trc1_S11;re:Trc2_S21;im:Trc2_S21;
2.400000000000000E+009;1.690647900104523E-001;4.559411481022835E-002;-5.823309998959303E-003;-2.705224789679050E-003;
2.400166666666667E+009;1.701712608337402E-001;4.485862702131271E-002;-6.149561610072851E-003;-2.596989041194320E-003;
2.400333333333334E+009;1.710437685251236E-001;4.355087876319885E-002;-6.237860769033432E-003;-2.401693491265178E-003;
2.400500000000000E+009;1.719851046800613E-001;4.256491363048554E-002;-6.347426213324070E-003;-2.069748705253005E-003;
2.400666666666667E+009;1.727807819843292E-001;4.161269962787628E-002;-6.550068501383066E-003;-1.976015511900187E-003;
2.400833333333334E+009;1.735856533050537E-001;4.084609448909760E-002;-6.797702517360449E-003;-1.597740105353296E-003;
2.401000000000000E+009;1.743848174810410E-001;4.003350809216499E-002;-6.960092112421989E-003;-1.399338827468455E-003;
2.401166666666667E+009;1.752998381853104E-001;3.935818374156952E-002;-7.101849187165499E-003;-1.008230028674007E-003;
2.401333333333334E+009;1.759813576936722E-001;3.860558941960335E-002;-7.353328634053469E-003;-8.432196918874979E-004;
2.401500000000000E+009;1.767025738954544E-001;3.800324350595474E-002;-7.466447073966265E-003;-3.797817043960095E-004;
2.401666666666667E+009;1.771192550659180E-001;3.735672309994698E-002;-7.487092632800341E-003;-4.446688308235025E-006;
2.401833333333334E+009;1.778727769851685E-001;3.685831651091576E-002;-7.849748246371746E-003;2.894881472457200E-004;
2.402000000000000E+009;1.781138628721237E-001;3.616246953606606E-002;-7.655079942196608E-003;7.882314384914935E-004;
2.402166666666667E+009;1.786641180515289E-001;3.553320467472076E-002;-7.873202674090862E-003;1.194691634736955E-003;
2.402333333333334E+009;1.788136959075928E-001;3.493016958236694E-002;-7.730140350759029E-003;1.521898899227381E-003;
2.402500000000000E+009;1.794970184564591E-001;3.434878215193749E-002;-7.545063272118568E-003;1.819679164327681E-003;
2.402666666666667E+009;1.794925481081009E-001;3.392690047621727E-002;-7.508512586355209E-003;2.371185226365924E-003;
2.402833333333334E+009;1.797664612531662E-001;3.332844749093056E-002;-7.404762785881758E-003;2.841570647433400E-003;
2.403000000000000E+009;1.797478199005127E-001;3.244506195187569E-002;-7.355960551649332E-003;3.217491554096341E-003;
2.403166666666667E+009;1.797218024730682E-001;3.157443553209305E-002;-6.966658402234316E-003;3.526144893839955E-003;
2.403333333333334E+009;1.799072474241257E-001;3.082910180091858E-002;-6.913146004080772E-003;3.604473546147347E-003;
2.403500000000000E+009;1.794023662805557E-001;2.998033724725246E-002;-6.622626446187496E-003;3.969810903072357E-003;
2.403666666666667E+009;1.792675107717514E-001;2.899301052093506E-002;-6.419260054826737E-003;4.414354451000691E-003;
2.403833333333334E+009;1.790735721588135E-001;2.799822203814983E-002;-6.229000166058540E-003;4.657501820474863E-003;
2.404000000000000E+009;1.786939054727554E-001;2.684696577489376E-002;-5.922535434365273E-003;4.946259781718254E-003;
2.404166666666667E+009;1.782379299402237E-001;2.568811550736427E-002;-5.716971121728420E-003;5.082384683191776E-003;
2.404333333333334E+009;1.777048259973526E-001;2.461563237011433E-002;-5.418871995061636E-003;5.631824489682913E-003;
2.404500000000000E+009;1.772581934928894E-001;2.312688156962395E-002;-5.193895660340786E-003;5.591150373220444E-003;
2.404666666666667E+009;1.768360137939453E-001;2.180894277989864E-002;-4.870162811130285E-003;5.736212246119976E-003;
2.404833333333334E+009;1.763523072004318E-001;2.044489048421383E-002;-4.565238952636719E-003;5.857447162270546E-003;
2.405000000000000E+009;1.757168173789978E-001;1.884695328772068E-002;-4.199106711894274E-003;6.216936744749546E-003;
2.405166666666667E+009;1.752621382474899E-001;1.744373701512814E-002;-3.966490738093853E-003;6.104307249188423E-003;
2.405333333333334E+009;1.750326007604599E-001;1.568981818854809E-002;-3.506977343931794E-003;6.167812272906303E-003;
2.405500000000000E+009;1.745817810297012E-001;1.415488403290510E-002;-3.315484849736095E-003;6.307424977421761E-003;
2.405666666666667E+009;1.740712821483612E-001;1.245535165071487E-002;-2.985087456181645E-003;6.418274715542793E-003;
2.405833333333334E+009;1.735115945339203E-001;1.073977258056402E-002;-2.746203448623419E-003;6.519073154777288E-003;
2.406000000000000E+009;1.734029799699783E-001;8.745430968701839E-003;-2.419412136077881E-003;6.446189247071743E-003;
2.406166666666667E+009;1.729863137006760E-001;6.909507326781750E-003;-2.237736247479916E-003;6.418640259653330E-003;
2.406333333333334E+009;1.729652732610703E-001;4.993379581719637E-003;-2.004088368266821E-003;6.398728117346764E-003;
2.406500000000000E+009;1.727704852819443E-001;3.031927859410644E-003;-1.789730391465128E-003;6.535864435136318E-003;
2.406666666666667E+009;1.725515127182007E-001;1.065348507836461E-003;-1.572387875057757E-003;6.474545225501061E-003;
2.406833333333334E+009;1.726898998022080E-001;-1.098252600058913E-003;-1.439317013137043E-003;6.436184514313936E-003;
2.407000000000000E+009;1.727252453565598E-001;-2.979550044983625E-003;-1.137274783104658E-003;6.360996048897505E-003;
2.407166666666667E+009;1.729976534843445E-001;-5.087823141366243E-003;-8.977073011919856E-004;6.515165790915489E-003;
2.407333333333334E+009;1.730036735534668E-001;-7.391603663563728E-003;-6.377236568368971E-004;6.363213527947664E-003;
2.407500000000000E+009;1.732966154813767E-001;-9.343637153506279E-003;-3.517869336064905E-004;6.552224047482014E-003;
2.407666666666667E+009;1.734819263219833E-001;-1.144998148083687E-002;-3.131681587547064E-004;6.444541737437248E-003;
2.407833333333334E+009;1.736482530832291E-001;-1.354082487523556E-002;1.594090863363817E-004;6.278188899159432E-003;
2.408000000000000E+009;1.741762012243271E-001;-1.580643467605114E-002;2.847988507710397E-004;6.175569258630276E-003;
2.408166666666667E+009;1.745415031909943E-001;-1.763208769261837E-002;5.268678651191294E-004;6.194164976477623E-003;
2.408333333333334E+009;1.750789731740952E-001;-1.970697939395905E-002;6.642504595220089E-004;6.164778023958206E-003;
2.408500000000000E+009;1.754701882600784E-001;-2.169343270361424E-002;1.068262499757111E-003;6.018658168613911E-003;
2.408666666666667E+009;1.758884489536285E-001;-2.347781695425510E-002;1.171094249002636E-003;6.036488804966211E-003;
2.408833333333334E+009;1.761402040719986E-001;-2.518538385629654E-002;1.349739381112158E-003;5.741578526794910E-003;
2.409000000000000E+009;1.764585524797440E-001;-2.690461091697216E-002;1.467326073907316E-003;5.535841919481754E-003;
2.409166666666667E+009;1.769592761993408E-001;-2.850600704550743E-002;1.782423816621304E-003;5.638169590383768E-003;
2.409333333333334E+009;1.774444431066513E-001;-3.025192022323608E-002;1.841740217059851E-003;5.426530726253986E-003;
2.409500000000000E+009;1.777895241975784E-001;-3.154629468917847E-002;1.972998492419720E-003;5.380359012633562E-003;
2.409666666666667E+009;1.781829744577408E-001;-3.274670615792275E-002;2.112149493768811E-003;5.233889911323786E-003;
2.409833333333334E+009;1.784750670194626E-001;-3.378767147660255E-002;2.222409239038825E-003;5.232064984738827E-003;
2.410000000000000E+009;1.791476905345917E-001;-3.459460288286209E-002;2.425339072942734E-003;5.047982558608055E-003;
2.410166666666667E+009;1.797018349170685E-001;-3.557406738400459E-002;2.492906060069799E-003;4.859969951212406E-003;
2.410333333333334E+009;1.799788326025009E-001;-3.655805066227913E-002;2.774119144305587E-003;4.845629446208477E-003;
2.410500000000000E+009;1.803315430879593E-001;-3.729655221104622E-002;2.790961414575577E-003;4.628932569175959E-003;
2.410666666666667E+009;1.807075738906860E-001;-3.814989328384399E-002;2.967626322060823E-003;4.459884483367205E-003;
2.410833333333334E+009;1.813249588012695E-001;-3.875415027141571E-002;3.169985488057137E-003;4.253027960658073E-003;
2.411000000000000E+009;1.814925223588944E-001;-3.912487998604775E-002;3.177886828780174E-003;4.229490645229816E-003;
2.411166666666667E+009;1.815296709537506E-001;-3.983545303344727E-002;3.277392126619816E-003;4.071194212883711E-003;
2.411333333333334E+009;1.817692518234253E-001;-4.026464372873306E-002;3.232839284464717E-003;4.068987909704447E-003;
2.411500000000000E+009;1.818356812000275E-001;-4.080476611852646E-002;3.358430694788694E-003;3.978101536631584E-003;
2.411666666666667E+009;1.820216625928879E-001;-4.105104878544807E-002;3.420134773477912E-003;3.575241193175316E-003;
2.411833333333334E+009;1.819931715726852E-001;-4.146170616149902E-002;3.550029592588544E-003;3.501076484099031E-003;
2.412000000000000E+009;1.817011535167694E-001;-4.191203415393829E-002;3.524912288412452E-003;3.469724208116531E-003;
2.412166666666667E+009;1.813177764415741E-001;-4.225214943289757E-002;3.565242514014244E-003;3.257328178733587E-003;
2.412333333333334E+009;1.811349838972092E-001;-4.238099232316017E-002;3.711707890033722E-003;3.209143411368132E-003;
2.412500000000000E+009;1.805578768253326E-001;-4.291154816746712E-002;3.804269013926387E-003;3.026085905730724E-003;
2.412666666666667E+009;1.799752563238144E-001;-4.330478236079216E-002;3.777505131438375E-003;2.949061803519726E-003;
2.412833333333334E+009;1.794512569904327E-001;-4.373844712972641E-002;3.932613879442215E-003;2.883996348828077E-003;
2.413000000000000E+009;1.786875426769257E-001;-4.405585676431656E-002;4.016075283288956E-003;2.756058238446713E-003;
2.413166666666667E+009;1.777760833501816E-001;-4.434897005558014E-002;3.970369230955839E-003;2.758685965090990E-003;
2.413333333333334E+009;1.768941730260849E-001;-4.482707008719444E-002;3.934943582862616E-003;2.576613333076239E-003;
2.413500000000000E+009;1.760238111019135E-001;-4.536111652851105E-002;3.965305630117655E-003;2.545483410358429E-003;
2.413666666666667E+009;1.749457567930222E-001;-4.587436839938164E-002;4.134499002248049E-003;2.380318939685822E-003;
2.413833333333334E+009;1.738546192646027E-001;-4.641138762235642E-002;3.875601105391979E-003;2.170334337279201E-003;
2.414000000000000E+009;1.726031303405762E-001;-4.717924445867539E-002;4.142828285694122E-003;2.121111378073692E-003;
2.414166666666667E+009;1.717559844255447E-001;-4.776434972882271E-002;4.214385058730841E-003;2.050390932708979E-003;
2.414333333333334E+009;1.705063283443451E-001;-4.866935685276985E-002;4.274841398000717E-003;1.960709225386381E-003;
2.414500000000000E+009;1.694347709417343E-001;-4.936115443706513E-002;4.331232514232397E-003;1.980292145162821E-003;
2.414666666666667E+009;1.681182086467743E-001;-5.041117593646050E-002;4.221896175295115E-003;1.864237827248871E-003;
2.414833333333334E+009;1.669379025697708E-001;-5.152204632759094E-002;4.400049336254597E-003;1.696141087450087E-003;
2.415000000000000E+009;1.656880229711533E-001;-5.260790884494782E-002;4.399280529469252E-003;1.723306137137115E-003;
2.415166666666667E+009;1.645961403846741E-001;-5.387869477272034E-002;4.434960894286633E-003;1.560663571581245E-003;
2.415333333333334E+009;1.635216474533081E-001;-5.525067448616028E-002;4.458869341760874E-003;1.470675459131599E-003;
2.415500000000000E+009;1.623377948999405E-001;-5.648091435432434E-002;4.722048528492451E-003;1.400584471412003E-003;
2.415666666666667E+009;1.611234396696091E-001;-5.806891247630119E-002;4.688577260822058E-003;1.361285801976919E-003;
2.415833333333334E+009;1.600352078676224E-001;-5.975548550486565E-002;4.803705960512161E-003;1.203025691211224E-003;
2.416000000000000E+009;1.590134650468826E-001;-6.132596358656883E-002;4.861904773861170E-003;1.135699334554374E-003;
2.416166666666667E+009;1.580826640129089E-001;-6.294085830450058E-002;4.841299261897802E-003;1.024660887196660E-003;
2.416333333333334E+009;1.569504141807556E-001;-6.476700305938721E-002;4.982493817806244E-003;7.201700937002897E-004;
2.416500000000000E+009;1.560742855072022E-001;-6.674943864345551E-002;4.919618368148804E-003;6.842114962637425E-004;
2.416666666666667E+009;1.550713926553726E-001;-6.855621188879013E-002;5.020104814320803E-003;5.980089772492647E-004;
2.416833333333334E+009;1.543705314397812E-001;-7.050523161888123E-002;5.083736963570118E-003;3.725753340404481E-004;
2.417000000000000E+009;1.534681618213654E-001;-7.244804501533508E-002;5.058679729700089E-003;2.684861538000405E-004;
2.417166666666667E+009;1.528024524450302E-001;-7.419174164533615E-002;4.997268319129944E-003;1.257561089005321E-004;
2.417333333333334E+009;1.521930992603302E-001;-7.613731175661087E-002;5.157208070158958E-003;1.831152439990547E-005;
2.417500000000000E+009;1.515581160783768E-001;-7.828322798013687E-002;5.103711038827896E-003;-2.772251609712839E-004;
2.417666666666667E+009;1.511100530624390E-001;-7.994323223829269E-002;5.008501466363668E-003;-5.160155706107616E-004;
2.417833333333334E+009;1.506478190422058E-001;-8.169753104448319E-002;5.071164108812809E-003;-6.050756201148033E-004;
2.418000000000000E+009;1.502245068550110E-001;-8.365976810455322E-002;5.250014364719391E-003;-7.730720681138337E-004;
2.418166666666667E+009;1.498876661062241E-001;-8.515418320894241E-002;5.019208416342735E-003;-1.051559695042670E-003;
2.418333333333334E+009;1.499523520469666E-001;-8.701799064874649E-002;5.087876692414284E-003;-1.151817967183888E-003;
2.418500000000000E+009;1.496220678091049E-001;-8.855722099542618E-002;4.941062536090612E-003;-1.348318299278617E-003;
2.418666666666667E+009;1.495748609304428E-001;-9.018810093402863E-002;5.034615751355887E-003;-1.471203519031405E-003;
2.418833333333334E+009;1.494852304458618E-001;-9.159974008798599E-002;4.775346722453833E-003;-1.799587043933570E-003;
2.419000000000000E+009;1.493815034627914E-001;-9.286136180162430E-002;4.726875573396683E-003;-1.921807765029371E-003;
2.419166666666667E+009;1.494980007410049E-001;-9.407474845647812E-002;4.628054331988096E-003;-1.925086020492017E-003;
2.419333333333334E+009;1.495596170425415E-001;-9.498188644647598E-002;4.505839198827744E-003;-2.212656661868095E-003;
2.419500000000000E+009;1.498038768768311E-001;-9.631702303886414E-002;4.419330507516861E-003;-2.341883722692728E-003;
2.419666666666667E+009;1.500341296195984E-001;-9.714062511920929E-002;4.480350762605667E-003;-2.565059810876846E-003;
2.419833333333334E+009;1.501151770353317E-001;-9.779458492994309E-002;4.268658813089132E-003;-2.416628180071712E-003;
2.420000000000000E+009;1.505479663610458E-001;-9.841546416282654E-002;4.148085135966539E-003;-2.586457412689924E-003;
2.420166666666667E+009;1.507079750299454E-001;-9.926584362983704E-002;3.966018091887236E-003;-2.729345811530948E-003;
2.420333333333334E+009;1.510172337293625E-001;-9.963483363389969E-002;3.933051601052284E-003;-2.777184359729290E-003;
2.420500000000000E+009;1.513398587703705E-001;-9.990081191062927E-002;3.830310655757785E-003;-2.891728654503822E-003;
2.420666666666667E+009;1.514113396406174E-001;-1.001146361231804E-001;3.776952624320984E-003;-2.728543011471629E-003;
2.420833333333334E+009;1.517935246229172E-001;-1.003864035010338E-001;3.931418526917696E-003;-2.842731308192015E-003;
2.421000000000000E+009;1.520358473062515E-001;-1.003722324967384E-001;3.552022855728865E-003;-2.935099415481091E-003;
2.421166666666667E+009;1.521275788545609E-001;-1.004229858517647E-001;3.623625496402383E-003;-3.116573207080364E-003;
2.421333333333334E+009;1.524266302585602E-001;-1.003525182604790E-001;3.562957514077425E-003;-3.126827068626881E-003;
2.421500000000000E+009;1.523146927356720E-001;-1.003817841410637E-001;3.530387766659260E-003;-3.271812340244651E-003;
2.421666666666667E+009;1.523960530757904E-001;-1.001882851123810E-001;3.554150694981217E-003;-3.230291884392500E-003;
2.421833333333334E+009;1.524859815835953E-001;-1.000032126903534E-001;3.528164932504296E-003;-3.319396404549480E-003;
2.422000000000000E+009;1.520792990922928E-001;-9.986662864685059E-002;3.558349097147584E-003;-3.700281726196408E-003;
2.422166666666667E+009;1.518335938453674E-001;-9.981164336204529E-002;3.414558712393045E-003;-3.680410794913769E-003;
2.422333333333334E+009;1.515742540359497E-001;-9.934661537408829E-002;3.456638194620609E-003;-3.818473313003779E-003;
2.422500000000000E+009;1.510704606771469E-001;-9.888514876365662E-002;3.365763230249286E-003;-3.933020867407322E-003;
2.422666666666667E+009;1.505724787712097E-001;-9.881211817264557E-002;3.372432431206107E-003;-4.130290821194649E-003;
2.422833333333334E+009;1.497500985860825E-001;-9.839386492967606E-002;3.388815093785524E-003;-4.239337053149939E-003;
2.423000000000000E+009;1.488912701606751E-001;-9.805435687303543E-002;3.089129924774170E-003;-4.487509839236736E-003;
2.423166666666667E+009;1.481625735759735E-001;-9.776528179645538E-002;3.111286787316203E-003;-4.689113236963749E-003;
2.423333333333334E+009;1.470368951559067E-001;-9.732297062873840E-002;2.847847994416952E-003;-4.782163538038731E-003;
2.423500000000000E+009;1.459654569625855E-001;-9.694635123014450E-002;2.908848924562335E-003;-4.872035700827837E-003;
2.423666666666667E+009;1.448516249656677E-001;-9.671861678361893E-002;2.526303054764867E-003;-5.248970352113247E-003;
2.423833333333334E+009;1.437290459871292E-001;-9.652367234230042E-002;2.493693027645350E-003;-5.419035907834768E-003;
2.424000000000000E+009;1.422906666994095E-001;-9.622216969728470E-002;2.235039370134473E-003;-5.574072245508432E-003;
2.424166666666667E+009;1.410033404827118E-001;-9.603425115346909E-002;2.283523092046380E-003;-5.776697304099798E-003;
2.424333333333334E+009;1.396746933460236E-001;-9.595490992069244E-002;1.885098405182362E-003;-5.952196195721626E-003;
2.424500000000000E+009;1.382387727499008E-001;-9.588126838207245E-002;1.469526323489845E-003;-6.003258749842644E-003;
2.424666666666667E+009;1.369537115097046E-001;-9.592042863368988E-002;1.557853771373630E-003;-6.074905861169100E-003;
2.424833333333334E+009;1.354135870933533E-001;-9.620852023363113E-002;1.121383975259960E-003;-6.167020648717880E-003;
2.425000000000000E+009;1.338706016540527E-001;-9.642876684665680E-002;9.551595430821180E-004;-6.430899258702993E-003;
2.425166666666667E+009;1.323518157005310E-001;-9.690826386213303E-002;7.001301273703575E-004;-6.440927274525166E-003;
2.425333333333334E+009;1.310276687145233E-001;-9.741035848855972E-002;2.438238152535632E-004;-6.422855425626040E-003;
2.425500000000000E+009;1.295884251594544E-001;-9.804176539182663E-002;-1.162526241387241E-004;-6.425550673156977E-003;
2.425666666666667E+009;1.280407458543778E-001;-9.881661087274551E-002;-4.192333144601435E-004;-6.362845655530691E-003;
2.425833333333334E+009;1.266571432352066E-001;-9.970972687005997E-002;-6.839042762294412E-004;-6.324074231088162E-003;
2.426000000000000E+009;1.252269893884659E-001;-1.007070466876030E-001;-9.452485246583819E-004;-6.312284152954817E-003;
2.426166666666667E+009;1.241526752710342E-001;-1.017536893486977E-001;-1.250584609806538E-003;-6.267523393034935E-003;
2.426333333333334E+009;1.226539090275765E-001;-1.030086129903793E-001;-1.549992593936622E-003;-6.093715783208609E-003;
2.426500000000000E+009;1.215936094522476E-001;-1.042064577341080E-001;-1.665119198150933E-003;-5.848925560712814E-003;
2.426666666666667E+009;1.204936802387238E-001;-1.055315434932709E-001;-2.000360749661923E-003;-5.619834642857313E-003;
2.426833333333334E+009;1.192661449313164E-001;-1.071368828415871E-001;-2.077953889966011E-003;-5.522081162780523E-003;
2.427000000000000E+009;1.182711049914360E-001;-1.086486130952835E-001;-2.210775157436729E-003;-5.342154763638973E-003;
2.427166666666667E+009;1.173501163721085E-001;-1.100708097219467E-001;-2.477355999872088E-003;-5.153426434844732E-003;
2.427333333333334E+009;1.163084208965302E-001;-1.117909401655197E-001;-2.658713608980179E-003;-5.048779770731926E-003;
2.427500000000000E+009;1.157173365354538E-001;-1.134221330285072E-001;-2.643536310642958E-003;-4.844202194362879E-003;
2.427666666666667E+009;1.148577407002449E-001;-1.152116060256958E-001;-2.771842526271939E-003;-4.550409968942404E-003;
2.427833333333334E+009;1.142328754067421E-001;-1.167878136038780E-001;-2.611768199130893E-003;-4.733722191303968E-003;
