# Version 1.00
#
freq[Hz];re:Trc1_S11;im:Trc1_S11;re:Trc2_S21;im:Trc2_S21;
2.400000000000000E+009;1.689201742410660E-001;4.582598805427551E-002;-5.684691015630961E-003;-2.672706032171845E-003;
2.400166666666667E+009;1.700548827648163E-001;4.478891938924789E-002;-5.825237371027470E-003;-2.473080996423960E-003;
2.400333333333334E+009;1.708059459924698E-001;4.371892288327217E-002;-6.242989096790552E-003;-2.251044614240527E-003;
2.400500000000000E+009;1.717496067285538E-001;4.269907623529434E-002;-6.347461137920618E-003;-2.030908362939954E-003;
2.400666666666667E+009;1.726883947849274E-001;4.169443994760513E-002;-6.610858254134655E-003;-1.845836639404297E-003;
2.400833333333334E+009;1.735403835773468E-001;4.090998321771622E-002;-6.759014911949635E-003;-1.674430794082582E-003;
2.401000000000000E+009;1.743025630712509E-001;4.023883491754532E-002;-7.027306128293276E-003;-1.412402139976621E-003;
2.401166666666667E+009;1.751905977725983E-001;3.927427902817726E-002;-7.104619406163693E-003;-1.185137196443975E-003;
2.401333333333334E+009;1.759147346019745E-001;3.868924826383591E-002;-7.374045439064503E-003;-9.155067964456976E-004;
2.401500000000000E+009;1.766186654567719E-001;3.800331428647041E-002;-7.510107476264238E-003;-5.459298845380545E-004;
2.401666666666667E+009;1.773544549942017E-001;3.762040659785271E-002;-7.666931021958590E-003;-2.212223334936425E-004;
2.401833333333334E+009;1.777996718883514E-001;3.680340573191643E-002;-7.647261023521423E-003;3.208095440641046E-004;
2.402000000000000E+009;1.782298982143402E-001;3.633491322398186E-002;-7.686364930123091E-003;8.030561730265617E-004;
2.402166666666667E+009;1.786242723464966E-001;3.581798449158669E-002;-7.827404886484146E-003;1.041960320435464E-003;
2.402333333333334E+009;1.789395213127136E-001;3.506484627723694E-002;-7.722423877567053E-003;1.511688693426549E-003;
2.402500000000000E+009;1.795026212930679E-001;3.452278301119804E-002;-7.670055143535137E-003;1.714145415462554E-003;
2.402666666666667E+009;1.796444207429886E-001;3.406356647610664E-002;-7.659852970391512E-003;2.365208929404616E-003;
2.402833333333334E+009;1.796899288892746E-001;3.338712081313133E-002;-7.501797284930944E-003;2.778154099360108E-003;
2.403000000000000E+009;1.797128766775131E-001;3.268695250153542E-002;-7.390503305941820E-003;3.079222748056054E-003;
2.403166666666667E+009;1.797398477792740E-001;3.176496177911758E-002;-7.164585869759321E-003;3.381644608452916E-003;
2.403333333333334E+009;1.795955896377564E-001;3.099827840924263E-002;-7.005168590694666E-003;3.864413127303124E-003;
2.403500000000000E+009;1.794997602701187E-001;3.009861893951893E-002;-6.766798440366983E-003;4.009849391877651E-003;
2.403666666666667E+009;1.792260110378265E-001;2.917277067899704E-002;-6.551759783178568E-003;4.480421077460051E-003;
2.403833333333334E+009;1.790465712547302E-001;2.783989161252976E-002;-6.194352637976408E-003;4.778123460710049E-003;
2.404000000000000E+009;1.786610335111618E-001;2.713229507207871E-002;-6.052749231457710E-003;4.975723568350077E-003;
2.404166666666667E+009;1.783890575170517E-001;2.572964318096638E-002;-5.647831130772829E-003;5.349928513169289E-003;
2.404333333333334E+009;1.778716593980789E-001;2.468722499907017E-002;-5.477908533066511E-003;5.523678846657276E-003;
2.404500000000000E+009;1.772248893976212E-001;2.329540811479092E-002;-5.143956281244755E-003;5.590725224465132E-003;
2.404666666666667E+009;1.768698692321777E-001;2.202349528670311E-002;-4.820435307919979E-003;5.934107583016157E-003;
2.404833333333334E+009;1.764277517795563E-001;2.055049687623978E-002;-4.514993634074926E-003;6.109624169766903E-003;
2.405000000000000E+009;1.757761687040329E-001;1.903763599693775E-002;-4.312389995902777E-003;6.153417751193047E-003;
2.405166666666667E+009;1.754222959280014E-001;1.740070991218090E-002;-3.918012138456106E-003;6.171438843011856E-003;
2.405333333333334E+009;1.750819981098175E-001;1.573015935719013E-002;-3.631995758041740E-003;6.351666059345007E-003;
2.405500000000000E+009;1.745696365833283E-001;1.425002235919237E-002;-3.373222658410668E-003;6.378385238349438E-003;
2.405666666666667E+009;1.741269081830978E-001;1.256717182695866E-002;-3.046747995540500E-003;6.395857781171799E-003;
2.405833333333334E+009;1.737637668848038E-001;1.082038134336472E-002;-2.842668676748872E-003;6.329349707812071E-003;
2.406000000000000E+009;1.735075712203980E-001;8.754841983318329E-003;-2.596272854134440E-003;6.381816696375608E-003;
2.406166666666667E+009;1.731513589620590E-001;7.024250924587250E-003;-2.304851775988936E-003;6.366729736328125E-003;
2.406333333333334E+009;1.731150001287460E-001;5.116263404488564E-003;-2.081937622278929E-003;6.357092875987291E-003;
2.406500000000000E+009;1.727272570133209E-001;2.608042443171144E-003;-1.892922329716384E-003;6.755843758583069E-003;
2.406666666666667E+009;1.727694720029831E-001;1.731679425574839E-003;-1.492768991738558E-003;6.267805583775044E-003;
2.406833333333334E+009;1.726581454277039E-001;-1.490289927460253E-003;-1.413248828612268E-003;6.677534896880388E-003;
2.407000000000000E+009;1.731669008731842E-001;-3.660407150164247E-003;-1.394759048707783E-003;6.782262120395899E-003;
2.407166666666667E+009;1.733287572860718E-001;-5.639562848955393E-003;-1.224833773449063E-003;6.804178468883038E-003;
2.407333333333334E+009;1.729975193738937E-001;-7.669058162719011E-003;-8.383224485442042E-004;6.718457676470280E-003;
2.407500000000000E+009;1.730431765317917E-001;-9.345483966171742E-003;-9.511708776699379E-005;6.493826862424612E-003;
2.407666666666667E+009;1.741509288549423E-001;-1.214088313281536E-002;-5.114444065839052E-004;6.712988484650850E-003;
2.407833333333334E+009;1.740265935659409E-001;-1.304793730378151E-002;2.562668814789504E-004;5.979957990348339E-003;
2.408000000000000E+009;1.742285192012787E-001;-1.628995314240456E-002;3.378599940333515E-004;6.668558809906244E-003;
2.408166666666667E+009;1.746722012758255E-001;-1.750446856021881E-002;7.346632191911340E-004;6.159988697618246E-003;
2.408333333333334E+009;1.753331869840622E-001;-1.964580453932285E-002;8.238541777245700E-004;5.946625024080277E-003;
2.408500000000000E+009;1.748804450035095E-001;-2.150257490575314E-002;1.455097924917936E-003;6.057290825992823E-003;
2.408666666666667E+009;1.758438199758530E-001;-2.331122942268848E-002;1.317410031333566E-003;5.901707336306572E-003;
2.408833333333334E+009;1.761983036994934E-001;-2.573315054178238E-002;1.448684604838491E-003;6.044608540832996E-003;
2.409000000000000E+009;1.764903217554092E-001;-2.713567391037941E-002;1.592181506566703E-003;5.716606508940458E-003;
2.409166666666667E+009;1.765685379505158E-001;-2.870139107108116E-002;2.003657398745418E-003;5.743130110204220E-003;
2.409333333333334E+009;1.775682717561722E-001;-2.982204034924507E-002;2.040330320596695E-003;5.241724662482739E-003;
2.409500000000000E+009;1.778063178062439E-001;-3.169766440987587E-002;1.996548846364021E-003;5.471969489008188E-003;
2.409666666666667E+009;1.782783567905426E-001;-3.270980343222618E-002;2.154038520529866E-003;5.185926333069801E-003;
2.409833333333334E+009;1.787327527999878E-001;-3.379651531577110E-002;2.254443243145943E-003;5.266154184937477E-003;
2.410000000000000E+009;1.792323738336563E-001;-3.474813699722290E-002;2.408470027148724E-003;5.057531874626875E-003;
2.410166666666667E+009;1.797319948673248E-001;-3.566689789295197E-002;2.599227940663695E-003;4.858177620917559E-003;
2.410333333333334E+009;1.799766123294830E-001;-3.654077276587486E-002;2.702214289456606E-003;4.929446615278721E-003;
2.410500000000000E+009;1.803532987833023E-001;-3.737286105751991E-002;2.937175333499908E-003;4.654137883335352E-003;
2.410666666666667E+009;1.807712465524674E-001;-3.803151845932007E-002;2.996110124513507E-003;4.679234698414803E-003;
2.410833333333334E+009;1.812046319246292E-001;-3.884911909699440E-002;3.212537383660674E-003;4.432168323546648E-003;
2.411000000000000E+009;1.815013289451599E-001;-3.929954394698143E-002;3.400186309590936E-003;4.391723312437534E-003;
2.411166666666667E+009;1.815969198942184E-001;-4.006908833980560E-002;3.254554932937026E-003;4.122606944292784E-003;
2.411333333333334E+009;1.817855536937714E-001;-4.036503657698631E-002;3.403819398954511E-003;3.911020234227181E-003;
2.411500000000000E+009;1.817059814929962E-001;-4.090408235788345E-002;3.560702782124281E-003;3.845038358122110E-003;
2.411666666666667E+009;1.819188594818115E-001;-4.129750281572342E-002;3.647217294201255E-003;3.698504064232111E-003;
2.411833333333334E+009;1.819370836019516E-001;-4.171928018331528E-002;3.697384381666780E-003;3.517448669299483E-003;
2.412000000000000E+009;1.816481351852417E-001;-4.198297858238220E-002;3.717503510415554E-003;3.326763398945332E-003;
2.412166666666667E+009;1.811668425798416E-001;-4.242134094238281E-002;3.664537565782666E-003;3.281857585534453E-003;
2.412333333333334E+009;1.810963749885559E-001;-4.264067858457565E-002;3.752422286197543E-003;3.156744176521897E-003;
2.412500000000000E+009;1.805037111043930E-001;-4.313306137919426E-002;3.826835658401251E-003;3.086207900196314E-003;
2.412666666666667E+009;1.799869686365128E-001;-4.355946183204651E-002;3.797645913437009E-003;2.921251114457846E-003;
2.412833333333334E+009;1.793895363807678E-001;-4.379456862807274E-002;3.720712615177035E-003;2.929437207058072E-003;
2.413000000000000E+009;1.786268800497055E-001;-4.409016296267510E-002;3.915222827345133E-003;2.721603261306882E-003;
2.413166666666667E+009;1.777326911687851E-001;-4.446057602763176E-002;3.859540913254023E-003;2.599742030724883E-003;
2.413333333333334E+009;1.768612116575241E-001;-4.510247334837914E-002;4.070943221449852E-003;2.518964931368828E-003;
2.413500000000000E+009;1.759214401245117E-001;-4.547016695141792E-002;4.062713123857975E-003;2.492328174412251E-003;
2.413666666666667E+009;1.748858243227005E-001;-4.601569473743439E-002;4.148071631789208E-003;2.272629179060459E-003;
2.413833333333334E+009;1.737135797739029E-001;-4.660817980766296E-002;4.059239290654659E-003;2.364605665206909E-003;
2.414000000000000E+009;1.724926233291626E-001;-4.721371456980705E-002;4.150774329900742E-003;2.202785108238459E-003;
2.414166666666667E+009;1.715476363897324E-001;-4.786434397101402E-002;4.137696698307991E-003;2.175459871068597E-003;
2.414333333333334E+009;1.703737229108810E-001;-4.881412163376808E-002;4.266869276762009E-003;2.105099149048328E-003;
2.414500000000000E+009;1.692730486392975E-001;-4.965677857398987E-002;4.320143721997738E-003;2.001573797315359E-003;
2.414666666666667E+009;1.680195182561874E-001;-5.056456848978996E-002;4.297495819628239E-003;1.922995317727327E-003;
2.414833333333334E+009;1.669113636016846E-001;-5.156107619404793E-002;4.486811347305775E-003;1.846894039772451E-003;
2.415000000000000E+009;1.656792610883713E-001;-5.267728492617607E-002;4.400118254125118E-003;1.745103974826634E-003;
2.415166666666667E+009;1.643375754356384E-001;-5.392808467149735E-002;4.504990763962269E-003;1.706613926216960E-003;
2.415333333333334E+009;1.633080244064331E-001;-5.541445314884186E-002;4.640600644052029E-003;1.457183505408466E-003;
2.415500000000000E+009;1.622094511985779E-001;-5.670324340462685E-002;4.525077994912863E-003;1.611517975106835E-003;
2.415666666666667E+009;1.609868109226227E-001;-5.809115618467331E-002;4.737787880003452E-003;1.304423087276518E-003;
2.415833333333334E+009;1.598978042602539E-001;-5.963324010372162E-002;4.809219390153885E-003;1.158671220764518E-003;
2.416000000000000E+009;1.587447822093964E-001;-6.142922863364220E-002;4.731209482997656E-003;1.203899737447500E-003;
2.416166666666667E+009;1.579486727714539E-001;-6.308054178953171E-002;4.916003905236721E-003;1.044678152538836E-003;
2.416333333333334E+009;1.567697823047638E-001;-6.482368707656860E-002;4.776261746883392E-003;8.312548743560910E-004;
2.416500000000000E+009;1.558871418237686E-001;-6.656128168106079E-002;4.944186657667160E-003;7.622713455930352E-004;
2.416666666666667E+009;1.549230664968491E-001;-6.848730891942978E-002;4.982148762792349E-003;3.997712337877601E-004;
2.416833333333334E+009;1.542777568101883E-001;-7.050820440053940E-002;5.001814104616642E-003;4.052951990161091E-004;
2.417000000000000E+009;1.532318294048309E-001;-7.243540138006210E-002;5.065162200480700E-003;3.321997937746346E-004;
2.417166666666667E+009;1.525686234235764E-001;-7.422235608100891E-002;5.186690948903561E-003;2.127219922840595E-004;
2.417333333333334E+009;1.519773900508881E-001;-7.603487372398377E-002;5.027505569159985E-003;-1.827680680435151E-004;
2.417500000000000E+009;1.513641923666000E-001;-7.823854684829712E-002;5.140389781445265E-003;-2.169061772292480E-004;
2.417666666666667E+009;1.509027332067490E-001;-7.989469915628433E-002;5.069898441433907E-003;-5.387976416386664E-004;
2.417833333333334E+009;1.505160629749298E-001;-8.162109553813934E-002;5.110964179039002E-003;-5.257935263216496E-004;
2.418000000000000E+009;1.500658541917801E-001;-8.357431739568710E-002;5.014236550778151E-003;-6.535852444358170E-004;
2.418166666666667E+009;1.497119367122650E-001;-8.510281145572662E-002;4.999025259166956E-003;-9.629284613765776E-004;
2.418333333333334E+009;1.497071534395218E-001;-8.690347522497177E-002;5.080822855234146E-003;-1.022852025926113E-003;
2.418500000000000E+009;1.494987010955811E-001;-8.836324512958527E-002;4.930536728352308E-003;-1.365592237561941E-003;
2.418666666666667E+009;1.495146900415421E-001;-8.993233740329742E-002;4.927175119519234E-003;-1.556671806611121E-003;
2.418833333333334E+009;1.492567658424377E-001;-9.135907888412476E-002;4.889409523457289E-003;-1.587081467732787E-003;
2.419000000000000E+009;1.492607891559601E-001;-9.268108755350113E-002;4.721119999885559E-003;-1.865453203208745E-003;
2.419166666666667E+009;1.493549644947052E-001;-9.402424842119217E-002;4.829993937164545E-003;-1.976762898266316E-003;
2.419333333333334E+009;1.494115591049194E-001;-9.487380087375641E-002;4.684360232204199E-003;-2.289107767865062E-003;
2.419500000000000E+009;1.496429294347763E-001;-9.614315629005432E-002;4.428199958056212E-003;-2.342689083889127E-003;
2.419666666666667E+009;1.498549431562424E-001;-9.696329385042191E-002;4.564859904348850E-003;-2.542414469644427E-003;
2.419833333333334E+009;1.500684022903442E-001;-9.765996783971787E-002;4.318922758102417E-003;-2.645545871928334E-003;
2.420000000000000E+009;1.504615694284439E-001;-9.837976843118668E-002;4.174854606389999E-003;-2.682058839127421E-003;
2.420166666666667E+009;1.507125943899155E-001;-9.890773892402649E-002;4.137973766773939E-003;-2.786626573652029E-003;
2.420333333333334E+009;1.508804559707642E-001;-9.937983006238937E-002;4.027023911476135E-003;-2.824730938300490E-003;
2.420500000000000E+009;1.513063162565231E-001;-9.975148737430573E-002;3.925372380763292E-003;-2.819887129589915E-003;
2.420666666666667E+009;1.514467298984528E-001;-9.992959350347519E-002;3.705715760588646E-003;-2.942205639556050E-003;
2.420833333333334E+009;1.518608033657074E-001;-1.000708863139153E-001;3.765991888940334E-003;-3.086558543145657E-003;
2.421000000000000E+009;1.519634872674942E-001;-1.002387776970863E-001;3.690548241138458E-003;-3.059739479795098E-003;
2.421166666666667E+009;1.521380096673966E-001;-1.002909541130066E-001;3.532493487000465E-003;-3.197803860530257E-003;
2.421333333333334E+009;1.524616777896881E-001;-1.002246066927910E-001;3.557454096153379E-003;-3.339677350595594E-003;
2.421500000000000E+009;1.525176018476486E-001;-1.001305207610130E-001;3.482011845335364E-003;-3.255037823691964E-003;
2.421666666666667E+009;1.525729149580002E-001;-9.994497150182724E-002;3.592849709093571E-003;-3.313663881272078E-003;
2.421833333333334E+009;1.524751037359238E-001;-9.976480901241303E-002;3.410308854654431E-003;-3.499602666124702E-003;
2.422000000000000E+009;1.523583233356476E-001;-9.971253573894501E-002;3.548831911757588E-003;-3.701118752360344E-003;
2.422166666666667E+009;1.519136428833008E-001;-9.952906519174576E-002;3.387219039723277E-003;-3.674486652016640E-003;
2.422333333333334E+009;1.517436206340790E-001;-9.919358789920807E-002;3.291945438832045E-003;-3.766276873648167E-003;
2.422500000000000E+009;1.511385887861252E-001;-9.875730425119400E-002;3.217018907889724E-003;-3.854784183204174E-003;
2.422666666666667E+009;1.506615579128265E-001;-9.850987046957016E-002;3.357951063662767E-003;-3.993732389062643E-003;
2.422833333333334E+009;1.499080657958984E-001;-9.840764105319977E-002;3.222272964194417E-003;-4.214382264763117E-003;
2.423000000000000E+009;1.490213721990585E-001;-9.796439111232758E-002;3.114315681159496E-003;-4.491946659982204E-003;
2.423166666666667E+009;1.483159214258194E-001;-9.779091179370880E-002;3.093993291258812E-003;-4.589470569044352E-003;
2.423333333333334E+009;1.474117785692215E-001;-9.720753878355026E-002;2.824747702106834E-003;-4.771284759044647E-003;
2.423500000000000E+009;1.462420374155045E-001;-9.687700122594833E-002;2.853731624782085E-003;-5.008874926716089E-003;
2.423666666666667E+009;1.449201852083206E-001;-9.662483632564545E-002;2.662966027855873E-003;-5.158858373761177E-003;
2.423833333333334E+009;1.438373923301697E-001;-9.649873524904251E-002;2.627725712954998E-003;-5.266972351819277E-003;
2.424000000000000E+009;1.425231844186783E-001;-9.603346884250641E-002;2.428158419206739E-003;-5.520355887711048E-003;
2.424166666666667E+009;1.411347538232803E-001;-9.604590386152268E-002;2.234238898381591E-003;-5.565654952079058E-003;
2.424333333333334E+009;1.398556083440781E-001;-9.583957493305206E-002;1.963120186701417E-003;-5.920358002185822E-003;
2.424500000000000E+009;1.384614109992981E-001;-9.590964764356613E-002;1.585402060300112E-003;-6.047786213457584E-003;
2.424666666666667E+009;1.371622383594513E-001;-9.596967697143555E-002;1.406142720952630E-003;-6.007038522511721E-003;
2.424833333333334E+009;1.355941891670227E-001;-9.604702889919281E-002;1.128520118072629E-003;-6.193705368787050E-003;
2.425000000000000E+009;1.341556310653687E-001;-9.654119610786438E-002;8.052111370489001E-004;-6.311324890702963E-003;
2.425166666666667E+009;1.324175894260407E-001;-9.692312031984329E-002;6.760185351595283E-004;-6.291993428021669E-003;
2.425333333333334E+009;1.311719268560410E-001;-9.729217737913132E-002;2.400279336143285E-004;-6.420742254704237E-003;
2.425500000000000E+009;1.298232376575470E-001;-9.797313064336777E-002;2.321683678019326E-005;-6.531468592584133E-003;
2.425666666666667E+009;1.283413618803024E-001;-9.884583204984665E-002;-2.915362420026213E-004;-6.415778305381537E-003;
2.425833333333334E+009;1.268449276685715E-001;-9.972780197858810E-002;-5.153368692845106E-004;-6.344647612422705E-003;
2.426000000000000E+009;1.254572868347168E-001;-1.007288023829460E-001;-8.466489962302148E-004;-6.199193652719259E-003;
2.426166666666667E+009;1.243191137909889E-001;-1.019578129053116E-001;-1.256528543308377E-003;-6.144782528281212E-003;
2.426333333333334E+009;1.228908300399780E-001;-1.030387431383133E-001;-1.515730167739093E-003;-5.993500817567110E-003;
2.426500000000000E+009;1.216185018420219E-001;-1.043078154325485E-001;-1.700697233900428E-003;-5.871167406439781E-003;
2.426666666666667E+009;1.205909326672554E-001;-1.055597364902496E-001;-2.007514936849475E-003;-5.617978982627392E-003;
2.426833333333334E+009;1.195495426654816E-001;-1.072009205818176E-001;-2.079293597489595E-003;-5.344309844076634E-003;
2.427000000000000E+009;1.184628680348396E-001;-1.087831184267998E-001;-2.324657747521997E-003;-5.281695630401373E-003;
2.427166666666667E+009;1.173887327313423E-001;-1.102512851357460E-001;-2.548842458054423E-003;-5.020322278141975E-003;
2.427333333333334E+009;1.164808869361877E-001;-1.119419410824776E-001;-2.603519707918167E-003;-4.961227998137474E-003;
2.427500000000000E+009;1.157163977622986E-001;-1.135414838790894E-001;-2.696422394365072E-003;-4.876710008829832E-003;
2.427666666666667E+009;1.149870529770851E-001;-1.152582019567490E-001;-2.724863123148680E-003;-4.616172984242439E-003;
2.427833333333334E+009;1.142094060778618E-001;-1.169995218515396E-001;-2.868241630494595E-003;-4.585992079228163E-003;
