# Version 1.00
#
freq[Hz];re:Trc1_S11;im:Trc1_S11;re:Trc2_S21;im:Trc2_S21;
2.400000000000000E+009;1.689605265855789E-001;4.572978615760803E-002;-6.257695611566305E-003;-3.021416952833533E-003;
2.400166666666667E+009;1.698438376188278E-001;4.482946544885635E-002;-6.346398033201695E-003;-2.708554267883301E-003;
2.400333333333334E+009;1.708726435899735E-001;4.376597702503204E-002;-6.727343425154686E-003;-2.652666764333844E-003;
2.400500000000000E+009;1.719070374965668E-001;4.276980087161064E-002;-6.920605432242155E-003;-2.362576313316822E-003;
2.400666666666667E+009;1.726513952016830E-001;4.153604432940483E-002;-7.110979873687029E-003;-2.304273424670100E-003;
2.400833333333334E+009;1.736653000116348E-001;4.085959121584892E-002;-7.322898134589195E-003;-1.921780989505351E-003;
2.401000000000000E+009;1.743402332067490E-001;4.005742073059082E-002;-7.522832602262497E-003;-1.589528401382268E-003;
2.401166666666667E+009;1.751595139503479E-001;3.936884924769402E-002;-7.622089702636004E-003;-1.254090340808034E-003;
2.401333333333334E+009;1.757885813713074E-001;3.887748345732689E-002;-7.956136949360371E-003;-8.983051520772278E-004;
2.401500000000000E+009;1.766145527362824E-001;3.797155618667603E-002;-7.895190268754959E-003;-5.331446882337332E-004;
2.401666666666667E+009;1.770410835742950E-001;3.742530196905136E-002;-8.290846832096577E-003;-1.316416455665603E-004;
2.401833333333334E+009;1.775996536016464E-001;3.679784014821053E-002;-8.319607004523277E-003;1.853048888733611E-004;
2.402000000000000E+009;1.780861467123032E-001;3.620764613151550E-002;-8.348656818270683E-003;8.750518900342286E-004;
2.402166666666667E+009;1.784900873899460E-001;3.569012135267258E-002;-8.393360301852226E-003;1.068267738446593E-003;
2.402333333333334E+009;1.790475249290466E-001;3.503926843404770E-002;-8.326009847223759E-003;1.647139899432659E-003;
2.402500000000000E+009;1.794284433126450E-001;3.435086086392403E-002;-8.297679945826531E-003;2.019511768594384E-003;
2.402666666666667E+009;1.793745905160904E-001;3.391032293438911E-002;-8.203209377825260E-003;2.606535330414772E-003;
2.402833333333334E+009;1.796891093254089E-001;3.313390165567398E-002;-8.117766119539738E-003;2.807546406984329E-003;
2.403000000000000E+009;1.796074509620667E-001;3.258639946579933E-002;-7.917826995253563E-003;3.213456599041820E-003;
2.403166666666667E+009;1.796486228704453E-001;3.175329044461250E-002;-7.661126554012299E-003;3.661061637103558E-003;
2.403333333333334E+009;1.796539276838303E-001;3.108679875731468E-002;-7.473385892808437E-003;3.989239223301411E-003;
2.403500000000000E+009;1.794608384370804E-001;2.994937077164650E-002;-7.306865416467190E-003;4.521348048001528E-003;
2.403666666666667E+009;1.791103631258011E-001;2.899761311709881E-002;-6.894268095493317E-003;4.769556224346161E-003;
2.403833333333334E+009;1.789752393960953E-001;2.803584374487400E-002;-6.759352050721645E-003;5.017782561480999E-003;
2.404000000000000E+009;1.785477846860886E-001;2.709018997848034E-002;-6.323766894638538E-003;5.337520968168974E-003;
2.404166666666667E+009;1.779893189668655E-001;2.567084692418575E-002;-6.075665354728699E-003;5.639196373522282E-003;
2.404333333333334E+009;1.776711046695709E-001;2.471017092466354E-002;-5.767614115029573E-003;5.825477652251720E-003;
2.404500000000000E+009;1.772634387016296E-001;2.331392094492912E-002;-5.349588114768267E-003;6.138131953775883E-003;
2.404666666666667E+009;1.768439561128616E-001;2.219798602163792E-002;-5.200689658522606E-003;6.362930405884981E-003;
2.404833333333334E+009;1.763166636228561E-001;2.063986845314503E-002;-4.739223048090935E-003;6.488493178039789E-003;
2.405000000000000E+009;1.758554130792618E-001;1.911700330674648E-002;-4.560433328151703E-003;6.507008336484432E-003;
2.405166666666667E+009;1.753258556127548E-001;1.752184703946114E-002;-4.335589241236448E-003;6.589823402464390E-003;
2.405333333333334E+009;1.748499423265457E-001;1.584947854280472E-002;-3.760285442695022E-003;6.731639150530100E-003;
2.405500000000000E+009;1.743095666170120E-001;1.435885485261679E-002;-3.561893245205283E-003;6.898696534335613E-003;
2.405666666666667E+009;1.742263734340668E-001;1.253332011401653E-002;-3.105290234088898E-003;6.954933516681194E-003;
2.405833333333334E+009;1.735724508762360E-001;1.083184033632278E-002;-2.883469918742776E-003;6.870893761515617E-003;
2.406000000000000E+009;1.735753566026688E-001;8.910288102924824E-003;-2.459154464304447E-003;6.882411893457174E-003;
2.406166666666667E+009;1.730990856885910E-001;7.187319919466972E-003;-2.297932747751474E-003;6.941877771168947E-003;
2.406333333333334E+009;1.730513572692871E-001;5.178293213248253E-003;-2.070599701255560E-003;7.008886896073818E-003;
2.406500000000000E+009;1.728816181421280E-001;3.050261875614524E-003;-1.908767852000892E-003;6.938375998288393E-003;
2.406666666666667E+009;1.725813150405884E-001;1.095463871024549E-003;-1.463384716771543E-003;6.943658925592899E-003;
2.406833333333334E+009;1.727454364299774E-001;-9.724343544803560E-004;-1.232402632012963E-003;6.978577002882958E-003;
2.407000000000000E+009;1.727475821971893E-001;-2.947708591818810E-003;-8.859373047016561E-004;6.902412977069616E-003;
2.407166666666667E+009;1.729665249586105E-001;-5.005053244531155E-003;-6.171332206577063E-004;6.802043877542019E-003;
2.407333333333334E+009;1.730324774980545E-001;-7.321040146052837E-003;-3.886059275828302E-004;6.763416342437267E-003;
2.407500000000000E+009;1.733392626047134E-001;-9.314018301665783E-003;-1.604018616490066E-004;6.761461962014437E-003;
2.407666666666667E+009;1.736627370119095E-001;-1.131612621247768E-002;3.884017496602610E-005;6.644926033914089E-003;
2.407833333333334E+009;1.738615632057190E-001;-1.349083706736565E-002;1.936720946105197E-004;6.644853390753269E-003;
2.408000000000000E+009;1.742886006832123E-001;-1.574534736573696E-002;4.971727612428367E-004;6.626367103308439E-003;
2.408166666666667E+009;1.746015846729279E-001;-1.755175180733204E-002;8.050017058849335E-004;6.354167591780424E-003;
2.408333333333334E+009;1.752331107854843E-001;-1.963623799383640E-002;1.132383244112134E-003;6.394607014954090E-003;
2.408500000000000E+009;1.755976527929306E-001;-2.170531265437603E-002;1.258025644347072E-003;6.282934918999672E-003;
2.408666666666667E+009;1.758143007755280E-001;-2.354810200631619E-002;1.363831805065274E-003;6.129539571702480E-003;
2.408833333333334E+009;1.761588901281357E-001;-2.531801350414753E-002;1.669657183811069E-003;5.987457465380430E-003;
2.409000000000000E+009;1.765766739845276E-001;-2.689572982490063E-002;1.611122395843267E-003;5.848193541169167E-003;
2.409166666666667E+009;1.771614849567413E-001;-2.854115143418312E-002;1.820063102059066E-003;5.696590058505535E-003;
2.409333333333334E+009;1.775570362806320E-001;-3.005165047943592E-002;2.048235852271318E-003;5.668408703058958E-003;
2.409500000000000E+009;1.778792589902878E-001;-3.131505474448204E-002;2.283335197716951E-003;5.388041958212853E-003;
2.409666666666667E+009;1.782059073448181E-001;-3.263459354639053E-002;2.436968963593245E-003;5.483661778271198E-003;
2.409833333333334E+009;1.787535548210144E-001;-3.359385579824448E-002;2.526199212297797E-003;5.257762037217617E-003;
2.410000000000000E+009;1.792933642864227E-001;-3.461491316556931E-002;2.654839772731066E-003;5.174353718757629E-003;
2.410166666666667E+009;1.798605024814606E-001;-3.550141677260399E-002;2.825167728587985E-003;4.896773491054773E-003;
2.410333333333334E+009;1.801531165838242E-001;-3.637155890464783E-002;2.960050012916327E-003;4.828570410609245E-003;
2.410500000000000E+009;1.807538717985153E-001;-3.714888915419579E-002;3.108482575044036E-003;4.783613607287407E-003;
2.410666666666667E+009;1.810480058193207E-001;-3.804372996091843E-002;3.272488946095109E-003;4.508417099714279E-003;
2.410833333333334E+009;1.813197135925293E-001;-3.857786953449249E-002;3.323374083265662E-003;4.473368171602488E-003;
2.411000000000000E+009;1.816658675670624E-001;-3.913623467087746E-002;3.359554102644324E-003;4.369286820292473E-003;
2.411166666666667E+009;1.819562613964081E-001;-4.000158980488777E-002;3.576465882360935E-003;4.027822054922581E-003;
2.411333333333334E+009;1.820420175790787E-001;-4.041527956724167E-002;3.552544163540006E-003;4.059703089296818E-003;
2.411500000000000E+009;1.821274012327194E-001;-4.083534702658653E-002;3.492011455819011E-003;3.969404380768538E-003;
2.411666666666667E+009;1.821771711111069E-001;-4.128574952483177E-002;3.843417624011636E-003;3.682167036458850E-003;
2.411833333333334E+009;1.821360290050507E-001;-4.163634032011032E-002;3.944062162190676E-003;3.492378862574697E-003;
2.412000000000000E+009;1.819152981042862E-001;-4.229089245200157E-002;3.941358532756567E-003;3.318785689771175E-003;
2.412166666666667E+009;1.814459860324860E-001;-4.248638823628426E-002;3.884519683197141E-003;3.193117212504149E-003;
2.412333333333334E+009;1.813018769025803E-001;-4.267804697155953E-002;3.933003637939692E-003;3.167339833453298E-003;
2.412500000000000E+009;1.807718425989151E-001;-4.313825815916061E-002;4.138821735978127E-003;3.182063810527325E-003;
2.412666666666667E+009;1.802906543016434E-001;-4.365460947155953E-002;4.007841926068068E-003;2.896282821893692E-003;
2.412833333333334E+009;1.796029508113861E-001;-4.396370053291321E-002;4.050270654261112E-003;2.828088123351336E-003;
2.413000000000000E+009;1.788910031318665E-001;-4.425897076725960E-002;4.125129897147417E-003;2.596646547317505E-003;
2.413166666666667E+009;1.778742372989655E-001;-4.466420039534569E-002;4.057047888636589E-003;2.437270944938064E-003;
2.413333333333334E+009;1.769156306982040E-001;-4.512631148099899E-002;4.127762746065855E-003;2.565028378739953E-003;
2.413500000000000E+009;1.760649532079697E-001;-4.566018655896187E-002;4.104924388229847E-003;2.331580966711044E-003;
2.413666666666667E+009;1.750491857528687E-001;-4.632596299052239E-002;4.078058060258627E-003;2.375647891312838E-003;
2.413833333333334E+009;1.739133894443512E-001;-4.675712808966637E-002;4.254638217389584E-003;2.176912035793066E-003;
2.414000000000000E+009;1.727144271135330E-001;-4.731804132461548E-002;4.199184942990542E-003;2.092617331072688E-003;
2.414166666666667E+009;1.716531217098236E-001;-4.817339032888413E-002;4.268248565495014E-003;1.848381711170077E-003;
2.414333333333334E+009;1.703659892082214E-001;-4.883872717618942E-002;4.190041683614254E-003;1.960527151823044E-003;
2.414500000000000E+009;1.694086939096451E-001;-4.965520650148392E-002;4.280080087482929E-003;1.822026097215712E-003;
2.414666666666667E+009;1.681747734546661E-001;-5.063902214169502E-002;4.262597300112248E-003;1.653882092796266E-003;
2.414833333333334E+009;1.667648553848267E-001;-5.175302177667618E-002;4.471699241548777E-003;1.552886213175952E-003;
2.415000000000000E+009;1.656050384044647E-001;-5.286094546318054E-002;4.283882211893797E-003;1.605904661118984E-003;
2.415166666666667E+009;1.644120812416077E-001;-5.398724228143692E-002;4.340731073170900E-003;1.444659428671002E-003;
2.415333333333334E+009;1.632921248674393E-001;-5.540575832128525E-002;4.446375649422407E-003;1.338573638349772E-003;
2.415500000000000E+009;1.622292846441269E-001;-5.678921192884445E-002;4.597730468958616E-003;1.325008808635175E-003;
2.415666666666667E+009;1.609644144773483E-001;-5.833035334944725E-002;4.583635367453098E-003;1.138778752647340E-003;
2.415833333333334E+009;1.599468737840653E-001;-5.992640554904938E-002;4.619130399078131E-003;1.093081431463361E-003;
2.416000000000000E+009;1.586875319480896E-001;-6.143565103411675E-002;4.724449012428522E-003;9.207781986333430E-004;
2.416166666666667E+009;1.579829454421997E-001;-6.318438798189163E-002;4.659619648009539E-003;8.301053894683719E-004;
2.416333333333334E+009;1.569006741046906E-001;-6.503334641456604E-002;4.778487607836723E-003;6.392959039658308E-004;
2.416500000000000E+009;1.559768021106720E-001;-6.688861548900604E-002;4.886363167315722E-003;6.293082260526717E-004;
2.416666666666667E+009;1.549735218286514E-001;-6.858567893505096E-002;4.907802678644657E-003;3.238112258259207E-004;
2.416833333333334E+009;1.542852073907852E-001;-7.072034478187561E-002;5.121838767081499E-003;3.119192551821470E-004;
2.417000000000000E+009;1.531709432601929E-001;-7.256875932216644E-002;5.035927519202232E-003;1.516259799245745E-004;
2.417166666666667E+009;1.526337713003159E-001;-7.434307038784027E-002;4.973626229912043E-003;2.470828121658997E-006;
2.417333333333334E+009;1.518384367227554E-001;-7.626149803400040E-002;5.021652672439814E-003;-1.218225406773854E-005;
2.417500000000000E+009;1.512489020824432E-001;-7.835992425680161E-002;5.068581551313400E-003;-1.802114566089585E-004;
2.417666666666667E+009;1.509541124105454E-001;-8.004267513751984E-002;5.181608721613884E-003;-3.871850494761020E-004;
2.417833333333334E+009;1.504143923521042E-001;-8.185043931007385E-002;5.151823163032532E-003;-5.630579544231296E-004;
2.418000000000000E+009;1.499670296907425E-001;-8.372411131858826E-002;5.095024593174458E-003;-8.128349436447024E-004;
2.418166666666667E+009;1.496563702821732E-001;-8.532114326953888E-002;4.978192970156670E-003;-8.913077763281763E-004;
2.418333333333334E+009;1.497127264738083E-001;-8.700524270534515E-002;4.989524371922016E-003;-1.166181755252183E-003;
2.418500000000000E+009;1.493855714797974E-001;-8.850605040788651E-002;4.885969217866659E-003;-1.447409740649164E-003;
2.418666666666667E+009;1.493498831987381E-001;-9.018167853355408E-002;4.825597163289785E-003;-1.387949334457517E-003;
2.418833333333334E+009;1.491529047489166E-001;-9.165108948945999E-002;4.903625696897507E-003;-1.633008127100766E-003;
2.419000000000000E+009;1.491335928440094E-001;-9.288921207189560E-002;4.735514521598816E-003;-1.889603096060455E-003;
2.419166666666667E+009;1.492211818695068E-001;-9.412599354982376E-002;4.771811421960592E-003;-2.105560619384050E-003;
2.419333333333334E+009;1.491493135690689E-001;-9.502398222684860E-002;4.519931040704250E-003;-2.192597137764096E-003;
2.419500000000000E+009;1.493148356676102E-001;-9.627906978130341E-002;4.513669759035111E-003;-2.433876506984234E-003;
2.419666666666667E+009;1.497540473937988E-001;-9.723739326000214E-002;4.391738679260016E-003;-2.433440415188670E-003;
2.419833333333334E+009;1.498175412416458E-001;-9.765668213367462E-002;4.305874463170767E-003;-2.625428372994065E-003;
2.420000000000000E+009;1.501660794019699E-001;-9.846997261047363E-002;4.143507219851017E-003;-2.699044300243259E-003;
2.420166666666667E+009;1.505064815282822E-001;-9.899061173200607E-002;4.112872295081615E-003;-2.756933681666851E-003;
2.420333333333334E+009;1.507485061883926E-001;-9.943717718124390E-002;3.977350424975157E-003;-2.731273183599114E-003;
2.420500000000000E+009;1.511228382587433E-001;-9.964565187692642E-002;3.850192762911320E-003;-2.813837723806500E-003;
2.420666666666667E+009;1.512559652328491E-001;-9.987975656986237E-002;3.662701230496168E-003;-2.816423773765564E-003;
2.420833333333334E+009;1.516582667827606E-001;-1.001333594322205E-001;3.670150879770517E-003;-2.861608983948827E-003;
2.421000000000000E+009;1.517934650182724E-001;-1.002200171351433E-001;3.619501832872629E-003;-3.104494418948889E-003;
2.421166666666667E+009;1.520944386720657E-001;-1.003508269786835E-001;3.576346905902028E-003;-3.064728807657957E-003;
2.421333333333334E+009;1.521550565958023E-001;-1.003001555800438E-001;3.598570590838790E-003;-3.147387644276023E-003;
2.421500000000000E+009;1.523160338401794E-001;-1.001607030630112E-001;3.553908318281174E-003;-3.225230146199465E-003;
2.421666666666667E+009;1.523630470037460E-001;-9.985796362161636E-002;3.451148513704538E-003;-3.095916006714106E-003;
2.421833333333334E+009;1.522744446992874E-001;-9.967488050460815E-002;3.496245015412569E-003;-3.439506050199270E-003;
2.422000000000000E+009;1.520493030548096E-001;-9.962987899780273E-002;3.520281286910176E-003;-3.585918573662639E-003;
2.422166666666667E+009;1.517942696809769E-001;-9.930533915758133E-002;3.460311563685536E-003;-3.732535522431135E-003;
2.422333333333334E+009;1.514934152364731E-001;-9.908118098974228E-002;3.526643151417375E-003;-3.727816510945559E-003;
2.422500000000000E+009;1.511535793542862E-001;-9.868410974740982E-002;3.350595012307167E-003;-3.776773810386658E-003;
2.422666666666667E+009;1.502823829650879E-001;-9.847556799650192E-002;3.300008364021778E-003;-4.151599481701851E-003;
2.422833333333334E+009;1.496870368719101E-001;-9.807610511779785E-002;3.269775304943323E-003;-4.273390863090754E-003;
2.423000000000000E+009;1.487842053174973E-001;-9.780012816190720E-002;3.215449163690209E-003;-4.319307394325733E-003;
2.423166666666667E+009;1.480480134487152E-001;-9.748720377683640E-002;3.138908417895436E-003;-4.780372139066458E-003;
2.423333333333334E+009;1.470261961221695E-001;-9.689807891845703E-002;2.903141546994448E-003;-4.844921641051769E-003;
2.423500000000000E+009;1.459857672452927E-001;-9.688740968704224E-002;2.894458826631308E-003;-5.022737197577953E-003;
2.423666666666667E+009;1.447114795446396E-001;-9.652647376060486E-002;2.716433722525835E-003;-5.189305171370506E-003;
2.423833333333334E+009;1.437536180019379E-001;-9.636026620864868E-002;2.463841577991843E-003;-5.461052060127258E-003;
2.424000000000000E+009;1.424644440412521E-001;-9.586772322654724E-002;2.376410877332091E-003;-5.552764516323805E-003;
2.424166666666667E+009;1.409299969673157E-001;-9.579973667860031E-002;1.960796071216464E-003;-5.823743995279074E-003;
2.424333333333334E+009;1.396531909704208E-001;-9.567889571189880E-002;1.776361605152488E-003;-5.967363715171814E-003;
2.424500000000000E+009;1.383407711982727E-001;-9.566298872232437E-002;1.669305958785117E-003;-6.023724097758532E-003;
2.424666666666667E+009;1.369796842336655E-001;-9.556110948324204E-002;1.426478615030646E-003;-6.132967304438353E-003;
2.424833333333334E+009;1.354953795671463E-001;-9.594124555587769E-002;1.179541228339076E-003;-6.270912475883961E-003;
2.425000000000000E+009;1.341191679239273E-001;-9.625114500522614E-002;8.314626174978912E-004;-6.374948658049107E-003;
2.425166666666667E+009;1.325166225433350E-001;-9.660366177558899E-002;4.760960582643747E-004;-6.324226967990398E-003;
2.425333333333334E+009;1.311729252338409E-001;-9.705373644828796E-002;3.479371953289956E-004;-6.495183333754540E-003;
2.425500000000000E+009;1.298378556966782E-001;-9.789575636386871E-002;-1.812466070987284E-004;-6.369212642312050E-003;
2.425666666666667E+009;1.282565146684647E-001;-9.858469665050507E-002;-2.377660566708073E-004;-6.342254579067230E-003;
2.425833333333334E+009;1.269740909337997E-001;-9.938557446002960E-002;-7.744301692582667E-004;-6.307766307145357E-003;
2.426000000000000E+009;1.255112290382385E-001;-1.005151271820068E-001;-1.070892438292503E-003;-6.180116441100836E-003;
2.426166666666667E+009;1.244178116321564E-001;-1.016276627779007E-001;-1.200492493808270E-003;-6.071592681109905E-003;
2.426333333333334E+009;1.229863092303276E-001;-1.028859391808510E-001;-1.394844846799970E-003;-6.146244704723358E-003;
2.426500000000000E+009;1.218246072530747E-001;-1.041443571448326E-001;-1.730666845105588E-003;-5.766116082668304E-003;
2.426666666666667E+009;1.208259910345078E-001;-1.053782179951668E-001;-1.928329467773438E-003;-5.652603227645159E-003;
2.426833333333334E+009;1.196463778614998E-001;-1.069786399602890E-001;-2.052625641226769E-003;-5.528187844902277E-003;
2.427000000000000E+009;1.185177937150002E-001;-1.086183413863182E-001;-2.278960542753339E-003;-5.259682424366474E-003;
2.427166666666667E+009;1.175722181797028E-001;-1.101322919130325E-001;-2.289836993440986E-003;-5.156208295375109E-003;
2.427333333333334E+009;1.166135743260384E-001;-1.117675453424454E-001;-2.279026666656137E-003;-4.988990724086762E-003;
2.427500000000000E+009;1.159013137221336E-001;-1.135459393262863E-001;-2.382107544690371E-003;-4.818005487322807E-003;
2.427666666666667E+009;1.151735335588455E-001;-1.152656152844429E-001;-2.632023999467492E-003;-4.703186918050051E-003;
2.427833333333334E+009;1.144928559660912E-001;-1.168880909681320E-001;-2.639065962284803E-003;-4.592990502715111E-003;
