# Version 1.00
#
freq[Hz];re:Trc1_S11;im:Trc1_S11;re:Trc2_S21;im:Trc2_S21;
2.400000000000000E+009;1.556532680988312E-001;1.111343204975128E-001;-1.618756679818034E-003;-2.393222879618406E-003;
2.400166666666667E+009;1.550262421369553E-001;1.091833934187889E-001;-1.620611175894737E-003;-2.403918420895934E-003;
2.400333333333334E+009;1.547689586877823E-001;1.067766621708870E-001;-1.783415093086660E-003;-2.338527003303170E-003;
2.400500000000000E+009;1.544960737228394E-001;1.041691452264786E-001;-1.875327085144818E-003;-2.292473101988435E-003;
2.400666666666667E+009;1.542600542306900E-001;1.016747131943703E-001;-1.812760485336185E-003;-2.232717350125313E-003;
2.400833333333334E+009;1.539884060621262E-001;9.872865676879883E-002;-2.214067149907351E-003;-2.152476459741592E-003;
2.401000000000000E+009;1.538959741592407E-001;9.591229259967804E-002;-2.153853187337518E-003;-2.350928494706750E-003;
2.401166666666667E+009;1.536443829536438E-001;9.308978915214539E-002;-2.274123253300786E-003;-2.254944527521730E-003;
2.401333333333334E+009;1.538512408733368E-001;9.028329700231552E-002;-2.406488172709942E-003;-2.264914102852345E-003;
2.401500000000000E+009;1.540539860725403E-001;8.706882596015930E-002;-2.595531754195690E-003;-2.121011726558209E-003;
2.401666666666667E+009;1.541019529104233E-001;8.415406197309494E-002;-2.748224884271622E-003;-2.065281150862575E-003;
2.401833333333334E+009;1.545384526252747E-001;8.111327886581421E-002;-2.976597985252738E-003;-2.042094478383660E-003;
2.402000000000000E+009;1.550554484128952E-001;7.833217084407806E-002;-3.073345404118300E-003;-1.800329308025539E-003;
2.402166666666667E+009;1.557624936103821E-001;7.543683052062988E-002;-3.348503494635224E-003;-1.723326276987791E-003;
2.402333333333334E+009;1.566155850887299E-001;7.266285270452499E-002;-3.409865312278271E-003;-1.588755869306624E-003;
2.402500000000000E+009;1.576351672410965E-001;6.977766752243042E-002;-3.323287004604936E-003;-1.352654187940061E-003;
2.402666666666667E+009;1.588372141122818E-001;6.722661852836609E-002;-3.783754073083401E-003;-1.170790987089276E-003;
2.402833333333334E+009;1.599284857511520E-001;6.445386260747910E-002;-3.814529860392213E-003;-1.002265489660204E-003;
2.403000000000000E+009;1.614126563072205E-001;6.190283969044685E-002;-3.894872497767210E-003;-7.488988339900971E-004;
2.403166666666667E+009;1.631047427654266E-001;5.921864509582520E-002;-3.912099171429873E-003;-6.197398761287332E-004;
2.403333333333334E+009;1.644692867994309E-001;5.693154036998749E-002;-4.029183648526669E-003;-3.947915975004435E-004;
2.403500000000000E+009;1.662480086088181E-001;5.466868728399277E-002;-4.114216659218073E-003;-6.369801849359646E-005;
2.403666666666667E+009;1.681580394506455E-001;5.230582877993584E-002;-3.921646624803543E-003;3.060538438148797E-004;
2.403833333333334E+009;1.698186993598938E-001;5.031232908368111E-002;-4.130146466195583E-003;3.864006721414626E-004;
2.404000000000000E+009;1.715790331363678E-001;4.828333109617233E-002;-4.056035075336695E-003;7.470941636711359E-004;
2.404166666666667E+009;1.732851117849350E-001;4.656181484460831E-002;-3.876302856951952E-003;1.044083852320910E-003;
2.404333333333334E+009;1.753722727298737E-001;4.499606043100357E-002;-3.917803522199392E-003;1.261827652342618E-003;
2.404500000000000E+009;1.770950108766556E-001;4.331040382385254E-002;-3.655278356745839E-003;1.393798971548677E-003;
2.404666666666667E+009;1.790891140699387E-001;4.196706786751747E-002;-3.757278900593519E-003;1.710379845462740E-003;
2.404833333333334E+009;1.807729452848434E-001;4.076539352536202E-002;-3.406421979889274E-003;1.932773506268859E-003;
2.405000000000000E+009;1.824736595153809E-001;3.993067890405655E-002;-3.229208989068866E-003;2.117336960509419E-003;
2.405166666666667E+009;1.842014938592911E-001;3.906858339905739E-002;-2.933853073045611E-003;2.271500416100025E-003;
2.405333333333334E+009;1.859081983566284E-001;3.861628100275993E-002;-2.856005681678653E-003;2.342611551284790E-003;
2.405500000000000E+009;1.875359416007996E-001;3.798352554440498E-002;-2.602670108899474E-003;2.488543046638370E-003;
2.405666666666667E+009;1.890160739421845E-001;3.758921846747398E-002;-2.186434343457222E-003;2.622788771986961E-003;
2.405833333333334E+009;1.905608922243118E-001;3.726306930184364E-002;-2.068964997306466E-003;2.411132212728262E-003;
2.406000000000000E+009;1.918181180953980E-001;3.710401803255081E-002;-1.696274382993579E-003;2.641258295625448E-003;
2.406166666666667E+009;1.931272149085999E-001;3.698579221963882E-002;-1.542928745038807E-003;2.471704501658678E-003;
2.406333333333334E+009;1.942616403102875E-001;3.726098313927651E-002;-1.540810917504132E-003;2.466184552758932E-003;
2.406500000000000E+009;1.952675580978394E-001;3.728023171424866E-002;-1.307363389059901E-003;2.429360058158636E-003;
2.406666666666667E+009;1.961989849805832E-001;3.754644840955734E-002;-1.107687712647021E-003;2.428600098937750E-003;
2.406833333333334E+009;1.968314796686173E-001;3.762447834014893E-002;-1.106803072616458E-003;2.346690511330962E-003;
2.407000000000000E+009;1.974648088216782E-001;3.807049244642258E-002;-1.006268546916544E-003;2.239194698631764E-003;
2.407166666666667E+009;1.980663388967514E-001;3.802736103534699E-002;-9.128000820055604E-004;2.191259525716305E-003;
2.407333333333334E+009;1.982987672090530E-001;3.857361525297165E-002;-9.434229577891529E-004;2.238138811662793E-003;
2.407500000000000E+009;1.982537209987640E-001;3.886542096734047E-002;-8.548526675440371E-004;2.155239926651120E-003;
2.407666666666667E+009;1.983855068683624E-001;3.912767022848129E-002;-6.945481291040778E-004;2.145457081496716E-003;
2.407833333333334E+009;1.980792433023453E-001;3.929699212312698E-002;-6.182120996527374E-004;2.182462485507131E-003;
2.408000000000000E+009;1.980859637260437E-001;3.935734555125237E-002;-6.268430151976645E-004;1.885076519101858E-003;
2.408166666666667E+009;1.975605934858322E-001;3.950141370296478E-002;-5.628220969811082E-004;1.833945745602250E-003;
2.408333333333334E+009;1.972493678331375E-001;3.932724520564079E-002;-4.073873569723219E-004;1.855939161032438E-003;
2.408500000000000E+009;1.965216100215912E-001;3.940512984991074E-002;-3.341525152791292E-004;1.956457272171974E-003;
2.408666666666667E+009;1.958279609680176E-001;3.901605680584908E-002;-4.728091007564217E-004;1.670050434768200E-003;
2.408833333333334E+009;1.951784342527390E-001;3.881862387061119E-002;-4.629567847587168E-004;1.571141998283565E-003;
2.409000000000000E+009;1.940805315971375E-001;3.807708248496056E-002;-4.240999987814575E-004;1.607432845048606E-003;
2.409166666666667E+009;1.930345743894577E-001;3.751781582832336E-002;-5.695014260709286E-004;1.518386765383184E-003;
2.409333333333334E+009;1.921188980340958E-001;3.683667629957199E-002;-6.630374700762332E-004;1.319851260632277E-003;
2.409500000000000E+009;1.908171176910400E-001;3.579480573534966E-002;-5.609696963801980E-004;1.402543741278350E-003;
2.409666666666667E+009;1.895685791969299E-001;3.481147438287735E-002;-7.471364224329591E-004;1.448285533115268E-003;
2.409833333333334E+009;1.883951276540756E-001;3.343887999653816E-002;-7.241902640089393E-004;1.401065965183079E-003;
2.410000000000000E+009;1.872283369302750E-001;3.203281387686729E-002;-9.191420977003872E-004;1.436564838513732E-003;
2.410166666666667E+009;1.858674585819244E-001;3.043647110462189E-002;-9.343986166641116E-004;1.374952262267470E-003;
2.410333333333334E+009;1.847479939460754E-001;2.879550866782665E-002;-1.030933228321374E-003;1.614347565919161E-003;
2.410500000000000E+009;1.835253685712814E-001;2.713396772742271E-002;-9.734741761349142E-004;1.724842819385231E-003;
2.410666666666667E+009;1.824675351381302E-001;2.487874217331410E-002;-1.119350665248931E-003;1.857862691394985E-003;
2.410833333333334E+009;1.816199570894241E-001;2.288428321480751E-002;-1.041871029883623E-003;1.775719108991325E-003;
2.411000000000000E+009;1.804586499929428E-001;2.071347087621689E-002;-1.078256289474666E-003;1.958360662683845E-003;
2.411166666666667E+009;1.795852184295654E-001;1.848207972943783E-002;-1.083836192265153E-003;2.010561758652329E-003;
2.411333333333334E+009;1.790025532245636E-001;1.616902090609074E-002;-9.521271567791700E-004;2.192500745877624E-003;
2.411500000000000E+009;1.782768815755844E-001;1.351212803274393E-002;-9.095563436858356E-004;2.244589850306511E-003;
2.411666666666667E+009;1.776005476713181E-001;1.148862577974796E-002;-9.570078109391034E-004;2.336759585887194E-003;
2.411833333333334E+009;1.773741841316223E-001;8.882615715265274E-003;-8.878312073647976E-004;2.573005389422178E-003;
2.412000000000000E+009;1.771675646305084E-001;6.069344002753496E-003;-8.494119974784553E-004;2.423079684376717E-003;
2.412166666666667E+009;1.770841330289841E-001;3.660269780084491E-003;-7.263637962751091E-004;2.722714329138398E-003;
2.412333333333334E+009;1.771253198385239E-001;1.134511781856418E-003;-7.649150211364031E-004;2.815102925524116E-003;
2.412500000000000E+009;1.774271428585053E-001;-1.626896206289530E-003;-5.819773650728166E-004;2.858426654711366E-003;
2.412666666666667E+009;1.777217239141464E-001;-4.190948326140642E-003;-4.459685296751559E-004;3.010166110470891E-003;
2.412833333333334E+009;1.785427778959274E-001;-6.922967266291380E-003;-2.746863465290517E-004;3.221109742298722E-003;
2.413000000000000E+009;1.791458427906036E-001;-9.513806551694870E-003;-3.673426908790134E-005;3.280156757682562E-003;
2.413166666666667E+009;1.800003498792648E-001;-1.191043294966221E-002;1.168598391814157E-004;3.227273235097528E-003;
2.413333333333334E+009;1.809991896152496E-001;-1.444986741989851E-002;3.392700455151498E-004;3.260022727772594E-003;
2.413500000000000E+009;1.818782985210419E-001;-1.711312681436539E-002;3.693634062074125E-004;3.256501629948616E-003;
2.413666666666667E+009;1.831026822328568E-001;-1.951549947261810E-002;6.730664754286408E-004;3.398813074454665E-003;
2.413833333333334E+009;1.842984110116959E-001;-2.178333885967732E-002;8.410511072725058E-004;3.243746235966682E-003;
2.414000000000000E+009;1.854233592748642E-001;-2.393708378076553E-002;9.069168590940535E-004;3.250143025070429E-003;
2.414166666666667E+009;1.867892891168594E-001;-2.600064501166344E-002;1.222847262397409E-003;3.338276641443372E-003;
2.414333333333334E+009;1.879527568817139E-001;-2.816103026270866E-002;1.334653934463859E-003;3.313517430797219E-003;
2.414500000000000E+009;1.895986050367355E-001;-2.981524914503098E-002;1.536041614599526E-003;3.263979684561491E-003;
2.414666666666667E+009;1.908625662326813E-001;-3.167363256216049E-002;1.523589598946273E-003;3.023825585842133E-003;
2.414833333333334E+009;1.921999305486679E-001;-3.327892720699310E-002;1.793914707377553E-003;3.059131558984518E-003;
2.415000000000000E+009;1.936563849449158E-001;-3.478288650512695E-002;1.837322255596519E-003;2.869547810405493E-003;
2.415166666666667E+009;1.950240284204483E-001;-3.605729341506958E-002;2.104112645611167E-003;3.070110222324729E-003;
2.415333333333334E+009;1.963501572608948E-001;-3.713525459170342E-002;2.281160326674581E-003;2.803597133606672E-003;
2.415500000000000E+009;1.978851705789566E-001;-3.804209828376770E-002;2.504952019080520E-003;2.658692887052894E-003;
2.415666666666667E+009;1.990990340709686E-001;-3.898837417364121E-002;2.774860244244337E-003;2.661636564880610E-003;
2.415833333333334E+009;2.002867460250855E-001;-3.971654921770096E-002;2.946051768958569E-003;2.444029087200761E-003;
2.416000000000000E+009;2.013541907072067E-001;-4.049884527921677E-002;2.986470703035593E-003;2.109714318066835E-003;
2.416166666666667E+009;2.024061083793640E-001;-4.109302163124085E-002;3.076683729887009E-003;2.002336550503969E-003;
2.416333333333334E+009;2.032753080129623E-001;-4.144816100597382E-002;3.161893691867590E-003;1.835800241678953E-003;
2.416500000000000E+009;2.040722370147705E-001;-4.182491078972817E-002;3.286547726020217E-003;1.571099273860455E-003;
2.416666666666667E+009;2.047258913516998E-001;-4.219823330640793E-002;3.181498032063246E-003;1.287900260649622E-003;
2.416833333333334E+009;2.051415294408798E-001;-4.204326868057251E-002;3.142908914014697E-003;1.055181841365993E-003;
2.417000000000000E+009;2.055729776620865E-001;-4.219593107700348E-002;3.042358206585050E-003;9.969291277229786E-004;
2.417166666666667E+009;2.055973559617996E-001;-4.205242544412613E-002;3.109447425231338E-003;8.001558599062264E-004;
2.417333333333334E+009;2.055920362472534E-001;-4.168954119086266E-002;3.158210543915629E-003;7.066485122777522E-004;
2.417500000000000E+009;2.055805325508118E-001;-4.166736081242561E-002;2.953266026452184E-003;5.844954284839332E-004;
2.417666666666667E+009;2.052576988935471E-001;-4.127240180969238E-002;2.909380942583084E-003;6.041240412741900E-004;
2.417833333333334E+009;2.050508558750153E-001;-4.101983085274696E-002;2.999009098857641E-003;4.927153349854052E-004;
2.418000000000000E+009;2.046073973178864E-001;-4.057580605149269E-002;2.920007333159447E-003;4.680300480686128E-004;
2.418166666666667E+009;2.039008289575577E-001;-4.030052945017815E-002;2.992322668433189E-003;4.648022877518088E-004;
2.418333333333334E+009;2.031180411577225E-001;-3.998930007219315E-002;2.918640617281199E-003;2.893281925935298E-004;
2.418500000000000E+009;2.022764533758164E-001;-3.980586305260658E-002;3.036943729966879E-003;1.833815767895430E-004;
2.418666666666667E+009;2.013328224420548E-001;-3.952271863818169E-002;2.900499384850264E-003;6.603578367503360E-005;
2.418833333333334E+009;2.001800537109375E-001;-3.946064412593842E-002;2.943622181192040E-003;-1.654907391639426E-004;
2.419000000000000E+009;1.990107893943787E-001;-3.939907997846603E-002;3.046829253435135E-003;-1.439511834178120E-004;
2.419166666666667E+009;1.977326869964600E-001;-3.951767832040787E-002;2.977502532303333E-003;-2.119210257660598E-004;
2.419333333333334E+009;1.962070167064667E-001;-3.988949954509735E-002;2.828471828252077E-003;-3.925579658243805E-004;
2.419500000000000E+009;1.948011815547943E-001;-4.006874561309815E-002;2.997764153406024E-003;-4.336277779657394E-004;
2.419666666666667E+009;1.931138932704926E-001;-4.069354385137558E-002;2.907301532104611E-003;-6.524479249492288E-004;
2.419833333333334E+009;1.913427412509918E-001;-4.112445190548897E-002;2.760633127763867E-003;-7.498413324356079E-004;
2.420000000000000E+009;1.896978318691254E-001;-4.192180931568146E-002;2.786080120131373E-003;-7.838173187337816E-004;
2.420166666666667E+009;1.879086345434189E-001;-4.269709065556526E-002;2.604563254863024E-003;-7.968133431859314E-004;
2.420333333333334E+009;1.861784756183624E-001;-4.375072568655014E-002;2.512503415346146E-003;-9.026644984260202E-004;
2.420500000000000E+009;1.842686384916306E-001;-4.482997208833695E-002;2.478672889992595E-003;-1.072748913429678E-003;
2.420666666666667E+009;1.825924366712570E-001;-4.591481015086174E-002;2.316975267603993E-003;-1.038200687617064E-003;
2.420833333333334E+009;1.808075010776520E-001;-4.738434404134750E-002;2.491343067958951E-003;-9.762548725120723E-004;
2.421000000000000E+009;1.788696348667145E-001;-4.877088963985443E-002;2.468734513968229E-003;-1.066619763150811E-003;
2.421166666666667E+009;1.774180233478546E-001;-5.055297911167145E-002;2.381425583735108E-003;-1.230718451552093E-003;
2.421333333333334E+009;1.753768622875214E-001;-5.216176435351372E-002;2.203770680353046E-003;-1.155863283202052E-003;
2.421500000000000E+009;1.739876270294190E-001;-5.417539924383164E-002;2.035320270806551E-003;-1.310282386839390E-003;
2.421666666666667E+009;1.722917854785919E-001;-5.598742887377739E-002;2.163420431315899E-003;-1.392152626067400E-003;
2.421833333333334E+009;1.710044145584106E-001;-5.796609818935394E-002;1.980771543458104E-003;-1.334223430603743E-003;
2.422000000000000E+009;1.696970313787460E-001;-6.013976782560349E-002;2.045438857749105E-003;-1.354439067654312E-003;
2.422166666666667E+009;1.685627400875092E-001;-6.229386851191521E-002;1.990799093618989E-003;-1.456234254874289E-003;
2.422333333333334E+009;1.672324240207672E-001;-6.436714529991150E-002;1.797950011678040E-003;-1.516021671704948E-003;
2.422500000000000E+009;1.664251983165741E-001;-6.640431284904480E-002;1.871514832600951E-003;-1.580535317771137E-003;
2.422666666666667E+009;1.653634756803513E-001;-6.859704107046127E-002;1.786285196430981E-003;-1.442799111828208E-003;
2.422833333333334E+009;1.648479104042053E-001;-7.083442807197571E-002;1.860921969637275E-003;-1.466715126298368E-003;
2.423000000000000E+009;1.641231775283814E-001;-7.317426800727844E-002;1.786699984222651E-003;-1.548894797451794E-003;
2.423166666666667E+009;1.635916382074356E-001;-7.547602802515030E-002;1.628444995731115E-003;-1.672474667429924E-003;
2.423333333333334E+009;1.633134037256241E-001;-7.745268195867539E-002;1.632494037039578E-003;-1.756243873387575E-003;
2.423500000000000E+009;1.632043719291687E-001;-7.970640808343887E-002;1.632811501622200E-003;-1.937051187269390E-003;
2.423666666666667E+009;1.630781590938568E-001;-8.186297863721848E-002;1.541751786135137E-003;-1.966798678040505E-003;
2.423833333333334E+009;1.631033122539520E-001;-8.387962728738785E-002;1.437611295841634E-003;-2.147118328139186E-003;
2.424000000000000E+009;1.632719486951828E-001;-8.583231270313263E-002;1.298398477956653E-003;-2.103609731420875E-003;
2.424166666666667E+009;1.632238328456879E-001;-8.769963681697846E-002;1.170166302472353E-003;-2.011860255151987E-003;
2.424333333333334E+009;1.635759621858597E-001;-8.962682634592056E-002;9.259319049306214E-004;-2.139512682333589E-003;
2.424500000000000E+009;1.638675481081009E-001;-9.136370569467545E-002;1.080833724699915E-003;-2.247801981866360E-003;
2.424666666666667E+009;1.642319858074188E-001;-9.305895864963532E-002;9.089691448025405E-004;-2.299753483384848E-003;
2.424833333333334E+009;1.649696826934815E-001;-9.453434497117996E-002;7.739610737189651E-004;-2.295756479725242E-003;
2.425000000000000E+009;1.654428839683533E-001;-9.594153612852097E-002;5.813338793814182E-004;-2.181744202971458E-003;
2.425166666666667E+009;1.657475084066391E-001;-9.732937067747116E-002;6.901771412231028E-004;-2.154704183340073E-003;
2.425333333333334E+009;1.663115173578262E-001;-9.833942353725433E-002;4.772409447468817E-004;-2.171680796891451E-003;
2.425500000000000E+009;1.668913364410400E-001;-9.963398426771164E-002;4.512826562859118E-004;-2.155293710529804E-003;
2.425666666666667E+009;1.674975454807282E-001;-1.004305183887482E-001;3.962213813792914E-004;-1.968061085790396E-003;
2.425833333333334E+009;1.680262982845306E-001;-1.014389917254448E-001;2.696823794394732E-004;-2.086133230477572E-003;
2.426000000000000E+009;1.686276942491531E-001;-1.019371226429939E-001;3.040671872440726E-004;-2.130572218447924E-003;
2.426166666666667E+009;1.693364232778549E-001;-1.024961546063423E-001;5.107122124172747E-004;-2.001995220780373E-003;
2.426333333333334E+009;1.695940792560577E-001;-1.031730324029923E-001;3.221026854589582E-004;-1.971941906958818E-003;
2.426500000000000E+009;1.701929271221161E-001;-1.033559814095497E-001;5.769484050688334E-005;-2.110522473230958E-003;
2.426666666666667E+009;1.706926971673966E-001;-1.037771031260490E-001;2.206110948463902E-004;-2.112932736054063E-003;
2.426833333333334E+009;1.711854487657547E-001;-1.039922237396240E-001;5.269392204354517E-005;-2.185614081099629E-003;
2.427000000000000E+009;1.714199334383011E-001;-1.041674911975861E-001;1.711163640720770E-004;-2.035619691014290E-003;
2.427166666666667E+009;1.716420650482178E-001;-1.042559593915939E-001;-5.637373033096083E-005;-2.061015460640192E-003;
2.427333333333334E+009;1.718156337738037E-001;-1.044735014438629E-001;-1.661990099819377E-004;-1.984313363209367E-003;
2.427500000000000E+009;1.718360781669617E-001;-1.045092642307282E-001;-1.812525733839721E-004;-1.960688736289740E-003;
2.427666666666667E+009;1.718280613422394E-001;-1.044605970382690E-001;-6.019091233611107E-005;-1.958538312464953E-003;
2.427833333333334E+009;1.715788990259171E-001;-1.043865531682968E-001;-1.405488728778437E-005;-1.956239575520158E-003;
