# Version 1.00
#
freq[Hz];re:Trc1_S11;im:Trc1_S11;re:Trc2_S21;im:Trc2_S21;
2.400000000000000E+009;1.554876118898392E-001;1.113479137420654E-001;-1.554106711409986E-003;-2.502511255443096E-003;
2.400166666666667E+009;1.550389230251312E-001;1.091474592685700E-001;-1.777774537913501E-003;-2.469454891979694E-003;
2.400333333333334E+009;1.546694934368134E-001;1.068171337246895E-001;-1.692375866696239E-003;-2.367680426687002E-003;
2.400500000000000E+009;1.543516814708710E-001;1.042106226086617E-001;-1.799013465642929E-003;-2.362402854487300E-003;
2.400666666666667E+009;1.542181968688965E-001;1.019334122538567E-001;-1.899928669445217E-003;-2.280188258737326E-003;
2.400833333333334E+009;1.538912802934647E-001;9.880933910608292E-002;-2.070526359602809E-003;-2.428716747090221E-003;
2.401000000000000E+009;1.539905518293381E-001;9.596912562847138E-002;-2.232415834441781E-003;-2.348610665649176E-003;
2.401166666666667E+009;1.537498831748962E-001;9.323427826166153E-002;-2.377912867814302E-003;-2.243953524157405E-003;
2.401333333333334E+009;1.538729071617127E-001;9.030935168266296E-002;-2.535154577344656E-003;-2.213057130575180E-003;
2.401500000000000E+009;1.540997773408890E-001;8.736316859722138E-002;-2.673585899174213E-003;-2.183489734306932E-003;
2.401666666666667E+009;1.543310880661011E-001;8.402021974325180E-002;-2.664678497239947E-003;-2.060415456071496E-003;
2.401833333333334E+009;1.545728594064713E-001;8.126100897789002E-002;-2.791542559862137E-003;-2.026965608820319E-003;
2.402000000000000E+009;1.554571539163590E-001;7.826407998800278E-002;-3.061969764530659E-003;-1.860089832916856E-003;
2.402166666666667E+009;1.560287922620773E-001;7.547808438539505E-002;-3.101798240095377E-003;-1.726319198496640E-003;
2.402333333333334E+009;1.567707210779190E-001;7.251564413309097E-002;-3.339973045513034E-003;-1.494955737143755E-003;
2.402500000000000E+009;1.578517854213715E-001;6.974491477012634E-002;-3.530489280819893E-003;-1.469110138714314E-003;
2.402666666666667E+009;1.589762568473816E-001;6.717611849308014E-002;-3.610661020502448E-003;-1.323157455772162E-003;
2.402833333333334E+009;1.600919961929321E-001;6.441642343997955E-002;-3.713215701282024E-003;-8.868201985023916E-004;
2.403000000000000E+009;1.616050004959106E-001;6.183730065822601E-002;-3.816820681095123E-003;-8.069220930337906E-004;
2.403166666666667E+009;1.633261442184448E-001;5.944439023733139E-002;-3.842300968244672E-003;-5.625067278742790E-004;
2.403333333333334E+009;1.647741496562958E-001;5.677070841193199E-002;-3.898377763107419E-003;-4.003437352366746E-004;
2.403500000000000E+009;1.664233058691025E-001;5.464144796133041E-002;-3.904404817149043E-003;-8.632611570646986E-005;
2.403666666666667E+009;1.682628244161606E-001;5.233635008335114E-002;-4.106959793716669E-003;1.281890145037323E-004;
2.403833333333334E+009;1.699248105287552E-001;5.027588084340096E-002;-3.895727684721351E-003;3.588531981222332E-004;
2.404000000000000E+009;1.716534644365311E-001;4.832543060183525E-002;-3.734839614480734E-003;5.843141116201878E-004;
2.404166666666667E+009;1.735876798629761E-001;4.656448215246201E-002;-3.858739044517279E-003;8.466162835247815E-004;
2.404333333333334E+009;1.754744052886963E-001;4.485810548067093E-002;-3.658388741314411E-003;1.167705166153610E-003;
2.404500000000000E+009;1.773350089788437E-001;4.325679317116737E-002;-3.711323253810406E-003;1.374291605316103E-003;
2.404666666666667E+009;1.791890263557434E-001;4.202174022793770E-002;-3.515819786116481E-003;1.720202271826565E-003;
2.404833333333334E+009;1.809695065021515E-001;4.082385078072548E-002;-3.276763949543238E-003;2.049660775810480E-003;
2.405000000000000E+009;1.825449913740158E-001;3.997222706675530E-002;-3.206901485100389E-003;1.898662536405027E-003;
2.405166666666667E+009;1.842437833547592E-001;3.914391249418259E-002;-2.948674606159329E-003;2.189291873946786E-003;
2.405333333333334E+009;1.858819723129273E-001;3.851575776934624E-002;-2.880447776988149E-003;2.215097425505519E-003;
2.405500000000000E+009;1.875780373811722E-001;3.792599588632584E-002;-2.634718781337142E-003;2.392543712630868E-003;
2.405666666666667E+009;1.889771521091461E-001;3.758710250258446E-002;-2.433544956147671E-003;2.437374554574490E-003;
2.405833333333334E+009;1.905568838119507E-001;3.730271756649017E-002;-2.223332878202200E-003;2.568480093032122E-003;
2.406000000000000E+009;1.917534768581390E-001;3.719944879412651E-002;-1.838198862969875E-003;2.546613570302725E-003;
2.406166666666667E+009;1.931061446666718E-001;3.717629611492157E-002;-1.647339900955558E-003;2.643517451360822E-003;
2.406333333333334E+009;1.942631304264069E-001;3.719437867403030E-002;-1.673852675594389E-003;2.407053485512734E-003;
2.406500000000000E+009;1.953233331441879E-001;3.723952174186707E-002;-1.443121116608381E-003;2.289628144353628E-003;
2.406666666666667E+009;1.962063759565353E-001;3.752574697136879E-002;-1.149699324741960E-003;2.413136651739478E-003;
2.406833333333334E+009;1.969204843044281E-001;3.776413574814796E-002;-1.195450429804623E-003;2.230919199064374E-003;
2.407000000000000E+009;1.974562108516693E-001;3.802470117807388E-002;-1.130237011238933E-003;2.249049954116345E-003;
2.407166666666667E+009;1.981082409620285E-001;3.820664808154106E-002;-1.102538662962616E-003;2.267533913254738E-003;
2.407333333333334E+009;1.981449276208878E-001;3.871328756213188E-002;-9.930123342201114E-004;2.075219294056296E-003;
2.407500000000000E+009;1.982206106185913E-001;3.906423598527908E-002;-9.315169299952686E-004;2.185463439673185E-003;
2.407666666666667E+009;1.984773278236389E-001;3.916719183325768E-002;-7.301600999198854E-004;2.061143750324845E-003;
2.407833333333334E+009;1.981213986873627E-001;3.939563035964966E-002;-7.134919869713485E-004;2.053183270618320E-003;
2.408000000000000E+009;1.981033980846405E-001;3.951834514737129E-002;-7.301035802811384E-004;2.037507481873035E-003;
2.408166666666667E+009;1.975760459899902E-001;3.954122215509415E-002;-6.583898793905973E-004;1.945700729265809E-003;
2.408333333333334E+009;1.971931755542755E-001;3.941643983125687E-002;-5.520117119885981E-004;1.895986497402191E-003;
2.408500000000000E+009;1.965989619493485E-001;3.935180604457855E-002;-5.205805646255612E-004;1.713387668132782E-003;
2.408666666666667E+009;1.959615647792816E-001;3.916086629033089E-002;-4.275657411199063E-004;1.845714519731700E-003;
2.408833333333334E+009;1.951069235801697E-001;3.875422477722168E-002;-4.770418454427272E-004;1.719961408525705E-003;
2.409000000000000E+009;1.941739469766617E-001;3.819208219647408E-002;-5.038647796027362E-004;1.658979686908424E-003;
2.409166666666667E+009;1.930053979158402E-001;3.749123588204384E-002;-6.012204685248435E-004;1.560906879603863E-003;
2.409333333333334E+009;1.920701414346695E-001;3.684083744883537E-002;-6.218048511072993E-004;1.434618257917464E-003;
2.409500000000000E+009;1.908563375473023E-001;3.574131801724434E-002;-6.866048788651824E-004;1.470500719733536E-003;
2.409666666666667E+009;1.897360831499100E-001;3.462474793195725E-002;-9.009424247778952E-004;1.462913933210075E-003;
2.409833333333334E+009;1.884869933128357E-001;3.347221016883850E-002;-7.648795144632459E-004;1.479557016864419E-003;
2.410000000000000E+009;1.872149109840393E-001;3.202679753303528E-002;-8.399544167332351E-004;1.614468288607895E-003;
2.410166666666667E+009;1.860118359327316E-001;3.042351827025414E-002;-9.349401807412505E-004;1.548248692415655E-003;
2.410333333333334E+009;1.847471594810486E-001;2.873555943369865E-002;-9.709381847642362E-004;1.725080306641758E-003;
2.410500000000000E+009;1.836208403110504E-001;2.701691724359989E-002;-1.062257797457278E-003;1.702293520793319E-003;
2.410666666666667E+009;1.824175417423248E-001;2.474403195083141E-002;-9.849650086835027E-004;1.892014173790813E-003;
2.410833333333334E+009;1.815818250179291E-001;2.265668474137783E-002;-9.525648201815784E-004;1.912909792736173E-003;
2.411000000000000E+009;1.804755926132202E-001;2.073087356984615E-002;-9.458522545173764E-004;2.099384553730488E-003;
2.411166666666667E+009;1.796147823333740E-001;1.851554028689861E-002;-9.887944906949997E-004;2.041229512542486E-003;
2.411333333333334E+009;1.788432449102402E-001;1.600381173193455E-002;-9.608966647647321E-004;2.228835131973028E-003;
2.411500000000000E+009;1.781457513570786E-001;1.346820406615734E-002;-9.179865010082722E-004;2.182062715291977E-003;
2.411666666666667E+009;1.776592135429382E-001;1.120053231716156E-002;-8.981701685115695E-004;2.279716311022639E-003;
2.411833333333334E+009;1.773349642753601E-001;8.674495853483677E-003;-6.744120619259775E-004;2.413091249763966E-003;
2.412000000000000E+009;1.771202981472015E-001;5.965427961200476E-003;-7.894791779108346E-004;2.532644895836711E-003;
2.412166666666667E+009;1.770160496234894E-001;3.548895940184593E-003;-6.440005963668227E-004;2.760040340945125E-003;
2.412333333333334E+009;1.770610958337784E-001;1.020562252961099E-003;-5.987863987684250E-004;2.797641325742006E-003;
2.412500000000000E+009;1.775699704885483E-001;-1.579053001478314E-003;-5.341282230801880E-004;2.968646818771958E-003;
2.412666666666667E+009;1.778349280357361E-001;-4.241810180246830E-003;-3.558647877071053E-004;3.057610942050815E-003;
2.412833333333334E+009;1.783771812915802E-001;-7.004672195762396E-003;-3.173649893142283E-004;3.123643575236201E-003;
2.413000000000000E+009;1.790755689144135E-001;-9.502614848315716E-003;-3.852997906506062E-006;3.160796593874693E-003;
2.413166666666667E+009;1.798861026763916E-001;-1.193024870008230E-002;-9.293393304687925E-006;3.440543776378036E-003;
2.413333333333334E+009;1.808608025312424E-001;-1.447637006640434E-002;2.320026978850365E-004;3.196735400706530E-003;
2.413500000000000E+009;1.817137748003006E-001;-1.704865880310535E-002;3.186053654644638E-004;3.476771526038647E-003;
2.413666666666667E+009;1.829074174165726E-001;-1.952670700848103E-002;6.948075606487691E-004;3.393627004697919E-003;
2.413833333333334E+009;1.842663586139679E-001;-2.161346003413200E-002;8.600263972766697E-004;3.461739281192422E-003;
2.414000000000000E+009;1.854569315910339E-001;-2.402227558195591E-002;8.952185744419694E-004;3.397413995116949E-003;
2.414166666666667E+009;1.866977363824844E-001;-2.617255039513111E-002;1.126123592257500E-003;3.493011929094791E-003;
2.414333333333334E+009;1.880160719156265E-001;-2.824289910495281E-002;1.218055142089725E-003;3.257540287449956E-003;
2.414500000000000E+009;1.894479691982269E-001;-2.995455265045166E-002;1.474954187870026E-003;3.311266191303730E-003;
2.414666666666667E+009;1.909630000591278E-001;-3.165533021092415E-002;1.630506361834705E-003;3.313585883006454E-003;
2.414833333333334E+009;1.922106295824051E-001;-3.326825052499771E-002;1.729985582642257E-003;3.200062317773700E-003;
2.415000000000000E+009;1.936415582895279E-001;-3.481351211667061E-002;1.959864282980561E-003;3.042335156351328E-003;
2.415166666666667E+009;1.949983090162277E-001;-3.602692112326622E-002;2.173741115257144E-003;3.070357022807002E-003;
2.415333333333334E+009;1.965426057577133E-001;-3.712368384003639E-002;2.350314985960722E-003;2.934455173090100E-003;
2.415500000000000E+009;1.979281157255173E-001;-3.812495246529579E-002;2.552991267293692E-003;2.778324065729976E-003;
2.415666666666667E+009;1.991076469421387E-001;-3.902395069599152E-002;2.674491144716740E-003;2.578583778813481E-003;
2.415833333333334E+009;2.002140432596207E-001;-3.976821526885033E-002;2.844620263203979E-003;2.364756772294641E-003;
2.416000000000000E+009;2.013962417840958E-001;-4.042874649167061E-002;2.964484039694071E-003;2.201660070568323E-003;
2.416166666666667E+009;2.024419456720352E-001;-4.111754521727562E-002;3.198352409526706E-003;1.981017878279090E-003;
2.416333333333334E+009;2.034274786710739E-001;-4.146846011281014E-002;3.186916233971715E-003;1.804333762265742E-003;
2.416500000000000E+009;2.041927427053452E-001;-4.170302301645279E-002;3.258805954828858E-003;1.628904836252332E-003;
2.416666666666667E+009;2.047859132289887E-001;-4.209745302796364E-002;3.311697859317064E-003;1.392419333569706E-003;
2.416833333333334E+009;2.051545828580856E-001;-4.204080998897553E-002;3.172385739162564E-003;1.171553041785955E-003;
2.417000000000000E+009;2.056164741516113E-001;-4.219999164342880E-002;3.124171867966652E-003;1.099566463381052E-003;
2.417166666666667E+009;2.056423574686050E-001;-4.203623533248901E-002;3.102077636867762E-003;8.278448949567974E-004;
2.417333333333334E+009;2.057033330202103E-001;-4.167624190449715E-002;3.024033736437559E-003;8.046983857639134E-004;
2.417500000000000E+009;2.056013345718384E-001;-4.169398546218872E-002;2.884479472413659E-003;7.291719084605575E-004;
2.417666666666667E+009;2.052864879369736E-001;-4.132481664419174E-002;3.048324724659324E-003;6.097576115280390E-004;
2.417833333333334E+009;2.050518691539764E-001;-4.097284376621246E-002;3.151566023007035E-003;4.972471506334841E-004;
2.418000000000000E+009;2.046270668506622E-001;-4.060395061969757E-002;3.091852180659771E-003;4.543925169855356E-004;
2.418166666666667E+009;2.038312554359436E-001;-4.037713631987572E-002;2.783572999760509E-003;3.083904448430985E-004;
2.418333333333334E+009;2.032430917024612E-001;-3.983427956700325E-002;2.848498988896608E-003;3.317794762551785E-004;
2.418500000000000E+009;2.023175358772278E-001;-3.976699337363243E-002;2.901100320741534E-003;1.258720003534108E-004;
2.418666666666667E+009;2.014907747507095E-001;-3.957432508468628E-002;3.123542293906212E-003;8.605832408647984E-005;
2.418833333333334E+009;2.001687139272690E-001;-3.937025368213654E-002;3.038705792278051E-003;-2.032391494140029E-004;
2.419000000000000E+009;1.989683806896210E-001;-3.940832614898682E-002;2.980132121592760E-003;-2.318134065717459E-004;
2.419166666666667E+009;1.977141350507736E-001;-3.950291499495506E-002;3.058949718251824E-003;-2.888189337681979E-004;
2.419333333333334E+009;1.962656378746033E-001;-3.975852578878403E-002;2.797759370878339E-003;-4.257596738170832E-004;
2.419500000000000E+009;1.946586966514587E-001;-3.998589143157005E-002;3.052107756957412E-003;-5.489312461577356E-004;
2.419666666666667E+009;1.931913942098618E-001;-4.069804027676582E-002;2.706892555579543E-003;-5.356806213967502E-004;
2.419833333333334E+009;1.913699060678482E-001;-4.111385717988014E-002;2.774345455691218E-003;-8.110924973152578E-004;
2.420000000000000E+009;1.897278279066086E-001;-4.181502014398575E-002;2.590041141957045E-003;-8.598304120823741E-004;
2.420166666666667E+009;1.879338920116425E-001;-4.268680512905121E-002;2.625117311254144E-003;-9.536866564303637E-004;
2.420333333333334E+009;1.861793100833893E-001;-4.369701072573662E-002;2.467727288603783E-003;-1.146496157161892E-003;
2.420500000000000E+009;1.843157112598419E-001;-4.485126584768295E-002;2.458069240674377E-003;-1.159974373877049E-003;
2.420666666666667E+009;1.825122386217117E-001;-4.597971588373184E-002;2.408265601843596E-003;-1.118758227676153E-003;
2.420833333333334E+009;1.807706207036972E-001;-4.752805083990097E-002;2.306420821696520E-003;-1.191570539958775E-003;
2.421000000000000E+009;1.790108680725098E-001;-4.892381653189659E-002;2.400458091869950E-003;-1.251048524864018E-003;
2.421166666666667E+009;1.774257719516754E-001;-5.062611401081085E-002;2.199568785727024E-003;-1.314923516474664E-003;
2.421333333333334E+009;1.754089593887329E-001;-5.205711349844933E-002;2.268953947350383E-003;-1.348342280834913E-003;
2.421500000000000E+009;1.738742589950562E-001;-5.403964221477509E-002;2.285605762153864E-003;-1.329812104813755E-003;
2.421666666666667E+009;1.725805550813675E-001;-5.597949028015137E-002;2.218926325440407E-003;-1.369776553474367E-003;
2.421833333333334E+009;1.710111796855927E-001;-5.781767889857292E-002;2.117782365530729E-003;-1.364398282021284E-003;
2.422000000000000E+009;1.695131957530975E-001;-6.005176901817322E-002;2.024242188781500E-003;-1.428435673005879E-003;
2.422166666666667E+009;1.685889512300491E-001;-6.208892911672592E-002;2.000766573473811E-003;-1.544450991787016E-003;
2.422333333333334E+009;1.671415418386459E-001;-6.429094821214676E-002;2.080274978652597E-003;-1.546457759104669E-003;
2.422500000000000E+009;1.665270924568176E-001;-6.636220961809158E-002;2.075049327686429E-003;-1.589547726325691E-003;
2.422666666666667E+009;1.655396223068237E-001;-6.863175332546234E-002;2.006464637815952E-003;-1.647133962251246E-003;
2.422833333333334E+009;1.649464219808579E-001;-7.087422162294388E-002;1.892002183012664E-003;-1.812441390939057E-003;
2.423000000000000E+009;1.641607284545898E-001;-7.315542548894882E-002;1.814471092075110E-003;-1.810425543226302E-003;
2.423166666666667E+009;1.636648923158646E-001;-7.532131671905518E-002;1.822164980694652E-003;-1.913774176500738E-003;
2.423333333333334E+009;1.632734090089798E-001;-7.762499898672104E-002;1.787911285646260E-003;-1.886053127236664E-003;
2.423500000000000E+009;1.632077246904373E-001;-7.972390204668045E-002;1.764093060046434E-003;-2.093242714181542E-003;
2.423666666666667E+009;1.630630940198898E-001;-8.187665790319443E-002;1.540311146527529E-003;-2.004564506933093E-003;
2.423833333333334E+009;1.629588901996613E-001;-8.384014666080475E-002;1.378983957692981E-003;-2.166017889976502E-003;
2.424000000000000E+009;1.631061881780624E-001;-8.598261326551437E-002;1.379023538902402E-003;-2.375511685386300E-003;
2.424166666666667E+009;1.633422225713730E-001;-8.767540007829666E-002;1.259446726180613E-003;-2.312965923920274E-003;
2.424333333333334E+009;1.635598540306091E-001;-8.958159387111664E-002;1.212556846439838E-003;-2.327915281057358E-003;
2.424500000000000E+009;1.639479696750641E-001;-9.149584174156189E-002;1.062314026057720E-003;-2.344644395634532E-003;
2.424666666666667E+009;1.642844825983048E-001;-9.318289160728455E-002;8.379902574233711E-004;-2.363981911912561E-003;
2.424833333333334E+009;1.648751795291901E-001;-9.455307573080063E-002;8.430820307694376E-004;-2.340665319934487E-003;
2.425000000000000E+009;1.653982996940613E-001;-9.596348553895950E-002;5.057554226368666E-004;-2.269550692290068E-003;
2.425166666666667E+009;1.657955944538117E-001;-9.734466671943665E-002;6.920108571648598E-004;-2.249695593491197E-003;
2.425333333333334E+009;1.663274466991425E-001;-9.849597513675690E-002;3.511396644171327E-004;-2.314963843673468E-003;
2.425500000000000E+009;1.668526679277420E-001;-9.962248057126999E-002;5.125963944010437E-004;-2.307468093931675E-003;
2.425666666666667E+009;1.675369739532471E-001;-1.005182862281799E-001;3.493526310194284E-004;-2.113535534590483E-003;
2.425833333333334E+009;1.680834740400314E-001;-1.013441309332848E-001;2.802612143568695E-004;-1.936697633937001E-003;
2.426000000000000E+009;1.687054336071014E-001;-1.018807440996170E-001;2.386419364484027E-004;-2.134691225364804E-003;
2.426166666666667E+009;1.693209558725357E-001;-1.025163158774376E-001;2.148213534383103E-004;-1.995536265894771E-003;
2.426333333333334E+009;1.696010082960129E-001;-1.032115966081619E-001;2.548084303271025E-004;-2.042933600023389E-003;
2.426500000000000E+009;1.702729016542435E-001;-1.035524308681488E-001;6.802177813369781E-005;-1.977970125153661E-003;
2.426666666666667E+009;1.706668734550476E-001;-1.037856340408325E-001;1.838012831285596E-004;-1.946975127793849E-003;
2.426833333333334E+009;1.712324768304825E-001;-1.040661260485649E-001;-8.563592564314604E-005;-1.943198614753783E-003;
2.427000000000000E+009;1.714095026254654E-001;-1.043452620506287E-001;-1.933023440869874E-006;-1.887886552140117E-003;
2.427166666666667E+009;1.717678308486939E-001;-1.043193712830544E-001;-1.355762942694128E-004;-1.802144572138786E-003;
2.427333333333334E+009;1.718778461217880E-001;-1.044404357671738E-001;-9.972761472454295E-005;-1.842861878685653E-003;
2.427500000000000E+009;1.718616336584091E-001;-1.045553833246231E-001;-3.599213232519105E-005;-1.769417431205511E-003;
2.427666666666667E+009;1.716368347406387E-001;-1.043810993432999E-001;-4.968069333699532E-005;-1.665443880483508E-003;
2.427833333333334E+009;1.716161519289017E-001;-1.044775620102882E-001;-1.860664633568376E-004;-1.751986681483686E-003;
