# Version 1.00
#
freq[Hz];re:Trc1_S11;im:Trc1_S11;re:Trc2_S21;im:Trc2_S21;
2.400000000000000E+009;1.540624052286148E-001;5.910609662532806E-002;-4.648060072213411E-003;-1.035974593833089E-003;
2.400166666666667E+009;1.543691307306290E-001;5.717173218727112E-002;-4.723381716758013E-003;-8.265487849712372E-004;
2.400333333333334E+009;1.546124815940857E-001;5.492740124464035E-002;-4.595635924488306E-003;-7.812369731254876E-004;
2.400500000000000E+009;1.549757719039917E-001;5.284487456083298E-002;-4.614026751369238E-003;-6.467541679739952E-004;
2.400666666666667E+009;1.552534103393555E-001;5.055938661098480E-002;-4.649954847991467E-003;-4.201444971840829E-004;
2.400833333333334E+009;1.557925790548325E-001;4.864615201950073E-002;-4.539479501545429E-003;-3.605300153139979E-004;
2.401000000000000E+009;1.562518477439880E-001;4.633431509137154E-002;-4.582637920975685E-003;-1.995508355321363E-004;
2.401166666666667E+009;1.572073400020599E-001;4.424155130982399E-002;-4.474374465644360E-003;-4.727121267933399E-005;
2.401333333333334E+009;1.574552804231644E-001;4.210183769464493E-002;-4.563887137919664E-003;2.270295954076573E-004;
2.401500000000000E+009;1.584101468324661E-001;4.001253843307495E-002;-4.379858262836933E-003;2.900203398894519E-004;
2.401666666666667E+009;1.590620726346970E-001;3.815971687436104E-002;-4.424300510436297E-003;4.811549733858556E-004;
2.401833333333334E+009;1.599306017160416E-001;3.615482151508331E-002;-4.474949091672897E-003;4.922308726236224E-004;
2.402000000000000E+009;1.605531573295593E-001;3.440872952342033E-002;-4.422463476657867E-003;6.893518147990108E-004;
2.402166666666667E+009;1.617011576890945E-001;3.256462886929512E-002;-4.427454434335232E-003;9.578741155564785E-004;
2.402333333333334E+009;1.625446975231171E-001;3.090349771082401E-002;-4.196924623101950E-003;9.933619294315577E-004;
2.402500000000000E+009;1.636236310005188E-001;2.939072623848915E-002;-4.086513537913561E-003;1.063708681613207E-003;
2.402666666666667E+009;1.646517217159271E-001;2.775940671563149E-002;-4.028653725981712E-003;1.232704031281173E-003;
2.402833333333334E+009;1.657605320215225E-001;2.652340568602085E-002;-3.926707431674004E-003;1.345759141258895E-003;
2.403000000000000E+009;1.668266057968140E-001;2.520908229053021E-002;-4.011076875030994E-003;1.261185039766133E-003;
2.403166666666667E+009;1.679287850856781E-001;2.397169545292854E-002;-3.998408094048500E-003;1.477501704357564E-003;
2.403333333333334E+009;1.689913272857666E-001;2.297157794237137E-002;-3.910924773663282E-003;1.519491663202643E-003;
2.403500000000000E+009;1.700689941644669E-001;2.199378795921803E-002;-4.106958862394095E-003;1.709587872028351E-003;
2.403666666666667E+009;1.713561713695526E-001;2.093406766653061E-002;-3.932135645300150E-003;1.691444893367589E-003;
2.403833333333334E+009;1.723272949457169E-001;2.007134445011616E-002;-3.721049288287759E-003;1.723648631013930E-003;
2.404000000000000E+009;1.733747869729996E-001;1.937751099467278E-002;-3.789325943216682E-003;1.974004786461592E-003;
2.404166666666667E+009;1.742805838584900E-001;1.857236772775650E-002;-3.642201889306307E-003;2.067570108920336E-003;
2.404333333333334E+009;1.752055436372757E-001;1.796038262546063E-002;-3.537051146849990E-003;2.060193568468094E-003;
2.404500000000000E+009;1.760490834712982E-001;1.744819432497025E-002;-3.538282588124275E-003;2.136262599378824E-003;
2.404666666666667E+009;1.769077181816101E-001;1.695379056036472E-002;-3.501643892377615E-003;2.284031361341476E-003;
2.404833333333334E+009;1.775934249162674E-001;1.660553924739361E-002;-3.466269467025995E-003;2.476539695635438E-003;
2.405000000000000E+009;1.783794015645981E-001;1.636410877108574E-002;-3.518905723467469E-003;2.477283822372556E-003;
2.405166666666667E+009;1.789625436067581E-001;1.598297245800495E-002;-3.351057879626751E-003;2.624672139063478E-003;
2.405333333333334E+009;1.795284748077393E-001;1.558247767388821E-002;-3.297734539955854E-003;2.800570102408528E-003;
2.405500000000000E+009;1.798371672630310E-001;1.549829915165901E-002;-3.133344464004040E-003;2.993013244122267E-003;
2.405666666666667E+009;1.801630556583405E-001;1.536814309656620E-002;-2.890313044190407E-003;3.225335152819753E-003;
2.405833333333334E+009;1.802208274602890E-001;1.527583412826061E-002;-2.832292811945081E-003;3.051477950066328E-003;
2.406000000000000E+009;1.805751323699951E-001;1.487979292869568E-002;-2.756040077656508E-003;3.118606517091394E-003;
2.406166666666667E+009;1.803695559501648E-001;1.485132332891226E-002;-2.524955663830042E-003;3.050528699532151E-003;
2.406333333333334E+009;1.805768907070160E-001;1.446270756423473E-002;-2.655720338225365E-003;3.321454627439380E-003;
2.406500000000000E+009;1.803875416517258E-001;1.430349610745907E-002;-2.497534034773707E-003;3.377006854861975E-003;
2.406666666666667E+009;1.799939572811127E-001;1.407766900956631E-002;-2.292765537276864E-003;3.508102148771286E-003;
2.406833333333334E+009;1.797155886888504E-001;1.361774746328592E-002;-2.067454159259796E-003;3.589102998375893E-003;
2.407000000000000E+009;1.794805675745010E-001;1.330383960157633E-002;-2.062413841485977E-003;3.595804329961538E-003;
2.407166666666667E+009;1.791570931673050E-001;1.283290609717369E-002;-1.731244265101850E-003;3.511329879984260E-003;
2.407333333333334E+009;1.785518974065781E-001;1.226296462118626E-002;-1.580883166752756E-003;3.578123636543751E-003;
2.407500000000000E+009;1.779311448335648E-001;1.170616690069437E-002;-1.672719372436404E-003;3.663409035652876E-003;
2.407666666666667E+009;1.773061603307724E-001;1.108983904123306E-002;-1.566311111673713E-003;3.506113542243838E-003;
2.407833333333334E+009;1.764519959688187E-001;1.023634523153305E-002;-1.205751090310514E-003;3.621090669184923E-003;
2.408000000000000E+009;1.759114712476730E-001;9.451397694647312E-003;-1.237203716300428E-003;3.601862117648125E-003;
2.408166666666667E+009;1.751292347908020E-001;8.473515510559082E-003;-1.262663165107369E-003;3.618734888732433E-003;
2.408333333333334E+009;1.744468659162521E-001;7.502418942749500E-003;-1.042212708853185E-003;3.427418880164623E-003;
2.408500000000000E+009;1.736647337675095E-001;6.268929224461317E-003;-8.881001267582178E-004;3.552000969648361E-003;
2.408666666666667E+009;1.729754060506821E-001;4.896668717265129E-003;-9.023292222991586E-004;3.561485791578889E-003;
2.408833333333334E+009;1.719907373189926E-001;3.631404135376215E-003;-7.738884305581451E-004;3.704091999679804E-003;
2.409000000000000E+009;1.712182611227036E-001;2.043363638222218E-003;-5.468787858262658E-004;3.626785706728697E-003;
2.409166666666667E+009;1.705672442913055E-001;5.673968116752803E-004;-4.913104930892587E-004;3.537868149578571E-003;
2.409333333333334E+009;1.700035035610199E-001;-1.031759893521667E-003;-4.424954531714320E-004;3.411841113120318E-003;
2.409500000000000E+009;1.692254245281220E-001;-2.877484774217010E-003;-2.851631434168667E-004;3.536779666319490E-003;
2.409666666666667E+009;1.685624867677689E-001;-4.562979098409414E-003;-1.519767974969000E-004;3.603806020691991E-003;
2.409833333333334E+009;1.678369790315628E-001;-6.203856784850359E-003;-1.809315144782886E-004;3.541643265634775E-003;
2.410000000000000E+009;1.675708889961243E-001;-8.194124326109886E-003;-7.413320417981595E-005;3.497824072837830E-003;
2.410166666666667E+009;1.670453995466232E-001;-1.011584978550673E-002;1.720394939184189E-004;3.424062859266996E-003;
2.410333333333334E+009;1.666900068521500E-001;-1.218972355127335E-002;1.407753443345428E-004;3.329477971419692E-003;
2.410500000000000E+009;1.664078980684280E-001;-1.415408030152321E-002;1.068973069777712E-004;3.342906013131142E-003;
2.410666666666667E+009;1.660625487565994E-001;-1.631924323737621E-002;2.636972349137068E-004;3.562381956726313E-003;
2.410833333333334E+009;1.660389155149460E-001;-1.828312501311302E-002;1.187657835544087E-004;3.399398643523455E-003;
2.411000000000000E+009;1.661213338375092E-001;-2.022221498191357E-002;5.044193239882588E-004;3.185986075550318E-003;
2.411166666666667E+009;1.659954637289047E-001;-2.237252146005631E-002;4.194057255517691E-004;3.295041620731354E-003;
2.411333333333334E+009;1.663102507591248E-001;-2.446144074201584E-002;7.474923040717840E-004;3.337204223498702E-003;
2.411500000000000E+009;1.663663536310196E-001;-2.656070329248905E-002;7.577208452858031E-004;3.103707684203982E-003;
2.411666666666667E+009;1.668259203433991E-001;-2.865643240511417E-002;7.446572999469936E-004;3.359256545081735E-003;
2.411833333333334E+009;1.671282351016998E-001;-3.043200634419918E-002;9.018184500746429E-004;3.248084336519241E-003;
2.412000000000000E+009;1.676778197288513E-001;-3.249393031001091E-002;9.734627092257142E-004;3.084644442424178E-003;
2.412166666666667E+009;1.681540906429291E-001;-3.443172946572304E-002;1.101402100175619E-003;3.075450193136931E-003;
2.412333333333334E+009;1.688516736030579E-001;-3.594404086470604E-002;1.132879056967795E-003;3.050148952752352E-003;
2.412500000000000E+009;1.694436073303223E-001;-3.787269070744515E-002;1.152115291915834E-003;2.822424983605743E-003;
2.412666666666667E+009;1.701141148805618E-001;-3.980910778045654E-002;1.314599183388054E-003;2.934599295258522E-003;
2.412833333333334E+009;1.709493696689606E-001;-4.144841432571411E-002;1.363134011626244E-003;2.734073670580983E-003;
2.413000000000000E+009;1.716516613960266E-001;-4.293218255043030E-002;1.289426232688129E-003;2.757091075181961E-003;
2.413166666666667E+009;1.721701025962830E-001;-4.435928910970688E-002;1.351262675598264E-003;2.875626552850008E-003;
2.413333333333334E+009;1.729974746704102E-001;-4.579269886016846E-002;1.563218072988093E-003;2.592043951153755E-003;
2.413500000000000E+009;1.738797873258591E-001;-4.712594300508499E-002;1.577559858560562E-003;2.454327652230859E-003;
2.413666666666667E+009;1.746665537357330E-001;-4.839103668928146E-002;1.545039471238852E-003;2.368008717894554E-003;
2.413833333333334E+009;1.754390448331833E-001;-4.945563152432442E-002;1.550395158119500E-003;2.290422795340419E-003;
2.414000000000000E+009;1.757524162530899E-001;-5.052823945879936E-002;1.666845055297017E-003;2.281152177602053E-003;
2.414166666666667E+009;1.766771525144577E-001;-5.134269967675209E-002;1.798030571080744E-003;2.290181117132306E-003;
2.414333333333334E+009;1.772951483726502E-001;-5.239767953753471E-002;1.791433314792812E-003;2.104504033923149E-003;
2.414500000000000E+009;1.779962629079819E-001;-5.305448547005653E-002;1.687134499661624E-003;2.167369006201625E-003;
2.414666666666667E+009;1.784152388572693E-001;-5.371285974979401E-002;1.877232105471194E-003;2.094272989779711E-003;
2.414833333333334E+009;1.787969321012497E-001;-5.426830053329468E-002;1.843740115873516E-003;2.035208279266954E-003;
2.415000000000000E+009;1.791860610246658E-001;-5.486031621694565E-002;1.797714270651341E-003;1.859365496784449E-003;
2.415166666666667E+009;1.795324832201004E-001;-5.523558333516121E-002;1.739159692078829E-003;1.806679880246520E-003;
2.415333333333334E+009;1.797374635934830E-001;-5.569209903478622E-002;1.806411659345031E-003;1.715519232675433E-003;
2.415500000000000E+009;1.799093335866928E-001;-5.603069439530373E-002;1.845806604251266E-003;1.880081719718874E-003;
2.415666666666667E+009;1.799757033586502E-001;-5.612464994192123E-002;1.918307156302035E-003;1.773207332007587E-003;
2.415833333333334E+009;1.798027008771896E-001;-5.638905242085457E-002;1.919635105878115E-003;1.782501931302249E-003;
2.416000000000000E+009;1.796268224716187E-001;-5.642989650368691E-002;1.843500998802483E-003;1.801974955014885E-003;
2.416166666666667E+009;1.795258969068527E-001;-5.677370727062225E-002;1.771904760971665E-003;1.658940105699003E-003;
2.416333333333334E+009;1.791148334741592E-001;-5.670821294188500E-002;1.855977694503963E-003;1.560906530357897E-003;
2.416500000000000E+009;1.785616576671600E-001;-5.693996325135231E-002;1.889129751361907E-003;1.685765921138227E-003;
2.416666666666667E+009;1.780617237091065E-001;-5.701041966676712E-002;1.914495253004134E-003;1.611317507922649E-003;
2.416833333333334E+009;1.773770451545715E-001;-5.724417418241501E-002;1.914356485940516E-003;1.520782243460417E-003;
2.417000000000000E+009;1.764883697032929E-001;-5.737257748842239E-002;1.961208879947662E-003;1.567175379022956E-003;
2.417166666666667E+009;1.757335662841797E-001;-5.749643966555595E-002;1.981657464057207E-003;1.511939102783799E-003;
2.417333333333334E+009;1.748056709766388E-001;-5.764432623982430E-002;1.965877367183566E-003;1.524598104879260E-003;
2.417500000000000E+009;1.737195402383804E-001;-5.814091488718987E-002;2.085620071738958E-003;1.560429926030338E-003;
2.417666666666667E+009;1.727720946073532E-001;-5.821212753653526E-002;2.157920273020864E-003;1.435867859981954E-003;
2.417833333333334E+009;1.715558469295502E-001;-5.871918424963951E-002;2.124208025634289E-003;1.406084280461073E-003;
2.418000000000000E+009;1.703229844570160E-001;-5.925722420215607E-002;2.143516670912504E-003;1.259195967577398E-003;
2.418166666666667E+009;1.690319776535034E-001;-5.958104878664017E-002;2.058364683762193E-003;1.252502319402993E-003;
2.418333333333334E+009;1.678617149591446E-001;-6.037577986717224E-002;2.320882864296436E-003;1.181705971248448E-003;
2.418500000000000E+009;1.665176749229431E-001;-6.091609224677086E-002;2.236195374280214E-003;1.171132549643517E-003;
2.418666666666667E+009;1.652693003416061E-001;-6.177278235554695E-002;2.304927213117480E-003;1.274567097425461E-003;
2.418833333333334E+009;1.636180877685547E-001;-6.261351704597473E-002;2.290630945935845E-003;1.117667998187244E-003;
2.419000000000000E+009;1.621910333633423E-001;-6.354393810033798E-002;2.336844569072127E-003;1.225107349455357E-003;
2.419166666666667E+009;1.609887182712555E-001;-6.445987522602081E-002;2.278380794450641E-003;8.915684884414077E-004;
2.419333333333334E+009;1.594497859477997E-001;-6.541579216718674E-002;2.301064319908619E-003;9.916151175275445E-004;
2.419500000000000E+009;1.583694666624069E-001;-6.678261607885361E-002;2.491373335942626E-003;1.011931803077459E-003;
2.419666666666667E+009;1.571019440889359E-001;-6.814543902873993E-002;2.355153206735849E-003;1.043580472469330E-003;
2.419833333333334E+009;1.559486389160156E-001;-6.927364319562912E-002;2.545449184253812E-003;9.640865027904511E-004;
2.420000000000000E+009;1.548172235488892E-001;-7.062555104494095E-002;2.528290031477809E-003;9.575163130648434E-004;
2.420166666666667E+009;1.538589447736740E-001;-7.221066206693649E-002;2.577472245320678E-003;8.736803429201245E-004;
2.420333333333334E+009;1.528836786746979E-001;-7.375428825616837E-002;2.542295027524233E-003;8.383043459616602E-004;
2.420500000000000E+009;1.521623283624649E-001;-7.524762302637100E-002;2.522846451029182E-003;8.084836881607771E-004;
2.420666666666667E+009;1.512583196163178E-001;-7.671210914850235E-002;2.569596515968442E-003;6.879942957311869E-004;
2.420833333333334E+009;1.505615562200546E-001;-7.859129458665848E-002;2.635328797623515E-003;6.712150061503053E-004;
2.421000000000000E+009;1.499379277229309E-001;-8.028812706470490E-002;2.766787074506283E-003;6.446733605116606E-004;
2.421166666666667E+009;1.497819423675537E-001;-8.201815932989121E-002;2.826479496434331E-003;5.339321214705706E-004;
2.421333333333334E+009;1.492573916912079E-001;-8.376910537481308E-002;2.747399732470512E-003;4.564824048429728E-004;
2.421500000000000E+009;1.488432586193085E-001;-8.555085211992264E-002;2.873887773603201E-003;5.291573470458388E-004;
2.421666666666667E+009;1.487014591693878E-001;-8.720280230045319E-002;2.787700388580561E-003;2.544813032727689E-004;
2.421833333333334E+009;1.485792696475983E-001;-8.892887085676193E-002;2.908404683694243E-003;3.096473519690335E-004;
2.422000000000000E+009;1.484302133321762E-001;-9.087977558374405E-002;2.811697311699390E-003;1.472670701332390E-004;
2.422166666666667E+009;1.486414074897766E-001;-9.270190447568893E-002;2.945559797808528E-003;1.067933044396341E-004;
2.422333333333334E+009;1.488180756568909E-001;-9.429322183132172E-002;2.887655282393098E-003;-9.459890861762688E-006;
2.422500000000000E+009;1.488869190216065E-001;-9.594125300645828E-002;2.948566339910030E-003;-2.259994507767260E-004;
2.422666666666667E+009;1.491435319185257E-001;-9.761487692594528E-002;2.853811951354146E-003;-1.222214341396466E-004;
2.422833333333334E+009;1.497211903333664E-001;-9.915467351675034E-002;2.919660648331046E-003;-3.728643641807139E-004;
2.423000000000000E+009;1.501367241144180E-001;-1.008122339844704E-001;2.847014693543315E-003;-2.693003334570676E-004;
2.423166666666667E+009;1.508127003908157E-001;-1.021380573511124E-001;2.877966500818729E-003;-5.717985332012177E-004;
2.423333333333334E+009;1.513253450393677E-001;-1.034079119563103E-001;2.869840478524566E-003;-7.051106076687574E-004;
2.423500000000000E+009;1.517480760812759E-001;-1.048479229211807E-001;2.853793557733297E-003;-6.858263514004648E-004;
2.423666666666667E+009;1.522057503461838E-001;-1.059176698327065E-001;2.741515403613448E-003;-5.769272684119642E-004;
2.423833333333334E+009;1.530438512563705E-001;-1.072292923927307E-001;2.877622377127409E-003;-7.628016755916178E-004;
2.424000000000000E+009;1.534811407327652E-001;-1.081445664167404E-001;2.656149910762906E-003;-8.930661133490503E-004;
2.424166666666667E+009;1.540635377168655E-001;-1.092446669936180E-001;2.727946965023875E-003;-8.610981167294085E-004;
2.424333333333334E+009;1.548784971237183E-001;-1.099524646997452E-001;2.754525979980826E-003;-1.099504996091127E-003;
2.424500000000000E+009;1.554611027240753E-001;-1.108663082122803E-001;2.577611245214939E-003;-1.090367557480931E-003;
2.424666666666667E+009;1.561048477888107E-001;-1.114761903882027E-001;2.502253279089928E-003;-1.172988908365369E-003;
2.424833333333334E+009;1.564793735742569E-001;-1.122277081012726E-001;2.732567721977830E-003;-1.281064469367266E-003;
2.425000000000000E+009;1.569586545228958E-001;-1.128015145659447E-001;2.532254206016660E-003;-1.185760251246393E-003;
2.425166666666667E+009;1.572472006082535E-001;-1.132699102163315E-001;2.482196316123009E-003;-1.317047514021397E-003;
2.425333333333334E+009;1.577749997377396E-001;-1.136188432574272E-001;2.274008467793465E-003;-1.243270467966795E-003;
2.425500000000000E+009;1.579897999763489E-001;-1.140959039330483E-001;2.449847757816315E-003;-1.363712828606367E-003;
2.425666666666667E+009;1.579135060310364E-001;-1.143415570259094E-001;2.388202818110585E-003;-1.472122967243195E-003;
2.425833333333334E+009;1.581198275089264E-001;-1.145180463790894E-001;2.336936304345727E-003;-1.364100142382085E-003;
2.426000000000000E+009;1.580910831689835E-001;-1.147661805152893E-001;2.324204193428159E-003;-1.608498510904610E-003;
2.426166666666667E+009;1.582961678504944E-001;-1.148913130164146E-001;2.297431929036975E-003;-1.620985683985055E-003;
2.426333333333334E+009;1.579723507165909E-001;-1.150449067354202E-001;2.244605217128992E-003;-1.639883266761899E-003;
2.426500000000000E+009;1.578456908464432E-001;-1.149681434035301E-001;2.177675021812320E-003;-1.688589225523174E-003;
2.426666666666667E+009;1.574354022741318E-001;-1.149480938911438E-001;2.128939144313335E-003;-1.806955086067319E-003;
2.426833333333334E+009;1.569032073020935E-001;-1.150516048073769E-001;2.245962619781494E-003;-1.885396777652204E-003;
2.427000000000000E+009;1.562725901603699E-001;-1.152723729610443E-001;2.043362706899643E-003;-1.945407479070127E-003;
2.427166666666667E+009;1.555838435888290E-001;-1.151217967271805E-001;1.897274050861597E-003;-1.847157254815102E-003;
2.427333333333334E+009;1.547973006963730E-001;-1.152756735682488E-001;2.000634558498859E-003;-1.932533574290574E-003;
2.427500000000000E+009;1.540114134550095E-001;-1.152953281998634E-001;1.966352574527264E-003;-2.089052461087704E-003;
2.427666666666667E+009;1.529441177845001E-001;-1.156444847583771E-001;1.982652116566896E-003;-1.892769476398826E-003;
2.427833333333334E+009;1.518552154302597E-001;-1.156605780124664E-001;1.896539470180869E-003;-1.987672178074718E-003;
