# Version 1.00
#
freq[Hz];re:Trc1_S11;im:Trc1_S11;re:Trc2_S21;im:Trc2_S21;
2.400000000000000E+009;1.539897471666336E-001;5.918919667601585E-002;-4.631279967725277E-003;-1.037657493725419E-003;
2.400166666666667E+009;1.543121635913849E-001;5.711167678236961E-002;-4.624864552170038E-003;-1.008184510283172E-003;
2.400333333333334E+009;1.544470340013504E-001;5.500177294015884E-002;-4.731162451207638E-003;-6.053592660464346E-004;
2.400500000000000E+009;1.548802107572556E-001;5.292366072535515E-002;-4.649152513593435E-003;-6.946716457605362E-004;
2.400666666666667E+009;1.552669852972031E-001;5.067466199398041E-002;-4.608210641890764E-003;-4.476612957660109E-004;
2.400833333333334E+009;1.557826697826386E-001;4.860635846853256E-002;-4.685998894274235E-003;-1.899647322716191E-004;
2.401000000000000E+009;1.563248485326767E-001;4.631180688738823E-002;-4.529113415628672E-003;-2.442672666802537E-005;
2.401166666666667E+009;1.569959670305252E-001;4.423858225345612E-002;-4.578487947583199E-003;1.667128890403546E-005;
2.401333333333334E+009;1.574177294969559E-001;4.202652722597122E-002;-4.713590722531080E-003;1.996419741772115E-004;
2.401500000000000E+009;1.583338826894760E-001;4.020741581916809E-002;-4.553538281470537E-003;3.519646124914289E-004;
2.401666666666667E+009;1.591689288616180E-001;3.811287507414818E-002;-4.305380862206221E-003;3.560266632121056E-004;
2.401833333333334E+009;1.598922461271286E-001;3.626675903797150E-002;-4.487901460379362E-003;7.006363011896610E-004;
2.402000000000000E+009;1.607253998517990E-001;3.437553718686104E-002;-4.553352482616901E-003;7.224966539070010E-004;
2.402166666666667E+009;1.617613434791565E-001;3.258755058050156E-002;-4.341185558587313E-003;8.668311056680977E-004;
2.402333333333334E+009;1.625781953334808E-001;3.097528964281082E-002;-4.252838902175427E-003;1.106881652958691E-003;
2.402500000000000E+009;1.638621687889099E-001;2.941953204572201E-002;-4.182937555015087E-003;1.069317455403507E-003;
2.402666666666667E+009;1.648096144199371E-001;2.805455587804318E-002;-4.043180495500565E-003;1.208600588142872E-003;
2.402833333333334E+009;1.658045351505280E-001;2.661914750933647E-002;-4.093639086931944E-003;1.234159222804010E-003;
2.403000000000000E+009;1.668652892112732E-001;2.520422264933586E-002;-3.967007622122765E-003;1.444598543457687E-003;
2.403166666666667E+009;1.680758446455002E-001;2.409492246806622E-002;-4.047396127134562E-003;1.388659933581948E-003;
2.403333333333334E+009;1.691896915435791E-001;2.290576137602329E-002;-4.029074683785439E-003;1.607997925020754E-003;
2.403500000000000E+009;1.702898889780045E-001;2.195076085627079E-002;-3.848351305350661E-003;1.744738663546741E-003;
2.403666666666667E+009;1.712689548730850E-001;2.101926691830158E-002;-3.848359920084477E-003;1.911844359710813E-003;
2.403833333333334E+009;1.723987013101578E-001;2.021723985671997E-002;-3.802919993177056E-003;1.821479061618447E-003;
2.404000000000000E+009;1.735762506723404E-001;1.936051994562149E-002;-3.713463665917516E-003;1.780539867468178E-003;
2.404166666666667E+009;1.743397265672684E-001;1.864460110664368E-002;-3.538634628057480E-003;2.008161507546902E-003;
2.404333333333334E+009;1.752518415451050E-001;1.805367320775986E-002;-3.762400476261973E-003;2.088075270876288E-003;
2.404500000000000E+009;1.760893315076828E-001;1.736612059175968E-002;-3.520288737490773E-003;2.104850485920906E-003;
2.404666666666667E+009;1.770080178976059E-001;1.705827750265598E-002;-3.419163869693875E-003;2.419668249785900E-003;
2.404833333333334E+009;1.776827424764633E-001;1.667668484151363E-002;-3.409134224057198E-003;2.398627344518900E-003;
2.405000000000000E+009;1.783726364374161E-001;1.625976338982582E-002;-3.335792804136872E-003;2.610981930047274E-003;
2.405166666666667E+009;1.790478378534317E-001;1.593978703022003E-002;-3.224464366212487E-003;2.596934093162417E-003;
2.405333333333334E+009;1.795450001955032E-001;1.565637812018395E-002;-3.462197026237845E-003;2.791624050587416E-003;
2.405500000000000E+009;1.798216849565506E-001;1.550673507153988E-002;-3.061326686292887E-003;2.986219245940447E-003;
2.405666666666667E+009;1.801190674304962E-001;1.526244450360537E-002;-2.916594268754125E-003;2.875689649954438E-003;
2.405833333333334E+009;1.804035753011704E-001;1.523693557828665E-002;-2.872348297387362E-003;3.032679902389646E-003;
2.406000000000000E+009;1.804343312978745E-001;1.485166046768427E-002;-2.787407487630844E-003;3.164382884278894E-003;
2.406166666666667E+009;1.804570555686951E-001;1.486122235655785E-002;-2.597988350316882E-003;3.365289187058806E-003;
2.406333333333334E+009;1.805056482553482E-001;1.461246237158775E-002;-2.613076707348228E-003;3.388230223208666E-003;
2.406500000000000E+009;1.802999973297119E-001;1.434510294348002E-002;-2.546095522120595E-003;3.382069757208228E-003;
2.406666666666667E+009;1.800037473440170E-001;1.413848809897900E-002;-2.299080369994044E-003;3.522495040670037E-003;
2.406833333333334E+009;1.797723472118378E-001;1.381189562380314E-002;-2.044134307652712E-003;3.630782244727016E-003;
2.407000000000000E+009;1.795053631067276E-001;1.338892616331577E-002;-2.013684716075659E-003;3.423859132453799E-003;
2.407166666666667E+009;1.790776103734970E-001;1.297878287732601E-002;-1.760446000844240E-003;3.487296169623733E-003;
2.407333333333334E+009;1.784990578889847E-001;1.229697465896606E-002;-1.681419904343784E-003;3.591110231354833E-003;
2.407500000000000E+009;1.779398918151856E-001;1.174468081444502E-002;-1.545107923448086E-003;3.631718689575791E-003;
2.407666666666667E+009;1.773939132690430E-001;1.126335375010967E-002;-1.487858244217932E-003;3.597003873437643E-003;
2.407833333333334E+009;1.765053868293762E-001;1.027092058211565E-002;-1.279756892472506E-003;3.567214589565992E-003;
2.408000000000000E+009;1.758375167846680E-001;9.290552698075771E-003;-1.203099382109940E-003;3.504463005810976E-003;
2.408166666666667E+009;1.751533895730972E-001;8.568593300879002E-003;-1.103015500120819E-003;3.703133203089237E-003;
2.408333333333334E+009;1.744921505451202E-001;7.490515243262053E-003;-9.797859238460660E-004;3.560963785275817E-003;
2.408500000000000E+009;1.735872775316238E-001;6.209851708263159E-003;-9.724569972604513E-004;3.600964555516839E-003;
2.408666666666667E+009;1.728250831365585E-001;4.924578592181206E-003;-8.091106428764761E-004;3.558781463652849E-003;
2.408833333333334E+009;1.720456331968308E-001;3.668913384899497E-003;-7.221610285341740E-004;3.662743838503957E-003;
2.409000000000000E+009;1.712708473205566E-001;2.082556718960404E-003;-6.648825365118682E-004;3.640097565948963E-003;
2.409166666666667E+009;1.707887053489685E-001;6.748788291588426E-004;-4.963276442140341E-004;3.551293630152941E-003;
2.409333333333334E+009;1.699234545230866E-001;-1.047887140884996E-003;-2.612887474242598E-004;3.608573460951448E-003;
2.409500000000000E+009;1.692206114530563E-001;-2.781141782179475E-003;-4.019412153866142E-004;3.477294696494937E-003;
2.409666666666667E+009;1.684640347957611E-001;-4.542213864624500E-003;-2.030678879236803E-004;3.536173375323415E-003;
2.409833333333334E+009;1.678896546363831E-001;-6.318182684481144E-003;-2.188361977459863E-004;3.496142569929361E-003;
2.410000000000000E+009;1.674990206956863E-001;-8.193102665245533E-003;-6.946233042981476E-005;3.448085859417915E-003;
2.410166666666667E+009;1.671438813209534E-001;-1.007842645049095E-002;2.787455741781741E-005;3.525419626384974E-003;
2.410333333333334E+009;1.667659282684326E-001;-1.199118141084909E-002;2.031212534348015E-005;3.459182800725102E-003;
2.410500000000000E+009;1.665054559707642E-001;-1.409189216792584E-002;1.794460986275226E-004;3.353964770212770E-003;
2.410666666666667E+009;1.662400811910629E-001;-1.635027863085270E-002;3.521646431181580E-004;3.379671834409237E-003;
2.410833333333334E+009;1.661671996116638E-001;-1.823833584785461E-002;2.803399402182549E-004;3.313264809548855E-003;
2.411000000000000E+009;1.660495400428772E-001;-2.029070630669594E-002;4.074887547176331E-004;3.273888258263469E-003;
2.411166666666667E+009;1.660270839929581E-001;-2.238200046122074E-002;5.481744301505387E-004;3.415538230910897E-003;
2.411333333333334E+009;1.662590801715851E-001;-2.435122057795525E-002;6.061782478354871E-004;3.242748789489269E-003;
2.411500000000000E+009;1.665225476026535E-001;-2.666782774031162E-002;7.072000880725682E-004;3.328106598928571E-003;
2.411666666666667E+009;1.667658835649490E-001;-2.842246368527412E-002;7.350382511503995E-004;3.213978838175535E-003;
2.411833333333334E+009;1.672135889530182E-001;-3.031204640865326E-002;8.538235560990870E-004;3.112687962129712E-003;
2.412000000000000E+009;1.676517426967621E-001;-3.242094814777374E-002;9.941090829670429E-004;3.115440718829632E-003;
2.412166666666667E+009;1.680412888526917E-001;-3.439788892865181E-002;1.034014858305454E-003;3.144453046843410E-003;
2.412333333333334E+009;1.689211279153824E-001;-3.612388670444489E-002;1.051369588822126E-003;3.103297669440508E-003;
2.412500000000000E+009;1.694602668285370E-001;-3.789693489670754E-002;1.074349274858832E-003;2.975071081891656E-003;
2.412666666666667E+009;1.702226698398590E-001;-3.977409750223160E-002;1.306337770074606E-003;2.807254670187831E-003;
2.412833333333334E+009;1.709572523832321E-001;-4.135048389434815E-002;1.417339663021267E-003;2.879986306652427E-003;
2.413000000000000E+009;1.716086566448212E-001;-4.283240064978600E-002;1.467616413719952E-003;2.874560654163361E-003;
2.413166666666667E+009;1.722736954689026E-001;-4.438713937997818E-002;1.544575789012015E-003;2.743639517575502E-003;
2.413333333333334E+009;1.730857938528061E-001;-4.590532928705216E-002;1.486212830059230E-003;2.605450572445989E-003;
2.413500000000000E+009;1.739209741353989E-001;-4.715769365429878E-002;1.606721547432244E-003;2.587403170764446E-003;
2.413666666666667E+009;1.745557188987732E-001;-4.836449399590492E-002;1.727514318190515E-003;2.531838137656450E-003;
2.413833333333334E+009;1.753193438053131E-001;-4.951645433902741E-002;1.827853149734438E-003;2.533813007175922E-003;
2.414000000000000E+009;1.757048070430756E-001;-5.059452354907990E-002;1.796238473616540E-003;2.318800892680883E-003;
2.414166666666667E+009;1.767497956752777E-001;-5.151247605681419E-002;1.759669743478298E-003;2.181284595280886E-003;
2.414333333333334E+009;1.772787719964981E-001;-5.235816165804863E-002;1.816814299672842E-003;2.103606937453151E-003;
2.414500000000000E+009;1.780693233013153E-001;-5.294081196188927E-002;1.732294564135373E-003;2.097195945680141E-003;
2.414666666666667E+009;1.785002350807190E-001;-5.375131592154503E-002;1.698468229733408E-003;1.985286129638553E-003;
2.414833333333334E+009;1.789045631885529E-001;-5.445796996355057E-002;1.648189150728285E-003;1.935940585099161E-003;
2.415000000000000E+009;1.791318655014038E-001;-5.481297895312309E-002;1.883161254227161E-003;1.794071868062019E-003;
2.415166666666667E+009;1.794092059135437E-001;-5.518071725964546E-002;1.731335185468197E-003;1.824437407776713E-003;
2.415333333333334E+009;1.797846108675003E-001;-5.571895092725754E-002;1.856959774158895E-003;1.833604648709297E-003;
2.415500000000000E+009;1.799449771642685E-001;-5.589935183525085E-002;1.959663350135088E-003;1.808015862479806E-003;
2.415666666666667E+009;1.798604726791382E-001;-5.607607960700989E-002;1.801058766432107E-003;1.633716165088117E-003;
2.415833333333334E+009;1.799424439668655E-001;-5.641259998083115E-002;1.814629533328116E-003;1.742446911521256E-003;
2.416000000000000E+009;1.797069311141968E-001;-5.646673962473869E-002;1.819459605030716E-003;1.666875439696014E-003;
2.416166666666667E+009;1.795265227556229E-001;-5.678886920213699E-002;1.828766195103526E-003;1.686382340267301E-003;
2.416333333333334E+009;1.791169345378876E-001;-5.675056949257851E-002;1.877350616268814E-003;1.627505058422685E-003;
2.416500000000000E+009;1.786292493343353E-001;-5.701636150479317E-002;2.034943550825119E-003;1.553973997943103E-003;
2.416666666666667E+009;1.780477315187454E-001;-5.696926638484001E-002;2.032359596341848E-003;1.599761890247464E-003;
2.416833333333334E+009;1.774754077196121E-001;-5.731323733925819E-002;2.009169897064567E-003;1.465356326662004E-003;
2.417000000000000E+009;1.765173226594925E-001;-5.745903402566910E-002;2.006288850679994E-003;1.549626234918833E-003;
2.417166666666667E+009;1.756674796342850E-001;-5.743270367383957E-002;2.218787325546145E-003;1.524123363196850E-003;
2.417333333333334E+009;1.747910976409912E-001;-5.770526826381683E-002;2.070798771455884E-003;1.426857430487871E-003;
2.417500000000000E+009;1.735837608575821E-001;-5.812011659145355E-002;2.128090942278504E-003;1.495944568887353E-003;
2.417666666666667E+009;1.726871877908707E-001;-5.825930088758469E-002;2.035920973867178E-003;1.351523795165122E-003;
2.417833333333334E+009;1.715903282165527E-001;-5.866475403308868E-002;2.155172638595104E-003;1.443239510990679E-003;
2.418000000000000E+009;1.703850775957108E-001;-5.924773216247559E-002;2.144642639905214E-003;1.468747737817466E-003;
2.418166666666667E+009;1.689792126417160E-001;-5.951265618205071E-002;2.354613738134503E-003;1.209011883474886E-003;
2.418333333333334E+009;1.680039018392563E-001;-6.029744446277618E-002;2.192859305068851E-003;1.257352530956268E-003;
2.418500000000000E+009;1.664876639842987E-001;-6.097590923309326E-002;2.205558819696307E-003;1.371922786347568E-003;
2.418666666666667E+009;1.651643216609955E-001;-6.168611720204353E-002;2.248557051643729E-003;1.187745016068220E-003;
2.418833333333334E+009;1.637536138296127E-001;-6.255784630775452E-002;2.265356713905931E-003;1.153268967755139E-003;
2.419000000000000E+009;1.623619943857193E-001;-6.332403421401978E-002;2.218884415924549E-003;1.123348018154502E-003;
2.419166666666667E+009;1.611131876707077E-001;-6.441934406757355E-002;2.330738585442305E-003;1.282952493056655E-003;
2.419333333333334E+009;1.596370637416840E-001;-6.536440551280975E-002;2.412694273516536E-003;1.151848467998207E-003;
2.419500000000000E+009;1.583273708820343E-001;-6.666652858257294E-002;2.341397805139422E-003;1.137906685471535E-003;
2.419666666666667E+009;1.573598682880402E-001;-6.804659962654114E-002;2.426528604701161E-003;9.341600816696882E-004;
2.419833333333334E+009;1.559946835041046E-001;-6.917466223239899E-002;2.497420646250248E-003;9.584402432665229E-004;
2.420000000000000E+009;1.550429165363312E-001;-7.080999761819840E-002;2.575008897110820E-003;9.801696287468076E-004;
2.420166666666667E+009;1.539404094219208E-001;-7.214277982711792E-002;2.444764599204063E-003;9.000449790619314E-004;
2.420333333333334E+009;1.529854685068131E-001;-7.372983545064926E-002;2.721901284530759E-003;7.653167122043669E-004;
2.420500000000000E+009;1.521566361188889E-001;-7.515089213848114E-002;2.621456282213330E-003;7.958952919580042E-004;
2.420666666666667E+009;1.513781249523163E-001;-7.665032148361206E-002;2.601811662316322E-003;7.870484841987491E-004;
2.420833333333334E+009;1.506228446960449E-001;-7.847904413938522E-002;2.687220927327871E-003;7.477291510440409E-004;
2.421000000000000E+009;1.500442028045654E-001;-8.033829927444458E-002;2.789102960377932E-003;6.131454720161855E-004;
2.421166666666667E+009;1.494654119014740E-001;-8.199030905961990E-002;2.856730017811060E-003;5.545070162042975E-004;
2.421333333333334E+009;1.492208391427994E-001;-8.376944065093994E-002;2.705116523429751E-003;5.067479214631021E-004;
2.421500000000000E+009;1.486527174711227E-001;-8.549200743436813E-002;2.872884273529053E-003;3.253432514611632E-004;
2.421666666666667E+009;1.486728340387344E-001;-8.727656304836273E-002;2.930056769400835E-003;3.001981531269848E-004;
2.421833333333334E+009;1.484763026237488E-001;-8.908555656671524E-002;2.790907165035605E-003;2.711647830437869E-004;
2.422000000000000E+009;1.485027670860291E-001;-9.080150723457336E-002;2.997493604198098E-003;1.587733713677153E-004;
2.422166666666667E+009;1.485225856304169E-001;-9.254147112369537E-002;2.874957630410790E-003;-3.567941894289106E-005;
2.422333333333334E+009;1.486112922430039E-001;-9.424657374620438E-002;2.859385451301932E-003;-6.555802247021347E-005;
2.422500000000000E+009;1.488985270261765E-001;-9.577436745166779E-002;2.933800220489502E-003;-1.624593423912302E-004;
2.422666666666667E+009;1.490900814533234E-001;-9.757492691278458E-002;3.030815860256553E-003;-3.280928067397326E-004;
2.422833333333334E+009;1.495709866285324E-001;-9.937281161546707E-002;2.864861395210028E-003;-3.695808991324157E-004;
2.423000000000000E+009;1.499678641557694E-001;-1.005552485585213E-001;2.824145602062345E-003;-5.476686637848616E-004;
2.423166666666667E+009;1.505810022354126E-001;-1.020418703556061E-001;2.908004214987159E-003;-4.677121760323644E-004;
2.423333333333334E+009;1.513392180204392E-001;-1.033891215920448E-001;2.838305430486798E-003;-5.425164708867669E-004;
2.423500000000000E+009;1.517219990491867E-001;-1.047045812010765E-001;2.855515340343118E-003;-5.895627546124160E-004;
2.423666666666667E+009;1.521811932325363E-001;-1.059908866882324E-001;2.661718288436532E-003;-6.898029241710901E-004;
2.423833333333334E+009;1.529597193002701E-001;-1.071766689419746E-001;2.797514433041215E-003;-7.641036645509303E-004;
2.424000000000000E+009;1.536251753568649E-001;-1.081199571490288E-001;2.708538668230176E-003;-8.171615190804005E-004;
2.424166666666667E+009;1.540695875883102E-001;-1.091315224766731E-001;2.654159674420953E-003;-9.423997835256159E-004;
2.424333333333334E+009;1.546583771705627E-001;-1.098917946219444E-001;2.505398355424404E-003;-9.504897170700133E-004;
2.424500000000000E+009;1.554134190082550E-001;-1.108609661459923E-001;2.598399296402931E-003;-1.119409338571131E-003;
2.424666666666667E+009;1.560616493225098E-001;-1.114483475685120E-001;2.653599018231034E-003;-1.157367718406022E-003;
2.424833333333334E+009;1.563724875450134E-001;-1.121469959616661E-001;2.505134558305144E-003;-1.132752513512969E-003;
2.425000000000000E+009;1.569389849901199E-001;-1.126281619071960E-001;2.445615828037262E-003;-1.266718027181923E-003;
2.425166666666667E+009;1.570353806018829E-001;-1.131719723343849E-001;2.565472619608045E-003;-1.335153821855784E-003;
2.425333333333334E+009;1.575716882944107E-001;-1.135851740837097E-001;2.501003444194794E-003;-1.513734459877014E-003;
2.425500000000000E+009;1.579395383596420E-001;-1.140595972537994E-001;2.413789741694927E-003;-1.555025461129844E-003;
2.425666666666667E+009;1.579703092575073E-001;-1.142208278179169E-001;2.486256882548332E-003;-1.425609923899174E-003;
2.425833333333334E+009;1.581542044878006E-001;-1.145499721169472E-001;2.452323678880930E-003;-1.460318453609943E-003;
2.426000000000000E+009;1.581226438283920E-001;-1.147857233881950E-001;2.279989188537002E-003;-1.590801402926445E-003;
2.426166666666667E+009;1.581914126873016E-001;-1.149130165576935E-001;2.308459021151066E-003;-1.519235665909946E-003;
2.426333333333334E+009;1.578620970249176E-001;-1.149514317512512E-001;2.278607804328203E-003;-1.785409636795521E-003;
2.426500000000000E+009;1.578085571527481E-001;-1.150459572672844E-001;2.356520853936672E-003;-1.690075034275651E-003;
2.426666666666667E+009;1.575377285480499E-001;-1.149711310863495E-001;2.172615146264434E-003;-1.743748434819281E-003;
2.426833333333334E+009;1.568906456232071E-001;-1.150126010179520E-001;2.060792408883572E-003;-1.888329279609025E-003;
2.427000000000000E+009;1.562672257423401E-001;-1.152097359299660E-001;2.205311786383390E-003;-1.956445397809148E-003;
2.427166666666667E+009;1.556130200624466E-001;-1.151233986020088E-001;2.164151286706328E-003;-1.963223097845912E-003;
2.427333333333334E+009;1.547210663557053E-001;-1.152386590838432E-001;2.014609053730965E-003;-2.121484372764826E-003;
2.427500000000000E+009;1.540741771459580E-001;-1.153641790151596E-001;1.951993326656520E-003;-2.044600667431951E-003;
2.427666666666667E+009;1.529753357172012E-001;-1.155689954757690E-001;1.901265583001077E-003;-2.066998044028878E-003;
2.427833333333334E+009;1.517756134271622E-001;-1.156519651412964E-001;1.977494219318032E-003;-2.018488710746169E-003;
