# Version 1.00
#
freq[Hz];re:Trc1_S11;im:Trc1_S11;re:Trc2_S21;im:Trc2_S21;
2.400000000000000E+009;1.539350003004074E-001;5.908011645078659E-002;-4.587866831570864E-003;-9.657018817961216E-004;
2.400166666666667E+009;1.541405618190765E-001;5.721672251820564E-002;-4.645903594791889E-003;-8.165991748683155E-004;
2.400333333333334E+009;1.543673425912857E-001;5.501985922455788E-002;-4.558226559311152E-003;-7.598042138852179E-004;
2.400500000000000E+009;1.548880338668823E-001;5.282417312264442E-002;-4.580779466778040E-003;-5.036643706262112E-004;
2.400666666666667E+009;1.553079485893250E-001;5.069141462445259E-002;-4.677394870668650E-003;-5.213150870986283E-004;
2.400833333333334E+009;1.557176709175110E-001;4.849871993064880E-002;-4.592081997543573E-003;-2.540700079407543E-004;
2.401000000000000E+009;1.562029719352722E-001;4.633958637714386E-002;-4.580896813422442E-003;-1.840361073845998E-004;
2.401166666666667E+009;1.569833755493164E-001;4.405141249299049E-002;-4.599389620125294E-003;-4.984966653864831E-005;
2.401333333333334E+009;1.575779914855957E-001;4.200127720832825E-002;-4.572337493300438E-003;3.053247928619385E-005;
2.401500000000000E+009;1.583406329154968E-001;4.015843197703362E-002;-4.488007165491581E-003;2.268997923238203E-004;
2.401666666666667E+009;1.590443551540375E-001;3.808645159006119E-002;-4.586775787174702E-003;4.484985838644207E-004;
2.401833333333334E+009;1.599899828433991E-001;3.615595027804375E-002;-4.578035790473223E-003;4.811041289940476E-004;
2.402000000000000E+009;1.606020033359528E-001;3.434951975941658E-002;-4.191012121737003E-003;6.286675343289971E-004;
2.402166666666667E+009;1.616485416889191E-001;3.253315016627312E-002;-4.343848209828138E-003;7.030885899439454E-004;
2.402333333333334E+009;1.626196950674057E-001;3.097308240830898E-002;-4.257176537066698E-003;9.376367088407278E-004;
2.402500000000000E+009;1.637789160013199E-001;2.945255301892757E-002;-4.247352946549654E-003;1.009770901873708E-003;
2.402666666666667E+009;1.647176593542099E-001;2.776718139648438E-002;-4.183320794254541E-003;1.083393464796245E-003;
2.402833333333334E+009;1.658213436603546E-001;2.647872641682625E-002;-4.018473904579878E-003;1.114365411922336E-003;
2.403000000000000E+009;1.670065224170685E-001;2.502749301493168E-002;-4.052092321217060E-003;1.322862575761974E-003;
2.403166666666667E+009;1.680285036563873E-001;2.387449704110622E-002;-3.928769379854202E-003;1.423368928954005E-003;
2.403333333333334E+009;1.691415458917618E-001;2.297505736351013E-002;-3.828740445896983E-003;1.487195375375450E-003;
2.403500000000000E+009;1.701488047838211E-001;2.185572497546673E-002;-3.939846530556679E-003;1.587188919074833E-003;
2.403666666666667E+009;1.712895333766937E-001;2.079316973686218E-002;-3.930817358195782E-003;1.621325034648180E-003;
2.403833333333334E+009;1.724154800176621E-001;1.998951658606529E-002;-3.691926831379533E-003;1.723649213090539E-003;
2.404000000000000E+009;1.733555793762207E-001;1.930168271064758E-002;-3.744638524949551E-003;1.901059877127409E-003;
2.404166666666667E+009;1.742998808622360E-001;1.858090795576572E-002;-3.692488651722670E-003;1.856492250226438E-003;
2.404333333333334E+009;1.752839237451553E-001;1.813312806189060E-002;-3.635381581261754E-003;2.122396603226662E-003;
2.404500000000000E+009;1.760572791099548E-001;1.747328601777554E-002;-3.622089046984911E-003;2.134957816451788E-003;
2.404666666666667E+009;1.768209487199783E-001;1.710159517824650E-002;-3.450232557952404E-003;2.416647272184491E-003;
2.404833333333334E+009;1.776105612516403E-001;1.677156426012516E-002;-3.507600631564856E-003;2.358633792027831E-003;
2.405000000000000E+009;1.782545149326325E-001;1.620626635849476E-002;-3.318641567602754E-003;2.615460660308600E-003;
2.405166666666667E+009;1.788477450609207E-001;1.600234396755695E-002;-3.349511418491602E-003;2.540294313803315E-003;
2.405333333333334E+009;1.792812496423721E-001;1.552829146385193E-002;-3.148851916193962E-003;2.792357467114925E-003;
2.405500000000000E+009;1.797207742929459E-001;1.560149434953928E-002;-3.094738814979792E-003;2.835191786289215E-003;
2.405666666666667E+009;1.801597028970718E-001;1.528837624937296E-002;-2.976489951834083E-003;3.009997075423598E-003;
2.405833333333334E+009;1.801894456148148E-001;1.520900521427393E-002;-3.058922942727804E-003;3.013352164998651E-003;
2.406000000000000E+009;1.804604381322861E-001;1.487515028566122E-002;-2.981898142024875E-003;2.944220555946231E-003;
2.406166666666667E+009;1.803424358367920E-001;1.488097850233316E-002;-2.624895889312029E-003;3.209933405742049E-003;
2.406333333333334E+009;1.805239617824554E-001;1.459243055433035E-002;-2.408514032140374E-003;3.392793470993638E-003;
2.406500000000000E+009;1.803402304649353E-001;1.420204248279333E-002;-2.279402688145638E-003;3.274947870522738E-003;
2.406666666666667E+009;1.799488663673401E-001;1.417416334152222E-002;-2.144579309970141E-003;3.412735182791948E-003;
2.406833333333334E+009;1.798019409179688E-001;1.372326258569956E-002;-2.141359727829695E-003;3.449323819950223E-003;
2.407000000000000E+009;1.793727874755859E-001;1.344594731926918E-002;-1.942917238920927E-003;3.516642376780510E-003;
2.407166666666667E+009;1.790852844715118E-001;1.300121750682592E-002;-1.965664792805910E-003;3.731994191184640E-003;
2.407333333333334E+009;1.785105168819428E-001;1.242549158632755E-002;-1.725094043649733E-003;3.524018684402108E-003;
2.407500000000000E+009;1.779458671808243E-001;1.181051507592201E-002;-1.598794129677117E-003;3.551953006535769E-003;
2.407666666666667E+009;1.773754805326462E-001;1.114379428327084E-002;-1.567457569763064E-003;3.611267078667879E-003;
2.407833333333334E+009;1.766448467969894E-001;1.024513784796000E-002;-1.289901789277792E-003;3.681319300085306E-003;
2.408000000000000E+009;1.759352982044220E-001;9.306735359132290E-003;-1.320359297096729E-003;3.482760395854712E-003;
2.408166666666667E+009;1.751337051391602E-001;8.484373800456524E-003;-1.152339042164385E-003;3.593611298128963E-003;
2.408333333333334E+009;1.746142357587814E-001;7.462531793862581E-003;-1.069472637027502E-003;3.644887125119567E-003;
2.408500000000000E+009;1.737661808729172E-001;6.140985060483217E-003;-1.013292348943651E-003;3.577542025595903E-003;
2.408666666666667E+009;1.728538870811462E-001;4.962888546288014E-003;-9.184904629364610E-004;3.606747835874558E-003;
2.408833333333334E+009;1.720400452613831E-001;3.656521672382951E-003;-8.277561864815652E-004;3.681002650409937E-003;
2.409000000000000E+009;1.713301092386246E-001;2.108061220496893E-003;-6.446647457778454E-004;3.648850601166487E-003;
2.409166666666667E+009;1.705927252769470E-001;5.336265312507749E-004;-4.733234527520835E-004;3.579359967261553E-003;
2.409333333333334E+009;1.698650866746903E-001;-1.138664199970663E-003;-4.103267856407911E-004;3.603483550250530E-003;
2.409500000000000E+009;1.692791134119034E-001;-2.936945995315909E-003;-4.173824854660779E-004;3.467825474217534E-003;
2.409666666666667E+009;1.684239506721497E-001;-4.456712864339352E-003;-3.931317478418350E-004;3.488433547317982E-003;
2.409833333333334E+009;1.679002791643143E-001;-6.284444127231836E-003;-1.091689919121563E-004;3.394413506612182E-003;
2.410000000000000E+009;1.674406379461289E-001;-8.198538795113564E-003;-8.887596777640283E-006;3.486244007945061E-003;
2.410166666666667E+009;1.669815033674240E-001;-1.012267731130123E-002;-1.104002512875013E-004;3.286220831796527E-003;
2.410333333333334E+009;1.667376458644867E-001;-1.218920946121216E-002;-2.081254206132144E-005;3.428723663091660E-003;
2.410500000000000E+009;1.663550883531570E-001;-1.415417157113552E-002;3.233618917874992E-004;3.458128310739994E-003;
2.410666666666667E+009;1.660419404506683E-001;-1.648003607988358E-002;3.098048618994653E-004;3.426355542615056E-003;
2.410833333333334E+009;1.660154461860657E-001;-1.833323016762734E-002;2.934360818471760E-004;3.283399855718017E-003;
2.411000000000000E+009;1.661691963672638E-001;-2.037545107305050E-002;3.762849955819547E-004;3.197324462234974E-003;
2.411166666666667E+009;1.659917980432510E-001;-2.244253829121590E-002;5.667420919053257E-004;3.242372767999768E-003;
2.411333333333334E+009;1.662697643041611E-001;-2.440064586699009E-002;6.031644879840314E-004;3.118319204077125E-003;
2.411500000000000E+009;1.663432717323303E-001;-2.648424357175827E-002;5.784427630715072E-004;3.108692355453968E-003;
2.411666666666667E+009;1.667717993259430E-001;-2.844395861029625E-002;7.743013557046652E-004;3.128389595076442E-003;
2.411833333333334E+009;1.670377701520920E-001;-3.047994524240494E-002;8.938322425819933E-004;3.017635317519307E-003;
2.412000000000000E+009;1.677657663822174E-001;-3.255590796470642E-002;1.000100281089544E-003;3.002486657351255E-003;
2.412166666666667E+009;1.681526452302933E-001;-3.444092348217964E-002;1.146035850979388E-003;2.956028096377850E-003;
2.412333333333334E+009;1.688335537910461E-001;-3.618186339735985E-002;1.209598733112216E-003;3.054937347769737E-003;
2.412500000000000E+009;1.692866086959839E-001;-3.785663843154907E-002;1.205135486088693E-003;2.862508874386549E-003;
2.412666666666667E+009;1.700234562158585E-001;-3.974240273237228E-002;1.292064203880727E-003;2.866283757612109E-003;
2.412833333333334E+009;1.708014905452728E-001;-4.120584577322006E-002;1.273827743716538E-003;2.823996590450406E-003;
2.413000000000000E+009;1.715355813503265E-001;-4.283126816153526E-002;1.407740986905992E-003;2.834275597706437E-003;
2.413166666666667E+009;1.724073886871338E-001;-4.432287067174912E-002;1.527371117845178E-003;2.695640083402395E-003;
2.413333333333334E+009;1.729484945535660E-001;-4.571662470698357E-002;1.381067093461752E-003;2.617222489789128E-003;
2.413500000000000E+009;1.738046407699585E-001;-4.712009802460671E-002;1.564338221214712E-003;2.555854618549347E-003;
2.413666666666667E+009;1.745173335075378E-001;-4.848523810505867E-002;1.839169650338590E-003;2.370636910200119E-003;
2.413833333333334E+009;1.752580255270004E-001;-4.951097816228867E-002;1.585855381563306E-003;2.293669851496816E-003;
2.414000000000000E+009;1.758469939231873E-001;-5.045912414789200E-002;1.520240213721991E-003;2.338437363505364E-003;
2.414166666666667E+009;1.767559647560120E-001;-5.146511271595955E-002;1.800437807105482E-003;2.180399140343070E-003;
2.414333333333334E+009;1.772699952125549E-001;-5.238657444715500E-002;1.570893567986786E-003;2.262172522023320E-003;
2.414500000000000E+009;1.779585033655167E-001;-5.310821160674095E-002;1.486712717451155E-003;2.067271620035172E-003;
2.414666666666667E+009;1.783814877271652E-001;-5.369362235069275E-002;1.656225533224642E-003;2.094304654747248E-003;
2.414833333333334E+009;1.787831038236618E-001;-5.440404638648033E-002;1.798997982405126E-003;1.864126999862492E-003;
2.415000000000000E+009;1.791764795780182E-001;-5.483020469546318E-002;1.789322588592768E-003;1.939739915542305E-003;
2.415166666666667E+009;1.794849336147308E-001;-5.526470020413399E-002;1.710565178655088E-003;1.868073362857103E-003;
2.415333333333334E+009;1.798040568828583E-001;-5.566459149122238E-002;1.891287858597934E-003;1.829520682804287E-003;
2.415500000000000E+009;1.799219250679016E-001;-5.602090805768967E-002;1.810423447750509E-003;1.835363334976137E-003;
2.415666666666667E+009;1.798469573259354E-001;-5.607973784208298E-002;1.838837750256062E-003;1.790005830116570E-003;
2.415833333333334E+009;1.800131052732468E-001;-5.645249411463738E-002;1.882783137261868E-003;1.724881934933364E-003;
2.416000000000000E+009;1.795875877141953E-001;-5.651660636067390E-002;1.869093626737595E-003;1.576241105794907E-003;
2.416166666666667E+009;1.795136183500290E-001;-5.668365955352783E-002;1.885004225187004E-003;1.658139401115477E-003;
2.416333333333334E+009;1.790720075368881E-001;-5.677750334143639E-002;1.724828500300646E-003;1.690827077254653E-003;
2.416500000000000E+009;1.787381023168564E-001;-5.703495815396309E-002;1.925355056300759E-003;1.687087584286928E-003;
2.416666666666667E+009;1.780671179294586E-001;-5.705427005887032E-002;1.764662447385490E-003;1.569490530528128E-003;
2.416833333333334E+009;1.774655580520630E-001;-5.725985392928124E-002;1.922912430018187E-003;1.512386719696224E-003;
2.417000000000000E+009;1.764748394489288E-001;-5.731786042451859E-002;2.092892071232200E-003;1.686924719251692E-003;
2.417166666666667E+009;1.757180839776993E-001;-5.750840529799461E-002;1.948316465131939E-003;1.593191875144839E-003;
2.417333333333334E+009;1.748180240392685E-001;-5.763841047883034E-002;2.215191256254911E-003;1.619756221771240E-003;
2.417500000000000E+009;1.737637072801590E-001;-5.814811214804649E-002;2.127160085365176E-003;1.477127778343856E-003;
2.417666666666667E+009;1.726271212100983E-001;-5.830637365579605E-002;2.008312614634633E-003;1.392274978570640E-003;
2.417833333333334E+009;1.716758906841278E-001;-5.867315456271172E-002;2.149601234123111E-003;1.441071275621653E-003;
2.418000000000000E+009;1.702466458082199E-001;-5.931964889168739E-002;2.077868208289146E-003;1.359654008410871E-003;
2.418166666666667E+009;1.689276099205017E-001;-5.968325957655907E-002;2.174694323912263E-003;1.353635103441775E-003;
2.418333333333334E+009;1.679374128580093E-001;-6.035159900784493E-002;2.290928969159722E-003;1.397278741933405E-003;
2.418500000000000E+009;1.665201187133789E-001;-6.099757552146912E-002;2.259480068460107E-003;1.138690742664039E-003;
2.418666666666667E+009;1.652851104736328E-001;-6.177012622356415E-002;2.335323719307780E-003;1.143356435932219E-003;
2.418833333333334E+009;1.636992096900940E-001;-6.259522587060928E-002;2.336536301299930E-003;1.262385980226100E-003;
2.419000000000000E+009;1.622319519519806E-001;-6.353589147329330E-002;2.337061567232013E-003;1.076425425708294E-003;
2.419166666666667E+009;1.610790044069290E-001;-6.461343169212341E-002;2.256946172565222E-003;1.112195197492838E-003;
2.419333333333334E+009;1.595906019210815E-001;-6.544999033212662E-002;2.478629117831588E-003;9.734142804518342E-004;
2.419500000000000E+009;1.584205627441406E-001;-6.688991189002991E-002;2.286748960614204E-003;1.122093643061817E-003;
2.419666666666667E+009;1.571939587593079E-001;-6.802768260240555E-002;2.303956542164087E-003;1.094027189537883E-003;
2.419833333333334E+009;1.559646874666214E-001;-6.925955414772034E-002;2.405233215540648E-003;1.030173618346453E-003;
2.420000000000000E+009;1.549202948808670E-001;-7.073857635259628E-002;2.496761502698064E-003;1.043095719069243E-003;
2.420166666666667E+009;1.539652496576309E-001;-7.235013693571091E-002;2.635276177898049E-003;9.408684563823044E-004;
2.420333333333334E+009;1.529328972101212E-001;-7.385809719562531E-002;2.513688523322344E-003;7.041091448627412E-004;
2.420500000000000E+009;1.520911008119583E-001;-7.524506002664566E-002;2.618473023176193E-003;8.001653477549553E-004;
2.420666666666667E+009;1.511032134294510E-001;-7.674304395914078E-002;2.481512725353241E-003;6.074035190977156E-004;
2.420833333333334E+009;1.504637151956558E-001;-7.845584303140640E-002;2.656025346368551E-003;6.282359245233238E-004;
2.421000000000000E+009;1.498604863882065E-001;-8.027489483356476E-002;2.698694355785847E-003;6.706686690449715E-004;
2.421166666666667E+009;1.495614498853684E-001;-8.196669071912766E-002;2.771269995719194E-003;4.622340493369848E-004;
2.421333333333334E+009;1.491589248180389E-001;-8.383375406265259E-002;2.776423469185829E-003;5.801635561510921E-004;
2.421500000000000E+009;1.486482620239258E-001;-8.545139431953430E-002;2.757830778136849E-003;3.734764468390495E-004;
2.421666666666667E+009;1.484962552785873E-001;-8.731704950332642E-002;2.776822075247765E-003;3.459356375969946E-004;
2.421833333333334E+009;1.484219580888748E-001;-8.899971097707748E-002;2.887635258957744E-003;2.925222506746650E-004;
2.422000000000000E+009;1.483549773693085E-001;-9.067504107952118E-002;3.065187484025955E-003;2.536840656830464E-005;
2.422166666666667E+009;1.485249549150467E-001;-9.259289503097534E-002;3.020807402208448E-003;1.130503151216544E-004;
2.422333333333334E+009;1.486311256885529E-001;-9.422714263200760E-002;2.811488695442677E-003;-2.765158424153924E-004;
2.422500000000000E+009;1.488294601440430E-001;-9.576989710330963E-002;2.947298809885979E-003;-8.642289321869612E-005;
2.422666666666667E+009;1.491113901138306E-001;-9.743919223546982E-002;2.802608069032431E-003;-2.216643624706194E-004;
2.422833333333334E+009;1.496125161647797E-001;-9.902600944042206E-002;2.986070001497865E-003;-3.020498552359641E-004;
2.423000000000000E+009;1.500641256570816E-001;-1.006238609552383E-001;2.985855098813772E-003;-3.593693836592138E-004;
2.423166666666667E+009;1.505981981754303E-001;-1.021435111761093E-001;2.884903689846396E-003;-5.251751281321049E-004;
2.423333333333334E+009;1.511970609426498E-001;-1.033178642392159E-001;2.795542823150754E-003;-5.911308107897639E-004;
2.423500000000000E+009;1.517508774995804E-001;-1.047099605202675E-001;2.838229993358254E-003;-5.718994652852416E-004;
2.423666666666667E+009;1.520421653985977E-001;-1.059686169028282E-001;2.777008805423975E-003;-8.066882728599012E-004;
2.423833333333334E+009;1.531528979539871E-001;-1.072267889976502E-001;2.715448848903179E-003;-9.680990478955209E-004;
2.424000000000000E+009;1.534810811281204E-001;-1.080720573663712E-001;2.676629927009344E-003;-8.450904279015958E-004;
2.424166666666667E+009;1.541479676961899E-001;-1.091487854719162E-001;2.463998505845666E-003;-9.289805311709642E-004;
2.424333333333334E+009;1.548111140727997E-001;-1.099706664681435E-001;2.594659803435206E-003;-1.086055417545140E-003;
2.424500000000000E+009;1.554388552904129E-001;-1.108941882848740E-001;2.713637426495552E-003;-1.213137875311077E-003;
2.424666666666667E+009;1.559643447399139E-001;-1.115698218345642E-001;2.592172939330339E-003;-1.054372289218009E-003;
2.424833333333334E+009;1.564842909574509E-001;-1.122153848409653E-001;2.576724160462618E-003;-1.188322203233838E-003;
2.425000000000000E+009;1.569557338953018E-001;-1.128572821617127E-001;2.586368238553405E-003;-1.277570961974561E-003;
2.425166666666667E+009;1.571340858936310E-001;-1.132992953062058E-001;2.487125340849161E-003;-1.345107448287308E-003;
2.425333333333334E+009;1.576947420835495E-001;-1.136940494179726E-001;2.464968943968415E-003;-1.375759369693697E-003;
2.425500000000000E+009;1.578799188137054E-001;-1.140799447894096E-001;2.408449305221438E-003;-1.407354604452848E-003;
2.425666666666667E+009;1.579779833555222E-001;-1.143370345234871E-001;2.309456700459123E-003;-1.524393213912845E-003;
2.425833333333334E+009;1.581910699605942E-001;-1.146350428462029E-001;2.401561243459582E-003;-1.728095230646431E-003;
2.426000000000000E+009;1.580763161182404E-001;-1.147852391004562E-001;2.373432973399758E-003;-1.646205084398389E-003;
2.426166666666667E+009;1.581607908010483E-001;-1.149875968694687E-001;2.250479301437736E-003;-1.684119342826307E-003;
2.426333333333334E+009;1.578716933727264E-001;-1.150527149438858E-001;2.372320974245668E-003;-1.683672890067101E-003;
2.426500000000000E+009;1.578088700771332E-001;-1.151184365153313E-001;2.318260725587606E-003;-1.819206750951707E-003;
2.426666666666667E+009;1.574264019727707E-001;-1.149844452738762E-001;2.363460604101419E-003;-1.730081043206155E-003;
2.426833333333334E+009;1.569032669067383E-001;-1.150909662246704E-001;2.148289233446121E-003;-1.858110888861120E-003;
2.427000000000000E+009;1.562573164701462E-001;-1.152872815728188E-001;2.020201645791531E-003;-1.856494112871587E-003;
2.427166666666667E+009;1.555259674787521E-001;-1.152148470282555E-001;2.042013686150312E-003;-1.848698011599481E-003;
2.427333333333334E+009;1.547958552837372E-001;-1.152909770607948E-001;2.067452995106578E-003;-1.905007869936526E-003;
2.427500000000000E+009;1.539208590984345E-001;-1.154338195919991E-001;2.103826496750116E-003;-1.969208475202322E-003;
2.427666666666667E+009;1.528979986906052E-001;-1.155660673975945E-001;1.991800731047988E-003;-1.963207731023431E-003;
2.427833333333334E+009;1.517451703548431E-001;-1.157726794481278E-001;1.906704856082797E-003;-2.114068251103163E-003;
