# Version 1.00
#
freq[Hz];re:Trc1_S11;im:Trc1_S11;re:Trc2_S21;im:Trc2_S21;
2.400000000000000E+009;1.541373282670975E-001;5.907073616981506E-002;-4.496227018535137E-003;-1.000103307887912E-003;
2.400166666666667E+009;1.543942391872406E-001;5.710999295115471E-002;-4.759439732879400E-003;-8.712821872904897E-004;
2.400333333333334E+009;1.544623970985413E-001;5.509614944458008E-002;-4.707519896328449E-003;-7.806129287928343E-004;
2.400500000000000E+009;1.549238264560700E-001;5.300285667181015E-002;-4.624016582965851E-003;-5.595479742623866E-004;
2.400666666666667E+009;1.551910340785980E-001;5.071900412440300E-002;-4.718788433820009E-003;-3.752864140551537E-004;
2.400833333333334E+009;1.557719409465790E-001;4.857587069272995E-002;-4.649003501981497E-003;-2.550335193518549E-004;
2.401000000000000E+009;1.563442051410675E-001;4.626405239105225E-002;-4.669392947107554E-003;-1.467481979489094E-005;
2.401166666666667E+009;1.571164131164551E-001;4.420837014913559E-002;-4.604326095432043E-003;1.115455161198042E-004;
2.401333333333334E+009;1.573341041803360E-001;4.222726076841354E-002;-4.340865649282932E-003;1.906814140966162E-004;
2.401500000000000E+009;1.584752649068832E-001;4.025753587484360E-002;-4.629394970834255E-003;2.331255527678877E-004;
2.401666666666667E+009;1.592954695224762E-001;3.817680850625038E-002;-4.413594491779804E-003;5.027849110774696E-004;
2.401833333333334E+009;1.600312888622284E-001;3.624939545989037E-002;-4.589913412928581E-003;4.347553185652942E-004;
2.402000000000000E+009;1.607940047979355E-001;3.451318293809891E-002;-4.424465820193291E-003;7.862416678108275E-004;
2.402166666666667E+009;1.616948097944260E-001;3.244236484169960E-002;-4.393236245959997E-003;7.641148986294866E-004;
2.402333333333334E+009;1.627043336629868E-001;3.100116550922394E-002;-4.284605849534273E-003;9.135951986536384E-004;
2.402500000000000E+009;1.639255136251450E-001;2.921632863581181E-002;-4.198663402348757E-003;1.111593097448349E-003;
2.402666666666667E+009;1.646970361471176E-001;2.791224978864193E-002;-4.233550280332565E-003;1.320065231993794E-003;
2.402833333333334E+009;1.658139973878861E-001;2.657943218946457E-002;-4.222198855131865E-003;1.428921590559185E-003;
2.403000000000000E+009;1.669423282146454E-001;2.517890557646751E-002;-4.030633717775345E-003;1.522408565506339E-003;
2.403166666666667E+009;1.679674834012985E-001;2.393089607357979E-002;-4.042940679937601E-003;1.500797341577709E-003;
2.403333333333334E+009;1.691089421510696E-001;2.292769402265549E-002;-3.798548830673099E-003;1.502543105743825E-003;
2.403500000000000E+009;1.701346635818481E-001;2.181375771760941E-002;-3.836009651422501E-003;1.684582442976534E-003;
2.403666666666667E+009;1.712554991245270E-001;2.099506929516792E-002;-3.893794724717736E-003;1.735278987325728E-003;
2.403833333333334E+009;1.724702566862106E-001;2.010003849864006E-002;-3.749689785763621E-003;1.978778280317783E-003;
2.404000000000000E+009;1.733235716819763E-001;1.937599666416645E-002;-3.720694920048118E-003;1.827010768465698E-003;
2.404166666666667E+009;1.743710637092590E-001;1.865842938423157E-002;-3.680558176711202E-003;2.093884395435453E-003;
2.404333333333334E+009;1.752439290285111E-001;1.800676621496677E-002;-3.591015934944153E-003;2.294214908033609E-003;
2.404500000000000E+009;1.760679781436920E-001;1.744543388485909E-002;-3.560059238225222E-003;2.358113648369908E-003;
2.404666666666667E+009;1.768558025360107E-001;1.693881489336491E-002;-3.534272313117981E-003;2.437921939417720E-003;
2.404833333333334E+009;1.775748133659363E-001;1.658542267978191E-002;-3.250913461670280E-003;2.546225907281041E-003;
2.405000000000000E+009;1.783730089664459E-001;1.623188145458698E-002;-3.275791415944696E-003;2.432284178212285E-003;
2.405166666666667E+009;1.787221729755402E-001;1.597494259476662E-002;-3.159661544486880E-003;2.891199430450797E-003;
2.405333333333334E+009;1.793613880872726E-001;1.558125298470259E-002;-3.190654097124934E-003;2.814679872244597E-003;
2.405500000000000E+009;1.798806935548782E-001;1.542282942682505E-002;-3.157365135848522E-003;2.856669947504997E-003;
2.405666666666667E+009;1.801407039165497E-001;1.528459787368774E-002;-2.984030405059457E-003;3.181423526257277E-003;
2.405833333333334E+009;1.802386939525604E-001;1.511415652930737E-002;-2.956927288323641E-003;2.935223979875445E-003;
2.406000000000000E+009;1.804642528295517E-001;1.478607952594757E-002;-2.770385472103953E-003;3.115845145657659E-003;
2.406166666666667E+009;1.803008764982224E-001;1.489999797195196E-002;-2.712487708777189E-003;3.425530856475234E-003;
2.406333333333334E+009;1.804584562778473E-001;1.461801957339048E-002;-2.532331505790353E-003;3.298619762063026E-003;
2.406500000000000E+009;1.802960038185120E-001;1.440874487161636E-002;-2.298299688845873E-003;3.413558937609196E-003;
2.406666666666667E+009;1.799027919769287E-001;1.422974839806557E-002;-2.268716460093856E-003;3.461965359747410E-003;
2.406833333333334E+009;1.797282993793488E-001;1.380511373281479E-002;-2.102324273437262E-003;3.435599384829402E-003;
2.407000000000000E+009;1.794192492961884E-001;1.340053416788578E-002;-1.878634095191956E-003;3.582295496016741E-003;
2.407166666666667E+009;1.791248619556427E-001;1.296991482377052E-002;-1.997045939788222E-003;3.652005456387997E-003;
2.407333333333334E+009;1.784410029649735E-001;1.231534779071808E-002;-1.734070945531130E-003;3.570726141333580E-003;
2.407500000000000E+009;1.778623610734940E-001;1.179258804768324E-002;-1.585115329362452E-003;3.593485569581389E-003;
2.407666666666667E+009;1.773335933685303E-001;1.116247102618218E-002;-1.307041617110372E-003;3.705444978550077E-003;
2.407833333333334E+009;1.764959096908569E-001;1.028496678918600E-002;-1.321345218457282E-003;3.649022895842791E-003;
2.408000000000000E+009;1.758201569318771E-001;9.449119679629803E-003;-1.230703899636865E-003;3.671525977551937E-003;
2.408166666666667E+009;1.751203685998917E-001;8.585504256188870E-003;-1.115362625569105E-003;3.596665337681770E-003;
2.408333333333334E+009;1.745612919330597E-001;7.495582569390535E-003;-1.002793083898723E-003;3.719059983268380E-003;
2.408500000000000E+009;1.736468821763992E-001;6.282405462116003E-003;-9.124418138526380E-004;3.561056684702635E-003;
2.408666666666667E+009;1.729065924882889E-001;5.028367042541504E-003;-8.164508035406470E-004;3.632320789620280E-003;
2.408833333333334E+009;1.721322387456894E-001;3.672178369015455E-003;-6.531737744808197E-004;3.616861533373594E-003;
2.409000000000000E+009;1.712761968374252E-001;2.143175806850195E-003;-5.525150336325169E-004;3.589270403608680E-003;
2.409166666666667E+009;1.706360131502152E-001;6.619614432565868E-004;-4.614512436091900E-004;3.508972469717264E-003;
2.409333333333334E+009;1.701011806726456E-001;-9.954709094017744E-004;-4.961998783983290E-004;3.638487076386809E-003;
2.409500000000000E+009;1.692587435245514E-001;-2.937234239652753E-003;-3.704146947711706E-004;3.500424325466156E-003;
2.409666666666667E+009;1.685601472854614E-001;-4.508811514824629E-003;-3.190661082044244E-004;3.556707175448537E-003;
2.409833333333334E+009;1.679202616214752E-001;-6.328211631625891E-003;-1.223211002070457E-004;3.493407508358359E-003;
2.410000000000000E+009;1.675292104482651E-001;-8.123494684696198E-003;-1.642025308683515E-004;3.622690681368113E-003;
2.410166666666667E+009;1.670519709587097E-001;-1.017787028104067E-002;-3.004537029482890E-005;3.459974424913526E-003;
2.410333333333334E+009;1.667666435241699E-001;-1.215203572064638E-002;2.885550202336162E-005;3.332906169816852E-003;
2.410500000000000E+009;1.665161401033402E-001;-1.407737005501986E-002;1.429331459803507E-004;3.483289387077093E-003;
2.410666666666667E+009;1.661736965179443E-001;-1.621553301811218E-002;2.908975584432483E-004;3.309321589767933E-003;
2.410833333333334E+009;1.661857962608337E-001;-1.824966259300709E-002;3.357077075634152E-004;3.435648046433926E-003;
2.411000000000000E+009;1.661682426929474E-001;-2.024381421506405E-002;4.753410175908357E-004;3.387418808415532E-003;
2.411166666666667E+009;1.661137193441391E-001;-2.249582484364510E-002;5.852233152836561E-004;3.233399940654635E-003;
2.411333333333334E+009;1.660654693841934E-001;-2.451125718653202E-002;5.578964482992888E-004;3.156939987093210E-003;
2.411500000000000E+009;1.665611863136292E-001;-2.658959105610848E-002;7.593758055008948E-004;3.499899292364717E-003;
2.411666666666667E+009;1.668263226747513E-001;-2.867627888917923E-002;8.297846070490778E-004;3.263989230617881E-003;
2.411833333333334E+009;1.670727729797363E-001;-3.055204451084137E-002;9.999127360060811E-004;3.181999782100320E-003;
2.412000000000000E+009;1.677501946687698E-001;-3.249748796224594E-002;9.925414342433214E-004;3.065558848902583E-003;
2.412166666666667E+009;1.682417839765549E-001;-3.438612818717957E-002;1.039168564602733E-003;3.089192556217313E-003;
2.412333333333334E+009;1.689253151416779E-001;-3.598649054765701E-002;1.164757879450917E-003;3.105208044871688E-003;
2.412500000000000E+009;1.693951487541199E-001;-3.788836672902107E-002;1.207283698022366E-003;2.868967363610864E-003;
2.412666666666667E+009;1.702153682708740E-001;-3.969418630003929E-002;1.218581455759704E-003;2.906902227550745E-003;
2.412833333333334E+009;1.709022223949432E-001;-4.139262437820435E-002;1.283802906982601E-003;2.661071717739105E-003;
2.413000000000000E+009;1.715041100978851E-001;-4.299895465373993E-002;1.469970447942615E-003;2.689604414626956E-003;
2.413166666666667E+009;1.722302585840225E-001;-4.432442784309387E-002;1.435966813005507E-003;2.609520917758346E-003;
2.413333333333334E+009;1.729218810796738E-001;-4.573100060224533E-002;1.567186089232564E-003;2.607655245810747E-003;
2.413500000000000E+009;1.736517101526260E-001;-4.724265635013580E-002;1.700139837339521E-003;2.564394846558571E-003;
2.413666666666667E+009;1.745381653308868E-001;-4.818043857812882E-002;1.744928304105997E-003;2.348612761124969E-003;
2.413833333333334E+009;1.752822548151016E-001;-4.932126775383949E-002;1.815165625885129E-003;2.291188575327396E-003;
2.414000000000000E+009;1.758162528276444E-001;-5.049466341733933E-002;1.670088502578437E-003;2.430071821436286E-003;
2.414166666666667E+009;1.765175908803940E-001;-5.142508819699287E-002;1.658817986026406E-003;2.059087390080094E-003;
2.414333333333334E+009;1.772039085626602E-001;-5.236097052693367E-002;1.893627457320690E-003;2.149109030142427E-003;
2.414500000000000E+009;1.780080646276474E-001;-5.310263112187386E-002;1.648041652515531E-003;2.015925478190184E-003;
2.414666666666667E+009;1.784625500440598E-001;-5.372810736298561E-002;1.960252178832889E-003;1.838119816966355E-003;
2.414833333333334E+009;1.788308322429657E-001;-5.444279313087463E-002;1.806338434107602E-003;1.982603687793016E-003;
2.415000000000000E+009;1.790972501039505E-001;-5.486676096916199E-002;2.032777294516563E-003;1.810511341318488E-003;
2.415166666666667E+009;1.794894188642502E-001;-5.526547878980637E-002;1.777581404894590E-003;1.663041766732931E-003;
2.415333333333334E+009;1.796914190053940E-001;-5.571458116173744E-002;1.763476291671395E-003;1.812403090298176E-003;
2.415500000000000E+009;1.799132674932480E-001;-5.599064752459526E-002;1.835481030866504E-003;1.813016831874847E-003;
2.415666666666667E+009;1.798794865608215E-001;-5.605460703372955E-002;1.862491248175502E-003;1.868266030214727E-003;
2.415833333333334E+009;1.798739880323410E-001;-5.635586008429527E-002;1.804282190278173E-003;1.856251037679613E-003;
2.416000000000000E+009;1.795101016759872E-001;-5.665453895926476E-002;1.912153558805585E-003;1.678765285760164E-003;
2.416166666666667E+009;1.796231269836426E-001;-5.667847767472267E-002;1.803751685656607E-003;1.657315879128873E-003;
2.416333333333334E+009;1.790110170841217E-001;-5.678923055529594E-002;1.902304822579026E-003;1.526603708043695E-003;
2.416500000000000E+009;1.787830293178558E-001;-5.700366199016571E-002;1.943569281138480E-003;1.639140187762678E-003;
2.416666666666667E+009;1.779135167598724E-001;-5.702725425362587E-002;1.901776646263897E-003;1.489572459831834E-003;
2.416833333333334E+009;1.774925291538239E-001;-5.729909613728523E-002;2.070483518764377E-003;1.514590810984373E-003;
2.417000000000000E+009;1.763939857482910E-001;-5.743743106722832E-002;2.092573558911681E-003;1.465810695663095E-003;
2.417166666666667E+009;1.756527572870255E-001;-5.750311538577080E-002;2.137338276952505E-003;1.552994595840573E-003;
2.417333333333334E+009;1.748089492321014E-001;-5.776220932602882E-002;2.147807274013758E-003;1.450614188797772E-003;
2.417500000000000E+009;1.736859083175659E-001;-5.812414735555649E-002;2.149321604520083E-003;1.472245319746435E-003;
2.417666666666667E+009;1.727370023727417E-001;-5.834058299660683E-002;2.144485944882035E-003;1.363520161248744E-003;
2.417833333333334E+009;1.715321540832520E-001;-5.875917151570320E-002;2.154092071577907E-003;1.336497487500310E-003;
2.418000000000000E+009;1.702076345682144E-001;-5.926477164030075E-002;2.162403194233775E-003;1.288676867261529E-003;
2.418166666666667E+009;1.689549684524536E-001;-5.961041152477264E-002;2.268557436764240E-003;1.296272268518806E-003;
2.418333333333334E+009;1.678789854049683E-001;-6.031481921672821E-002;2.211867598816752E-003;1.071081147529185E-003;
2.418500000000000E+009;1.664335876703262E-001;-6.094942614436150E-002;2.313588978722692E-003;1.187086803838611E-003;
2.418666666666667E+009;1.652407944202423E-001;-6.179004162549973E-002;2.197884023189545E-003;1.176352030597627E-003;
2.418833333333334E+009;1.637376397848129E-001;-6.261654198169708E-002;2.447537146508694E-003;1.157668884843588E-003;
2.419000000000000E+009;1.623090654611588E-001;-6.354722380638123E-002;2.443441655486822E-003;1.040075323544443E-003;
2.419166666666667E+009;1.610564738512039E-001;-6.456340849399567E-002;2.390523208305240E-003;9.679179056547582E-004;
2.419333333333334E+009;1.595777124166489E-001;-6.550509482622147E-002;2.358526457101107E-003;9.739548549987376E-004;
2.419500000000000E+009;1.583903729915619E-001;-6.691425293684006E-002;2.381011843681335E-003;9.305538842454553E-004;
2.419666666666667E+009;1.573062390089035E-001;-6.806381791830063E-002;2.563157351687551E-003;8.765558013692498E-004;
2.419833333333334E+009;1.559464186429977E-001;-6.939464062452316E-002;2.483375603333116E-003;9.622486541047692E-004;
2.420000000000000E+009;1.548009365797043E-001;-7.082456350326538E-002;2.501272596418858E-003;8.615188999101520E-004;
2.420166666666667E+009;1.539012044668198E-001;-7.210122793912888E-002;2.531152451410890E-003;7.475442835129798E-004;
2.420333333333334E+009;1.528747528791428E-001;-7.381796091794968E-002;2.532111713662744E-003;8.777182083576918E-004;
2.420500000000000E+009;1.521766781806946E-001;-7.509119063615799E-002;2.484163036569953E-003;6.727149011567235E-004;
2.420666666666667E+009;1.512507200241089E-001;-7.681387662887573E-002;2.479395829141140E-003;6.493671098724008E-004;
2.420833333333334E+009;1.505629122257233E-001;-7.857260107994080E-002;2.814966719597578E-003;5.607746425084770E-004;
2.421000000000000E+009;1.499126106500626E-001;-8.036693930625916E-002;2.830195240676403E-003;5.241385078988969E-004;
2.421166666666667E+009;1.493869274854660E-001;-8.203083276748657E-002;2.769886748865247E-003;5.870487657375634E-004;
2.421333333333334E+009;1.491393148899078E-001;-8.385235071182251E-002;2.825391478836536E-003;3.398207772988826E-004;
2.421500000000000E+009;1.488260626792908E-001;-8.558734506368637E-002;2.894624834880233E-003;2.673144917935133E-004;
2.421666666666667E+009;1.485308408737183E-001;-8.740738779306412E-002;2.880737418308854E-003;2.012787153944373E-004;
2.421833333333334E+009;1.484400779008865E-001;-8.899622410535812E-002;2.905404428020120E-003;1.250687637366355E-004;
2.422000000000000E+009;1.483096629381180E-001;-9.075374901294708E-002;2.894372213631868E-003;2.462438169459347E-005;
2.422166666666667E+009;1.485226005315781E-001;-9.273800253868103E-002;2.960884710773826E-003;-2.208811565651558E-006;
2.422333333333334E+009;1.486523747444153E-001;-9.434890747070313E-002;2.899545710533857E-003;3.363748419360491E-006;
2.422500000000000E+009;1.488524079322815E-001;-9.579169005155563E-002;2.842833520844579E-003;-1.583535049576312E-004;
2.422666666666667E+009;1.490362882614136E-001;-9.745133668184280E-002;2.895869547501206E-003;-3.967070952057838E-004;
2.422833333333334E+009;1.497481912374497E-001;-9.909424930810928E-002;2.840451430529356E-003;-2.506563614588231E-004;
2.423000000000000E+009;1.499856561422348E-001;-1.006793975830078E-001;2.718231407925487E-003;-5.798067431896925E-004;
2.423166666666667E+009;1.505670100450516E-001;-1.021676883101463E-001;2.746161539107561E-003;-4.962209495715797E-004;
2.423333333333334E+009;1.511852890253067E-001;-1.033571511507034E-001;2.789017511531711E-003;-5.997054395265877E-004;
2.423500000000000E+009;1.515920162200928E-001;-1.045846492052078E-001;2.921757521107793E-003;-6.725284620188177E-004;
2.423666666666667E+009;1.522729247808456E-001;-1.061613857746124E-001;2.713341731578112E-003;-6.528138183057308E-004;
2.423833333333334E+009;1.529245376586914E-001;-1.073059886693955E-001;2.657490083947778E-003;-8.884815615601838E-004;
2.424000000000000E+009;1.533933132886887E-001;-1.080648228526115E-001;2.715083537623286E-003;-8.391703595407307E-004;
2.424166666666667E+009;1.540814191102982E-001;-1.091649755835533E-001;2.585391514003277E-003;-1.037744106724858E-003;
2.424333333333334E+009;1.548347622156143E-001;-1.099388375878334E-001;2.526887226849794E-003;-1.055487198755145E-003;
2.424500000000000E+009;1.554499864578247E-001;-1.108180955052376E-001;2.654762705788016E-003;-9.558474994264543E-004;
2.424666666666667E+009;1.560402363538742E-001;-1.114859580993652E-001;2.526589669287205E-003;-1.249023713171482E-003;
2.424833333333334E+009;1.564076989889145E-001;-1.121219322085381E-001;2.492216182872653E-003;-1.180188148282468E-003;
2.425000000000000E+009;1.568678915500641E-001;-1.127081066370010E-001;2.505407901480794E-003;-1.244864193722606E-003;
2.425166666666667E+009;1.571083962917328E-001;-1.131693869829178E-001;2.393243834376335E-003;-1.251097535714507E-003;
2.425333333333334E+009;1.575878858566284E-001;-1.136901974678040E-001;2.228555036708713E-003;-1.383573282510042E-003;
2.425500000000000E+009;1.579232364892960E-001;-1.139731332659721E-001;2.410863293334842E-003;-1.388513366691768E-003;
2.425666666666667E+009;1.579543650150299E-001;-1.141628175973892E-001;2.248980570584536E-003;-1.401385059580207E-003;
2.425833333333334E+009;1.581800878047943E-001;-1.145386993885040E-001;2.333957701921463E-003;-1.435167738236487E-003;
2.426000000000000E+009;1.581398993730545E-001;-1.147865206003189E-001;2.294739708304405E-003;-1.652091625146568E-003;
2.426166666666667E+009;1.581774055957794E-001;-1.148427873849869E-001;2.242361195385456E-003;-1.653889077715576E-003;
2.426333333333334E+009;1.578481048345566E-001;-1.149408370256424E-001;2.219319576397538E-003;-1.775632961653173E-003;
2.426500000000000E+009;1.577271074056625E-001;-1.150827854871750E-001;2.007914939895272E-003;-1.716060331091285E-003;
2.426666666666667E+009;1.575179547071457E-001;-1.149998158216476E-001;2.176141366362572E-003;-1.930792233906686E-003;
2.426833333333334E+009;1.569222211837769E-001;-1.151103675365448E-001;2.027585869655013E-003;-1.921017887070775E-003;
2.427000000000000E+009;1.563141345977783E-001;-1.151854321360588E-001;1.981642562896013E-003;-1.929739024490118E-003;
2.427166666666667E+009;1.556796580553055E-001;-1.150510013103485E-001;2.055225893855095E-003;-1.982466084882617E-003;
2.427333333333334E+009;1.547788530588150E-001;-1.153130307793617E-001;2.028507413342595E-003;-1.981847919523716E-003;
2.427500000000000E+009;1.540076583623886E-001;-1.153858676552773E-001;1.781709259375930E-003;-1.936720218509436E-003;
2.427666666666667E+009;1.529140174388886E-001;-1.156013756990433E-001;1.804577303119004E-003;-2.018892439082265E-003;
2.427833333333334E+009;1.517846137285233E-001;-1.157849207520485E-001;1.787248183973134E-003;-2.087393542751670E-003;
