# Version 1.00
#
freq[Hz];re:Trc1_S11;im:Trc1_S11;re:Trc2_S21;im:Trc2_S21;
2.400000000000000E+009;1.538390666246414E-001;5.882688984274864E-002;-4.581937566399574E-003;-9.558210731483996E-004;
2.400166666666667E+009;1.542322039604187E-001;5.701188370585442E-002;-4.561147652566433E-003;-8.149937493726611E-004;
2.400333333333334E+009;1.544825583696365E-001;5.486801639199257E-002;-4.547625314444304E-003;-5.415631458163261E-004;
2.400500000000000E+009;1.547789126634598E-001;5.285689607262611E-002;-4.623923916369677E-003;-4.856245650444180E-004;
2.400666666666667E+009;1.552512347698212E-001;5.055939406156540E-002;-4.630561918020248E-003;-3.575083101168275E-004;
2.400833333333334E+009;1.556973308324814E-001;4.859250783920288E-002;-4.649220965802670E-003;-3.885635815095156E-004;
2.401000000000000E+009;1.562761962413788E-001;4.633124545216560E-002;-4.559927154332399E-003;-1.106000272557139E-004;
2.401166666666667E+009;1.569729596376419E-001;4.411056637763977E-002;-4.650787450373173E-003;4.766030906466767E-005;
2.401333333333334E+009;1.575097143650055E-001;4.209486395120621E-002;-4.570755641907454E-003;2.382948732702062E-004;
2.401500000000000E+009;1.583187133073807E-001;4.005747288465500E-002;-4.566785413771868E-003;3.442374290898442E-004;
2.401666666666667E+009;1.589412093162537E-001;3.820547834038734E-002;-4.491477273404598E-003;3.954465792048723E-004;
2.401833333333334E+009;1.598771214485169E-001;3.628111630678177E-002;-4.481041338294745E-003;3.639964270405471E-004;
2.402000000000000E+009;1.606873571872711E-001;3.416624292731285E-002;-4.407770931720734E-003;6.307617877610028E-004;
2.402166666666667E+009;1.616074889898300E-001;3.256142139434815E-002;-4.312751349061728E-003;6.933900294825435E-004;
2.402333333333334E+009;1.625956594944000E-001;3.085673600435257E-002;-4.383748397231102E-003;1.013452652841806E-003;
2.402500000000000E+009;1.638876050710678E-001;2.944640070199966E-002;-4.399344790726900E-003;9.938752045854926E-004;
2.402666666666667E+009;1.646672487258911E-001;2.788397110998631E-002;-4.245921969413757E-003;1.043037045747042E-003;
2.402833333333334E+009;1.657303422689438E-001;2.666595578193665E-002;-4.198664333671331E-003;1.274254173040390E-003;
2.403000000000000E+009;1.667482554912567E-001;2.536450140178204E-002;-3.991712816059589E-003;1.401416375301778E-003;
2.403166666666667E+009;1.680214703083038E-001;2.391260303556919E-002;-4.005568102002144E-003;1.405644114129245E-003;
2.403333333333334E+009;1.691426634788513E-001;2.296555787324905E-002;-3.973052836954594E-003;1.478560152463615E-003;
2.403500000000000E+009;1.701479256153107E-001;2.184635400772095E-002;-3.754083765670657E-003;1.383704948239029E-003;
2.403666666666667E+009;1.711228042840958E-001;2.106090635061264E-002;-3.811014583334327E-003;1.695693936198950E-003;
2.403833333333334E+009;1.722106188535690E-001;2.020240388810635E-002;-3.959197085350752E-003;1.874440349638462E-003;
2.404000000000000E+009;1.732033789157867E-001;1.940511912107468E-002;-3.577806521207094E-003;1.899166614748538E-003;
2.404166666666667E+009;1.743961572647095E-001;1.868537999689579E-002;-3.761877072975040E-003;1.914019347168505E-003;
2.404333333333334E+009;1.751668751239777E-001;1.820541359484196E-002;-3.647304605692625E-003;2.198209054768086E-003;
2.404500000000000E+009;1.759172677993774E-001;1.740694791078568E-002;-3.585936734452844E-003;2.185801509767771E-003;
2.404666666666667E+009;1.768399775028229E-001;1.703124865889549E-002;-3.523585619404912E-003;2.360896673053503E-003;
2.404833333333334E+009;1.775682419538498E-001;1.676496490836144E-002;-3.532750997692347E-003;2.480348804965615E-003;
2.405000000000000E+009;1.782639324665070E-001;1.626374945044518E-002;-3.563647624105215E-003;2.520495094358921E-003;
2.405166666666667E+009;1.789870262145996E-001;1.598804071545601E-002;-3.315869951620698E-003;2.818532288074493E-003;
2.405333333333334E+009;1.794014722108841E-001;1.564397662878037E-002;-3.437558421865106E-003;2.823127899318934E-003;
2.405500000000000E+009;1.798618882894516E-001;1.548945531249046E-002;-3.094214014708996E-003;3.021575976163149E-003;
2.405666666666667E+009;1.802098453044891E-001;1.537818368524313E-002;-2.914721844717860E-003;2.971453359350562E-003;
2.405833333333334E+009;1.802638769149780E-001;1.510942075401545E-002;-3.009747713804245E-003;3.095484804362059E-003;
2.406000000000000E+009;1.805798262357712E-001;1.492434460669756E-002;-2.931309165433049E-003;3.270661924034357E-003;
2.406166666666667E+009;1.805139631032944E-001;1.485469378530979E-002;-2.680352889001370E-003;3.205440472811461E-003;
2.406333333333334E+009;1.805226653814316E-001;1.458550989627838E-002;-2.489655045792460E-003;3.513080999255180E-003;
2.406500000000000E+009;1.803530603647232E-001;1.435765065252781E-002;-2.466255566105247E-003;3.365954849869013E-003;
2.406666666666667E+009;1.799802631139755E-001;1.410399749875069E-002;-2.236925065517426E-003;3.544957842677832E-003;
2.406833333333334E+009;1.798518151044846E-001;1.374505367130041E-002;-2.098669065162540E-003;3.478687023743987E-003;
2.407000000000000E+009;1.793647855520248E-001;1.342274434864521E-002;-2.038216451182962E-003;3.625130746513605E-003;
2.407166666666667E+009;1.791121661663055E-001;1.301070861518383E-002;-1.935264677740634E-003;3.732521319761872E-003;
2.407333333333334E+009;1.784258782863617E-001;1.245558634400368E-002;-1.761736813932657E-003;3.605259349569678E-003;
2.407500000000000E+009;1.778675019741058E-001;1.180497277528048E-002;-1.644551870413125E-003;3.651175415143371E-003;
2.407666666666667E+009;1.772483289241791E-001;1.118191890418530E-002;-1.477800309658051E-003;3.715250873938203E-003;
2.407833333333334E+009;1.763663887977600E-001;1.026885583996773E-002;-1.441289088688791E-003;3.698240732774139E-003;
2.408000000000000E+009;1.758104860782623E-001;9.356802329421043E-003;-1.401053974404931E-003;3.602236509323120E-003;
2.408166666666667E+009;1.751709580421448E-001;8.558955974876881E-003;-1.142051653005183E-003;3.550725290551782E-003;
2.408333333333334E+009;1.744797527790070E-001;7.499514613300562E-003;-1.046667923219502E-003;3.568968502804637E-003;
2.408500000000000E+009;1.736107170581818E-001;6.324911024421454E-003;-9.411013452336192E-004;3.588740481063724E-003;
2.408666666666667E+009;1.728234738111496E-001;4.903475753962994E-003;-7.716020918451250E-004;3.770563518628478E-003;
2.408833333333334E+009;1.719294637441635E-001;3.585747675970197E-003;-6.691679009236395E-004;3.688563359901309E-003;
2.409000000000000E+009;1.711613684892654E-001;2.376075135543943E-003;-7.607531733810902E-004;3.559623379260302E-003;
2.409166666666667E+009;1.705924868583679E-001;7.305231993086636E-004;-6.052096723578870E-004;3.589990315958858E-003;
2.409333333333334E+009;1.697934567928314E-001;-9.542477200739086E-004;-5.479801329784095E-004;3.620875300839543E-003;
2.409500000000000E+009;1.692343354225159E-001;-2.819353714585304E-003;-3.959650057367981E-004;3.606831887736917E-003;
2.409666666666667E+009;1.683869212865830E-001;-4.557012114673853E-003;-3.398166445549578E-004;3.568154992535710E-003;
2.409833333333334E+009;1.678836792707443E-001;-6.345779635012150E-003;-2.142874727724120E-004;3.466936061158776E-003;
2.410000000000000E+009;1.675057262182236E-001;-8.062556385993958E-003;-6.783762728446163E-006;3.420406254008412E-003;
2.410166666666667E+009;1.670468300580978E-001;-1.005857624113560E-002;1.035096938721836E-004;3.550745313987136E-003;
2.410333333333334E+009;1.666803061962128E-001;-1.205442938953638E-002;1.080112560885027E-004;3.349889768287540E-003;
2.410500000000000E+009;1.665162444114685E-001;-1.422617211937904E-002;2.054996293736622E-004;3.447357332333922E-003;
2.410666666666667E+009;1.661492139101028E-001;-1.628495380282402E-002;1.658310648053885E-004;3.423385787755251E-003;
2.410833333333334E+009;1.660637557506561E-001;-1.822587288916111E-002;3.671883605420589E-004;3.465706482529640E-003;
2.411000000000000E+009;1.660450100898743E-001;-2.021419629454613E-002;2.485334989614785E-004;3.326869569718838E-003;
2.411166666666667E+009;1.660849750041962E-001;-2.246724255383015E-002;5.636139540001750E-004;3.224303247407079E-003;
2.411333333333334E+009;1.663189530372620E-001;-2.445288933813572E-002;5.702576600015163E-004;3.297588322311640E-003;
2.411500000000000E+009;1.664720922708511E-001;-2.655885927379131E-002;6.152841378934681E-004;3.390989266335964E-003;
2.411666666666667E+009;1.668208837509155E-001;-2.856225520372391E-002;8.031309116631746E-004;3.335486864671111E-003;
2.411833333333334E+009;1.671373546123505E-001;-3.049186244606972E-002;7.185480208136141E-004;3.181970911100507E-003;
2.412000000000000E+009;1.677647382020950E-001;-3.234497085213661E-002;8.694145362824202E-004;3.120151814073324E-003;
2.412166666666667E+009;1.681684702634811E-001;-3.433895111083984E-002;1.070911297574639E-003;3.018808783963323E-003;
2.412333333333334E+009;1.688786000013351E-001;-3.611883521080017E-002;1.100383931770921E-003;3.095147665590048E-003;
2.412500000000000E+009;1.693718135356903E-001;-3.774002566933632E-002;1.191943185403943E-003;3.057959023863077E-003;
2.412666666666667E+009;1.701954007148743E-001;-3.960841521620750E-002;1.257278141565621E-003;3.005450824275613E-003;
2.412833333333334E+009;1.709845811128616E-001;-4.146475717425346E-002;1.489436486735940E-003;2.767714904621244E-003;
2.413000000000000E+009;1.715907305479050E-001;-4.273694753646851E-002;1.531932852230966E-003;2.812081482261419E-003;
2.413166666666667E+009;1.722410023212433E-001;-4.436234757304192E-002;1.521278521977365E-003;2.744172001257539E-003;
2.413333333333334E+009;1.730225831270218E-001;-4.571771994233131E-002;1.552630448713899E-003;2.715556649491191E-003;
2.413500000000000E+009;1.736658215522766E-001;-4.713490605354309E-002;1.678379136137664E-003;2.564648631960154E-003;
2.413666666666667E+009;1.745016425848007E-001;-4.843003675341606E-002;1.596142072230578E-003;2.568735741078854E-003;
2.413833333333334E+009;1.753633320331574E-001;-4.947383701801300E-002;1.724474597722292E-003;2.315952442586422E-003;
2.414000000000000E+009;1.759431809186935E-001;-5.050191283226013E-002;1.897346577607095E-003;2.295476850122213E-003;
2.414166666666667E+009;1.767123937606812E-001;-5.143012106418610E-002;1.763178850524128E-003;2.182039432227612E-003;
2.414333333333334E+009;1.772194802761078E-001;-5.241730064153671E-002;1.841358258388937E-003;2.151709981262684E-003;
2.414500000000000E+009;1.781191527843475E-001;-5.306078121066093E-002;1.775629934854806E-003;2.149152103811503E-003;
2.414666666666667E+009;1.784675419330597E-001;-5.366507545113564E-002;1.961377216503024E-003;1.962985610589385E-003;
2.414833333333334E+009;1.787450462579727E-001;-5.436417832970619E-002;1.891064108349383E-003;2.007274655625224E-003;
2.415000000000000E+009;1.792592257261276E-001;-5.474839359521866E-002;1.809188164770603E-003;1.898455549962819E-003;
2.415166666666667E+009;1.795074641704559E-001;-5.514672398567200E-002;1.942165778018534E-003;1.863278564997017E-003;
2.415333333333334E+009;1.797762066125870E-001;-5.560850724577904E-002;1.832876703701913E-003;1.750889583490789E-003;
2.415500000000000E+009;1.798678040504456E-001;-5.581792443990707E-002;2.015291247516871E-003;1.832055742852390E-003;
2.415666666666667E+009;1.799865216016769E-001;-5.595961585640907E-002;1.880639814771712E-003;1.874198787845671E-003;
2.415833333333334E+009;1.799744069576263E-001;-5.636071786284447E-002;1.904286909848452E-003;1.852127490565181E-003;
2.416000000000000E+009;1.796445995569229E-001;-5.655544623732567E-002;1.848398242145777E-003;1.849272288382053E-003;
2.416166666666667E+009;1.795981377363205E-001;-5.657764151692390E-002;1.939212088473141E-003;1.741341780871153E-003;
2.416333333333334E+009;1.790330857038498E-001;-5.663251504302025E-002;2.005486516281962E-003;1.631602761335671E-003;
2.416500000000000E+009;1.786510348320007E-001;-5.697700753808022E-002;1.863753888756037E-003;1.677784603089094E-003;
2.416666666666667E+009;1.781065016984940E-001;-5.692163109779358E-002;2.002561697736383E-003;1.633733161725104E-003;
2.416833333333334E+009;1.774232387542725E-001;-5.716751888394356E-002;2.103669336065650E-003;1.578459283336997E-003;
2.417000000000000E+009;1.766359359025955E-001;-5.744092538952828E-002;1.919288304634392E-003;1.544311176985502E-003;
2.417166666666667E+009;1.756945103406906E-001;-5.748181790113449E-002;1.990394433960319E-003;1.611458719708026E-003;
2.417333333333334E+009;1.748128682374954E-001;-5.777548253536224E-002;2.106352476403117E-003;1.598462695255876E-003;
2.417500000000000E+009;1.737552732229233E-001;-5.818020179867744E-002;2.206781646236777E-003;1.498271594755352E-003;
2.417666666666667E+009;1.726494282484055E-001;-5.829439312219620E-002;2.161676296964288E-003;1.358803012408316E-003;
2.417833333333334E+009;1.715068370103836E-001;-5.865228548645973E-002;2.215865533798933E-003;1.348134945146740E-003;
2.418000000000000E+009;1.703541874885559E-001;-5.930219218134880E-002;2.247845055535436E-003;1.324947224929929E-003;
2.418166666666667E+009;1.688978224992752E-001;-5.965946614742279E-002;2.294329227879643E-003;1.302796998061240E-003;
2.418333333333334E+009;1.678528487682343E-001;-6.030075252056122E-002;2.132091671228409E-003;1.236008363775909E-003;
2.418500000000000E+009;1.664494276046753E-001;-6.086163222789764E-002;2.305970992892981E-003;1.250003697350621E-003;
2.418666666666667E+009;1.652735769748688E-001;-6.174245104193687E-002;2.355002798140049E-003;1.213018782436848E-003;
2.418833333333334E+009;1.637250781059265E-001;-6.263264268636704E-002;2.411410445347428E-003;1.339934882707894E-003;
2.419000000000000E+009;1.623174846172333E-001;-6.341841071844101E-002;2.286863978952169E-003;1.056422363035381E-003;
2.419166666666667E+009;1.609667092561722E-001;-6.440645456314087E-002;2.454997505992651E-003;1.124755246564746E-003;
2.419333333333334E+009;1.594569534063339E-001;-6.531284004449844E-002;2.352125244215131E-003;1.001625903882086E-003;
2.419500000000000E+009;1.583848893642426E-001;-6.673210114240646E-002;2.379225566983223E-003;1.119971508160234E-003;
2.419666666666667E+009;1.573688089847565E-001;-6.801070272922516E-002;2.471634885296226E-003;1.081207185052335E-003;
2.419833333333334E+009;1.559576243162155E-001;-6.918224692344666E-002;2.543134149163961E-003;9.693411411717534E-004;
2.420000000000000E+009;1.548776626586914E-001;-7.071400433778763E-002;2.541574882343411E-003;9.792827768251300E-004;
2.420166666666667E+009;1.539523899555206E-001;-7.215427607297897E-002;2.626983681693673E-003;8.748849504627287E-004;
2.420333333333334E+009;1.530399173498154E-001;-7.375325262546539E-002;2.577469684183598E-003;9.767563315108419E-004;
2.420500000000000E+009;1.521939784288406E-001;-7.513161003589630E-002;2.665861975401640E-003;8.326733950525522E-004;
2.420666666666667E+009;1.513317078351975E-001;-7.674652338027954E-002;2.637923229485750E-003;7.586834253743291E-004;
2.420833333333334E+009;1.507356017827988E-001;-7.851926237344742E-002;2.785612130537629E-003;7.810735842213035E-004;
2.421000000000000E+009;1.499490737915039E-001;-8.038873970508575E-002;2.812654711306095E-003;6.388460169546306E-004;
2.421166666666667E+009;1.496555805206299E-001;-8.184884488582611E-002;2.861690707504749E-003;5.161075387150049E-004;
2.421333333333334E+009;1.491866558790207E-001;-8.376726508140564E-002;2.817758126184344E-003;5.545157473534346E-004;
2.421500000000000E+009;1.488379538059235E-001;-8.550133556127548E-002;2.810172503814101E-003;3.961316251661629E-004;
2.421666666666667E+009;1.485097855329514E-001;-8.745857328176498E-002;2.930081449449062E-003;2.868245937861502E-004;
2.421833333333334E+009;1.485315561294556E-001;-8.911544084548950E-002;2.908230526372790E-003;1.449364644940943E-004;
2.422000000000000E+009;1.484654396772385E-001;-9.084879606962204E-002;2.984926104545593E-003;8.356593025382608E-005;
2.422166666666667E+009;1.486139595508575E-001;-9.266812354326248E-002;2.959465142339468E-003;5.579422577284277E-005;
2.422333333333334E+009;1.486704796552658E-001;-9.424720704555512E-002;2.983172191306949E-003;5.403063187259249E-005;
2.422500000000000E+009;1.490283608436585E-001;-9.585971385240555E-002;2.857869258150458E-003;-2.679540193639696E-004;
2.422666666666667E+009;1.492653936147690E-001;-9.769646078348160E-002;2.824092051014304E-003;-3.790413902606815E-004;
2.422833333333334E+009;1.497466117143631E-001;-9.914693236351013E-002;2.865588525310159E-003;-4.521733499132097E-004;
2.423000000000000E+009;1.500771641731262E-001;-1.006678491830826E-001;2.987117273733020E-003;-4.199741815682501E-004;
2.423166666666667E+009;1.507703661918640E-001;-1.022404879331589E-001;2.858024556189776E-003;-5.870508612133563E-004;
2.423333333333334E+009;1.511862725019455E-001;-1.034723296761513E-001;2.994138048961759E-003;-6.300377426669002E-004;
2.423500000000000E+009;1.516659259796143E-001;-1.046194583177567E-001;2.902310108765960E-003;-6.415225216187537E-004;
2.423666666666667E+009;1.522435545921326E-001;-1.060186773538590E-001;2.888368442654610E-003;-8.181085577234626E-004;
2.423833333333334E+009;1.531304866075516E-001;-1.071721091866493E-001;2.717383438721299E-003;-8.513777866028249E-004;
2.424000000000000E+009;1.536357998847961E-001;-1.080842390656471E-001;2.709479536861181E-003;-9.248251444660127E-004;
2.424166666666667E+009;1.542637050151825E-001;-1.090599820017815E-001;2.752970671281219E-003;-1.068861805833876E-003;
2.424333333333334E+009;1.549734771251679E-001;-1.099993064999580E-001;2.750173676759005E-003;-1.059224247001112E-003;
2.424500000000000E+009;1.554793119430542E-001;-1.108114719390869E-001;2.616132376715541E-003;-1.061770366504788E-003;
2.424666666666667E+009;1.560562252998352E-001;-1.114675328135490E-001;2.633640542626381E-003;-1.123018446378410E-003;
2.424833333333334E+009;1.563815325498581E-001;-1.120480149984360E-001;2.425068523734808E-003;-1.222444581799209E-003;
2.425000000000000E+009;1.570684313774109E-001;-1.127103641629219E-001;2.561348956078291E-003;-1.364726806059480E-003;
2.425166666666667E+009;1.572016328573227E-001;-1.132922023534775E-001;2.482059644535184E-003;-1.252364949323237E-003;
2.425333333333334E+009;1.575931906700134E-001;-1.136347949504852E-001;2.439421135932207E-003;-1.429395633749664E-003;
2.425500000000000E+009;1.579441130161285E-001;-1.140428185462952E-001;2.370197558775544E-003;-1.475974102504551E-003;
2.425666666666667E+009;1.579990386962891E-001;-1.142744645476341E-001;2.488969126716256E-003;-1.466976711526513E-003;
2.425833333333334E+009;1.581525653600693E-001;-1.146306321024895E-001;2.252055797725916E-003;-1.656176289543510E-003;
2.426000000000000E+009;1.581691056489945E-001;-1.148098483681679E-001;2.467497019097209E-003;-1.643153373152018E-003;
2.426166666666667E+009;1.582497060298920E-001;-1.149108111858368E-001;2.210016129538417E-003;-1.780086196959019E-003;
2.426333333333334E+009;1.578610092401505E-001;-1.150172352790833E-001;2.240662928670645E-003;-1.698463922366500E-003;
2.426500000000000E+009;1.579115986824036E-001;-1.149691790342331E-001;2.211697865277529E-003;-1.807745778933168E-003;
2.426666666666667E+009;1.575910747051239E-001;-1.149800941348076E-001;2.126106992363930E-003;-1.915651489980519E-003;
2.426833333333334E+009;1.570734530687332E-001;-1.150642484426498E-001;2.200303366407752E-003;-1.762517145834863E-003;
2.427000000000000E+009;1.563222557306290E-001;-1.151848062872887E-001;2.100209007039666E-003;-1.885649049654603E-003;
2.427166666666667E+009;1.556055396795273E-001;-1.152062416076660E-001;2.018727594986558E-003;-1.934715081006289E-003;
2.427333333333334E+009;1.548027098178864E-001;-1.152554973959923E-001;1.911842497065663E-003;-1.915549044497311E-003;
2.427500000000000E+009;1.540086567401886E-001;-1.153414845466614E-001;1.985696842893958E-003;-1.933901221491396E-003;
2.427666666666667E+009;1.530286669731140E-001;-1.154771298170090E-001;1.820692792534828E-003;-2.136406721547246E-003;
2.427833333333334E+009;1.518320590257645E-001;-1.157164201140404E-001;1.882719108834863E-003;-1.997087616473436E-003;
