# Version 1.00
#
freq[Hz];re:Trc1_S11;im:Trc1_S11;re:Trc2_S21;im:Trc2_S21;
2.400000000000000E+009;1.582627445459366E-001;6.272034347057343E-002;-2.260309411212802E-003;-1.767012407071888E-003;
2.400166666666667E+009;1.581241786479950E-001;6.130750849843025E-002;-2.196659334003925E-003;-1.626550452783704E-003;
2.400333333333334E+009;1.578688919544220E-001;5.925014615058899E-002;-2.270140452310443E-003;-1.399578643031418E-003;
2.400500000000000E+009;1.577956527471542E-001;5.730813741683960E-002;-2.272444078698754E-003;-1.601987634785473E-003;
2.400666666666667E+009;1.577897816896439E-001;5.542551726102829E-002;-2.242632210254669E-003;-1.449133502319455E-003;
2.400833333333334E+009;1.578570008277893E-001;5.354771390557289E-002;-2.332143252715468E-003;-1.315744593739510E-003;
2.401000000000000E+009;1.579315066337585E-001;5.148474872112274E-002;-2.370070898905397E-003;-1.167497364804149E-003;
2.401166666666667E+009;1.579235643148422E-001;4.910041391849518E-002;-2.348242560401559E-003;-1.080237329006195E-003;
2.401333333333334E+009;1.580261588096619E-001;4.713945463299751E-002;-2.377524971961975E-003;-1.017059199512005E-003;
2.401500000000000E+009;1.584185957908630E-001;4.506998509168625E-002;-2.253539860248566E-003;-6.728969747200608E-004;
2.401666666666667E+009;1.586577296257019E-001;4.312200844287872E-002;-2.308066701516509E-003;-8.103855070658028E-004;
2.401833333333334E+009;1.592678576707840E-001;4.077563434839249E-002;-2.269841264933348E-003;-6.855207029730082E-004;
2.402000000000000E+009;1.593570560216904E-001;3.890299424529076E-002;-2.337782876566052E-003;-4.681556893046945E-004;
2.402166666666667E+009;1.598691493272781E-001;3.690697997808456E-002;-2.266966272145510E-003;-3.633554151747376E-004;
2.402333333333334E+009;1.603232473134995E-001;3.493462875485420E-002;-2.050283364951611E-003;-2.314708544872701E-004;
2.402500000000000E+009;1.614163517951965E-001;3.297754377126694E-002;-2.081435639411211E-003;-3.114235878456384E-004;
2.402666666666667E+009;1.619229018688202E-001;3.136860206723213E-002;-2.069798065349460E-003;-1.901237410493195E-004;
2.402833333333334E+009;1.627106517553330E-001;2.954134717583656E-002;-1.962467096745968E-003;-1.481894378230209E-005;
2.403000000000000E+009;1.634266674518585E-001;2.787849307060242E-002;-1.938781817443669E-003;2.872673394449521E-005;
2.403166666666667E+009;1.643780171871185E-001;2.611735463142395E-002;-1.805466832593083E-003;-2.130870961991604E-005;
2.403333333333334E+009;1.652948856353760E-001;2.477853558957577E-002;-1.838966156356037E-003;-7.096215995261446E-005;
2.403500000000000E+009;1.663810014724731E-001;2.345890738070011E-002;-1.752620213665068E-003;-1.352444960502908E-004;
2.403666666666667E+009;1.672161966562271E-001;2.187601849436760E-002;-1.559330034069717E-003;7.433256996591808E-006;
2.403833333333334E+009;1.681694090366364E-001;2.059702016413212E-002;-1.705199130810797E-003;7.484569505322725E-005;
2.404000000000000E+009;1.691476553678513E-001;1.936988718807697E-002;-1.492255250923336E-003;-1.451113930670545E-004;
2.404166666666667E+009;1.701754331588745E-001;1.824318617582321E-002;-1.491003204137087E-003;-4.596201688400470E-005;
2.404333333333334E+009;1.710888147354126E-001;1.715316623449326E-002;-1.565284561365843E-003;-1.183460990432650E-004;
2.404500000000000E+009;1.720451116561890E-001;1.622135192155838E-002;-1.447972026653588E-003;-9.226625115843490E-005;
2.404666666666667E+009;1.730676591396332E-001;1.541944779455662E-002;-1.370133715681732E-003;-2.192864631069824E-004;
2.404833333333334E+009;1.738354116678238E-001;1.459802128374577E-002;-1.325325225479901E-003;-5.695463914889842E-005;
2.405000000000000E+009;1.748037040233612E-001;1.384257432073355E-002;-1.285584177821875E-003;-1.683971786405891E-004;
2.405166666666667E+009;1.757024973630905E-001;1.322817150503397E-002;-1.501835649833083E-003;2.586924665592960E-006;
2.405333333333334E+009;1.765236407518387E-001;1.251123379915953E-002;-1.386912888847292E-003;-2.505289157852531E-004;
2.405500000000000E+009;1.773117929697037E-001;1.217009220272303E-002;-1.363193849101663E-003;-1.633783977013081E-004;
2.405666666666667E+009;1.778787076473236E-001;1.171438489109278E-002;-1.427293987944722E-003;-1.940021902555600E-004;
2.405833333333334E+009;1.784076094627380E-001;1.135686878114939E-002;-1.487520057708025E-003;-3.151476557832211E-004;
2.406000000000000E+009;1.789952367544174E-001;1.089890953153372E-002;-1.580909825861454E-003;-2.056110970443115E-004;
2.406166666666667E+009;1.794442385435104E-001;1.079073827713728E-002;-1.513325376436114E-003;-1.904845412354916E-004;
2.406333333333334E+009;1.801260709762573E-001;1.034359261393547E-002;-1.584259676747024E-003;-2.172639797208831E-004;
2.406500000000000E+009;1.803607493638992E-001;1.004256401211023E-002;-1.602133852429688E-003;-1.357051223749295E-004;
2.406666666666667E+009;1.805143058300018E-001;9.909812361001968E-003;-1.347669051028788E-003;-1.825781509978697E-004;
2.406833333333334E+009;1.807776093482971E-001;9.509502910077572E-003;-1.612789928913117E-003;-1.507593406131491E-004;
2.407000000000000E+009;1.808364987373352E-001;9.227699600160122E-003;-1.811544876545668E-003;-1.722054876154289E-004;
2.407166666666667E+009;1.808648556470871E-001;8.896612562239170E-003;-1.736991340294480E-003;-1.410092227160931E-004;
2.407333333333334E+009;1.807407587766647E-001;8.439672179520130E-003;-1.757306745275855E-003;3.561568883014843E-005;
2.407500000000000E+009;1.806038320064545E-001;8.235862478613854E-003;-1.687234733253717E-003;-3.623945303843357E-005;
2.407666666666667E+009;1.803776770830154E-001;7.920744828879833E-003;-1.899061026051641E-003;6.191521242726594E-005;
2.407833333333334E+009;1.800359189510346E-001;7.314027287065983E-003;-1.798365265130997E-003;-6.847246550023556E-005;
2.408000000000000E+009;1.796605139970779E-001;6.542725488543510E-003;-1.867272658273578E-003;8.822140807751566E-005;
2.408166666666667E+009;1.792304515838623E-001;6.188459228724241E-003;-1.724132918752730E-003;2.045957662630826E-004;
2.408333333333334E+009;1.789264082908630E-001;5.505970213562250E-003;-1.857020310126245E-003;1.002012431854382E-004;
2.408500000000000E+009;1.783347576856613E-001;4.684582352638245E-003;-1.810583635233343E-003;3.880953590851277E-004;
2.408666666666667E+009;1.777594536542893E-001;3.739069215953350E-003;-1.892776344902813E-003;4.424946382641792E-004;
2.408833333333334E+009;1.769710332155228E-001;2.836821135133505E-003;-1.915210275910795E-003;3.990023687947542E-004;
2.409000000000000E+009;1.763375997543335E-001;1.926484634168446E-003;-1.815593801438808E-003;4.025234666187316E-004;
2.409166666666667E+009;1.757550537586212E-001;8.860218804329634E-004;-1.995103666558862E-003;3.812817158177495E-004;
2.409333333333334E+009;1.751513630151749E-001;-4.504421958699822E-004;-1.756897079758346E-003;4.676914541050792E-004;
2.409500000000000E+009;1.743493676185608E-001;-1.909164013341069E-003;-1.715665799565613E-003;6.539625464938581E-004;
2.409666666666667E+009;1.734992861747742E-001;-3.086095675826073E-003;-1.792683615349233E-003;5.757921026088297E-004;
2.409833333333334E+009;1.728095561265945E-001;-4.508582875132561E-003;-1.660680980421603E-003;6.454706308431923E-004;
2.410000000000000E+009;1.722065359354019E-001;-5.945262964814901E-003;-1.661709626205266E-003;8.387637790292501E-004;
2.410166666666667E+009;1.715341806411743E-001;-7.559252437204123E-003;-1.595700508914888E-003;6.053671822883189E-004;
2.410333333333334E+009;1.710126847028732E-001;-9.173021651804447E-003;-1.766034285537899E-003;5.543814040720463E-004;
2.410500000000000E+009;1.703702211380005E-001;-1.094323489814997E-002;-1.656239037401974E-003;6.566577358171344E-004;
2.410666666666667E+009;1.698097139596939E-001;-1.274979673326016E-002;-1.576525857672095E-003;6.680151564069092E-004;
2.410833333333334E+009;1.693621873855591E-001;-1.445780508220196E-002;-1.625625533051789E-003;8.105710148811340E-004;
2.411000000000000E+009;1.689153164625168E-001;-1.622320152819157E-002;-1.566226826980710E-003;6.409902125597000E-004;
2.411166666666667E+009;1.686574667692184E-001;-1.835820823907852E-002;-1.587331411428750E-003;8.999145939014852E-004;
2.411333333333334E+009;1.683513075113297E-001;-2.013397589325905E-002;-1.733431126922369E-003;7.441735942848027E-004;
2.411500000000000E+009;1.680391430854797E-001;-2.210075780749321E-002;-1.566182123497129E-003;7.634010980837047E-004;
2.411666666666667E+009;1.681252270936966E-001;-2.410439401865006E-002;-1.592997112311423E-003;8.428830187767744E-004;
2.411833333333334E+009;1.680501550436020E-001;-2.601666189730167E-002;-1.780511811375618E-003;7.996132480911911E-004;
2.412000000000000E+009;1.681315004825592E-001;-2.813399769365788E-002;-1.767260371707380E-003;7.016783347353339E-004;
2.412166666666667E+009;1.682532876729965E-001;-3.004958108067513E-002;-1.604669727385044E-003;6.796211237087846E-004;
2.412333333333334E+009;1.684165298938751E-001;-3.193505108356476E-002;-1.671046018600464E-003;7.920495700091124E-004;
2.412500000000000E+009;1.685444861650467E-001;-3.377944603562355E-002;-1.801626640371978E-003;9.220382780767977E-004;
2.412666666666667E+009;1.687141805887222E-001;-3.586797788739204E-002;-1.759299542754889E-003;9.630357963033021E-004;
2.412833333333334E+009;1.691494733095169E-001;-3.769238665699959E-002;-1.720056170597673E-003;8.416671771556139E-004;
2.413000000000000E+009;1.696021854877472E-001;-3.956230729818344E-002;-1.696933293715119E-003;9.496952989138663E-004;
2.413166666666667E+009;1.700340211391449E-001;-4.129493236541748E-002;-1.827726024203003E-003;1.030164654366672E-003;
2.413333333333334E+009;1.702593266963959E-001;-4.309449344873428E-002;-1.979826018214226E-003;1.027919817715883E-003;
2.413500000000000E+009;1.709856688976288E-001;-4.473768547177315E-002;-1.973086968064308E-003;1.135974191129208E-003;
2.413666666666667E+009;1.715088933706284E-001;-4.637151956558228E-002;-1.855844166129828E-003;1.226154388859868E-003;
2.413833333333334E+009;1.719240993261337E-001;-4.786997660994530E-002;-1.970297889783979E-003;1.494337106123567E-003;
2.414000000000000E+009;1.724930256605148E-001;-4.932155087590218E-002;-1.890757353976369E-003;1.428032061085105E-003;
2.414166666666667E+009;1.731508970260620E-001;-5.062638595700264E-002;-1.835633302107453E-003;1.440556952729821E-003;
2.414333333333334E+009;1.736388206481934E-001;-5.202951282262802E-002;-1.982333138585091E-003;1.606073696166277E-003;
2.414500000000000E+009;1.745299696922302E-001;-5.304546654224396E-002;-1.943769981153309E-003;1.536571769975126E-003;
2.414666666666667E+009;1.747555732727051E-001;-5.402254685759544E-002;-2.010688185691834E-003;1.713462057523429E-003;
2.414833333333334E+009;1.752287745475769E-001;-5.519515275955200E-002;-1.896201050840318E-003;1.776914927177131E-003;
2.415000000000000E+009;1.757072806358337E-001;-5.604153126478195E-002;-2.018756698817015E-003;1.891720923595130E-003;
2.415166666666667E+009;1.762619912624359E-001;-5.687206238508225E-002;-1.861432683654130E-003;2.077907789498568E-003;
2.415333333333334E+009;1.766530424356461E-001;-5.754892155528069E-002;-1.897373818792403E-003;2.178840804845095E-003;
2.415500000000000E+009;1.768853068351746E-001;-5.807868763804436E-002;-1.931607723236084E-003;2.377950586378574E-003;
2.415666666666667E+009;1.772262156009674E-001;-5.860330909490585E-002;-1.669340766966343E-003;2.422492252662778E-003;
2.415833333333334E+009;1.774582117795944E-001;-5.911261588335037E-002;-1.607032842002809E-003;2.540647052228451E-003;
2.416000000000000E+009;1.774998307228088E-001;-5.964724719524384E-002;-1.667407690547407E-003;2.656667493283749E-003;
2.416166666666667E+009;1.777118742465973E-001;-5.990798026323319E-002;-1.522620441392064E-003;2.779676578938961E-003;
2.416333333333334E+009;1.776321232318878E-001;-6.023539975285530E-002;-1.516051590442658E-003;2.971126930788159E-003;
2.416500000000000E+009;1.776437163352966E-001;-6.059804186224937E-002;-1.279769698157907E-003;3.049041610211134E-003;
2.416666666666667E+009;1.773846000432968E-001;-6.074936687946320E-002;-1.288693398237228E-003;3.058307105675340E-003;
2.416833333333334E+009;1.771781444549561E-001;-6.100262701511383E-002;-1.287517603486776E-003;3.206475405022502E-003;
2.417000000000000E+009;1.766894608736038E-001;-6.131698936223984E-002;-1.022831420414150E-003;3.356675850227475E-003;
2.417166666666667E+009;1.762286275625229E-001;-6.140661612153053E-002;-9.288531146012247E-004;3.264111233875155E-003;
2.417333333333334E+009;1.758335828781128E-001;-6.154568120837212E-002;-8.258339366875589E-004;3.511618357151747E-003;
2.417500000000000E+009;1.752602159976959E-001;-6.185766682028770E-002;-6.089529488235712E-004;3.306237282231450E-003;
2.417666666666667E+009;1.746281981468201E-001;-6.195602193474770E-002;-6.202788790687919E-004;3.464467125013471E-003;
2.417833333333334E+009;1.737702786922455E-001;-6.219253689050674E-002;-4.471930442377925E-004;3.529069479554892E-003;
2.418000000000000E+009;1.728355437517166E-001;-6.261403858661652E-002;-2.732966968324035E-004;3.637971822172403E-003;
2.418166666666667E+009;1.720230281352997E-001;-6.275969743728638E-002;-2.451134205330163E-004;3.547574626281858E-003;
2.418333333333334E+009;1.713974028825760E-001;-6.307873129844666E-002;-6.674871838185936E-005;3.613066859543324E-003;
2.418500000000000E+009;1.700842231512070E-001;-6.346880644559860E-002;1.940584043040872E-004;3.681330010294914E-003;
2.418666666666667E+009;1.690983176231384E-001;-6.412112712860107E-002;2.879255334846675E-004;3.835745155811310E-003;
2.418833333333334E+009;1.677840650081635E-001;-6.454104930162430E-002;3.832882794085890E-004;3.536500502377749E-003;
2.419000000000000E+009;1.666520982980728E-001;-6.513184309005737E-002;5.737526225857437E-004;3.621430136263371E-003;
2.419166666666667E+009;1.655081957578659E-001;-6.574117392301559E-002;5.994893726892769E-004;3.784743137657642E-003;
2.419333333333334E+009;1.641551107168198E-001;-6.619092077016830E-002;8.185291662812233E-004;3.629454178735614E-003;
2.419500000000000E+009;1.630327850580216E-001;-6.736650317907333E-002;9.860012214630842E-004;3.677790286019445E-003;
2.419666666666667E+009;1.619141250848770E-001;-6.816341727972031E-002;1.130068092606962E-003;3.738939296454191E-003;
2.419833333333334E+009;1.606646627187729E-001;-6.906170397996903E-002;1.226431340910494E-003;3.695060499012470E-003;
2.420000000000000E+009;1.595485806465149E-001;-7.013352960348129E-002;1.448539085686207E-003;3.522049868479371E-003;
2.420166666666667E+009;1.584296673536301E-001;-7.130528241395950E-002;1.475605531595647E-003;3.533367533236742E-003;
2.420333333333334E+009;1.571567505598068E-001;-7.248199731111527E-002;1.655720523558557E-003;3.515101969242096E-003;
2.420500000000000E+009;1.561688482761383E-001;-7.365527004003525E-002;1.850448432378471E-003;3.452480537816882E-003;
2.420666666666667E+009;1.551579684019089E-001;-7.500194758176804E-002;1.814579358324409E-003;3.382023656740785E-003;
2.420833333333334E+009;1.544279903173447E-001;-7.643993943929672E-002;2.056790748611093E-003;3.349708160385490E-003;
2.421000000000000E+009;1.532700061798096E-001;-7.787018269300461E-002;2.059482270851731E-003;3.336303867399693E-003;
2.421166666666667E+009;1.526844799518585E-001;-7.935570180416107E-002;2.380369231104851E-003;3.187664551660419E-003;
2.421333333333334E+009;1.519270092248917E-001;-8.092239499092102E-002;2.322665648534894E-003;3.016283502802253E-003;
2.421500000000000E+009;1.511388123035431E-001;-8.247169852256775E-002;2.561132889240980E-003;2.872439799830318E-003;
2.421666666666667E+009;1.507590860128403E-001;-8.406702429056168E-002;2.650863490998745E-003;2.998206298798323E-003;
2.421833333333334E+009;1.502101421356201E-001;-8.570202440023422E-002;2.735836431384087E-003;2.835497027263045E-003;
2.422000000000000E+009;1.498797982931137E-001;-8.753443509340286E-002;2.744478406384587E-003;2.841235604137182E-003;
2.422166666666667E+009;1.495976597070694E-001;-8.930663764476776E-002;3.013423644006252E-003;2.711082575842738E-003;
2.422333333333334E+009;1.492386758327484E-001;-9.108370542526245E-002;3.039191011339426E-003;2.666879678145051E-003;
2.422500000000000E+009;1.492104828357697E-001;-9.258410334587097E-002;3.014172893017530E-003;2.468696562573314E-003;
2.422666666666667E+009;1.491015106439591E-001;-9.444957971572876E-002;3.301126649603248E-003;2.396014751866460E-003;
2.422833333333334E+009;1.492137163877487E-001;-9.610664844512940E-002;3.289636457338929E-003;2.306297421455383E-003;
2.423000000000000E+009;1.492855101823807E-001;-9.770591557025909E-002;3.304207930341363E-003;2.244249451905489E-003;
2.423166666666667E+009;1.496263146400452E-001;-9.944754838943481E-002;3.507258836179972E-003;2.133057452738285E-003;
2.423333333333334E+009;1.498864591121674E-001;-1.007417365908623E-001;3.520903177559376E-003;1.897799083963037E-003;
2.423500000000000E+009;1.501664668321610E-001;-1.026502847671509E-001;3.628836246207357E-003;1.661742222495377E-003;
2.423666666666667E+009;1.501831412315369E-001;-1.040873005986214E-001;3.760994179174304E-003;1.680945977568626E-003;
2.423833333333334E+009;1.508980393409729E-001;-1.054505109786987E-001;3.791994182392955E-003;1.581643242388964E-003;
2.424000000000000E+009;1.512138694524765E-001;-1.068452522158623E-001;3.908821847289801E-003;1.387178781442344E-003;
2.424166666666667E+009;1.515978425741196E-001;-1.081892251968384E-001;3.693245584145188E-003;1.233790069818497E-003;
2.424333333333334E+009;1.522558033466339E-001;-1.091772913932800E-001;3.882595337927342E-003;1.068855985067785E-003;
2.424500000000000E+009;1.526574343442917E-001;-1.106549426913261E-001;3.961069975048304E-003;8.906394359655678E-004;
2.424666666666667E+009;1.532543003559113E-001;-1.113425493240356E-001;4.059198778122664E-003;6.689847214147449E-004;
2.424833333333334E+009;1.537795811891556E-001;-1.125083938241005E-001;3.945040050894022E-003;5.360305076465011E-004;
2.425000000000000E+009;1.542302072048187E-001;-1.134894266724587E-001;4.062294028699398E-003;4.187973099760711E-004;
2.425166666666667E+009;1.544666737318039E-001;-1.142926439642906E-001;4.074552096426487E-003;2.457685477565974E-004;
2.425333333333334E+009;1.549143791198731E-001;-1.150097921490669E-001;4.172994289547205E-003;-4.255367457517423E-005;
2.425500000000000E+009;1.555336266756058E-001;-1.156816780567169E-001;4.124240018427372E-003;-1.578429655637592E-004;
2.425666666666667E+009;1.555657088756561E-001;-1.163892969489098E-001;3.994758240878582E-003;-2.813376486301422E-004;
2.425833333333334E+009;1.559871882200241E-001;-1.169485151767731E-001;4.230234771966934E-003;-4.805595090147108E-004;
2.426000000000000E+009;1.562165766954422E-001;-1.173056364059448E-001;4.046902991831303E-003;-6.155555602163076E-004;
2.426166666666667E+009;1.565374583005905E-001;-1.177859902381897E-001;3.924759104847908E-003;-7.169160526245832E-004;
2.426333333333334E+009;1.565219908952713E-001;-1.181091070175171E-001;3.905110759660602E-003;-1.035911496728659E-003;
2.426500000000000E+009;1.565791219472885E-001;-1.183520853519440E-001;3.999082371592522E-003;-1.123254303820431E-003;
2.426666666666667E+009;1.565434038639069E-001;-1.184009835124016E-001;3.725804388523102E-003;-1.185181667096913E-003;
2.426833333333334E+009;1.562997102737427E-001;-1.186974868178368E-001;3.821362508460879E-003;-1.424899906851351E-003;
2.427000000000000E+009;1.560523658990860E-001;-1.188275143504143E-001;3.556860610842705E-003;-1.584533252753317E-003;
2.427166666666667E+009;1.556878834962845E-001;-1.187906414270401E-001;3.442855086177588E-003;-1.757914898917079E-003;
2.427333333333334E+009;1.551718264818192E-001;-1.189584136009216E-001;3.255845513194799E-003;-1.768967602401972E-003;
2.427500000000000E+009;1.547997593879700E-001;-1.191737428307533E-001;3.271363908424974E-003;-1.751633943058550E-003;
2.427666666666667E+009;1.540846675634384E-001;-1.192435026168823E-001;3.055571112781763E-003;-1.961709931492806E-003;
