# Version 1.00
#
freq[Hz];re:Trc1_S11;im:Trc1_S11;re:Trc2_S21;im:Trc2_S21;
2.400000000000000E+009;1.583672165870667E-001;6.294889003038406E-002;-2.030318835750222E-003;-1.729942392557859E-003;
2.400166666666667E+009;1.581731587648392E-001;6.126369908452034E-002;-2.131523797288537E-003;-1.457892009057105E-003;
2.400333333333334E+009;1.578921824693680E-001;5.930094793438911E-002;-2.039740793406963E-003;-1.444575842469931E-003;
2.400500000000000E+009;1.579579859972000E-001;5.729134753346443E-002;-2.354001393541694E-003;-1.485888031311333E-003;
2.400666666666667E+009;1.578956246376038E-001;5.537853017449379E-002;-2.258526394143701E-003;-1.429280615411699E-003;
2.400833333333334E+009;1.580205857753754E-001;5.335922539234161E-002;-2.276250859722495E-003;-1.205100910738111E-003;
2.401000000000000E+009;1.579403430223465E-001;5.135685577988625E-002;-2.311164280399680E-003;-1.133299432694912E-003;
2.401166666666667E+009;1.582853794097900E-001;4.919824749231339E-002;-2.490207552909851E-003;-9.903542231768370E-004;
2.401333333333334E+009;1.583560258150101E-001;4.702892899513245E-002;-2.315050456672907E-003;-9.288493893109262E-004;
2.401500000000000E+009;1.586831510066986E-001;4.494388774037361E-002;-2.322741784155369E-003;-8.221228490583599E-004;
2.401666666666667E+009;1.588259339332581E-001;4.310373589396477E-002;-2.254694933071733E-003;-8.008597651496530E-004;
2.401833333333334E+009;1.593061834573746E-001;4.077781364321709E-002;-2.324397210031748E-003;-7.459199405275285E-004;
2.402000000000000E+009;1.596418470144272E-001;3.893626108765602E-002;-2.146018436178565E-003;-4.017660103272647E-004;
2.402166666666667E+009;1.601196080446243E-001;3.671566396951675E-002;-2.214829204604030E-003;-5.671672988682985E-004;
2.402333333333334E+009;1.606422066688538E-001;3.483541309833527E-002;-2.089777495712042E-003;-4.097808559890837E-004;
2.402500000000000E+009;1.612996608018875E-001;3.306671231985092E-002;-2.026502974331379E-003;-2.253223210573196E-004;
2.402666666666667E+009;1.619627475738525E-001;3.135310485959053E-002;-1.915315166115761E-003;-3.663753741420806E-004;
2.402833333333334E+009;1.627861410379410E-001;2.945223078131676E-002;-1.925188698805869E-003;-2.835692139342427E-004;
2.403000000000000E+009;1.634348928928375E-001;2.785447798669338E-002;-1.980657922104001E-003;-1.516937627457082E-004;
2.403166666666667E+009;1.644904762506485E-001;2.617812715470791E-002;-1.709686010144651E-003;-2.257325104437769E-004;
2.403333333333334E+009;1.653624624013901E-001;2.488693222403526E-002;-1.604413613677025E-003;-1.939961075549945E-004;
2.403500000000000E+009;1.662546843290329E-001;2.334854379296303E-002;-1.601008465513587E-003;-3.446222035563551E-005;
2.403666666666667E+009;1.672804057598114E-001;2.202997356653214E-002;-1.711023156531155E-003;-1.106037379940972E-004;
2.403833333333334E+009;1.682213544845581E-001;2.062958292663097E-002;-1.556766219437122E-003;-2.545373281463981E-004;
2.404000000000000E+009;1.691293716430664E-001;1.944640465080738E-002;-1.465142471715808E-003;-1.086505071725696E-004;
2.404166666666667E+009;1.701259762048721E-001;1.819308474659920E-002;-1.643931376747787E-003;6.526538345497102E-005;
2.404333333333334E+009;1.710614264011383E-001;1.726960390806198E-002;-1.492532435804606E-003;-1.933707972057164E-004;
2.404500000000000E+009;1.720327883958817E-001;1.608351059257984E-002;-1.354418694972992E-003;-1.351743994746357E-004;
2.404666666666667E+009;1.730295568704605E-001;1.541564241051674E-002;-1.427819370292127E-003;-9.701053204480559E-005;
2.404833333333334E+009;1.740039587020874E-001;1.467076316475868E-002;-1.420898362994194E-003;-1.180331310024485E-004;
2.405000000000000E+009;1.748477071523666E-001;1.391678303480148E-002;-1.495659351348877E-003;-1.708109193714336E-004;
2.405166666666667E+009;1.756539493799210E-001;1.319720968604088E-002;-1.589539926499128E-003;-1.379701861878857E-004;
2.405333333333334E+009;1.767155975103378E-001;1.244172733277082E-002;-1.432662829756737E-003;-1.166321235359646E-004;
2.405500000000000E+009;1.772607564926148E-001;1.215162780135870E-002;-1.636434579268098E-003;-1.025849414872937E-004;
2.405666666666667E+009;1.780292838811874E-001;1.166240777820349E-002;-1.452353782951832E-003;-4.230654158163816E-004;
2.405833333333334E+009;1.784846484661102E-001;1.130275148898363E-002;-1.591487438417971E-003;-3.013433306477964E-004;
2.406000000000000E+009;1.791283786296845E-001;1.093100756406784E-002;-1.596942427568138E-003;-1.637960522202775E-004;
2.406166666666667E+009;1.793920248746872E-001;1.073596812784672E-002;-1.623822143301368E-003;-1.677976688370109E-004;
2.406333333333334E+009;1.800902187824249E-001;1.037071179598570E-002;-1.425428548827767E-003;-1.607741141924635E-004;
2.406500000000000E+009;1.803800612688065E-001;1.001475658267736E-002;-1.717945910058916E-003;-2.995557151734829E-004;
2.406666666666667E+009;1.804452687501907E-001;9.842936880886555E-003;-1.718958606943488E-003;-3.020709264092147E-004;
2.406833333333334E+009;1.807895451784134E-001;9.451004676520824E-003;-1.795387011952698E-003;-1.849332766141743E-004;
2.407000000000000E+009;1.808615028858185E-001;9.192204102873802E-003;-1.688958727754653E-003;-4.890085983788595E-005;
2.407166666666667E+009;1.809245944023132E-001;8.971321396529675E-003;-1.782287610694766E-003;-1.150883836089633E-004;
2.407333333333334E+009;1.807165294885635E-001;8.449901826679707E-003;-1.738021266646683E-003;-5.186788985156454E-005;
2.407500000000000E+009;1.806605607271195E-001;8.198472671210766E-003;-1.914210966788232E-003;-4.195607834844850E-005;
2.407666666666667E+009;1.805422753095627E-001;7.909093052148819E-003;-1.848045852966607E-003;-1.126977367675863E-004;
2.407833333333334E+009;1.799490153789520E-001;7.090433500707150E-003;-1.910049817524850E-003;1.239620905835182E-004;
2.408000000000000E+009;1.798191070556641E-001;6.591016426682472E-003;-1.757865888066590E-003;5.012539986637421E-005;
2.408166666666667E+009;1.792477816343308E-001;6.051579490303993E-003;-1.898771035484970E-003;1.827803207561374E-004;
2.408333333333334E+009;1.790084838867188E-001;5.338898394256830E-003;-1.953241880983114E-003;2.834417973645032E-004;
2.408500000000000E+009;1.781916171312332E-001;4.599978215992451E-003;-1.838564290665090E-003;3.235966432839632E-004;
2.408666666666667E+009;1.777456104755402E-001;3.804986597970128E-003;-1.820799661800265E-003;3.120099427178502E-004;
2.408833333333334E+009;1.769900918006897E-001;2.872429788112640E-003;-1.905645010992885E-003;4.151621542405337E-004;
2.409000000000000E+009;1.764024645090103E-001;1.905758748762310E-003;-1.792644499801099E-003;3.304404381196946E-004;
2.409166666666667E+009;1.756925433874130E-001;6.205957615748048E-004;-1.863011973910034E-003;3.556728188414127E-004;
2.409333333333334E+009;1.751763820648193E-001;-6.226119585335255E-004;-1.776856253854930E-003;4.775028210133314E-004;
2.409500000000000E+009;1.742701977491379E-001;-1.910035265609622E-003;-1.927994773723185E-003;5.946934688836336E-004;
2.409666666666667E+009;1.735069453716278E-001;-3.125618677586317E-003;-1.843565376475453E-003;5.509190377779305E-004;
2.409833333333334E+009;1.727108806371689E-001;-4.504614975303412E-003;-1.773774623870850E-003;7.797769503667951E-004;
2.410000000000000E+009;1.721957921981812E-001;-6.203324068337679E-003;-1.878203940577805E-003;7.855144212953746E-004;
2.410166666666667E+009;1.715608835220337E-001;-7.593489252030850E-003;-1.683444133959711E-003;6.760615506209433E-004;
2.410333333333334E+009;1.709382534027100E-001;-9.327366948127747E-003;-1.639775699004531E-003;6.782389245927334E-004;
2.410500000000000E+009;1.703311055898666E-001;-1.083312649279833E-002;-1.662296708673239E-003;8.558306726627052E-004;
2.410666666666667E+009;1.698157638311386E-001;-1.285423710942268E-002;-1.492807990871370E-003;7.273113587871194E-004;
2.410833333333334E+009;1.694528907537460E-001;-1.450678892433643E-002;-1.694452133961022E-003;8.757450850680471E-004;
2.411000000000000E+009;1.690227538347244E-001;-1.638996414840221E-002;-1.624243101105094E-003;8.885682327672839E-004;
2.411166666666667E+009;1.686041355133057E-001;-1.835515722632408E-002;-1.557862968184054E-003;8.641189197078347E-004;
2.411333333333334E+009;1.682455986738205E-001;-2.010261267423630E-002;-1.727941096760333E-003;7.066293037496507E-004;
2.411500000000000E+009;1.680434048175812E-001;-2.228082530200481E-002;-1.628293772228062E-003;7.810036186128855E-004;
2.411666666666667E+009;1.681484282016754E-001;-2.412426844239235E-002;-1.646654214709997E-003;8.712434209883213E-004;
2.411833333333334E+009;1.680708974599838E-001;-2.599860727787018E-002;-1.551755471155047E-003;8.804546669125557E-004;
2.412000000000000E+009;1.682363450527191E-001;-2.821012772619724E-002;-1.745200133882463E-003;7.530998555012047E-004;
2.412166666666667E+009;1.681676954030991E-001;-3.017501533031464E-002;-1.610674429684877E-003;7.354389526881278E-004;
2.412333333333334E+009;1.683942377567291E-001;-3.206367790699005E-002;-1.682787318713963E-003;7.667203899472952E-004;
2.412500000000000E+009;1.685589253902435E-001;-3.378000855445862E-002;-1.853186753578484E-003;7.688287878409028E-004;
2.412666666666667E+009;1.687804013490677E-001;-3.587103635072708E-002;-1.799552468582988E-003;9.102883632294834E-004;
2.412833333333334E+009;1.691540926694870E-001;-3.781291842460632E-002;-1.851345063187182E-003;1.093297381885350E-003;
2.413000000000000E+009;1.695565283298492E-001;-3.959246724843979E-002;-1.839428674429655E-003;1.012238906696439E-003;
2.413166666666667E+009;1.700614988803864E-001;-4.152110964059830E-002;-2.012096112594008E-003;9.959923336282373E-004;
2.413333333333334E+009;1.704442054033279E-001;-4.304143041372299E-002;-1.921028364449740E-003;1.211774768307805E-003;
2.413500000000000E+009;1.709404289722443E-001;-4.484802857041359E-002;-1.849844004027546E-003;1.296552480198443E-003;
2.413666666666667E+009;1.714818030595779E-001;-4.641942307353020E-002;-1.924099284224212E-003;1.289870706386864E-003;
2.413833333333334E+009;1.719710081815720E-001;-4.785665497183800E-002;-1.895058550871909E-003;1.390234567224979E-003;
2.414000000000000E+009;1.725899577140808E-001;-4.928771033883095E-002;-1.808862085454166E-003;1.337228226475418E-003;
2.414166666666667E+009;1.732056587934494E-001;-5.066280066967011E-002;-2.008823445066810E-003;1.654264284297824E-003;
2.414333333333334E+009;1.736490130424500E-001;-5.193272605538368E-002;-2.090631984174252E-003;1.648026751354337E-003;
2.414500000000000E+009;1.743633002042770E-001;-5.297099798917770E-002;-1.943655428476632E-003;1.687607262283564E-003;
2.414666666666667E+009;1.748150140047073E-001;-5.407126247882843E-002;-1.849847962148488E-003;1.853857655078173E-003;
2.414833333333334E+009;1.753359138965607E-001;-5.500697344541550E-002;-1.968059455975890E-003;1.855540322139859E-003;
2.415000000000000E+009;1.756971627473831E-001;-5.597398057579994E-002;-1.952627906575799E-003;1.986311515793204E-003;
2.415166666666667E+009;1.760543137788773E-001;-5.675057321786881E-002;-1.923642237670720E-003;2.068186178803444E-003;
2.415333333333334E+009;1.766445040702820E-001;-5.760252475738525E-002;-1.747834496200085E-003;2.141031902283430E-003;
2.415500000000000E+009;1.770075857639313E-001;-5.806484445929527E-002;-1.892430358566344E-003;2.278231317177415E-003;
2.415666666666667E+009;1.772108823060989E-001;-5.866974592208862E-002;-1.847813022322953E-003;2.555272541940212E-003;
2.415833333333334E+009;1.774295419454575E-001;-5.921359360218048E-002;-1.756367855705321E-003;2.541175344958901E-003;
2.416000000000000E+009;1.775275319814682E-001;-5.961751937866211E-002;-1.600953750312328E-003;2.637765603139997E-003;
2.416166666666667E+009;1.778219193220139E-001;-6.003977358341217E-002;-1.604999997653067E-003;2.929398790001869E-003;
2.416333333333334E+009;1.776862591505051E-001;-6.011393293738365E-002;-1.549865468405187E-003;3.004473866894841E-003;
2.416500000000000E+009;1.775580644607544E-001;-6.051693484187126E-002;-1.316371490247548E-003;3.028359264135361E-003;
2.416666666666667E+009;1.773751974105835E-001;-6.073978543281555E-002;-1.389541779644787E-003;3.082443261519074E-003;
2.416833333333334E+009;1.771950423717499E-001;-6.114959344267845E-002;-1.133652287535369E-003;3.372658975422382E-003;
2.417000000000000E+009;1.766883432865143E-001;-6.131935119628906E-002;-9.756629588082433E-004;3.339420072734356E-003;
2.417166666666667E+009;1.763352602720261E-001;-6.141761317849159E-002;-9.292073082178831E-004;3.366775810718536E-003;
2.417333333333334E+009;1.759325712919235E-001;-6.163477897644043E-002;-8.461981196887791E-004;3.356007626280189E-003;
2.417500000000000E+009;1.751812696456909E-001;-6.183203682303429E-002;-6.426381878554821E-004;3.551193280145526E-003;
2.417666666666667E+009;1.746242344379425E-001;-6.195537373423576E-002;-4.193383210804313E-004;3.561584511771798E-003;
2.417833333333334E+009;1.737931072711945E-001;-6.234299018979073E-002;-3.865206090267748E-004;3.660055343061686E-003;
2.418000000000000E+009;1.727590858936310E-001;-6.252673268318176E-002;-2.839526569005102E-004;3.661752678453922E-003;
2.418166666666667E+009;1.718707978725433E-001;-6.270021945238113E-002;-1.952167076524347E-004;3.619676921516657E-003;
2.418333333333334E+009;1.711935997009277E-001;-6.317582726478577E-002;-1.157636506832205E-005;3.803420579060912E-003;
2.418500000000000E+009;1.700683832168579E-001;-6.356587260961533E-002;1.798663870431483E-004;3.636962501332164E-003;
2.418666666666667E+009;1.689745038747788E-001;-6.403724104166031E-002;2.968169865198433E-004;3.760129911825061E-003;
2.418833333333334E+009;1.676254421472549E-001;-6.457667797803879E-002;4.270085482858121E-004;3.708053845912218E-003;
2.419000000000000E+009;1.665887534618378E-001;-6.506675481796265E-002;4.726960032712668E-004;3.656460205093026E-003;
2.419166666666667E+009;1.654761433601379E-001;-6.576508283615112E-002;8.090338087640703E-004;3.710941644385457E-003;
2.419333333333334E+009;1.640512943267822E-001;-6.631962954998016E-002;8.839213405735791E-004;3.740077372640371E-003;
2.419500000000000E+009;1.630887836217880E-001;-6.732016801834106E-002;1.128674251958728E-003;3.626092569902539E-003;
2.419666666666667E+009;1.619830280542374E-001;-6.812123954296112E-002;1.162807340733707E-003;3.731133649125695E-003;
2.419833333333334E+009;1.605322510004044E-001;-6.899592280387878E-002;1.166402595117688E-003;3.604051424190402E-003;
2.420000000000000E+009;1.594096273183823E-001;-7.014815509319305E-002;1.594429137185216E-003;3.700359025970101E-003;
2.420166666666667E+009;1.584385037422180E-001;-7.121095806360245E-002;1.499459031037986E-003;3.468327224254608E-003;
2.420333333333334E+009;1.573842763900757E-001;-7.265261560678482E-002;1.718849758617580E-003;3.532928181812167E-003;
2.420500000000000E+009;1.562698036432266E-001;-7.351409643888474E-002;1.797224511392415E-003;3.390644909814000E-003;
2.420666666666667E+009;1.552714854478836E-001;-7.490172237157822E-002;1.972024329006672E-003;3.442079527303577E-003;
2.420833333333334E+009;1.543091535568237E-001;-7.641469687223434E-002;2.108067506924272E-003;3.331006970256567E-003;
2.421000000000000E+009;1.532460451126099E-001;-7.785724848508835E-002;2.324165310710669E-003;3.224694402888417E-003;
2.421166666666667E+009;1.525681018829346E-001;-7.952719181776047E-002;2.527880715206265E-003;3.281627781689167E-003;
2.421333333333334E+009;1.519073843955994E-001;-8.102413266897202E-002;2.493388950824738E-003;3.102032700553536E-003;
2.421500000000000E+009;1.511871814727783E-001;-8.248896151781082E-002;2.485069446265698E-003;3.008220111951232E-003;
2.421666666666667E+009;1.507975459098816E-001;-8.434712886810303E-002;2.713583176955581E-003;2.946837572380900E-003;
2.421833333333334E+009;1.503488421440125E-001;-8.583350479602814E-002;2.693377435207367E-003;2.851976081728935E-003;
2.422000000000000E+009;1.498376131057739E-001;-8.752102404832840E-002;2.791764680296183E-003;2.866180147975683E-003;
2.422166666666667E+009;1.496590971946716E-001;-8.941613137722015E-002;3.009307896718383E-003;2.662954386323690E-003;
2.422333333333334E+009;1.493353396654129E-001;-9.106156229972839E-002;3.121426096186042E-003;2.597635146230459E-003;
2.422500000000000E+009;1.491459012031555E-001;-9.260503202676773E-002;3.101386828348041E-003;2.526914468035102E-003;
2.422666666666667E+009;1.490889936685562E-001;-9.432612359523773E-002;3.196478821337223E-003;2.365580294281244E-003;
2.422833333333334E+009;1.492578536272049E-001;-9.616956114768982E-002;3.276690607890487E-003;2.096280455589294E-003;
2.423000000000000E+009;1.492592394351959E-001;-9.775085747241974E-002;3.423445392400026E-003;2.052037743851543E-003;
2.423166666666667E+009;1.495161950588226E-001;-9.935452789068222E-002;3.481108462437987E-003;1.999514643102884E-003;
2.423333333333334E+009;1.500303596258164E-001;-1.008436903357506E-001;3.491745563223958E-003;1.974167535081506E-003;
2.423500000000000E+009;1.501107662916184E-001;-1.025089621543884E-001;3.591718152165413E-003;1.750849653035402E-003;
2.423666666666667E+009;1.503856182098389E-001;-1.041141748428345E-001;3.810460912063718E-003;1.652585342526436E-003;
2.423833333333334E+009;1.508262604475021E-001;-1.055438071489334E-001;3.885466372594237E-003;1.535063842311502E-003;
2.424000000000000E+009;1.512240469455719E-001;-1.068611815571785E-001;3.936953842639923E-003;1.331292209215462E-003;
2.424166666666667E+009;1.516043245792389E-001;-1.080624014139175E-001;3.967859782278538E-003;1.219485769979656E-003;
2.424333333333334E+009;1.521927416324616E-001;-1.093073338270187E-001;4.016546998172998E-003;1.068565063178539E-003;
2.424500000000000E+009;1.526849865913391E-001;-1.105388998985291E-001;4.033511038869619E-003;7.204173598438501E-004;
2.424666666666667E+009;1.533064842224121E-001;-1.114398986101151E-001;4.122808575630188E-003;6.535280845128000E-004;
2.424833333333334E+009;1.537546813488007E-001;-1.124698743224144E-001;4.235167987644672E-003;5.808226414956152E-004;
2.425000000000000E+009;1.542966663837433E-001;-1.135265827178955E-001;4.179143346846104E-003;3.904743934981525E-004;
2.425166666666667E+009;1.545583307743073E-001;-1.142911389470100E-001;4.204205237329006E-003;2.813342434819788E-004;
2.425333333333334E+009;1.550390720367432E-001;-1.150550246238709E-001;4.207790829241276E-003;-2.103379229083657E-004;
2.425500000000000E+009;1.554664224386215E-001;-1.157839074730873E-001;4.228311125189066E-003;-1.716439874144271E-004;
2.425666666666667E+009;1.556148827075958E-001;-1.162880212068558E-001;4.125169012695551E-003;-3.140578046441078E-004;
2.425833333333334E+009;1.560110300779343E-001;-1.167625561356545E-001;4.196091555058956E-003;-5.909665487706661E-004;
2.426000000000000E+009;1.561709344387054E-001;-1.173627451062203E-001;3.992947284132242E-003;-7.031116983853281E-004;
2.426166666666667E+009;1.565346121788025E-001;-1.178359761834145E-001;4.000736866146326E-003;-8.860200177878141E-004;
2.426333333333334E+009;1.564695686101914E-001;-1.180359721183777E-001;3.977379761636257E-003;-1.078949193470180E-003;
2.426500000000000E+009;1.564946472644806E-001;-1.183249950408936E-001;3.956132568418980E-003;-1.235216273926199E-003;
2.426666666666667E+009;1.565692573785782E-001;-1.184049174189568E-001;3.590447129681706E-003;-1.378730405122042E-003;
2.426833333333334E+009;1.564605534076691E-001;-1.186057776212692E-001;3.729688702151179E-003;-1.377181848511100E-003;
2.427000000000000E+009;1.561214625835419E-001;-1.188523173332214E-001;3.478157334029675E-003;-1.684521907009184E-003;
2.427166666666667E+009;1.556631773710251E-001;-1.187352761626244E-001;3.469838527962565E-003;-1.642359653487802E-003;
2.427333333333334E+009;1.551519036293030E-001;-1.190043315291405E-001;3.369431709870696E-003;-1.960657536983490E-003;
2.427500000000000E+009;1.547879278659821E-001;-1.190374270081520E-001;3.278084332123399E-003;-1.942352857440710E-003;
2.427666666666667E+009;1.540200412273407E-001;-1.191574037075043E-001;3.015836467966437E-003;-1.924759126268327E-003;
