# Version 1.00
#
freq[Hz];re:Trc1_S11;im:Trc1_S11;re:Trc2_S21;im:Trc2_S21;
2.400000000000000E+009;1.553267985582352E-001;1.064494997262955E-001;3.308813786134124E-003;-7.493819575756788E-003;
2.400166666666667E+009;1.552165597677231E-001;1.038632243871689E-001;3.129863645881414E-003;-7.799177896231413E-003;
2.400333333333334E+009;1.553693264722824E-001;1.015151143074036E-001;2.908180700615048E-003;-7.939447648823261E-003;
2.400500000000000E+009;1.552125215530396E-001;9.881879389286041E-002;2.815517131239176E-003;-8.167433552443981E-003;
2.400666666666667E+009;1.554574221372604E-001;9.627170860767365E-002;2.510854043066502E-003;-8.378424681723118E-003;
2.400833333333334E+009;1.554442346096039E-001;9.341719746589661E-002;2.165199490264058E-003;-8.712674491107464E-003;
2.401000000000000E+009;1.555557847023010E-001;9.063012152910233E-002;2.026186324656010E-003;-8.820277638733387E-003;
2.401166666666667E+009;1.557042449712753E-001;8.772991597652435E-002;1.504397834651172E-003;-8.818066678941250E-003;
2.401333333333334E+009;1.560135781764984E-001;8.524161577224731E-002;1.325650722719729E-003;-9.059586562216282E-003;
2.401500000000000E+009;1.564605236053467E-001;8.209903538227081E-002;8.780939970165491E-004;-9.294646792113781E-003;
2.401666666666667E+009;1.568125635385513E-001;7.939412444829941E-002;5.863597616553307E-004;-9.250144474208355E-003;
2.401833333333334E+009;1.572382003068924E-001;7.689329981803894E-002;1.667627511778846E-004;-9.439853951334953E-003;
2.402000000000000E+009;1.583299636840820E-001;7.392871379852295E-002;-3.367175304447301E-005;-9.326322935521603E-003;
2.402166666666667E+009;1.590043902397156E-001;7.147812098264694E-002;-5.152219091542065E-004;-9.447050280869007E-003;
2.402333333333334E+009;1.599535048007965E-001;6.870677322149277E-002;-8.724097860977054E-004;-9.473853744566441E-003;
2.402500000000000E+009;1.610243171453476E-001;6.633334606885910E-002;-1.215569325722754E-003;-9.353261440992355E-003;
2.402666666666667E+009;1.621382534503937E-001;6.398452818393707E-002;-1.657973276451230E-003;-9.523661807179451E-003;
2.402833333333334E+009;1.634875237941742E-001;6.148393824696541E-002;-1.938467146828771E-003;-9.329780936241150E-003;
2.403000000000000E+009;1.648578345775604E-001;5.935969576239586E-002;-2.245675772428513E-003;-9.162411093711853E-003;
2.403166666666667E+009;1.667520403862000E-001;5.723866447806358E-002;-2.690111519768834E-003;-9.204054251313210E-003;
2.403333333333334E+009;1.679787486791611E-001;5.496546998620033E-002;-3.028780221939087E-003;-8.988975547254086E-003;
2.403500000000000E+009;1.699273288249970E-001;5.302159115672112E-002;-3.211508505046368E-003;-8.990021422505379E-003;
2.403666666666667E+009;1.714780926704407E-001;5.108259618282318E-002;-3.638890804722905E-003;-8.823289535939694E-003;
2.403833333333334E+009;1.733818501234055E-001;4.926752299070358E-002;-4.011049401015043E-003;-8.698281832039356E-003;
2.404000000000000E+009;1.746958047151566E-001;4.765493422746658E-002;-4.410665947943926E-003;-8.765038102865219E-003;
2.404166666666667E+009;1.764986515045166E-001;4.619446769356728E-002;-4.811184015125036E-003;-8.473958820104599E-003;
2.404333333333334E+009;1.781168282032013E-001;4.453014954924583E-002;-5.075576249510050E-003;-8.396144956350327E-003;
2.404500000000000E+009;1.796032935380936E-001;4.325915500521660E-002;-5.263895727694035E-003;-8.047573268413544E-003;
2.404666666666667E+009;1.811896562576294E-001;4.210488498210907E-002;-5.771924275904894E-003;-7.877876982092857E-003;
2.404833333333334E+009;1.829270124435425E-001;4.111747816205025E-002;-6.143967155367136E-003;-7.698233705013990E-003;
2.405000000000000E+009;1.842528730630875E-001;4.050837084650993E-002;-6.397048011422157E-003;-7.603287231177092E-003;
2.405166666666667E+009;1.856372058391571E-001;3.969044983386993E-002;-6.815398577600718E-003;-7.307897321879864E-003;
2.405333333333334E+009;1.870369017124176E-001;3.925289213657379E-002;-7.151178084313870E-003;-6.808876525610685E-003;
2.405500000000000E+009;1.883917599916458E-001;3.887265920639038E-002;-7.443581707775593E-003;-6.625535432249308E-003;
2.405666666666667E+009;1.896096169948578E-001;3.850463777780533E-002;-7.775409147143364E-003;-6.159021984785795E-003;
2.405833333333334E+009;1.907575875520706E-001;3.824308142066002E-002;-7.970687933266163E-003;-5.820574238896370E-003;
2.406000000000000E+009;1.917486935853958E-001;3.806122392416000E-002;-8.107364177703857E-003;-5.278710275888443E-003;
2.406166666666667E+009;1.926180273294449E-001;3.782431036233902E-002;-8.261560462415218E-003;-4.979383200407028E-003;
2.406333333333334E+009;1.935746967792511E-001;3.797607123851776E-002;-8.506765589118004E-003;-4.641330800950527E-003;
2.406500000000000E+009;1.942212879657745E-001;3.789819777011871E-002;-8.425704203546047E-003;-4.153762944042683E-003;
2.406666666666667E+009;1.949391067028046E-001;3.795854747295380E-002;-8.475222624838352E-003;-3.787256078794599E-003;
2.406833333333334E+009;1.954383850097656E-001;3.794075921177864E-002;-8.567786775529385E-003;-3.350256243720651E-003;
2.407000000000000E+009;1.957260966300964E-001;3.818475455045700E-002;-8.545814082026482E-003;-3.115505445748568E-003;
2.407166666666667E+009;1.961771249771118E-001;3.787728026509285E-002;-8.481848984956741E-003;-2.729760017246008E-003;
2.407333333333334E+009;1.960140168666840E-001;3.809114545583725E-002;-8.585329167544842E-003;-2.330821473151445E-003;
2.407500000000000E+009;1.958728581666946E-001;3.807150200009346E-002;-8.546515367925167E-003;-2.147166291251779E-003;
2.407666666666667E+009;1.958014070987701E-001;3.792623430490494E-002;-8.569385856389999E-003;-1.752152922563255E-003;
2.407833333333334E+009;1.954149007797241E-001;3.771626949310303E-002;-8.450482040643692E-003;-1.533122733235359E-003;
2.408000000000000E+009;1.953513920307159E-001;3.757665306329727E-002;-8.330795913934708E-003;-1.309400307945907E-003;
2.408166666666667E+009;1.947709769010544E-001;3.724780678749085E-002;-8.519359864294529E-003;-9.551720577292144E-004;
2.408333333333334E+009;1.942500621080399E-001;3.664274141192436E-002;-8.213893510401249E-003;-6.820114213041961E-004;
2.408500000000000E+009;1.935608088970184E-001;3.634515032172203E-002;-8.159124292433262E-003;-4.203854186926037E-004;
2.408666666666667E+009;1.930152028799057E-001;3.578329458832741E-002;-8.058717474341393E-003;-1.956360210897401E-005;
2.408833333333334E+009;1.922948509454727E-001;3.502004593610764E-002;-7.803323213011026E-003;2.305470407009125E-004;
2.409000000000000E+009;1.913178116083145E-001;3.405014798045158E-002;-7.914965040981770E-003;2.914514334406704E-004;
2.409166666666667E+009;1.904547661542893E-001;3.298683464527130E-002;-7.600983604788780E-003;4.716138064395636E-004;
2.409333333333334E+009;1.894572079181671E-001;3.197621926665306E-002;-7.448673248291016E-003;7.761514862067998E-004;
2.409500000000000E+009;1.884575337171555E-001;3.062704578042030E-002;-7.382308132946491E-003;1.025480800308287E-003;
2.409666666666667E+009;1.874360144138336E-001;2.919865213334560E-002;-7.141672540456057E-003;1.183561282232404E-003;
2.409833333333334E+009;1.864293068647385E-001;2.771304361522198E-002;-7.077212911099196E-003;1.317025395110250E-003;
2.410000000000000E+009;1.854828894138336E-001;2.601147070527077E-002;-6.862945389002562E-003;1.559253665618599E-003;
2.410166666666667E+009;1.844650506973267E-001;2.430901117622852E-002;-6.769117899239063E-003;1.603348529897630E-003;
2.410333333333334E+009;1.835304349660873E-001;2.251122519373894E-002;-6.687562447041273E-003;1.728314673528075E-003;
2.410500000000000E+009;1.826646327972412E-001;2.046222053468227E-002;-6.522739771753550E-003;1.658928580582142E-003;
2.410666666666667E+009;1.817188560962677E-001;1.830811053514481E-002;-6.388819310814142E-003;1.771725830622017E-003;
2.410833333333334E+009;1.811920851469040E-001;1.608599349856377E-002;-6.299651693552733E-003;1.949009834788740E-003;
2.411000000000000E+009;1.803414970636368E-001;1.381323952227831E-002;-6.209927145391703E-003;2.042834879830480E-003;
2.411166666666667E+009;1.798689961433411E-001;1.170319039374590E-002;-6.094448268413544E-003;2.083106897771359E-003;
2.411333333333334E+009;1.792204976081848E-001;9.354327805340290E-003;-5.888054613023996E-003;2.248696284368634E-003;
2.411500000000000E+009;1.788637191057205E-001;6.768895778805018E-003;-5.961314309388399E-003;2.416805131360889E-003;
2.411666666666667E+009;1.788669675588608E-001;4.539035260677338E-003;-5.758746061474085E-003;2.433412242680788E-003;
2.411833333333334E+009;1.784023493528366E-001;2.096191514283419E-003;-5.661150906234980E-003;2.451502718031406E-003;
2.412000000000000E+009;1.789040565490723E-001;-4.215060616843402E-004;-5.589817184954882E-003;2.479520393535495E-003;
2.412166666666667E+009;1.788028478622437E-001;-2.712674671784043E-003;-5.566938780248165E-003;2.641434781253338E-003;
2.412333333333334E+009;1.788148880004883E-001;-5.268817301839590E-003;-5.429412238299847E-003;2.596730133518577E-003;
2.412500000000000E+009;1.794500648975372E-001;-7.682843133807182E-003;-5.268279463052750E-003;2.622329397127032E-003;
2.412666666666667E+009;1.799389123916626E-001;-1.004010252654553E-002;-5.482551641762257E-003;2.572134602814913E-003;
2.412833333333334E+009;1.806431859731674E-001;-1.255364995449781E-002;-5.484973080456257E-003;2.723237732425332E-003;
2.413000000000000E+009;1.814275830984116E-001;-1.466898713260889E-002;-5.283653736114502E-003;2.808211138471961E-003;
2.413166666666667E+009;1.820707470178604E-001;-1.696593314409256E-002;-5.436547100543976E-003;2.966156229376793E-003;
2.413333333333334E+009;1.832001358270645E-001;-1.944332756102085E-002;-5.386578384786844E-003;2.961033023893833E-003;
2.413500000000000E+009;1.841141730546951E-001;-2.142057754099369E-002;-5.378974135965109E-003;3.181729931384325E-003;
2.413666666666667E+009;1.853183805942535E-001;-2.362468093633652E-002;-5.441852845251560E-003;3.200048580765724E-003;
2.413833333333334E+009;1.864613741636276E-001;-2.565865032374859E-002;-5.414230283349752E-003;3.314066911116242E-003;
2.414000000000000E+009;1.874212473630905E-001;-2.752517163753510E-002;-5.284634418785572E-003;3.553303657099605E-003;
2.414166666666667E+009;1.886982619762421E-001;-2.931676246225834E-002;-5.244735628366470E-003;3.840593155473471E-003;
2.414333333333334E+009;1.897227317094803E-001;-3.115028515458107E-002;-5.316201131790876E-003;4.122776910662651E-003;
2.414500000000000E+009;1.910264194011688E-001;-3.266039863228798E-002;-5.112720187753439E-003;4.184873774647713E-003;
2.414666666666667E+009;1.920683681964874E-001;-3.425709158182144E-002;-4.935210105031729E-003;4.457254894077778E-003;
2.414833333333334E+009;1.931884586811066E-001;-3.551748022437096E-002;-4.864652641117573E-003;4.538931883871555E-003;
2.415000000000000E+009;1.944174319505692E-001;-3.681636601686478E-002;-4.769227467477322E-003;4.630743060261011E-003;
2.415166666666667E+009;1.955818533897400E-001;-3.782919794321060E-002;-4.731342196464539E-003;4.899428691715002E-003;
2.415333333333334E+009;1.967085152864456E-001;-3.868985548615456E-002;-4.594624973833561E-003;4.909385927021503E-003;
2.415500000000000E+009;1.977439522743225E-001;-3.938260301947594E-002;-4.556502215564251E-003;5.067252088338137E-003;
2.415666666666667E+009;1.986557543277741E-001;-4.025771468877792E-002;-4.518922418355942E-003;5.235099699348211E-003;
2.415833333333334E+009;1.994330137968063E-001;-4.089592024683952E-002;-4.369593691080809E-003;5.539890844374895E-003;
2.416000000000000E+009;2.002204805612564E-001;-4.133994877338409E-002;-4.356465302407742E-003;5.520097445696592E-003;
2.416166666666667E+009;2.009606808423996E-001;-4.185666516423225E-002;-4.037864971905947E-003;5.737241357564926E-003;
2.416333333333334E+009;2.015924155712128E-001;-4.220676049590111E-002;-4.058584570884705E-003;5.887435749173164E-003;
2.416500000000000E+009;2.019832134246826E-001;-4.258118942379952E-002;-3.771823132410646E-003;6.303993985056877E-003;
2.416666666666667E+009;2.022241801023483E-001;-4.279843345284462E-002;-3.610975341871381E-003;6.309089250862598E-003;
2.416833333333334E+009;2.024209052324295E-001;-4.277886077761650E-002;-3.447582945227623E-003;6.626612041145563E-003;
2.417000000000000E+009;2.024070322513580E-001;-4.300188273191452E-002;-3.170036943629384E-003;6.718960590660572E-003;
2.417166666666667E+009;2.021854966878891E-001;-4.284821823239327E-002;-2.900353865697980E-003;6.892210803925991E-003;
2.417333333333334E+009;2.018500417470932E-001;-4.277585819363594E-002;-2.596481470391154E-003;7.072397507727146E-003;
2.417500000000000E+009;2.014636695384979E-001;-4.287421703338623E-002;-2.519825706258416E-003;7.022004574537277E-003;
2.417666666666667E+009;2.009072303771973E-001;-4.279745742678642E-002;-2.171633765101433E-003;7.053247652947903E-003;
2.417833333333334E+009;2.004575133323669E-001;-4.248911887407303E-002;-2.075018594041467E-003;7.255598437041044E-003;
2.418000000000000E+009;1.997312605381012E-001;-4.231960698962212E-002;-1.677650259807706E-003;7.448907941579819E-003;
2.418166666666667E+009;1.990182250738144E-001;-4.221475496888161E-002;-1.459748018532991E-003;7.399014197289944E-003;
2.418333333333334E+009;1.979558616876602E-001;-4.209837317466736E-002;-1.334787346422672E-003;7.303651422262192E-003;
2.418500000000000E+009;1.969113647937775E-001;-4.234601557254791E-002;-1.125390408560634E-003;7.397502195090056E-003;
2.418666666666667E+009;1.959132105112076E-001;-4.216436669230461E-002;-7.711249636486173E-004;7.569490466266871E-003;
2.418833333333334E+009;1.947565823793411E-001;-4.239986091852188E-002;-5.711381090804935E-004;7.547054439783096E-003;
2.419000000000000E+009;1.933689266443253E-001;-4.260766506195068E-002;-2.390439913142473E-004;7.535281125456095E-003;
2.419166666666667E+009;1.921471357345581E-001;-4.279856383800507E-002;-6.027621930115856E-005;7.534388452768326E-003;
2.419333333333334E+009;1.907910555601120E-001;-4.344630986452103E-002;2.445474674459547E-004;7.512663491070271E-003;
2.419500000000000E+009;1.892733871936798E-001;-4.389216378331184E-002;3.841441066469997E-004;7.632985711097717E-003;
2.419666666666667E+009;1.876463145017624E-001;-4.476238787174225E-002;5.884873098693788E-004;7.586994208395481E-003;
2.419833333333334E+009;1.861098259687424E-001;-4.543833807110786E-002;9.123811032623053E-004;7.499439176172018E-003;
2.420000000000000E+009;1.844752877950668E-001;-4.633933678269386E-002;1.060721930116415E-003;7.651875261217356E-003;
2.420166666666667E+009;1.828601360321045E-001;-4.720329865813255E-002;1.440631458535790E-003;7.598026655614376E-003;
2.420333333333334E+009;1.813320368528366E-001;-4.848816245794296E-002;1.652436680160463E-003;7.514685858041048E-003;
2.420500000000000E+009;1.794812977313995E-001;-4.969473555684090E-002;1.960989320650697E-003;7.533651310950518E-003;
2.420666666666667E+009;1.779940426349640E-001;-5.086866393685341E-002;2.323287073522806E-003;7.341784890741110E-003;
2.420833333333334E+009;1.763600856065750E-001;-5.234419554471970E-002;2.439983189105988E-003;7.273293565958738E-003;
2.421000000000000E+009;1.750338822603226E-001;-5.399425327777863E-002;2.765825949609280E-003;7.077032234519720E-003;
2.421166666666667E+009;1.736872196197510E-001;-5.564627423882484E-002;2.946427324786782E-003;6.926258560270071E-003;
2.421333333333334E+009;1.719697415828705E-001;-5.713401734828949E-002;3.271761117503047E-003;6.722505670040846E-003;
2.421500000000000E+009;1.707834601402283E-001;-5.898401513695717E-002;3.551443340256810E-003;6.561009213328362E-003;
2.421666666666667E+009;1.694699227809906E-001;-6.082548946142197E-002;3.640876850113273E-003;6.380862556397915E-003;
2.421833333333334E+009;1.682663261890411E-001;-6.247766688466072E-002;3.985824063420296E-003;6.194516550749540E-003;
2.422000000000000E+009;1.674771606922150E-001;-6.454507261514664E-002;4.003874491900206E-003;6.038335617631674E-003;
2.422166666666667E+009;1.664734035730362E-001;-6.661717593669891E-002;4.248414654284716E-003;5.782658234238625E-003;
2.422333333333334E+009;1.653782129287720E-001;-6.852505356073380E-002;4.452025517821312E-003;5.654142703860998E-003;
2.422500000000000E+009;1.647657006978989E-001;-7.033167779445648E-002;4.636555910110474E-003;5.449069663882256E-003;
2.422666666666667E+009;1.640826761722565E-001;-7.233913242816925E-002;4.514423198997974E-003;5.071427673101425E-003;
2.422833333333334E+009;1.636685580015183E-001;-7.451271265745163E-002;4.700739402323961E-003;4.863760434091091E-003;
2.423000000000000E+009;1.630712449550629E-001;-7.646697014570236E-002;4.731260240077972E-003;4.761981777846813E-003;
2.423166666666667E+009;1.628682762384415E-001;-7.824479788541794E-002;5.003152880817652E-003;4.555983468890190E-003;
2.423333333333334E+009;1.624903082847595E-001;-8.020514994859695E-002;4.843510687351227E-003;4.467275924980640E-003;
2.423500000000000E+009;1.623296886682510E-001;-8.199993520975113E-002;4.964213818311691E-003;4.316132981330156E-003;
2.423666666666667E+009;1.625726968050003E-001;-8.385816961526871E-002;5.105915945023298E-003;4.098230507224798E-003;
2.423833333333334E+009;1.624361872673035E-001;-8.548319339752197E-002;5.074546206742525E-003;3.959265537559986E-003;
2.424000000000000E+009;1.626324653625488E-001;-8.724593371152878E-002;5.234501324594021E-003;3.802219172939658E-003;
2.424166666666667E+009;1.626502573490143E-001;-8.871165663003922E-002;5.335698835551739E-003;3.799818921834230E-003;
2.424333333333334E+009;1.630708873271942E-001;-9.032908827066422E-002;5.425535608083010E-003;3.444124478846788E-003;
2.424500000000000E+009;1.633639633655548E-001;-9.198158234357834E-002;5.525880493223667E-003;3.219306468963623E-003;
2.424666666666667E+009;1.635941118001938E-001;-9.315560013055801E-002;5.698217544704676E-003;3.290270222350955E-003;
2.424833333333334E+009;1.640688478946686E-001;-9.437374025583267E-002;5.544142797589302E-003;2.921612933278084E-003;
2.425000000000000E+009;1.644479185342789E-001;-9.566271305084229E-002;5.620364565402269E-003;2.751563442870975E-003;
2.425166666666667E+009;1.647489070892334E-001;-9.663238376379013E-002;5.654085427522659E-003;2.390787238255143E-003;
2.425333333333334E+009;1.650598049163818E-001;-9.755528718233109E-002;5.657226778566837E-003;2.144525060430169E-003;
2.425500000000000E+009;1.656489372253418E-001;-9.849904477596283E-002;5.734516307711601E-003;1.934848492965102E-003;
2.425666666666667E+009;1.659196764230728E-001;-9.917028993368149E-002;5.701662506908178E-003;1.691221492365003E-003;
2.425833333333334E+009;1.662573665380478E-001;-9.992123395204544E-002;5.703534465283155E-003;1.488167676143348E-003;
2.426000000000000E+009;1.666935980319977E-001;-1.003438457846642E-001;5.694105755537748E-003;1.501539023593068E-003;
2.426166666666667E+009;1.670436263084412E-001;-1.008484289050102E-001;5.601987242698669E-003;1.247000764124095E-003;
2.426333333333334E+009;1.671681106090546E-001;-1.013687849044800E-001;5.424454808235169E-003;1.035601249895990E-003;
2.426500000000000E+009;1.674734354019165E-001;-1.015889272093773E-001;5.419148597866297E-003;1.013637054711580E-003;
2.426666666666667E+009;1.677045971155167E-001;-1.018657386302948E-001;5.516394041478634E-003;7.695363019593060E-004;
2.426833333333334E+009;1.680438518524170E-001;-1.021983101963997E-001;5.400320515036583E-003;8.058111998252571E-004;
2.427000000000000E+009;1.680231839418411E-001;-1.023201793432236E-001;5.421434063464403E-003;5.174186080694199E-004;
2.427166666666667E+009;1.678884476423264E-001;-1.023692786693573E-001;5.263618193566799E-003;5.643557524308562E-004;
2.427333333333334E+009;1.678937822580338E-001;-1.026225239038467E-001;5.254760384559631E-003;4.867670068051666E-004;
2.427500000000000E+009;1.675911545753479E-001;-1.028610840439796E-001;5.314337555319071E-003;2.456412476021797E-004;
2.427666666666667E+009;1.672237217426300E-001;-1.028896570205689E-001;5.268708802759647E-003;9.855644748313353E-005;
2.427833333333334E+009;1.669336557388306E-001;-1.030359789729118E-001;5.225285887718201E-003;7.691495557082817E-005;
