# Version 1.00
#
freq[Hz];re:Trc1_S11;im:Trc1_S11;re:Trc2_S21;im:Trc2_S21;
2.400000000000000E+009;1.551726013422012E-001;1.062853112816811E-001;3.387081669643521E-003;-7.518779020756483E-003;
2.400166666666667E+009;1.550521701574326E-001;1.041360497474670E-001;3.236903110519052E-003;-7.649197243154049E-003;
2.400333333333334E+009;1.550784260034561E-001;1.016756668686867E-001;2.949711168184876E-003;-7.927935570478439E-003;
2.400500000000000E+009;1.551845818758011E-001;9.882954508066177E-002;2.658132929354906E-003;-8.196621201932430E-003;
2.400666666666667E+009;1.552959680557251E-001;9.640675783157349E-002;2.476630499586463E-003;-8.458322845399380E-003;
2.400833333333334E+009;1.552187353372574E-001;9.337354451417923E-002;2.198307542130351E-003;-8.629600517451763E-003;
2.401000000000000E+009;1.555067002773285E-001;9.066337347030640E-002;1.840321929194033E-003;-8.889971300959587E-003;
2.401166666666667E+009;1.555593311786652E-001;8.781412988901138E-002;1.623673364520073E-003;-9.010070003569126E-003;
2.401333333333334E+009;1.559189856052399E-001;8.502981066703796E-002;1.298951683565974E-003;-8.889351040124893E-003;
2.401500000000000E+009;1.565016359090805E-001;8.216699212789536E-002;7.629932370036840E-004;-9.148363955318928E-003;
2.401666666666667E+009;1.566730737686157E-001;7.928568124771118E-002;4.966934211552143E-004;-9.225150570273399E-003;
2.401833333333334E+009;1.572012454271317E-001;7.677751779556274E-002;2.870849566534162E-004;-9.281609207391739E-003;
2.402000000000000E+009;1.581551581621170E-001;7.390853762626648E-002;-1.017480608425103E-004;-9.267811663448811E-003;
2.402166666666667E+009;1.589598059654236E-001;7.157186418771744E-002;-3.776550292968750E-004;-9.367313235998154E-003;
2.402333333333334E+009;1.599216014146805E-001;6.876180320978165E-002;-8.503942517563701E-004;-9.229490533471108E-003;
2.402500000000000E+009;1.610793769359589E-001;6.625197082757950E-002;-1.297657843679190E-003;-9.309688583016396E-003;
2.402666666666667E+009;1.620850861072540E-001;6.406565010547638E-002;-1.661347807385027E-003;-9.378323331475258E-003;
2.402833333333334E+009;1.634637117385864E-001;6.160988658666611E-002;-2.022325294092298E-003;-9.319496341049671E-003;
2.403000000000000E+009;1.648145467042923E-001;5.945181474089623E-002;-2.354033058509231E-003;-9.307826869189739E-003;
2.403166666666667E+009;1.665518879890442E-001;5.727982521057129E-002;-2.511634724214673E-003;-9.161511436104775E-003;
2.403333333333334E+009;1.681358665227890E-001;5.508483201265335E-002;-2.985469996929169E-003;-9.059645235538483E-003;
2.403500000000000E+009;1.696916371583939E-001;5.308361724019051E-002;-3.449986223131418E-003;-9.086881764233112E-003;
2.403666666666667E+009;1.715562641620636E-001;5.100973695516586E-002;-3.608515951782465E-003;-8.929168805480003E-003;
2.403833333333334E+009;1.730901151895523E-001;4.937461763620377E-002;-3.855689894407988E-003;-8.687989786267281E-003;
2.404000000000000E+009;1.745739132165909E-001;4.766093567013741E-002;-4.460299387574196E-003;-8.619996719062328E-003;
2.404166666666667E+009;1.762367337942123E-001;4.627795517444611E-002;-4.625852685421705E-003;-8.370941504836083E-003;
2.404333333333334E+009;1.780666857957840E-001;4.461038485169411E-002;-5.179994273930788E-003;-8.187831379473209E-003;
2.404500000000000E+009;1.794956028461456E-001;4.328478500247002E-002;-5.501507781445980E-003;-8.242565207183361E-003;
2.404666666666667E+009;1.811940670013428E-001;4.240945726633072E-002;-5.650416947901249E-003;-7.920293137431145E-003;
2.404833333333334E+009;1.827394217252731E-001;4.108585044741631E-002;-6.149239838123322E-003;-7.625734899193049E-003;
2.405000000000000E+009;1.841097176074982E-001;4.058469086885452E-002;-6.570308934897184E-003;-7.617315277457237E-003;
2.405166666666667E+009;1.855746209621429E-001;3.978649526834488E-002;-6.623629946261644E-003;-7.205932401120663E-003;
2.405333333333334E+009;1.868682056665421E-001;3.927670419216156E-002;-7.073309272527695E-003;-6.974493619054556E-003;
2.405500000000000E+009;1.883177906274796E-001;3.892154619097710E-002;-7.412970997393131E-003;-6.529746577143669E-003;
2.405666666666667E+009;1.894975155591965E-001;3.852571547031403E-002;-7.721418980509043E-003;-6.190338172018528E-003;
2.405833333333334E+009;1.906830966472626E-001;3.819024562835693E-002;-8.073585107922554E-003;-5.867700092494488E-003;
2.406000000000000E+009;1.916291415691376E-001;3.813856467604637E-002;-8.215044625103474E-003;-5.448069889098406E-003;
2.406166666666667E+009;1.926449686288834E-001;3.794706985354424E-002;-8.280073292553425E-003;-4.989262670278549E-003;
2.406333333333334E+009;1.934591084718704E-001;3.793492913246155E-002;-8.435100317001343E-003;-4.574169870465994E-003;
2.406500000000000E+009;1.942445486783981E-001;3.795074298977852E-002;-8.563843555748463E-003;-4.240864422172308E-003;
2.406666666666667E+009;1.947069764137268E-001;3.807511553168297E-002;-8.568743243813515E-003;-3.882185555994511E-003;
2.406833333333334E+009;1.952884495258331E-001;3.801637887954712E-002;-8.571972139179707E-003;-3.465424291789532E-003;
2.407000000000000E+009;1.956281661987305E-001;3.824946284294128E-002;-8.546309545636177E-003;-3.024837467819452E-003;
2.407166666666667E+009;1.958722025156021E-001;3.791483119130135E-002;-8.510130457580090E-003;-2.764472737908363E-003;
2.407333333333334E+009;1.958824992179871E-001;3.814857825636864E-002;-8.507666178047657E-003;-2.425940707325935E-003;
2.407500000000000E+009;1.958090066909790E-001;3.828418627381325E-002;-8.481903001666069E-003;-1.937196822836995E-003;
2.407666666666667E+009;1.959977298974991E-001;3.813147917389870E-002;-8.338020183146000E-003;-1.717876410111785E-003;
2.407833333333334E+009;1.953750699758530E-001;3.792813047766686E-002;-8.426827378571034E-003;-1.564029487781227E-003;
2.408000000000000E+009;1.951908767223358E-001;3.766533359885216E-002;-8.362253196537495E-003;-1.138961757533252E-003;
2.408166666666667E+009;1.947546005249023E-001;3.737527504563332E-002;-8.333369158208370E-003;-8.980761631391943E-004;
2.408333333333334E+009;1.941564530134201E-001;3.680412843823433E-002;-8.202303200960159E-003;-6.174740847200155E-004;
2.408500000000000E+009;1.935748308897018E-001;3.647020831704140E-002;-8.072589524090290E-003;-2.695621224120259E-004;
2.408666666666667E+009;1.929358690977097E-001;3.578308969736099E-002;-7.982319220900536E-003;-8.572691149311140E-005;
2.408833333333334E+009;1.922725141048431E-001;3.507981449365616E-002;-7.923687808215618E-003;2.082361024804413E-004;
2.409000000000000E+009;1.913364678621292E-001;3.415916860103607E-002;-7.693842519074678E-003;3.853017697110772E-004;
2.409166666666667E+009;1.902348995208740E-001;3.314683958888054E-002;-7.715158164501190E-003;5.886993603780866E-004;
2.409333333333334E+009;1.894667893648148E-001;3.205566480755806E-002;-7.513213902711868E-003;8.575445390306413E-004;
2.409500000000000E+009;1.882611811161041E-001;3.071558102965355E-002;-7.234724704176188E-003;9.924987098202109E-004;
2.409666666666667E+009;1.873114556074143E-001;2.932119742035866E-002;-7.168119307607412E-003;1.101126312278211E-003;
2.409833333333334E+009;1.863929182291031E-001;2.778558433055878E-002;-6.953791249543428E-003;1.274579670280218E-003;
2.410000000000000E+009;1.854730397462845E-001;2.622908726334572E-002;-6.865682080388069E-003;1.278942450881004E-003;
2.410166666666667E+009;1.843136399984360E-001;2.422648109495640E-002;-6.775492802262306E-003;1.418570638634265E-003;
2.410333333333334E+009;1.835166215896606E-001;2.261358685791493E-002;-6.621384527534246E-003;1.749589340761304E-003;
2.410500000000000E+009;1.825779229402542E-001;2.057806216180325E-002;-6.406645756214857E-003;1.772220944985747E-003;
2.410666666666667E+009;1.817269772291184E-001;1.846207305788994E-002;-6.385142449289560E-003;1.832033507525921E-003;
2.410833333333334E+009;1.810893714427948E-001;1.619493775069714E-002;-6.207094527781010E-003;1.866921782493591E-003;
2.411000000000000E+009;1.803770661354065E-001;1.396108977496624E-002;-6.165638100355864E-003;2.092428272590041E-003;
2.411166666666667E+009;1.797989904880524E-001;1.191237289458513E-002;-6.120632402598858E-003;2.142857760190964E-003;
2.411333333333334E+009;1.792915463447571E-001;9.230381809175015E-003;-5.972227081656456E-003;2.311612945050001E-003;
2.411500000000000E+009;1.788421571254730E-001;6.962623912841082E-003;-5.968295969069004E-003;2.309397794306278E-003;
2.411666666666667E+009;1.789805293083191E-001;4.641787614673376E-003;-5.730550270527601E-003;2.437576651573181E-003;
2.411833333333334E+009;1.786213815212250E-001;2.371751237660646E-003;-5.715563893318176E-003;2.476248191669583E-003;
2.412000000000000E+009;1.787521839141846E-001;-2.460469258949161E-004;-5.511606577783823E-003;2.538891276344657E-003;
2.412166666666667E+009;1.787834465503693E-001;-2.516536973416805E-003;-5.451476201415062E-003;2.563626738265157E-003;
2.412333333333334E+009;1.789495348930359E-001;-5.060587543994188E-003;-5.492462776601315E-003;2.567994408309460E-003;
2.412500000000000E+009;1.795631647109985E-001;-7.476339582353830E-003;-5.373793188482523E-003;2.627473557367921E-003;
2.412666666666667E+009;1.799191087484360E-001;-1.001956593245268E-002;-5.284230224788189E-003;2.748230705037713E-003;
2.412833333333334E+009;1.807569861412048E-001;-1.239131949841976E-002;-5.429575219750404E-003;2.718082396313548E-003;
2.413000000000000E+009;1.813572645187378E-001;-1.459792256355286E-002;-5.316453054547310E-003;2.628327347338200E-003;
2.413166666666667E+009;1.822003275156021E-001;-1.670961268246174E-002;-5.288120359182358E-003;2.883384935557842E-003;
2.413333333333334E+009;1.832881569862366E-001;-1.914571598172188E-002;-5.339067429304123E-003;3.062319941818714E-003;
2.413500000000000E+009;1.840838938951492E-001;-2.152520976960659E-002;-5.412444472312927E-003;3.099974477663636E-003;
2.413666666666667E+009;1.852840781211853E-001;-2.349649928510189E-002;-5.422989837825298E-003;3.331840503960848E-003;
2.413833333333334E+009;1.863227188587189E-001;-2.560559660196304E-002;-5.428647156804800E-003;3.529386827722192E-003;
2.414000000000000E+009;1.874392777681351E-001;-2.753458917140961E-002;-5.297825206071138E-003;3.569520544260740E-003;
2.414166666666667E+009;1.887395977973938E-001;-2.910980582237244E-002;-5.387751851230860E-003;3.681956790387631E-003;
2.414333333333334E+009;1.898694783449173E-001;-3.107203729450703E-002;-5.166528746485710E-003;3.943011630326510E-003;
2.414500000000000E+009;1.909896433353424E-001;-3.252064064145088E-002;-5.146940704435110E-003;4.164860583841801E-003;
2.414666666666667E+009;1.921855658292770E-001;-3.405752405524254E-002;-4.951315000653267E-003;4.361228551715612E-003;
2.414833333333334E+009;1.932088732719421E-001;-3.541621565818787E-002;-4.967742133885622E-003;4.458162933588028E-003;
2.415000000000000E+009;1.942824572324753E-001;-3.658964484930039E-002;-4.901336506009102E-003;4.612861666828394E-003;
2.415166666666667E+009;1.955627799034119E-001;-3.775454312562943E-002;-4.787764046341181E-003;4.819723777472973E-003;
2.415333333333334E+009;1.966679543256760E-001;-3.866511955857277E-002;-4.685826599597931E-003;4.882458597421646E-003;
2.415500000000000E+009;1.977473497390747E-001;-3.931005671620369E-002;-4.670181777328253E-003;5.077708046883345E-003;
2.415666666666667E+009;1.987706273794174E-001;-4.020855948328972E-002;-4.290954209864140E-003;5.199616309255362E-003;
2.415833333333334E+009;1.995362490415573E-001;-4.064783826470375E-002;-4.282109905034304E-003;5.292115733027458E-003;
2.416000000000000E+009;2.003935873508453E-001;-4.132701456546783E-002;-4.174677655100822E-003;5.671689752489328E-003;
2.416166666666667E+009;2.010008394718170E-001;-4.192018136382103E-002;-4.333859775215387E-003;5.877371411770582E-003;
2.416333333333334E+009;2.015654146671295E-001;-4.223579540848732E-002;-4.057093057781458E-003;5.894100293517113E-003;
2.416500000000000E+009;2.020405083894730E-001;-4.241473972797394E-002;-3.774486016482115E-003;6.160969380289316E-003;
2.416666666666667E+009;2.022713273763657E-001;-4.284333810210228E-002;-3.607149468734860E-003;6.429975386708975E-003;
2.416833333333334E+009;2.024372071027756E-001;-4.285835847258568E-002;-3.495893208310008E-003;6.455843802541494E-003;
2.417000000000000E+009;2.025181949138641E-001;-4.292080551385880E-002;-3.202737541869283E-003;6.644334644079208E-003;
2.417166666666667E+009;2.021546661853790E-001;-4.293245077133179E-002;-3.022387158125639E-003;6.865964736789465E-003;
2.417333333333334E+009;2.019286900758743E-001;-4.279804602265358E-002;-2.683430211618543E-003;6.969727575778961E-003;
2.417500000000000E+009;2.016660124063492E-001;-4.291611909866333E-002;-2.429734217002988E-003;7.011629641056061E-003;
2.417666666666667E+009;2.010347992181778E-001;-4.268332943320274E-002;-2.277267631143332E-003;7.100271992385387E-003;
2.417833333333334E+009;2.005781978368759E-001;-4.250667616724968E-002;-2.003142377361655E-003;7.153343874961138E-003;
2.418000000000000E+009;1.999029964208603E-001;-4.226079583168030E-002;-1.870299805887044E-003;7.273247465491295E-003;
2.418166666666667E+009;1.991119235754013E-001;-4.230554774403572E-002;-1.512013259343803E-003;7.361795753240585E-003;
2.418333333333334E+009;1.979490220546722E-001;-4.206828773021698E-002;-1.131250988692045E-003;7.486182264983654E-003;
2.418500000000000E+009;1.970432847738266E-001;-4.230000078678131E-002;-1.067510107532144E-003;7.398936897516251E-003;
2.418666666666667E+009;1.961284130811691E-001;-4.209798946976662E-002;-8.166002226062119E-004;7.403978146612644E-003;
2.418833333333334E+009;1.947509497404099E-001;-4.235651716589928E-002;-5.570155917666853E-004;7.512866519391537E-003;
2.419000000000000E+009;1.934944987297058E-001;-4.250856116414070E-002;-3.870035579893738E-004;7.459773682057858E-003;
2.419166666666667E+009;1.921585351228714E-001;-4.296668618917465E-002;-1.314998226007447E-004;7.531708572059870E-003;
2.419333333333334E+009;1.906956434249878E-001;-4.337374120950699E-002;2.338659396627918E-004;7.446843665093184E-003;
2.419500000000000E+009;1.893329173326492E-001;-4.391006380319595E-002;3.953050763811916E-004;7.479972206056118E-003;
2.419666666666667E+009;1.876704692840576E-001;-4.476179555058479E-002;6.424909806810319E-004;7.634387351572514E-003;
2.419833333333334E+009;1.859886348247528E-001;-4.542533680796623E-002;8.661877363920212E-004;7.489449344575405E-003;
2.420000000000000E+009;1.844797730445862E-001;-4.625252634286881E-002;1.085931085981429E-003;7.538592442870140E-003;
2.420166666666667E+009;1.829329133033752E-001;-4.729475826025009E-002;1.489625778049231E-003;7.510305847972632E-003;
2.420333333333334E+009;1.813997477293015E-001;-4.839491099119186E-002;1.648917677812278E-003;7.531012874096632E-003;
2.420500000000000E+009;1.797681152820587E-001;-4.979811981320381E-002;2.051283139735460E-003;7.445223629474640E-003;
2.420666666666667E+009;1.780582219362259E-001;-5.074378848075867E-002;2.296321792528033E-003;7.346066646277905E-003;
2.420833333333334E+009;1.765367090702057E-001;-5.222868546843529E-002;2.520224545150995E-003;7.083292584866285E-003;
2.421000000000000E+009;1.749658882617950E-001;-5.385446548461914E-002;2.888445043936372E-003;7.090242579579353E-003;
2.421166666666667E+009;1.736917644739151E-001;-5.548819899559021E-002;2.982225036248565E-003;6.933087017387152E-003;
2.421333333333334E+009;1.719833016395569E-001;-5.690559372305870E-002;3.252348164096475E-003;6.781195756047964E-003;
2.421500000000000E+009;1.706154048442841E-001;-5.901014804840088E-002;3.416940337046981E-003;6.565561518073082E-003;
2.421666666666667E+009;1.694649755954742E-001;-6.077474728226662E-002;3.616804489865899E-003;6.374936085194349E-003;
2.421833333333334E+009;1.685409843921661E-001;-6.263765692710877E-002;3.818044671788812E-003;6.190959829837084E-003;
2.422000000000000E+009;1.674025952816010E-001;-6.445408612489700E-002;3.952790051698685E-003;6.007204297930002E-003;
2.422166666666667E+009;1.666843295097351E-001;-6.657367199659348E-002;4.176407121121883E-003;5.826774053275585E-003;
2.422333333333334E+009;1.655918806791306E-001;-6.843924522399902E-002;4.279247019439936E-003;5.510516464710236E-003;
2.422500000000000E+009;1.648876368999481E-001;-7.044161111116409E-002;4.494765773415566E-003;5.363569129258394E-003;
2.422666666666667E+009;1.642455160617828E-001;-7.236549258232117E-002;4.599140025675297E-003;5.263359285891056E-003;
2.422833333333334E+009;1.637729406356812E-001;-7.446514815092087E-002;4.646092653274536E-003;5.009406246244907E-003;
2.423000000000000E+009;1.631433516740799E-001;-7.639835774898529E-002;4.681786056607962E-003;4.673281684517860E-003;
2.423166666666667E+009;1.628819555044174E-001;-7.821577042341232E-002;4.811943043023348E-003;4.519377835094929E-003;
2.423333333333334E+009;1.626643687486649E-001;-8.019690960645676E-002;5.069958511739969E-003;4.448832478374243E-003;
2.423500000000000E+009;1.626851409673691E-001;-8.200355619192123E-002;5.028377287089825E-003;4.260642919689417E-003;
2.423666666666667E+009;1.625135838985443E-001;-8.378677070140839E-002;5.072392523288727E-003;4.060493782162666E-003;
2.423833333333334E+009;1.626057475805283E-001;-8.567329496145248E-002;5.197647493332624E-003;3.949201200157404E-003;
2.424000000000000E+009;1.626551449298859E-001;-8.731184899806976E-002;5.234366748481989E-003;3.915715496987104E-003;
2.424166666666667E+009;1.627998203039169E-001;-8.876042068004608E-002;5.267038010060787E-003;3.683051327243447E-003;
2.424333333333334E+009;1.631407290697098E-001;-9.035076946020126E-002;5.426066461950541E-003;3.511385060846806E-003;
2.424500000000000E+009;1.634221822023392E-001;-9.190607815980911E-002;5.442044697701931E-003;3.069152357056737E-003;
2.424666666666667E+009;1.636354178190231E-001;-9.332110732793808E-002;5.661610513925552E-003;2.925649750977755E-003;
2.424833333333334E+009;1.642229706048966E-001;-9.458689391613007E-002;5.711220204830170E-003;2.951985923573375E-003;
2.425000000000000E+009;1.644342988729477E-001;-9.571332484483719E-002;5.860012024641037E-003;2.593457233160734E-003;
2.425166666666667E+009;1.648990362882614E-001;-9.673582762479782E-002;5.738007370382547E-003;2.447716193273664E-003;
2.425333333333334E+009;1.652127057313919E-001;-9.751816838979721E-002;5.607303231954575E-003;2.264986746013165E-003;
2.425500000000000E+009;1.656603068113327E-001;-9.848471730947495E-002;5.765976384282112E-003;2.101210411638022E-003;
2.425666666666667E+009;1.659833043813705E-001;-9.914696961641312E-002;5.584970582276583E-003;1.842511934228241E-003;
2.425833333333334E+009;1.662176400423050E-001;-1.000672206282616E-001;5.661818198859692E-003;1.670289784669876E-003;
2.426000000000000E+009;1.667316257953644E-001;-1.003003641963005E-001;5.593649577349424E-003;1.378126209601760E-003;
2.426166666666667E+009;1.671222895383835E-001;-1.008784174919128E-001;5.422982387244701E-003;1.277235685847700E-003;
2.426333333333334E+009;1.670971959829330E-001;-1.014480292797089E-001;5.513842683285475E-003;1.102493260987103E-003;
2.426500000000000E+009;1.675646603107452E-001;-1.015816330909729E-001;5.372391548007727E-003;9.242654778063297E-004;
2.426666666666667E+009;1.678585857152939E-001;-1.019691377878189E-001;5.314633715897799E-003;9.256858611479402E-004;
2.426833333333334E+009;1.680451035499573E-001;-1.021635532379150E-001;5.336816422641277E-003;7.388283847831190E-004;
2.427000000000000E+009;1.679418981075287E-001;-1.023638173937798E-001;5.357165820896626E-003;6.468448555096984E-004;
2.427166666666667E+009;1.680721044540405E-001;-1.024252325296402E-001;5.291048903018236E-003;5.155280232429504E-004;
2.427333333333334E+009;1.679355949163437E-001;-1.027259007096291E-001;5.394700448960066E-003;5.142148002050817E-004;
2.427500000000000E+009;1.677014827728272E-001;-1.029214113950729E-001;5.212918855249882E-003;1.644260628381744E-004;
2.427666666666667E+009;1.673438549041748E-001;-1.029738411307335E-001;5.252373404800892E-003;1.375127030769363E-004;
2.427833333333334E+009;1.669160127639771E-001;-1.031091734766960E-001;5.113446153700352E-003;9.573467832524329E-005;
