# Version 1.00
#
freq[Hz];re:Trc1_S11;im:Trc1_S11;re:Trc2_S21;im:Trc2_S21;
2.400000000000000E+009;1.552053987979889E-001;1.064056232571602E-001;3.385835792869330E-003;-7.486513815820217E-003;
2.400166666666667E+009;1.549582779407501E-001;1.039301455020905E-001;3.300800919532776E-003;-7.795716635882855E-003;
2.400333333333334E+009;1.551891267299652E-001;1.017422452569008E-001;3.073641797527671E-003;-7.950770668685436E-003;
2.400500000000000E+009;1.550691574811935E-001;9.892079234123230E-002;2.685246057808399E-003;-8.256748318672180E-003;
2.400666666666667E+009;1.552328318357468E-001;9.642557054758072E-002;2.378846518695355E-003;-8.352745324373245E-003;
2.400833333333334E+009;1.552601754665375E-001;9.352500736713409E-002;2.154547255486250E-003;-8.591912686824799E-003;
2.401000000000000E+009;1.554547846317291E-001;9.055638313293457E-002;1.987032126635313E-003;-8.787994273006916E-003;
2.401166666666667E+009;1.555916965007782E-001;8.790336549282074E-002;1.461716368794441E-003;-8.907786570489407E-003;
2.401333333333334E+009;1.559209525585175E-001;8.518791198730469E-002;1.168193877674639E-003;-9.132306091487408E-003;
2.401500000000000E+009;1.562850624322891E-001;8.226341754198074E-002;9.759566164575517E-004;-9.160012938082218E-003;
2.401666666666667E+009;1.567368209362030E-001;7.937075942754746E-002;5.881662364117801E-004;-9.356187656521797E-003;
2.401833333333334E+009;1.571514308452606E-001;7.673874497413635E-002;3.352344501763582E-004;-9.280367754399777E-003;
2.402000000000000E+009;1.579703390598297E-001;7.397586107254028E-002;-1.527172571513802E-004;-9.463125839829445E-003;
2.402166666666667E+009;1.589244753122330E-001;7.158497720956802E-002;-5.081983981654048E-004;-9.500447660684586E-003;
2.402333333333334E+009;1.599499434232712E-001;6.873017549514771E-002;-8.865264826454222E-004;-9.466034360229969E-003;
2.402500000000000E+009;1.610007733106613E-001;6.625635176897049E-002;-1.332758343778551E-003;-9.578713215887547E-003;
2.402666666666667E+009;1.622002869844437E-001;6.407291442155838E-002;-1.802719896659255E-003;-9.370119310915470E-003;
2.402833333333334E+009;1.633788943290710E-001;6.166233122348785E-002;-2.119323471561074E-003;-9.323695674538612E-003;
2.403000000000000E+009;1.647892743349075E-001;5.925715342164040E-002;-2.430732361972332E-003;-9.285833686590195E-003;
2.403166666666667E+009;1.665669083595276E-001;5.739406123757362E-002;-2.814390696585178E-003;-9.070275351405144E-003;
2.403333333333334E+009;1.680535823106766E-001;5.511472001671791E-002;-3.041372401639819E-003;-9.099693968892098E-003;
2.403500000000000E+009;1.697640269994736E-001;5.314487963914871E-002;-3.293885849416256E-003;-9.004229679703713E-003;
2.403666666666667E+009;1.713524013757706E-001;5.126852542161942E-002;-3.593506990000606E-003;-8.749245665967464E-003;
2.403833333333334E+009;1.730818748474121E-001;4.924961552023888E-002;-4.152189008891583E-003;-8.913006633520126E-003;
2.404000000000000E+009;1.745008528232575E-001;4.783528298139572E-002;-4.359636921435595E-003;-8.613727055490017E-003;
2.404166666666667E+009;1.762102097272873E-001;4.625376686453819E-002;-4.715283866971731E-003;-8.440431207418442E-003;
2.404333333333334E+009;1.779988855123520E-001;4.481901228427887E-002;-5.124189425259829E-003;-8.244100026786327E-003;
2.404500000000000E+009;1.795518547296524E-001;4.331957176327705E-002;-5.346908699721098E-003;-8.054777048528194E-003;
2.404666666666667E+009;1.811574697494507E-001;4.226109758019447E-002;-5.627096164971590E-003;-7.910081185400486E-003;
2.404833333333334E+009;1.829058676958084E-001;4.133390635251999E-002;-6.056541111320257E-003;-7.849125191569328E-003;
2.405000000000000E+009;1.840524375438690E-001;4.065836966037750E-002;-6.477509159594774E-003;-7.387008052319288E-003;
2.405166666666667E+009;1.855416148900986E-001;3.977545723319054E-002;-6.548679899424315E-003;-7.149958051741123E-003;
2.405333333333334E+009;1.869659870862961E-001;3.938990086317062E-002;-7.072715088725090E-003;-6.859079934656620E-003;
2.405500000000000E+009;1.883374899625778E-001;3.891443833708763E-002;-7.381653878837824E-003;-6.508106365799904E-003;
2.405666666666667E+009;1.894883066415787E-001;3.855288028717041E-002;-7.798367179930210E-003;-6.114068441092968E-003;
2.405833333333334E+009;1.908732652664185E-001;3.832873702049255E-002;-7.932444103062153E-003;-5.724498536437750E-003;
2.406000000000000E+009;1.917187273502350E-001;3.808005899190903E-002;-8.148025721311569E-003;-5.268242210149765E-003;
2.406166666666667E+009;1.927257180213928E-001;3.792079538106918E-002;-8.221918717026711E-003;-4.952896852046251E-003;
2.406333333333334E+009;1.935840845108032E-001;3.793549910187721E-002;-8.361324667930603E-003;-4.602954257279635E-003;
2.406500000000000E+009;1.942813247442246E-001;3.802530094981194E-002;-8.323688060045242E-003;-4.180090036243200E-003;
2.406666666666667E+009;1.948926597833633E-001;3.810639679431915E-002;-8.478098548948765E-003;-3.781080478802323E-003;
2.406833333333334E+009;1.954962164163590E-001;3.821443766355515E-002;-8.626764640212059E-003;-3.555038711056113E-003;
2.407000000000000E+009;1.956291943788528E-001;3.827481344342232E-002;-8.470311760902405E-003;-3.171932883560658E-003;
2.407166666666667E+009;1.960496753454208E-001;3.780703246593475E-002;-8.458605036139488E-003;-2.656259341165423E-003;
2.407333333333334E+009;1.959496885538101E-001;3.815599158406258E-002;-8.592281490564346E-003;-2.417322481051087E-003;
2.407500000000000E+009;1.958896368741989E-001;3.823599964380264E-002;-8.469501510262489E-003;-2.122598700225353E-003;
2.407666666666667E+009;1.959265470504761E-001;3.801981732249260E-002;-8.375324308872223E-003;-1.682397210970521E-003;
2.407833333333334E+009;1.953754276037216E-001;3.793767467141151E-002;-8.403575047850609E-003;-1.432995544746518E-003;
2.408000000000000E+009;1.954555064439774E-001;3.735863044857979E-002;-8.383855223655701E-003;-9.153521968983114E-004;
2.408166666666667E+009;1.947750151157379E-001;3.744146227836609E-002;-8.281124755740166E-003;-8.647582726553083E-004;
2.408333333333334E+009;1.942080110311508E-001;3.688941523432732E-002;-8.187792263925076E-003;-5.552127840928733E-004;
2.408500000000000E+009;1.936789602041245E-001;3.652707114815712E-002;-8.113352581858635E-003;-4.383251653052867E-004;
2.408666666666667E+009;1.928876042366028E-001;3.589324280619621E-002;-8.071581833064556E-003;-8.630092634120956E-005;
2.408833333333334E+009;1.924508213996887E-001;3.503271937370300E-002;-8.097941055893898E-003;3.024881880264729E-004;
2.409000000000000E+009;1.913315802812576E-001;3.426295891404152E-002;-7.691094186156988E-003;3.029895888175815E-004;
2.409166666666667E+009;1.904327720403671E-001;3.303274139761925E-002;-7.509906310588121E-003;6.111980765126646E-004;
2.409333333333334E+009;1.895857751369476E-001;3.219534084200859E-002;-7.405815646052361E-003;7.667339523322880E-004;
2.409500000000000E+009;1.882996857166290E-001;3.076974488794804E-002;-7.466257084161043E-003;1.141322776675224E-003;
2.409666666666667E+009;1.872074007987976E-001;2.943709120154381E-002;-7.238418795168400E-003;1.334726694040000E-003;
2.409833333333334E+009;1.864662319421768E-001;2.785877324640751E-002;-6.892573088407517E-003;1.440188032574952E-003;
2.410000000000000E+009;1.855395287275314E-001;2.625031769275665E-002;-6.705782841891050E-003;1.349070807918906E-003;
2.410166666666667E+009;1.845642924308777E-001;2.420928515493870E-002;-6.724596023559570E-003;1.462203683331609E-003;
2.410333333333334E+009;1.835951954126358E-001;2.250701375305653E-002;-6.650592666119337E-003;1.830744906328619E-003;
2.410500000000000E+009;1.825871765613556E-001;2.058501541614533E-002;-6.584497168660164E-003;1.852056127972901E-003;
2.410666666666667E+009;1.817765533924103E-001;1.822046749293804E-002;-6.429631263017654E-003;1.777318655513227E-003;
2.410833333333334E+009;1.811106652021408E-001;1.623337715864182E-002;-6.236972752958536E-003;2.080602105706930E-003;
2.411000000000000E+009;1.803803741931915E-001;1.398837286978960E-002;-6.127973552793264E-003;2.026379806920886E-003;
2.411166666666667E+009;1.796914488077164E-001;1.175482384860516E-002;-6.092679686844349E-003;2.103728242218494E-003;
2.411333333333334E+009;1.793258041143417E-001;9.227586910128593E-003;-5.954631604254246E-003;2.141297562047839E-003;
2.411500000000000E+009;1.789987385272980E-001;6.890795659273863E-003;-5.808508023619652E-003;2.368498127907515E-003;
2.411666666666667E+009;1.788907349109650E-001;4.530545324087143E-003;-5.756604019552469E-003;2.454659668728709E-003;
2.411833333333334E+009;1.784456521272659E-001;2.168746897950769E-003;-5.691171623766422E-003;2.429109998047352E-003;
2.412000000000000E+009;1.786787658929825E-001;-3.585525846574456E-004;-5.498643033206463E-003;2.496936358511448E-003;
2.412166666666667E+009;1.787067353725433E-001;-2.646109322085977E-003;-5.345573648810387E-003;2.597606740891933E-003;
2.412333333333334E+009;1.791210621595383E-001;-5.321456585079432E-003;-5.545595195144415E-003;2.629167167469859E-003;
2.412500000000000E+009;1.794506460428238E-001;-7.588738575577736E-003;-5.343979690223932E-003;2.555929124355316E-003;
2.412666666666667E+009;1.799465566873550E-001;-1.005253475159407E-002;-5.325949750840664E-003;2.654090756550431E-003;
2.412833333333334E+009;1.806966215372086E-001;-1.241357065737248E-002;-5.267548374831677E-003;2.627655630931258E-003;
2.413000000000000E+009;1.814046204090118E-001;-1.484405808150768E-002;-5.236260592937470E-003;2.831185935065150E-003;
2.413166666666667E+009;1.822471767663956E-001;-1.684271171689034E-002;-5.512388888746500E-003;2.887271344661713E-003;
2.413333333333334E+009;1.832054555416107E-001;-1.914462074637413E-002;-5.458807107061148E-003;3.043449483811855E-003;
2.413500000000000E+009;1.840632855892181E-001;-2.156643755733967E-002;-5.408869590610266E-003;3.036974463611841E-003;
2.413666666666667E+009;1.853656619787216E-001;-2.352245897054672E-002;-5.361198447644711E-003;3.289846004918218E-003;
2.413833333333334E+009;1.862434595823288E-001;-2.552845329046249E-002;-5.487445276230574E-003;3.460481064394116E-003;
2.414000000000000E+009;1.874408721923828E-001;-2.744554169476032E-002;-5.302112549543381E-003;3.613081295043230E-003;
2.414166666666667E+009;1.886051446199417E-001;-2.923011966049671E-002;-5.228283815085888E-003;3.745809663087130E-003;
2.414333333333334E+009;1.897163391113281E-001;-3.124057874083519E-002;-5.206494592130184E-003;3.953781910240650E-003;
2.414500000000000E+009;1.909427046775818E-001;-3.261994197964668E-002;-5.016225855797529E-003;4.037743899971247E-003;
2.414666666666667E+009;1.922031044960022E-001;-3.405128419399262E-002;-4.874999634921551E-003;4.290958400815725E-003;
2.414833333333334E+009;1.932896673679352E-001;-3.528038412332535E-002;-4.917132668197155E-003;4.295220132917166E-003;
2.415000000000000E+009;1.943337172269821E-001;-3.674298524856567E-002;-4.815337713807821E-003;4.650080110877752E-003;
2.415166666666667E+009;1.956824511289597E-001;-3.761976212263107E-002;-4.856165964156389E-003;4.711322952061892E-003;
2.415333333333334E+009;1.967648714780808E-001;-3.863545879721642E-002;-4.707660991698504E-003;4.995366558432579E-003;
2.415500000000000E+009;1.976933926343918E-001;-3.927279263734818E-002;-4.654520191252232E-003;4.974614828824997E-003;
2.415666666666667E+009;1.987430155277252E-001;-4.029334336519241E-002;-4.405696410685778E-003;5.187788046896458E-003;
2.415833333333334E+009;1.995091438293457E-001;-4.082211852073669E-002;-4.393309354782105E-003;5.471066571772099E-003;
2.416000000000000E+009;2.003742605447769E-001;-4.139600321650505E-002;-4.265153314918280E-003;5.639844574034214E-003;
2.416166666666667E+009;2.009451538324356E-001;-4.185055941343308E-002;-4.074363037943840E-003;5.753817036747932E-003;
2.416333333333334E+009;2.016219049692154E-001;-4.218230023980141E-002;-3.938771784305573E-003;5.913333036005497E-003;
2.416500000000000E+009;2.020485550165176E-001;-4.250384494662285E-002;-3.752148943021894E-003;6.168929859995842E-003;
2.416666666666667E+009;2.022903114557266E-001;-4.273952171206474E-002;-3.683426650241017E-003;6.322456058114767E-003;
2.416833333333334E+009;2.024440169334412E-001;-4.283668845891953E-002;-3.294836729764938E-003;6.598710082471371E-003;
2.417000000000000E+009;2.025627791881561E-001;-4.309139400720596E-002;-3.184149507433176E-003;6.615388207137585E-003;
2.417166666666667E+009;2.021899670362473E-001;-4.292837157845497E-002;-2.954016206786037E-003;6.687020882964134E-003;
2.417333333333334E+009;2.020146846771240E-001;-4.274664074182510E-002;-2.623104956001043E-003;6.979180499911308E-003;
2.417500000000000E+009;2.016174793243408E-001;-4.278533533215523E-002;-2.504083327949047E-003;7.111291866749525E-003;
2.417666666666667E+009;2.011011093854904E-001;-4.271127656102181E-002;-2.115523209795356E-003;7.065155077725649E-003;
2.417833333333334E+009;2.005969882011414E-001;-4.247719421982765E-002;-2.006180118769407E-003;7.137460168451071E-003;
2.418000000000000E+009;1.999178528785706E-001;-4.236532002687454E-002;-1.761315274052322E-003;7.281179074198008E-003;
2.418166666666667E+009;1.990497112274170E-001;-4.224164411425591E-002;-1.519417040981352E-003;7.365091238170862E-003;
2.418333333333334E+009;1.981034725904465E-001;-4.218271747231484E-002;-1.312686596065760E-003;7.445652037858963E-003;
2.418500000000000E+009;1.970492303371429E-001;-4.228126630187035E-002;-9.676067274995148E-004;7.527483161538839E-003;
2.418666666666667E+009;1.960409432649612E-001;-4.224148765206337E-002;-7.480262429453433E-004;7.405172102153301E-003;
2.418833333333334E+009;1.947967708110809E-001;-4.241266101598740E-002;-5.510491901077330E-004;7.543530315160751E-003;
2.419000000000000E+009;1.934893131256104E-001;-4.255638271570206E-002;-4.518056521192193E-004;7.567458786070347E-003;
2.419166666666667E+009;1.922109127044678E-001;-4.298986494541168E-002;-3.479464066913351E-005;7.618310395628214E-003;
2.419333333333334E+009;1.908275336027145E-001;-4.347831755876541E-002;1.621414121473208E-004;7.530946284532547E-003;
2.419500000000000E+009;1.892354786396027E-001;-4.393881186842918E-002;4.374340060167015E-004;7.492178585380316E-003;
2.419666666666667E+009;1.876737475395203E-001;-4.471551626920700E-002;6.862329901196063E-004;7.575003895908594E-003;
2.419833333333334E+009;1.861445605754852E-001;-4.528246447443962E-002;8.986159809865058E-004;7.503908593207598E-003;
2.420000000000000E+009;1.845418661832809E-001;-4.629660397768021E-002;1.084433170035482E-003;7.531219162046909E-003;
2.420166666666667E+009;1.829876452684403E-001;-4.739929363131523E-002;1.390514313243330E-003;7.500839419662952E-003;
2.420333333333334E+009;1.813654154539108E-001;-4.845450446009636E-002;1.748709706589580E-003;7.544347085058689E-003;
2.420500000000000E+009;1.796185970306397E-001;-4.978583753108978E-002;1.949564088135958E-003;7.327950559556484E-003;
2.420666666666667E+009;1.781269311904907E-001;-5.101333558559418E-002;2.235539257526398E-003;7.284225896000862E-003;
2.420833333333334E+009;1.764949858188629E-001;-5.236127227544785E-002;2.445149468258023E-003;7.146012503653765E-003;
2.421000000000000E+009;1.750732660293579E-001;-5.387845262885094E-002;2.805071650072932E-003;6.983610801398754E-003;
2.421166666666667E+009;1.736212074756622E-001;-5.563388764858246E-002;3.103819210082293E-003;6.961719132959843E-003;
2.421333333333334E+009;1.720341891050339E-001;-5.718075856566429E-002;3.264165716245771E-003;6.766363978385925E-003;
2.421500000000000E+009;1.708210408687592E-001;-5.899751931428909E-002;3.488058224320412E-003;6.638421211391687E-003;
2.421666666666667E+009;1.695124804973602E-001;-6.084014475345612E-002;3.641370218247175E-003;6.217293441295624E-003;
2.421833333333334E+009;1.684902012348175E-001;-6.273866444826126E-002;3.903394564986229E-003;6.102036684751511E-003;
2.422000000000000E+009;1.674153506755829E-001;-6.454467028379440E-002;4.058242309838533E-003;6.081659812480211E-003;
2.422166666666667E+009;1.667048633098602E-001;-6.654977053403854E-002;4.269781988114119E-003;5.753826815634966E-003;
2.422333333333334E+009;1.655616015195847E-001;-6.857161223888397E-002;4.395643714815378E-003;5.547979846596718E-003;
2.422500000000000E+009;1.647945642471314E-001;-7.036361843347549E-002;4.501731600612402E-003;5.332846194505692E-003;
2.422666666666667E+009;1.642182469367981E-001;-7.255844771862030E-002;4.567535128444433E-003;5.147723481059074E-003;
2.422833333333334E+009;1.636311262845993E-001;-7.444138079881668E-002;4.589473828673363E-003;4.983650520443916E-003;
2.423000000000000E+009;1.632525026798248E-001;-7.643846422433853E-002;4.857299383729696E-003;4.883429035544395E-003;
2.423166666666667E+009;1.628532409667969E-001;-7.822447270154953E-002;4.804829601198435E-003;4.729026928544045E-003;
2.423333333333334E+009;1.627359241247177E-001;-8.028089255094528E-002;4.864139948040247E-003;4.426250234246254E-003;
2.423500000000000E+009;1.626444458961487E-001;-8.206284046173096E-002;4.979483317583799E-003;4.270938690751791E-003;
2.423666666666667E+009;1.626712977886200E-001;-8.393060415983200E-002;5.144366994500160E-003;4.106545355170965E-003;
2.423833333333334E+009;1.624608188867569E-001;-8.551306277513504E-002;5.094462540000677E-003;4.015795420855284E-003;
2.424000000000000E+009;1.628215909004211E-001;-8.742036670446396E-002;5.180689040571451E-003;3.718357533216476E-003;
2.424166666666667E+009;1.627835035324097E-001;-8.866113424301148E-002;5.256448872387409E-003;3.540960140526295E-003;
2.424333333333334E+009;1.631342023611069E-001;-9.033737331628799E-002;5.395807791501284E-003;3.560439217835665E-003;
2.424500000000000E+009;1.635141372680664E-001;-9.203487634658814E-002;5.519927479326725E-003;3.335217945277691E-003;
2.424666666666667E+009;1.635226160287857E-001;-9.319957345724106E-002;5.512350238859654E-003;3.098693210631609E-003;
2.424833333333334E+009;1.642779707908630E-001;-9.450493007898331E-002;5.546439904719591E-003;2.917099976912141E-003;
2.425000000000000E+009;1.645413041114807E-001;-9.568279236555100E-002;5.633984226733446E-003;2.640507183969021E-003;
2.425166666666667E+009;1.649258583784103E-001;-9.666274487972260E-002;5.664438474923372E-003;2.423680620267987E-003;
2.425333333333334E+009;1.651682406663895E-001;-9.762258082628250E-002;5.627097561955452E-003;2.194761997088790E-003;
2.425500000000000E+009;1.656195521354675E-001;-9.856607019901276E-002;5.724166054278612E-003;2.096412936225534E-003;
2.425666666666667E+009;1.661254018545151E-001;-9.913679957389832E-002;5.644670687615871E-003;1.800795318558812E-003;
2.425833333333334E+009;1.663352102041245E-001;-9.993001073598862E-002;5.700319539755583E-003;1.496727112680674E-003;
2.426000000000000E+009;1.666588932275772E-001;-1.002157106995583E-001;5.554175935685635E-003;1.594893983565271E-003;
2.426166666666667E+009;1.671148240566254E-001;-1.008257120847702E-001;5.469239782541990E-003;1.211846596561372E-003;
2.426333333333334E+009;1.671948581933975E-001;-1.014095023274422E-001;5.638727452605963E-003;1.181362080387771E-003;
2.426500000000000E+009;1.675417572259903E-001;-1.016501784324646E-001;5.539762321859598E-003;9.165836963802576E-004;
2.426666666666667E+009;1.677502244710922E-001;-1.019378826022148E-001;5.337249953299761E-003;9.431448415853083E-004;
2.426833333333334E+009;1.680545508861542E-001;-1.022188439965248E-001;5.343498662114143E-003;7.382192416116595E-004;
2.427000000000000E+009;1.680054962635040E-001;-1.023885160684586E-001;5.497347097843885E-003;7.039630436338484E-004;
2.427166666666667E+009;1.680800765752792E-001;-1.024497672915459E-001;5.341220647096634E-003;6.160905468277633E-004;
2.427333333333334E+009;1.678893715143204E-001;-1.027589067816734E-001;5.297516006976366E-003;4.233421059325337E-004;
2.427500000000000E+009;1.676585376262665E-001;-1.029663160443306E-001;5.226410459727049E-003;2.855059865396470E-004;
2.427666666666667E+009;1.672644615173340E-001;-1.029781252145767E-001;5.272740032523871E-003;2.825517440214753E-004;
2.427833333333334E+009;1.669456958770752E-001;-1.031449362635613E-001;5.230531562119722E-003;1.094862163881771E-004;
