# Version 1.00
#
freq[Hz];re:Trc1_S11;im:Trc1_S11;re:Trc2_S21;im:Trc2_S21;
2.400000000000000E+009;1.550992876291275E-001;1.064206361770630E-001;3.415855811908841E-003;-7.600354030728340E-003;
2.400166666666667E+009;1.550474315881729E-001;1.039247289299965E-001;3.247377229854465E-003;-7.840587757527828E-003;
2.400333333333334E+009;1.551339775323868E-001;1.016723439097405E-001;2.980245510116220E-003;-7.899538613855839E-003;
2.400500000000000E+009;1.550882607698441E-001;9.875942021608353E-002;2.806045114994049E-003;-8.157024160027504E-003;
2.400666666666667E+009;1.552559584379196E-001;9.626461565494537E-002;2.578205196186900E-003;-8.506964892148972E-003;
2.400833333333334E+009;1.552124768495560E-001;9.354460984468460E-002;2.073202282190323E-003;-8.477027527987957E-003;
2.401000000000000E+009;1.553718149662018E-001;9.058791399002075E-002;2.028460847213864E-003;-8.803332224488258E-003;
2.401166666666667E+009;1.554067581892014E-001;8.787700533866882E-002;1.742861117236316E-003;-8.912083692848682E-003;
2.401333333333334E+009;1.558711379766464E-001;8.495344221591950E-002;1.232407055795193E-003;-9.019610472023487E-003;
2.401500000000000E+009;1.562779247760773E-001;8.220430463552475E-002;1.019610441289842E-003;-9.246035479009152E-003;
2.401666666666667E+009;1.566439867019653E-001;7.932733744382858E-002;5.377867491915822E-004;-9.229248389601708E-003;
2.401833333333334E+009;1.572779119014740E-001;7.668159157037735E-002;2.932987990789115E-004;-9.244437329471111E-003;
2.402000000000000E+009;1.579355299472809E-001;7.404482364654541E-002;-1.162177213700488E-004;-9.401918388903141E-003;
2.402166666666667E+009;1.588548421859741E-001;7.147856801748276E-002;-4.088942951057106E-004;-9.397624060511589E-003;
2.402333333333334E+009;1.598513722419739E-001;6.882689893245697E-002;-7.472736178897321E-004;-9.470124728977680E-003;
2.402500000000000E+009;1.609339863061905E-001;6.636616587638855E-002;-1.144359237514436E-003;-9.330288507044315E-003;
2.402666666666667E+009;1.622006446123123E-001;6.409482657909393E-002;-1.691844663582742E-003;-9.207708761096001E-003;
2.402833333333334E+009;1.635892689228058E-001;6.153049319982529E-002;-1.929394784383476E-003;-9.402804076671600E-003;
2.403000000000000E+009;1.648088246583939E-001;5.935290455818176E-002;-2.220344496890903E-003;-9.088248014450073E-003;
2.403166666666667E+009;1.667014062404633E-001;5.738066881895065E-002;-2.466757781803608E-003;-9.132061153650284E-003;
2.403333333333334E+009;1.681481599807739E-001;5.499133840203285E-002;-3.022793680429459E-003;-9.085539728403091E-003;
2.403500000000000E+009;1.699247062206268E-001;5.291641503572464E-002;-3.384996671229601E-003;-8.895639330148697E-003;
2.403666666666667E+009;1.714300066232681E-001;5.110048875212669E-002;-3.705579554662108E-003;-8.882421068847179E-003;
2.403833333333334E+009;1.731650084257126E-001;4.923368990421295E-002;-4.089169204235077E-003;-8.784410543739796E-003;
2.404000000000000E+009;1.746322661638260E-001;4.768750816583633E-002;-4.264674149453640E-003;-8.654645644128323E-003;
2.404166666666667E+009;1.763902455568314E-001;4.599175602197647E-002;-4.665472544729710E-003;-8.506117388606072E-003;
2.404333333333334E+009;1.780718713998795E-001;4.468850046396256E-002;-4.996254574507475E-003;-8.233421482145786E-003;
2.404500000000000E+009;1.795674711465836E-001;4.321873188018799E-002;-5.289078224450350E-003;-8.029342629015446E-003;
2.404666666666667E+009;1.813503056764603E-001;4.221629723906517E-002;-5.787618923932314E-003;-7.899952121078968E-003;
2.404833333333334E+009;1.828398555517197E-001;4.129267483949661E-002;-5.984716117382050E-003;-7.710495963692665E-003;
2.405000000000000E+009;1.841438412666321E-001;4.051037132740021E-002;-6.371576339006424E-003;-7.626542821526527E-003;
2.405166666666667E+009;1.857112199068070E-001;3.994280099868774E-002;-6.566249765455723E-003;-7.397361565381289E-003;
2.405333333333334E+009;1.869850754737854E-001;3.937911987304688E-002;-7.112185470759869E-003;-6.886749994009733E-003;
2.405500000000000E+009;1.882436424493790E-001;3.894938156008720E-002;-7.352073676884174E-003;-6.608614232391119E-003;
2.405666666666667E+009;1.895014047622681E-001;3.849645704030991E-002;-7.566280197352171E-003;-6.250112317502499E-003;
2.405833333333334E+009;1.907817721366882E-001;3.828893974423409E-002;-7.901960052549839E-003;-5.755278281867504E-003;
2.406000000000000E+009;1.916542649269104E-001;3.810792788863182E-002;-7.891003042459488E-003;-5.544899031519890E-003;
2.406166666666667E+009;1.926868110895157E-001;3.795369341969490E-002;-8.212309330701828E-003;-4.933685529977083E-003;
2.406333333333334E+009;1.935622096061707E-001;3.802393749356270E-002;-8.346037939190865E-003;-4.506425000727177E-003;
2.406500000000000E+009;1.942452937364578E-001;3.812684491276741E-002;-8.463772945106030E-003;-4.333404824137688E-003;
2.406666666666667E+009;1.947558969259262E-001;3.813587129116058E-002;-8.558964356780052E-003;-3.627439262345433E-003;
2.406833333333334E+009;1.952767223119736E-001;3.806499019265175E-002;-8.662938140332699E-003;-3.418795065954328E-003;
2.407000000000000E+009;1.956255435943604E-001;3.827250003814697E-002;-8.577807806432247E-003;-3.062369767576456E-003;
2.407166666666667E+009;1.959724575281143E-001;3.798691928386688E-002;-8.419225923717022E-003;-2.736650407314301E-003;
2.407333333333334E+009;1.959214359521866E-001;3.828305751085281E-002;-8.504977449774742E-003;-2.444638870656490E-003;
2.407500000000000E+009;1.959178298711777E-001;3.823927044868469E-002;-8.457536809146404E-003;-2.256597857922316E-003;
2.407666666666667E+009;1.958144158124924E-001;3.808207064867020E-002;-8.666353300213814E-003;-1.746552065014839E-003;
2.407833333333334E+009;1.954638212919235E-001;3.791903704404831E-002;-8.525853976607323E-003;-1.369737554341555E-003;
2.408000000000000E+009;1.953241974115372E-001;3.775833174586296E-002;-8.294574916362763E-003;-1.103722141124308E-003;
2.408166666666667E+009;1.946142911911011E-001;3.735314682126045E-002;-8.182829245924950E-003;-9.825265733525157E-004;
2.408333333333334E+009;1.942126303911209E-001;3.685711324214935E-002;-8.231700398027897E-003;-4.978630458936095E-004;
2.408500000000000E+009;1.936250478029251E-001;3.647669404745102E-002;-8.182529360055924E-003;-3.008653584402055E-004;
2.408666666666667E+009;1.929401308298111E-001;3.593093901872635E-002;-8.011746220290661E-003;-1.275488320970908E-004;
2.408833333333334E+009;1.922926008701325E-001;3.521186485886574E-002;-7.949503138661385E-003;2.145589096471667E-004;
2.409000000000000E+009;1.912214159965515E-001;3.414740785956383E-002;-7.709642406553030E-003;4.938230849802494E-004;
2.409166666666667E+009;1.904461979866028E-001;3.323173150420189E-002;-7.522045169025660E-003;7.230495684780181E-004;
2.409333333333334E+009;1.894124597311020E-001;3.219302371144295E-002;-7.452450692653656E-003;8.691877592355013E-004;
2.409500000000000E+009;1.884361207485199E-001;3.069281391799450E-002;-7.228375878185034E-003;9.139182511717081E-004;
2.409666666666667E+009;1.874937713146210E-001;2.946980856359005E-002;-7.149608340114355E-003;1.216446631588042E-003;
2.409833333333334E+009;1.863857209682465E-001;2.787010930478573E-002;-7.001558784395456E-003;1.280112541280687E-003;
2.410000000000000E+009;1.854676753282547E-001;2.624746598303318E-002;-6.956611759960651E-003;1.532826339825988E-003;
2.410166666666667E+009;1.843868046998978E-001;2.432682178914547E-002;-6.734931841492653E-003;1.452058204449713E-003;
2.410333333333334E+009;1.835307478904724E-001;2.259430848062038E-002;-6.672385148704052E-003;1.570600317791104E-003;
2.410500000000000E+009;1.824621707201004E-001;2.065226994454861E-002;-6.742546334862709E-003;1.743216416798532E-003;
2.410666666666667E+009;1.818392127752304E-001;1.825294643640518E-002;-6.342751905322075E-003;1.818222459405661E-003;
2.410833333333334E+009;1.810718029737473E-001;1.629741117358208E-002;-6.370017305016518E-003;1.920601935125887E-003;
2.411000000000000E+009;1.803355813026428E-001;1.406435854732990E-002;-6.342847365885973E-003;1.989394659176469E-003;
2.411166666666667E+009;1.795426160097122E-001;1.187669765204191E-002;-6.055759266018868E-003;2.126550069078803E-003;
2.411333333333334E+009;1.794024705886841E-001;9.236851707100868E-003;-6.015036720782518E-003;2.194601111114025E-003;
2.411500000000000E+009;1.788039505481720E-001;7.009771186858416E-003;-5.716954357922077E-003;2.221600152552128E-003;
2.411666666666667E+009;1.785944998264313E-001;4.670080728828907E-003;-5.952028557658196E-003;2.508362522348762E-003;
2.411833333333334E+009;1.783616095781326E-001;2.279527951031923E-003;-5.730897653847933E-003;2.463303972035646E-003;
2.412000000000000E+009;1.787253767251968E-001;-3.257155185565352E-004;-5.576714407652617E-003;2.432157751172781E-003;
2.412166666666667E+009;1.787334382534027E-001;-2.519564703106880E-003;-5.465429741889238E-003;2.471878426149488E-003;
2.412333333333334E+009;1.789280176162720E-001;-5.181701853871346E-003;-5.537992808967829E-003;2.462573349475861E-003;
2.412500000000000E+009;1.794286072254181E-001;-7.572195492684841E-003;-5.336821544915438E-003;2.537172753363848E-003;
2.412666666666667E+009;1.799664348363876E-001;-1.005666237324476E-002;-5.245950073003769E-003;2.671488327905536E-003;
2.412833333333334E+009;1.807370632886887E-001;-1.239492092281580E-002;-5.325871054083109E-003;2.657772740349174E-003;
2.413000000000000E+009;1.815204024314880E-001;-1.459727715700865E-002;-5.353030283004046E-003;2.698893193155527E-003;
2.413166666666667E+009;1.822040528059006E-001;-1.686459407210350E-002;-5.581663455814123E-003;2.946932800114155E-003;
2.413333333333334E+009;1.831807792186737E-001;-1.921640522778034E-002;-5.402470473200083E-003;2.923267660662532E-003;
2.413500000000000E+009;1.840792447328568E-001;-2.148928120732307E-002;-5.424627102911472E-003;3.214808180928230E-003;
2.413666666666667E+009;1.852751672267914E-001;-2.372371777892113E-002;-5.334348417818546E-003;3.246313659474254E-003;
2.413833333333334E+009;1.864928603172302E-001;-2.549691312015057E-002;-5.275514908134937E-003;3.444722853600979E-003;
2.414000000000000E+009;1.875190138816834E-001;-2.750751003623009E-002;-5.265674088150263E-003;3.732559271156788E-003;
2.414166666666667E+009;1.887807995080948E-001;-2.937259525060654E-002;-5.255365278571844E-003;3.791965777054429E-003;
2.414333333333334E+009;1.899630278348923E-001;-3.117174655199051E-002;-5.191875621676445E-003;3.939676564186811E-003;
2.414500000000000E+009;1.910327970981598E-001;-3.258810937404633E-002;-5.183149594813585E-003;4.098050296306610E-003;
2.414666666666667E+009;1.921003460884094E-001;-3.410080820322037E-002;-5.024670157581568E-003;4.190756008028984E-003;
2.414833333333334E+009;1.932252943515778E-001;-3.545130789279938E-002;-4.991373512893915E-003;4.388124682009220E-003;
2.415000000000000E+009;1.942855715751648E-001;-3.663062676787376E-002;-4.838158376514912E-003;4.518070723861456E-003;
2.415166666666667E+009;1.956414878368378E-001;-3.772275894880295E-002;-4.664782900363207E-003;4.754172172397375E-003;
2.415333333333334E+009;1.967301070690155E-001;-3.869496285915375E-002;-4.652782343327999E-003;4.946653731167316E-003;
2.415500000000000E+009;1.977817267179489E-001;-3.939903154969215E-002;-4.561720415949822E-003;5.112830083817244E-003;
2.415666666666667E+009;1.987194418907166E-001;-4.022547602653503E-002;-4.475605674088001E-003;5.249921698123217E-003;
2.415833333333334E+009;1.995850801467896E-001;-4.079437628388405E-002;-4.161198157817125E-003;5.322988145053387E-003;
2.416000000000000E+009;2.003273516893387E-001;-4.135007411241531E-002;-4.206059966236353E-003;5.486863199621439E-003;
2.416166666666667E+009;2.009690701961517E-001;-4.196315631270409E-002;-4.103693645447493E-003;5.686180200427771E-003;
2.416333333333334E+009;2.016711533069611E-001;-4.215759783983231E-002;-4.011870827525854E-003;5.937965586781502E-003;
2.416500000000000E+009;2.020675241947174E-001;-4.245015233755112E-002;-3.767679911106825E-003;6.138967350125313E-003;
2.416666666666667E+009;2.022878378629684E-001;-4.278410971164703E-002;-3.729371353983879E-003;6.295746192336083E-003;
2.416833333333334E+009;2.024363726377487E-001;-4.289617016911507E-002;-3.579646581783891E-003;6.536682136356831E-003;
2.417000000000000E+009;2.024617195129395E-001;-4.287086054682732E-002;-3.360959002748132E-003;6.724879611283541E-003;
2.417166666666667E+009;2.021595686674118E-001;-4.292702674865723E-002;-3.108567558228970E-003;6.831072270870209E-003;
2.417333333333334E+009;2.019928693771362E-001;-4.281384870409966E-002;-2.716712420806289E-003;6.933803670108318E-003;
2.417500000000000E+009;2.015766501426697E-001;-4.288223758339882E-002;-2.483360003679991E-003;6.941108033061028E-003;
2.417666666666667E+009;2.010879069566727E-001;-4.267663881182671E-002;-2.297122729942203E-003;7.129455450922251E-003;
2.417833333333334E+009;2.006623595952988E-001;-4.248363897204399E-002;-1.984834903851152E-003;7.309342268854380E-003;
2.418000000000000E+009;1.998229920864105E-001;-4.234075173735619E-002;-1.712428405880928E-003;7.238659542053938E-003;
2.418166666666667E+009;1.989403814077377E-001;-4.230728000402451E-002;-1.581075019203126E-003;7.347318809479475E-003;
2.418333333333334E+009;1.981235891580582E-001;-4.212481901049614E-002;-1.315109315328300E-003;7.399507332593203E-003;
2.418500000000000E+009;1.970685720443726E-001;-4.220192879438400E-002;-1.059501315467060E-003;7.444939110428095E-003;
2.418666666666667E+009;1.962170600891113E-001;-4.209488257765770E-002;-8.539699483662844E-004;7.531308569014072E-003;
2.418833333333334E+009;1.948293894529343E-001;-4.237804934382439E-002;-5.360532668419182E-004;7.439223118126392E-003;
2.419000000000000E+009;1.934951990842819E-001;-4.254792258143425E-002;-2.942726423498243E-004;7.478885818272829E-003;
2.419166666666667E+009;1.922850310802460E-001;-4.285674542188644E-002;-1.358977897325531E-004;7.584790233522654E-003;
2.419333333333334E+009;1.908018141984940E-001;-4.342145472764969E-002;1.426471717422828E-004;7.590647786855698E-003;
2.419500000000000E+009;1.893774867057800E-001;-4.395274817943573E-002;3.963283670600504E-004;7.504276931285858E-003;
2.419666666666667E+009;1.877495050430298E-001;-4.475569725036621E-002;5.043538403697312E-004;7.592171430587769E-003;
2.419833333333334E+009;1.861479580402374E-001;-4.547960311174393E-002;8.049316820688546E-004;7.531340233981609E-003;
2.420000000000000E+009;1.845733374357224E-001;-4.631223529577255E-002;1.103207003325224E-003;7.526209112256765E-003;
2.420166666666667E+009;1.830247044563294E-001;-4.718207195401192E-002;1.399616710841656E-003;7.492123637348414E-003;
2.420333333333334E+009;1.814278215169907E-001;-4.856206476688385E-002;1.726504066027701E-003;7.395446766167879E-003;
2.420500000000000E+009;1.796195954084396E-001;-4.974271729588509E-002;1.910656807012856E-003;7.464949972927570E-003;
2.420666666666667E+009;1.781235337257385E-001;-5.090181156992912E-002;2.308991970494390E-003;7.246005814522505E-003;
2.420833333333334E+009;1.765095591545105E-001;-5.240853503346443E-002;2.579485299065709E-003;7.159165572375059E-003;
2.421000000000000E+009;1.751422435045242E-001;-5.396115034818649E-002;2.737952861934900E-003;7.039724849164486E-003;
2.421166666666667E+009;1.737314015626907E-001;-5.568657442927361E-002;3.136708168312907E-003;6.902553606778383E-003;
2.421333333333334E+009;1.719436347484589E-001;-5.705762282013893E-002;3.195378696545959E-003;6.719205994158983E-003;
2.421500000000000E+009;1.707172095775604E-001;-5.890001729130745E-002;3.486306872218847E-003;6.640743464231491E-003;
2.421666666666667E+009;1.695929765701294E-001;-6.076482683420181E-002;3.707548137754202E-003;6.296959705650806E-003;
2.421833333333334E+009;1.685678809881210E-001;-6.255976855754852E-002;3.934515640139580E-003;6.149315740913153E-003;
2.422000000000000E+009;1.673527359962463E-001;-6.437676399946213E-002;4.119445569813252E-003;5.905109457671642E-003;
2.422166666666667E+009;1.665748059749603E-001;-6.659684330224991E-002;4.310606513172388E-003;5.701458547264338E-003;
2.422333333333334E+009;1.654811501502991E-001;-6.846836209297180E-002;4.355740267783403E-003;5.490633193403482E-003;
2.422500000000000E+009;1.649397313594818E-001;-7.042932510375977E-002;4.491836298257113E-003;5.281493533402681E-003;
2.422666666666667E+009;1.642699688673019E-001;-7.248868048191071E-002;4.630204755812883E-003;5.164893809705973E-003;
2.422833333333334E+009;1.637047827243805E-001;-7.449601590633392E-002;4.692371468991041E-003;4.873104393482208E-003;
2.423000000000000E+009;1.631992608308792E-001;-7.633168250322342E-002;4.763836041092873E-003;4.920897074043751E-003;
2.423166666666667E+009;1.628265678882599E-001;-7.825532555580139E-002;4.830471239984036E-003;4.649268463253975E-003;
2.423333333333334E+009;1.626406759023666E-001;-8.024255186319351E-002;4.882737528532744E-003;4.460269585251808E-003;
2.423500000000000E+009;1.627478748559952E-001;-8.196633309125900E-002;5.041619762778282E-003;4.214076790958643E-003;
2.423666666666667E+009;1.626747101545334E-001;-8.382445573806763E-002;4.990509711205959E-003;4.169235937297344E-003;
2.423833333333334E+009;1.625628620386124E-001;-8.563756197690964E-002;5.009729415178299E-003;4.003027454018593E-003;
2.424000000000000E+009;1.626811772584915E-001;-8.739937841892242E-002;5.208612885326147E-003;3.805473912507296E-003;
2.424166666666667E+009;1.627184450626373E-001;-8.880940079689026E-002;5.278415512293577E-003;3.704566508531570E-003;
2.424333333333334E+009;1.631806492805481E-001;-9.034471213817596E-002;5.355447530746460E-003;3.520105499774218E-003;
2.424500000000000E+009;1.634512245655060E-001;-9.197437018156052E-002;5.435619503259659E-003;3.247633343562484E-003;
2.424666666666667E+009;1.636241227388382E-001;-9.317315369844437E-002;5.480862222611904E-003;3.165520960465074E-003;
2.424833333333334E+009;1.641604602336884E-001;-9.439809620380402E-002;5.580769386142492E-003;2.876363694667816E-003;
2.425000000000000E+009;1.645639538764954E-001;-9.562245756387711E-002;5.570375360548496E-003;2.620099112391472E-003;
2.425166666666667E+009;1.648852229118347E-001;-9.664402157068253E-002;5.725503433495760E-003;2.376424847170711E-003;
2.425333333333334E+009;1.651422828435898E-001;-9.757859259843826E-002;5.750548560172319E-003;2.233629580587149E-003;
2.425500000000000E+009;1.656993031501770E-001;-9.849450737237930E-002;5.808432120829821E-003;1.960270339623094E-003;
2.425666666666667E+009;1.659176498651505E-001;-9.916818141937256E-002;5.675219465047121E-003;1.887682243250310E-003;
2.425833333333334E+009;1.663188189268112E-001;-9.996315091848373E-002;5.619315430521965E-003;1.563652767799795E-003;
2.426000000000000E+009;1.667062342166901E-001;-1.004389896988869E-001;5.514748394489288E-003;1.453079050406814E-003;
2.426166666666667E+009;1.670676022768021E-001;-1.009268835186958E-001;5.553147289901972E-003;1.193426549434662E-003;
2.426333333333334E+009;1.672447770833969E-001;-1.012951061129570E-001;5.561902187764645E-003;1.097764004953206E-003;
2.426500000000000E+009;1.676333844661713E-001;-1.016217023134232E-001;5.564429797232151E-003;1.027253107167780E-003;
2.426666666666667E+009;1.677403002977371E-001;-1.019436940550804E-001;5.458779167383909E-003;8.138183620758355E-004;
2.426833333333334E+009;1.679649204015732E-001;-1.022070869803429E-001;5.492908880114555E-003;7.560760132037103E-004;
2.427000000000000E+009;1.679653674364090E-001;-1.024113669991493E-001;5.299565382301807E-003;7.229830371215940E-004;
2.427166666666667E+009;1.680052876472473E-001;-1.023572981357575E-001;5.324228201061487E-003;7.121819071471691E-004;
2.427333333333334E+009;1.678055673837662E-001;-1.026899963617325E-001;5.178892519325018E-003;3.001262084580958E-004;
2.427500000000000E+009;1.676428765058518E-001;-1.028367057442665E-001;5.256976000964642E-003;2.613431424833834E-004;
2.427666666666667E+009;1.672798544168472E-001;-1.030097231268883E-001;5.065831821411848E-003;2.102156577166170E-004;
2.427833333333334E+009;1.668299585580826E-001;-1.030995994806290E-001;5.142815411090851E-003;4.262865695636720E-005;
