# Version 1.00
#
freq[Hz];re:Trc1_S11;im:Trc1_S11;re:Trc2_S21;im:Trc2_S21;
2.400000000000000E+009;1.581408530473709E-001;1.119966283440590E-001;4.750959109514952E-003;6.323894485831261E-004;
2.400166666666667E+009;1.573035120964050E-001;1.096972450613976E-001;4.788651596754789E-003;3.743475826922804E-004;
2.400333333333334E+009;1.571102142333984E-001;1.076681911945343E-001;4.768482409417629E-003;3.458069113548845E-004;
2.400500000000000E+009;1.567739397287369E-001;1.049705147743225E-001;4.939347505569458E-003;3.004349537150119E-006;
2.400666666666667E+009;1.564184874296188E-001;1.025440245866776E-001;5.123704206198454E-003;-1.984403788810596E-004;
2.400833333333334E+009;1.559802889823914E-001;9.962341189384460E-002;4.938106518238783E-003;-4.314858815632761E-004;
2.401000000000000E+009;1.558024585247040E-001;9.676589816808701E-002;4.930170252919197E-003;-5.681818001903594E-004;
2.401166666666667E+009;1.553608626127243E-001;9.401534497737885E-002;5.023434758186340E-003;-6.968546076677740E-004;
2.401333333333334E+009;1.554381698369980E-001;9.118212014436722E-002;5.141944624483585E-003;-8.796104229986668E-004;
2.401500000000000E+009;1.555927693843842E-001;8.807452768087387E-002;5.027563311159611E-003;-1.251662033610046E-003;
2.401666666666667E+009;1.555661112070084E-001;8.506046980619431E-002;5.015927366912365E-003;-1.304539502598345E-003;
2.401833333333334E+009;1.557779908180237E-001;8.224002271890640E-002;5.103804171085358E-003;-1.479065045714378E-003;
2.402000000000000E+009;1.561833173036575E-001;7.919441908597946E-002;4.943251144140959E-003;-1.636318862438202E-003;
2.402166666666667E+009;1.567719876766205E-001;7.624401152133942E-002;5.029544699937105E-003;-1.737202517688274E-003;
2.402333333333334E+009;1.573667526245117E-001;7.330027222633362E-002;5.148219410330057E-003;-2.080349950119853E-003;
2.402500000000000E+009;1.582428961992264E-001;7.047130167484283E-002;4.996826406568289E-003;-2.253604587167501E-003;
2.402666666666667E+009;1.593431234359741E-001;6.774742901325226E-002;5.028909537941217E-003;-2.352172741666436E-003;
2.402833333333334E+009;1.603759676218033E-001;6.496898829936981E-002;4.960946738719940E-003;-2.658030716702342E-003;
2.403000000000000E+009;1.616326421499252E-001;6.227111816406250E-002;4.929529968649149E-003;-2.863208996132016E-003;
2.403166666666667E+009;1.630991846323013E-001;5.963500961661339E-002;4.695201758295298E-003;-3.046243917196989E-003;
2.403333333333334E+009;1.645858585834503E-001;5.717499554157257E-002;4.745932295918465E-003;-3.305816790089011E-003;
2.403500000000000E+009;1.663789004087448E-001;5.478567630052567E-002;4.659618716686964E-003;-3.565108403563500E-003;
2.403666666666667E+009;1.680215299129486E-001;5.232079699635506E-002;4.526502918452025E-003;-3.853367175906897E-003;
2.403833333333334E+009;1.697149276733398E-001;5.018228664994240E-002;4.405134357511997E-003;-4.249237477779388E-003;
2.404000000000000E+009;1.713200509548187E-001;4.798976331949234E-002;4.308913834393024E-003;-4.416978918015957E-003;
2.404166666666667E+009;1.732958555221558E-001;4.613606259226799E-002;4.079088103026152E-003;-4.606675822287798E-003;
2.404333333333334E+009;1.749522536993027E-001;4.423454403877258E-002;3.782374784350395E-003;-4.821492824703455E-003;
2.404500000000000E+009;1.767948567867279E-001;4.248500987887383E-002;3.510256763547659E-003;-5.219412036240101E-003;
2.404666666666667E+009;1.786142587661743E-001;4.102598130702972E-002;3.280359553173184E-003;-5.405818112194538E-003;
2.404833333333334E+009;1.804580837488174E-001;3.966504707932472E-002;2.988648135215044E-003;-5.419125780463219E-003;
2.405000000000000E+009;1.821331679821014E-001;3.855738043785095E-002;2.561799017712474E-003;-5.815664306282997E-003;
2.405166666666667E+009;1.838935911655426E-001;3.772728145122528E-002;2.416528994217515E-003;-5.694214254617691E-003;
2.405333333333334E+009;1.854825913906097E-001;3.692463412880898E-002;2.096236916258931E-003;-6.037950050085783E-003;
2.405500000000000E+009;1.870933771133423E-001;3.634491935372353E-002;1.801944687031210E-003;-5.868227686733007E-003;
2.405666666666667E+009;1.885400116443634E-001;3.587770462036133E-002;1.297176466323435E-003;-6.100653670728207E-003;
2.405833333333334E+009;1.902822256088257E-001;3.549708053469658E-002;1.025939011014998E-003;-6.068753544241190E-003;
2.406000000000000E+009;1.915178000926971E-001;3.527171909809113E-002;7.088109850883484E-004;-6.058719009160996E-003;
2.406166666666667E+009;1.928840726613998E-001;3.508076071739197E-002;5.051512271165848E-004;-5.884028971195221E-003;
2.406333333333334E+009;1.941080391407013E-001;3.515409678220749E-002;2.348123234696686E-004;-5.734078586101532E-003;
2.406500000000000E+009;1.953092217445374E-001;3.530903160572052E-002;-3.827524778898805E-006;-5.643902346491814E-003;
2.406666666666667E+009;1.962569206953049E-001;3.544402122497559E-002;-3.395424864720553E-004;-5.620086099952459E-003;
2.406833333333334E+009;1.971668452024460E-001;3.571004047989845E-002;-4.639399412553757E-004;-5.594452377408743E-003;
2.407000000000000E+009;1.978238970041275E-001;3.608408197760582E-002;-7.462645298801363E-004;-5.422888323664665E-003;
2.407166666666667E+009;1.985496580600739E-001;3.602334856987000E-002;-8.878859225660563E-004;-5.348940845578909E-003;
2.407333333333334E+009;1.987457722425461E-001;3.641123697161675E-002;-1.224271371029317E-003;-5.180328153073788E-003;
2.407500000000000E+009;1.990802437067032E-001;3.690399974584580E-002;-1.376816420815885E-003;-5.204322282224894E-003;
2.407666666666667E+009;1.993597745895386E-001;3.705472126603127E-002;-1.437272410839796E-003;-5.034256260842085E-003;
2.407833333333334E+009;1.991039216518402E-001;3.725935518741608E-002;-1.688933232799172E-003;-4.977439995855093E-003;
2.408000000000000E+009;1.993424594402313E-001;3.756459057331085E-002;-1.716324943117797E-003;-4.862971138209105E-003;
2.408166666666667E+009;1.988576799631119E-001;3.759567812085152E-002;-1.925088348798454E-003;-4.789714235812426E-003;
2.408333333333334E+009;1.986160576343536E-001;3.752453625202179E-002;-2.238730201497674E-003;-4.593990277498961E-003;
2.408500000000000E+009;1.980794966220856E-001;3.748179227113724E-002;-2.259350847452879E-003;-4.258324857801199E-003;
2.408666666666667E+009;1.976066380739212E-001;3.737078979611397E-002;-2.458044327795506E-003;-4.226412624120712E-003;
2.408833333333334E+009;1.968626827001572E-001;3.713337332010269E-002;-2.457533264532685E-003;-3.955339547246695E-003;
2.409000000000000E+009;1.958660781383514E-001;3.661864250898361E-002;-2.585272537544370E-003;-3.987626172602177E-003;
2.409166666666667E+009;1.949571669101715E-001;3.611230850219727E-002;-2.499797614291310E-003;-3.614464541897178E-003;
2.409333333333334E+009;1.938961148262024E-001;3.550902009010315E-002;-2.567501505836844E-003;-3.464975161477923E-003;
2.409500000000000E+009;1.928542852401733E-001;3.446906059980393E-002;-2.443327102810144E-003;-3.496503690257669E-003;
2.409666666666667E+009;1.916836500167847E-001;3.350900858640671E-002;-2.570040756836534E-003;-3.286651335656643E-003;
2.409833333333334E+009;1.904801875352860E-001;3.245703130960465E-002;-2.427417552098632E-003;-3.133999183773994E-003;
2.410000000000000E+009;1.892382800579071E-001;3.107977658510208E-002;-2.368986606597900E-003;-3.180009080097079E-003;
2.410166666666667E+009;1.880820542573929E-001;2.956239506602287E-002;-2.398349577561021E-003;-3.343363292515278E-003;
2.410333333333334E+009;1.869376599788666E-001;2.813923731446266E-002;-2.520622219890356E-003;-3.115616738796234E-003;
2.410500000000000E+009;1.856908202171326E-001;2.646346203982830E-002;-2.646482549607754E-003;-3.273983485996723E-003;
2.410666666666667E+009;1.844343841075897E-001;2.428090199828148E-002;-2.565516158938408E-003;-3.013023175299168E-003;
2.410833333333334E+009;1.833484321832657E-001;2.222578041255474E-002;-2.700272481888533E-003;-3.089552512392402E-003;
2.411000000000000E+009;1.822958886623383E-001;2.021812833845615E-002;-2.900053979828954E-003;-3.096401924267411E-003;
2.411166666666667E+009;1.813519597053528E-001;1.823012903332710E-002;-2.920537488535047E-003;-3.055460751056671E-003;
2.411333333333334E+009;1.805969476699829E-001;1.582927070558071E-002;-3.100661095231772E-003;-2.847857773303986E-003;
2.411500000000000E+009;1.796847730875015E-001;1.328961644321680E-002;-3.182142274454236E-003;-2.784504089504480E-003;
2.411666666666667E+009;1.794246733188629E-001;1.102400664240122E-002;-3.213544841855764E-003;-2.572394907474518E-003;
2.411833333333334E+009;1.784990876913071E-001;8.492897264659405E-003;-3.385245800018311E-003;-2.511771395802498E-003;
2.412000000000000E+009;1.784112453460693E-001;5.848534405231476E-003;-3.295019268989563E-003;-2.407274208962917E-003;
2.412166666666667E+009;1.782533675432205E-001;3.474328899756074E-003;-3.427717834711075E-003;-2.312406664714217E-003;
2.412333333333334E+009;1.781774461269379E-001;7.819773745723069E-004;-3.469718387350440E-003;-2.209273632615805E-003;
2.412500000000000E+009;1.782304644584656E-001;-2.011561999097467E-003;-3.542175749316812E-003;-2.080190926790237E-003;
2.412666666666667E+009;1.784610450267792E-001;-4.749560263007879E-003;-3.463750937953591E-003;-1.897269277833402E-003;
2.412833333333334E+009;1.790345907211304E-001;-7.208639290183783E-003;-3.596864873543382E-003;-1.794371404685080E-003;
2.413000000000000E+009;1.794286519289017E-001;-9.748967364430428E-003;-3.618000075221062E-003;-1.727721071802080E-003;
2.413166666666667E+009;1.800139546394348E-001;-1.224479731172323E-002;-3.638607915490866E-003;-1.603418961167336E-003;
2.413333333333334E+009;1.809588968753815E-001;-1.480341050773859E-002;-3.714345162734389E-003;-1.629905425943434E-003;
2.413500000000000E+009;1.816396862268448E-001;-1.762991212308407E-002;-3.744044806808233E-003;-1.397860003635287E-003;
2.413666666666667E+009;1.828309148550034E-001;-2.008688263595104E-002;-3.734409110620618E-003;-1.219131285324693E-003;
2.413833333333334E+009;1.836440265178680E-001;-2.230071462690830E-002;-3.889192361384630E-003;-1.162893488071859E-003;
2.414000000000000E+009;1.848730891942978E-001;-2.468855306506157E-002;-3.787582041695714E-003;-1.169778406620026E-003;
2.414166666666667E+009;1.861927211284638E-001;-2.687031030654907E-002;-3.870699787512422E-003;-1.124259666539729E-003;
2.414333333333334E+009;1.872043311595917E-001;-2.906523086130619E-002;-3.865177044644952E-003;-9.370446787215769E-004;
2.414500000000000E+009;1.885797679424286E-001;-3.080438449978828E-002;-3.897459479048848E-003;-7.422514026984572E-004;
2.414666666666667E+009;1.899784505367279E-001;-3.276310116052628E-002;-3.953066188842058E-003;-6.267669377848506E-004;
2.414833333333334E+009;1.911732703447342E-001;-3.455477207899094E-002;-3.898057155311108E-003;-5.102920695208013E-004;
2.415000000000000E+009;1.925254613161087E-001;-3.598527610301971E-002;-4.093463532626629E-003;-4.306918126530945E-004;
2.415166666666667E+009;1.938693672418594E-001;-3.741950914263725E-002;-4.081005696207285E-003;-4.155502829235047E-004;
2.415333333333334E+009;1.952059417963028E-001;-3.860471397638321E-002;-4.142730031162500E-003;-1.441243948647752E-004;
2.415500000000000E+009;1.966326534748077E-001;-3.976354748010635E-002;-4.149366170167923E-003;1.625932782189921E-004;
2.415666666666667E+009;1.978582292795181E-001;-4.064457491040230E-002;-4.268060903996229E-003;1.552953908685595E-004;
2.415833333333334E+009;1.990696191787720E-001;-4.139834642410278E-002;-4.085837397724390E-003;3.812686481978744E-004;
2.416000000000000E+009;2.000041157007217E-001;-4.215588048100472E-002;-4.137289244681597E-003;4.778046568389982E-004;
2.416166666666667E+009;2.011436671018601E-001;-4.285850748419762E-002;-4.070289898663759E-003;5.620064330287278E-004;
2.416333333333334E+009;2.021107971668243E-001;-4.319084063172340E-002;-3.999742213636637E-003;8.229831000790000E-004;
2.416500000000000E+009;2.028994858264923E-001;-4.356792569160461E-002;-3.882118035107851E-003;1.097657252103090E-003;
2.416666666666667E+009;2.035989463329315E-001;-4.388334229588509E-002;-3.760940395295620E-003;1.335864653810859E-003;
2.416833333333334E+009;2.040378004312515E-001;-4.397637769579887E-002;-3.557776333764195E-003;1.371194259263575E-003;
2.417000000000000E+009;2.045232206583023E-001;-4.408516734838486E-002;-3.561424091458321E-003;1.448314986191690E-003;
2.417166666666667E+009;2.046923041343689E-001;-4.387525096535683E-002;-3.304522251710296E-003;1.599731622263789E-003;
2.417333333333334E+009;2.047635316848755E-001;-4.368327930569649E-002;-3.198757069185376E-003;1.583616249263287E-003;
2.417500000000000E+009;2.047299295663834E-001;-4.348397627472878E-002;-3.191999392583966E-003;1.631294726394117E-003;
2.417666666666667E+009;2.045497596263886E-001;-4.316434636712074E-002;-2.985282801091671E-003;1.598885748535395E-003;
2.417833333333334E+009;2.044657170772553E-001;-4.280781000852585E-002;-2.952179871499538E-003;1.483879867009819E-003;
2.418000000000000E+009;2.041186839342117E-001;-4.234925657510757E-002;-2.916028955951333E-003;1.450561103411019E-003;
2.418166666666667E+009;2.034352868795395E-001;-4.195869341492653E-002;-2.895609941333532E-003;1.532165100798011E-003;
2.418333333333334E+009;2.027562856674194E-001;-4.167563468217850E-002;-2.990011125802994E-003;1.524205552414060E-003;
2.418500000000000E+009;2.018917351961136E-001;-4.142526164650917E-002;-2.996126189827919E-003;1.547768013551831E-003;
2.418666666666667E+009;2.010712474584580E-001;-4.095616564154625E-002;-3.118452616035938E-003;1.572937471792102E-003;
2.418833333333334E+009;1.999053806066513E-001;-4.079921171069145E-002;-3.018327523022890E-003;1.609176513738930E-003;
2.419000000000000E+009;1.987850368022919E-001;-4.081299528479576E-002;-3.063789801672101E-003;1.768250367604196E-003;
2.419166666666667E+009;1.976017653942108E-001;-4.070766270160675E-002;-3.091876860707998E-003;1.925398828461766E-003;
2.419333333333334E+009;1.961438208818436E-001;-4.086297377943993E-002;-3.150263568386436E-003;2.009241143241525E-003;
2.419500000000000E+009;1.946807205677033E-001;-4.096739739179611E-002;-3.085689386352897E-003;2.178087132051587E-003;
2.419666666666667E+009;1.930117607116699E-001;-4.147179424762726E-002;-3.015831345692277E-003;2.356360200792551E-003;
2.419833333333334E+009;1.914183646440506E-001;-4.181117564439774E-002;-2.939452184364200E-003;2.550870180130005E-003;
2.420000000000000E+009;1.897208541631699E-001;-4.236510023474693E-002;-2.721731318160892E-003;2.662223996594548E-003;
2.420166666666667E+009;1.879184842109680E-001;-4.317881539463997E-002;-2.641343511641026E-003;2.713444409891963E-003;
2.420333333333334E+009;1.860655099153519E-001;-4.397885873913765E-002;-2.490574959665537E-003;2.809532219544053E-003;
2.420500000000000E+009;1.842297911643982E-001;-4.518558830022812E-002;-2.535278908908367E-003;2.940742066130042E-003;
2.420666666666667E+009;1.825433075428009E-001;-4.599893838167191E-002;-2.319161314517260E-003;3.001535311341286E-003;
2.420833333333334E+009;1.806878745555878E-001;-4.736850783228874E-002;-2.192963613197208E-003;3.161718370392919E-003;
2.421000000000000E+009;1.787574887275696E-001;-4.871267080307007E-002;-2.117910655215383E-003;3.027298487722874E-003;
2.421166666666667E+009;1.769946515560150E-001;-5.023090541362763E-002;-1.983378082513809E-003;3.303728532046080E-003;
2.421333333333334E+009;1.750428527593613E-001;-5.171986669301987E-002;-1.848811632953584E-003;3.181758802384138E-003;
2.421500000000000E+009;1.735027432441711E-001;-5.353247374296188E-002;-1.668975455686450E-003;3.269979963079095E-003;
2.421666666666667E+009;1.719254553318024E-001;-5.538146570324898E-002;-1.765490858815610E-003;3.297386923804879E-003;
2.421833333333334E+009;1.704234927892685E-001;-5.729068443179131E-002;-1.567663857713342E-003;3.473315387964249E-003;
2.422000000000000E+009;1.690186858177185E-001;-5.904773250222206E-002;-1.390007673762739E-003;3.376292996108532E-003;
2.422166666666667E+009;1.677627414464951E-001;-6.133383885025978E-002;-1.179331098683178E-003;3.284619888290763E-003;
2.422333333333334E+009;1.665129363536835E-001;-6.328620761632919E-002;-1.189928269013763E-003;3.487130394205451E-003;
2.422500000000000E+009;1.654434800148010E-001;-6.561212986707687E-002;-9.728642762638629E-004;3.444996895268560E-003;
2.422666666666667E+009;1.645643562078476E-001;-6.756228208541870E-002;-8.869746234267950E-004;3.415477927774191E-003;
2.422833333333334E+009;1.639020293951035E-001;-6.990585476160049E-002;-8.243293268606067E-004;3.440256929025054E-003;
2.423000000000000E+009;1.630753278732300E-001;-7.217712700366974E-002;-6.159286713227630E-004;3.593174507841468E-003;
2.423166666666667E+009;1.625437587499619E-001;-7.426325231790543E-002;-4.580245877150446E-004;3.376188920810819E-003;
2.423333333333334E+009;1.620895117521286E-001;-7.652877271175385E-002;-2.502832503523678E-004;3.543331753462553E-003;
2.423500000000000E+009;1.619384288787842E-001;-7.860258966684341E-002;-1.810518442653120E-004;3.448395524173975E-003;
2.423666666666667E+009;1.617115288972855E-001;-8.081407099962235E-002;-6.180250784382224E-005;3.399905748665333E-003;
2.423833333333334E+009;1.616812348365784E-001;-8.288856595754623E-002;1.334514090558514E-004;3.406048053875566E-003;
2.424000000000000E+009;1.616664975881577E-001;-8.505596220493317E-002;2.528766635805368E-004;3.365194890648127E-003;
2.424166666666667E+009;1.618293970823288E-001;-8.680590242147446E-002;2.985074243042618E-004;3.273376263678074E-003;
2.424333333333334E+009;1.620987504720688E-001;-8.880539238452911E-002;5.078354733996093E-004;3.139967797324061E-003;
2.424500000000000E+009;1.625040471553803E-001;-9.079597890377045E-002;5.527362227439880E-004;3.137056948617101E-003;
2.424666666666667E+009;1.628442853689194E-001;-9.248333424329758E-002;7.240197737701237E-004;2.953967312350869E-003;
2.424833333333334E+009;1.634883433580399E-001;-9.421049058437347E-002;8.076464291661978E-004;2.936124335974455E-003;
2.425000000000000E+009;1.638053059577942E-001;-9.559524059295654E-002;8.050111355260015E-004;2.847074996680021E-003;
2.425166666666667E+009;1.644810289144516E-001;-9.704985469579697E-002;7.829028763808310E-004;2.888679271563888E-003;
2.425333333333334E+009;1.648346632719040E-001;-9.829985350370407E-002;9.392546489834786E-004;2.577156759798527E-003;
2.425500000000000E+009;1.655365526676178E-001;-9.956663101911545E-002;9.179017506539822E-004;2.555685350671411E-003;
2.425666666666667E+009;1.662021577358246E-001;-1.004429012537003E-001;1.004150719381869E-003;2.481598407030106E-003;
2.425833333333334E+009;1.667398661375046E-001;-1.014742180705071E-001;1.169057213701308E-003;2.416909905150533E-003;
2.426000000000000E+009;1.674512326717377E-001;-1.021216884255409E-001;1.147722126916051E-003;2.302588196471334E-003;
2.426166666666667E+009;1.682009696960449E-001;-1.028570309281349E-001;1.178011531010270E-003;2.225668635219336E-003;
2.426333333333334E+009;1.686723083257675E-001;-1.035736799240112E-001;1.136610982939601E-003;2.229451201856136E-003;
2.426500000000000E+009;1.692299395799637E-001;-1.039286702871323E-001;1.209948328323662E-003;2.058421028777957E-003;
2.426666666666667E+009;1.698626279830933E-001;-1.044270247220993E-001;1.173038268461824E-003;2.103721955791116E-003;
2.426833333333334E+009;1.704224646091461E-001;-1.046737059950829E-001;1.142041524872184E-003;2.017053309828043E-003;
2.427000000000000E+009;1.708128154277802E-001;-1.049474552273750E-001;1.238533994182944E-003;1.943246927112341E-003;
2.427166666666667E+009;1.712596416473389E-001;-1.050843894481659E-001;1.228715525940061E-003;1.988481264561415E-003;
2.427333333333334E+009;1.714398115873337E-001;-1.053562462329865E-001;1.303786062635481E-003;1.930834027007222E-003;
2.427500000000000E+009;1.715958118438721E-001;-1.054743528366089E-001;1.331986510194838E-003;1.792446593753994E-003;
2.427666666666667E+009;1.715791374444962E-001;-1.054434031248093E-001;1.095381448976696E-003;1.719173043966293E-003;
