# Version 1.00
#
freq[Hz];re:Trc1_S11;im:Trc1_S11;re:Trc2_S21;im:Trc2_S21;
2.400000000000000E+009;1.578654348850250E-001;1.122796535491943E-001;4.754005931317806E-003;5.021642427891493E-004;
2.400166666666667E+009;1.574239730834961E-001;1.099792495369911E-001;4.834212828427553E-003;2.466684964019805E-004;
2.400333333333334E+009;1.570059806108475E-001;1.078262701630592E-001;4.841071553528309E-003;6.280360685195774E-005;
2.400500000000000E+009;1.567819267511368E-001;1.052727997303009E-001;4.722574260085821E-003;-1.737566490191966E-004;
2.400666666666667E+009;1.565327644348145E-001;1.027603149414063E-001;4.835645202547312E-003;-1.946348202181980E-004;
2.400833333333334E+009;1.560857594013214E-001;9.984333813190460E-002;5.002026911824942E-003;-5.361562361940742E-004;
2.401000000000000E+009;1.557807028293610E-001;9.713077545166016E-002;4.896591883152723E-003;-6.757897790521383E-004;
2.401166666666667E+009;1.556807160377502E-001;9.430661052465439E-002;5.010370630770922E-003;-9.952154941856861E-004;
2.401333333333334E+009;1.557177156209946E-001;9.153282642364502E-002;4.923043306916952E-003;-1.081016031093895E-003;
2.401500000000000E+009;1.557340025901794E-001;8.840757608413696E-002;4.885931499302387E-003;-1.363221439532936E-003;
2.401666666666667E+009;1.556801050901413E-001;8.540029078722000E-002;4.805652890354395E-003;-1.408741110935807E-003;
2.401833333333334E+009;1.560664623975754E-001;8.233007788658142E-002;4.844331648200750E-003;-1.496821176260710E-003;
2.402000000000000E+009;1.566487848758698E-001;7.935783267021179E-002;4.934690427035093E-003;-1.742195338010788E-003;
2.402166666666667E+009;1.571747213602066E-001;7.650714367628098E-002;4.897519014775753E-003;-1.971876714378595E-003;
2.402333333333334E+009;1.577845364809036E-001;7.344948500394821E-002;4.874745383858681E-003;-2.193848136812449E-003;
2.402500000000000E+009;1.586946994066238E-001;7.070357352495194E-002;4.721375647932291E-003;-2.237469190731645E-003;
2.402666666666667E+009;1.595324277877808E-001;6.788693368434906E-002;4.904759116470814E-003;-2.507989993318915E-003;
2.402833333333334E+009;1.606325507164002E-001;6.504271924495697E-002;4.753157030791044E-003;-2.804670948535204E-003;
2.403000000000000E+009;1.619838476181030E-001;6.245998293161392E-002;4.740185104310513E-003;-2.967224456369877E-003;
2.403166666666667E+009;1.635862141847611E-001;5.983445420861244E-002;4.757301416248083E-003;-3.228386631235480E-003;
2.403333333333334E+009;1.649833768606186E-001;5.726797506213188E-002;4.541056696325541E-003;-3.328811144456267E-003;
2.403500000000000E+009;1.665197461843491E-001;5.480944737792015E-002;4.400906618684530E-003;-3.880314994603396E-003;
2.403666666666667E+009;1.681149452924728E-001;5.245080962777138E-002;4.507951438426971E-003;-3.933989442884922E-003;
2.403833333333334E+009;1.700244992971420E-001;5.030337721109390E-002;4.288486670702696E-003;-4.148067906498909E-003;
2.404000000000000E+009;1.716998368501663E-001;4.804522916674614E-002;4.048443865031004E-003;-4.547896794974804E-003;
2.404166666666667E+009;1.735367476940155E-001;4.606436192989349E-002;3.911316394805908E-003;-4.562635906040669E-003;
2.404333333333334E+009;1.752672195434570E-001;4.415458813309670E-002;3.643184900283814E-003;-4.855398088693619E-003;
2.404500000000000E+009;1.771323978900909E-001;4.252076521515846E-002;3.456772305071354E-003;-5.230186972767115E-003;
2.404666666666667E+009;1.788168102502823E-001;4.109239950776100E-002;3.186142537742853E-003;-5.339208990335465E-003;
2.404833333333334E+009;1.807145476341248E-001;3.969751298427582E-002;2.877358347177506E-003;-5.520518869161606E-003;
2.405000000000000E+009;1.821969449520111E-001;3.873949497938156E-002;2.628476824611425E-003;-5.630310159176588E-003;
2.405166666666667E+009;1.839614957571030E-001;3.778073564171791E-002;2.207668498158455E-003;-5.725432187318802E-003;
2.405333333333334E+009;1.856669485569000E-001;3.708104416728020E-002;1.908660517074168E-003;-5.870266351848841E-003;
2.405500000000000E+009;1.873037666082382E-001;3.638954833149910E-002;1.574170426465571E-003;-6.047995295375586E-003;
2.405666666666667E+009;1.889052540063858E-001;3.589518740773201E-002;1.357758534140885E-003;-5.874462891370058E-003;
2.405833333333334E+009;1.904499083757401E-001;3.547293320298195E-002;9.894293034449220E-004;-5.840204656124115E-003;
2.406000000000000E+009;1.918229758739471E-001;3.526060655713081E-002;5.088757607154548E-004;-5.812245421111584E-003;
2.406166666666667E+009;1.930076330900192E-001;3.496959060430527E-002;3.910277737304568E-004;-5.719148088246584E-003;
2.406333333333334E+009;1.943072676658630E-001;3.506110236048698E-002;2.510921622160822E-004;-5.812968593090773E-003;
2.406500000000000E+009;1.954666525125504E-001;3.512898087501526E-002;-1.105870032915846E-004;-5.682687275111675E-003;
2.406666666666667E+009;1.964798420667648E-001;3.527889028191567E-002;-3.058711881749332E-004;-5.586235318332911E-003;
2.406833333333334E+009;1.974096000194550E-001;3.555350378155708E-002;-5.050558829680085E-004;-5.463663954287767E-003;
2.407000000000000E+009;1.979368329048157E-001;3.588008508086205E-002;-7.825299398973584E-004;-5.483026150614023E-003;
2.407166666666667E+009;1.986984610557556E-001;3.593710064888001E-002;-9.714726475067437E-004;-5.372078623622656E-003;
2.407333333333334E+009;1.989186853170395E-001;3.635429963469505E-002;-1.189465983770788E-003;-5.190216004848480E-003;
2.407500000000000E+009;1.992949247360230E-001;3.669690713286400E-002;-1.267773448489606E-003;-5.160952452570200E-003;
2.407666666666667E+009;1.994901597499847E-001;3.675169497728348E-002;-1.525545958429575E-003;-4.925048444420099E-003;
2.407833333333334E+009;1.993341147899628E-001;3.701569885015488E-002;-1.768485177308321E-003;-4.689735360443592E-003;
2.408000000000000E+009;1.993283629417419E-001;3.714222460985184E-002;-1.899086986668408E-003;-4.613021388649941E-003;
2.408166666666667E+009;1.989964842796326E-001;3.733976185321808E-002;-1.970814075320959E-003;-4.626607522368431E-003;
2.408333333333334E+009;1.987150758504868E-001;3.724009171128273E-002;-2.314893063157797E-003;-4.285590723156929E-003;
2.408500000000000E+009;1.981034576892853E-001;3.722367808222771E-002;-2.213280647993088E-003;-4.258951172232628E-003;
2.408666666666667E+009;1.976186782121658E-001;3.712429106235504E-002;-2.347306348383427E-003;-4.002399742603302E-003;
2.408833333333334E+009;1.969759315252304E-001;3.672913089394569E-002;-2.329635666683316E-003;-3.853667527437210E-003;
2.409000000000000E+009;1.960015892982483E-001;3.619985282421112E-002;-2.533384831622243E-003;-3.577830037102103E-003;
2.409166666666667E+009;1.949785798788071E-001;3.576103597879410E-002;-2.492022002115846E-003;-3.540065372362733E-003;
2.409333333333334E+009;1.940898448228836E-001;3.507185354828835E-002;-2.473044442012906E-003;-3.300879150629044E-003;
2.409500000000000E+009;1.926587671041489E-001;3.415301814675331E-002;-2.423522295430303E-003;-3.117328509688377E-003;
2.409666666666667E+009;1.915380060672760E-001;3.314930945634842E-002;-2.434587571769953E-003;-3.138389671221376E-003;
2.409833333333334E+009;1.903410255908966E-001;3.212985023856163E-002;-2.406832762062550E-003;-3.031753469258547E-003;
2.410000000000000E+009;1.891667544841766E-001;3.082992509007454E-002;-2.610491123050451E-003;-3.009228734299541E-003;
2.410166666666667E+009;1.878501772880554E-001;2.931670844554901E-002;-2.399943303316832E-003;-2.832082100212574E-003;
2.410333333333334E+009;1.866684854030609E-001;2.775147184729576E-002;-2.561583416536450E-003;-2.883773529902101E-003;
2.410500000000000E+009;1.853324025869370E-001;2.611418999731541E-002;-2.614086028188467E-003;-2.892916789278388E-003;
2.410666666666667E+009;1.842079758644104E-001;2.417255006730557E-002;-2.629954135045409E-003;-2.845956012606621E-003;
2.410833333333334E+009;1.832079887390137E-001;2.204849943518639E-002;-2.784900832921267E-003;-2.744165947660804E-003;
2.411000000000000E+009;1.822153627872467E-001;2.000428363680840E-002;-2.829737961292267E-003;-2.775804605334997E-003;
2.411166666666667E+009;1.812513172626495E-001;1.785343512892723E-002;-2.891231561079621E-003;-2.616447163745761E-003;
2.411333333333334E+009;1.803879439830780E-001;1.564920507371426E-002;-3.098620334640145E-003;-2.700858982279897E-003;
2.411500000000000E+009;1.794675886631012E-001;1.327922008931637E-002;-3.053734311833978E-003;-2.505691489204764E-003;
2.411666666666667E+009;1.790887415409088E-001;1.082779560238123E-002;-3.100064117461443E-003;-2.425134181976318E-003;
2.411833333333334E+009;1.782034188508987E-001;8.484387770295143E-003;-3.329094033688307E-003;-2.290361560881138E-003;
2.412000000000000E+009;1.782322078943253E-001;5.749524571001530E-003;-3.324233694002032E-003;-2.341753803193569E-003;
2.412166666666667E+009;1.781052798032761E-001;3.292646259069443E-003;-3.365147393196821E-003;-2.143296645954251E-003;
2.412333333333334E+009;1.778288185596466E-001;6.408028420992196E-004;-3.352487226948142E-003;-1.958417939022183E-003;
2.412500000000000E+009;1.780192852020264E-001;-1.932680956088007E-003;-3.424315014854074E-003;-1.924738870002329E-003;
2.412666666666667E+009;1.782510429620743E-001;-4.638410173356533E-003;-3.403702983632684E-003;-1.695141894742847E-003;
2.412833333333334E+009;1.786906570196152E-001;-7.297040428966284E-003;-3.524516476318240E-003;-1.578962663188577E-003;
2.413000000000000E+009;1.793113946914673E-001;-9.856788441538811E-003;-3.463289467617869E-003;-1.548872212879360E-003;
2.413166666666667E+009;1.799044311046600E-001;-1.232988759875298E-002;-3.568332642316818E-003;-1.358721521683037E-003;
2.413333333333334E+009;1.807914525270462E-001;-1.497770100831986E-002;-3.486345056444407E-003;-1.486947643570602E-003;
2.413500000000000E+009;1.815408468246460E-001;-1.756929606199265E-002;-3.624197095632553E-003;-1.207633409649134E-003;
2.413666666666667E+009;1.825319528579712E-001;-2.004129253327847E-002;-3.651033621281385E-003;-1.232610316947103E-003;
2.413833333333334E+009;1.836351305246353E-001;-2.234531193971634E-002;-3.560210345312953E-003;-1.096958294510841E-003;
2.414000000000000E+009;1.846657842397690E-001;-2.468104287981987E-002;-3.612141357734799E-003;-8.689667447470129E-004;
2.414166666666667E+009;1.859811246395111E-001;-2.675672993063927E-002;-3.625539597123861E-003;-9.161398047581315E-004;
2.414333333333334E+009;1.872396171092987E-001;-2.910841442644596E-002;-3.816270967945457E-003;-8.539383416064084E-004;
2.414500000000000E+009;1.886017918586731E-001;-3.079540096223354E-002;-3.602168755605817E-003;-6.086956127546728E-004;
2.414666666666667E+009;1.896840035915375E-001;-3.261156752705574E-002;-3.678459208458662E-003;-5.593238747678697E-004;
2.414833333333334E+009;1.911427378654480E-001;-3.428609669208527E-002;-3.779909340664744E-003;-5.125786992721260E-004;
2.415000000000000E+009;1.923887431621552E-001;-3.593893721699715E-002;-3.836355172097683E-003;-2.120982098858804E-004;
2.415166666666667E+009;1.938610076904297E-001;-3.740945830941200E-002;-3.831330919638276E-003;-2.342205116292462E-004;
2.415333333333334E+009;1.952381879091263E-001;-3.847415372729302E-002;-3.883783472701907E-003;2.843396578100510E-005;
2.415500000000000E+009;1.965880095958710E-001;-3.935023769736290E-002;-4.035419784486294E-003;2.167784259654582E-004;
2.415666666666667E+009;1.978003233671188E-001;-4.047235473990440E-002;-3.872279776260257E-003;2.921117120422423E-004;
2.415833333333334E+009;1.989912539720535E-001;-4.137400910258293E-002;-3.857353702187538E-003;5.445191636681557E-004;
2.416000000000000E+009;2.000315487384796E-001;-4.188590124249458E-002;-3.913426306098700E-003;5.925349541939795E-004;
2.416166666666667E+009;2.011054903268814E-001;-4.272750765085220E-002;-3.777482546865940E-003;9.255264885723591E-004;
2.416333333333334E+009;2.021551281213760E-001;-4.309779778122902E-002;-3.827760927379131E-003;1.089182682335377E-003;
2.416500000000000E+009;2.028870135545731E-001;-4.330950975418091E-002;-3.645780263468623E-003;1.074519939720631E-003;
2.416666666666667E+009;2.035150825977325E-001;-4.376240819692612E-002;-3.446256741881371E-003;1.284391735680401E-003;
2.416833333333334E+009;2.039537727832794E-001;-4.371070116758347E-002;-3.324790624901652E-003;1.446667243726552E-003;
2.417000000000000E+009;2.046032100915909E-001;-4.391915351152420E-002;-3.147254930809140E-003;1.573058427311480E-003;
2.417166666666667E+009;2.047172933816910E-001;-4.366450756788254E-002;-3.053660970181227E-003;1.408346928656101E-003;
2.417333333333334E+009;2.047958672046661E-001;-4.341993853449822E-002;-2.953823190182447E-003;1.638223649933934E-003;
2.417500000000000E+009;2.047392129898071E-001;-4.338626936078072E-002;-2.676540520042181E-003;1.481928047724068E-003;
2.417666666666667E+009;2.045444995164871E-001;-4.302630573511124E-002;-2.809016266837716E-003;1.732013886794448E-003;
2.417833333333334E+009;2.043659687042236E-001;-4.262278974056244E-002;-2.769906073808670E-003;1.528221648186445E-003;
2.418000000000000E+009;2.039730846881867E-001;-4.206763952970505E-002;-2.790216123685241E-003;1.569498796015978E-003;
2.418166666666667E+009;2.034225016832352E-001;-4.186692833900452E-002;-2.697635907679796E-003;1.430113334208727E-003;
2.418333333333334E+009;2.028732001781464E-001;-4.143930971622467E-002;-2.686731517314911E-003;1.504636369645596E-003;
2.418500000000000E+009;2.019063681364059E-001;-4.120391607284546E-002;-2.812441904097796E-003;1.453784876503050E-003;
2.418666666666667E+009;2.012036889791489E-001;-4.086026921868324E-002;-2.690168097615242E-003;1.476873992942274E-003;
2.418833333333334E+009;2.000786215066910E-001;-4.071338847279549E-002;-2.850330201908946E-003;1.581850578077138E-003;
2.419000000000000E+009;1.988213956356049E-001;-4.058477655053139E-002;-2.742146141827107E-003;1.745936810038984E-003;
2.419166666666667E+009;1.977065205574036E-001;-4.065239056944847E-002;-2.832351950928569E-003;1.907844794914126E-003;
2.419333333333334E+009;1.963305771350861E-001;-4.078567400574684E-002;-2.803011564537883E-003;2.176743932068348E-003;
2.419500000000000E+009;1.947804242372513E-001;-4.083422571420670E-002;-2.667902503162623E-003;2.115939278155565E-003;
2.419666666666667E+009;1.930947750806809E-001;-4.137209802865982E-002;-2.739014569669962E-003;2.259574132040143E-003;
2.419833333333334E+009;1.914526522159576E-001;-4.178596287965775E-002;-2.502871444448829E-003;2.466259989887476E-003;
2.420000000000000E+009;1.898366510868073E-001;-4.232274740934372E-002;-2.564206253737211E-003;2.520261099562049E-003;
2.420166666666667E+009;1.879917532205582E-001;-4.317416995763779E-002;-2.374152885749936E-003;2.628580434247851E-003;
2.420333333333334E+009;1.863280832767487E-001;-4.400591924786568E-002;-2.211725572124124E-003;2.842790680006146E-003;
2.420500000000000E+009;1.843888014554977E-001;-4.506773129105568E-002;-2.115498995408416E-003;2.884776331484318E-003;
2.420666666666667E+009;1.824226528406143E-001;-4.599708318710327E-002;-2.221113303676248E-003;2.834323095157743E-003;
2.420833333333334E+009;1.805977672338486E-001;-4.727683216333389E-002;-2.005309797823429E-003;2.813244704157114E-003;
2.421000000000000E+009;1.790272742509842E-001;-4.866613075137138E-002;-1.818012562580407E-003;2.950315829366446E-003;
2.421166666666667E+009;1.771268099546433E-001;-5.020841956138611E-002;-1.768626389093697E-003;2.959952456876636E-003;
2.421333333333334E+009;1.752067208290100E-001;-5.175567790865898E-002;-1.556616974994540E-003;3.054775763303042E-003;
2.421500000000000E+009;1.735368967056274E-001;-5.361657217144966E-002;-1.434181001968682E-003;2.998278476297855E-003;
2.421666666666667E+009;1.719650626182556E-001;-5.546849966049194E-002;-1.344303716905415E-003;3.091375110670924E-003;
2.421833333333334E+009;1.705196350812912E-001;-5.724464729428291E-002;-1.209804322570562E-003;3.197335172444582E-003;
2.422000000000000E+009;1.689907461404800E-001;-5.911512672901154E-002;-1.099343993701041E-003;3.222470404580236E-003;
2.422166666666667E+009;1.680527776479721E-001;-6.147691234946251E-002;-1.214135438203812E-003;3.297596238553524E-003;
2.422333333333334E+009;1.666815727949143E-001;-6.349400430917740E-002;-8.234662818722427E-004;3.300710814073682E-003;
2.422500000000000E+009;1.655338406562805E-001;-6.549095362424851E-002;-7.810608949512243E-004;3.211139934137464E-003;
2.422666666666667E+009;1.645856648683548E-001;-6.768929958343506E-002;-6.981095648370683E-004;3.281726036220789E-003;
2.422833333333334E+009;1.639008224010468E-001;-7.009949535131455E-002;-5.838949582539499E-004;3.241116879507899E-003;
2.423000000000000E+009;1.630029976367950E-001;-7.212571799755096E-002;-3.947071381844580E-004;3.326726146042347E-003;
2.423166666666667E+009;1.626276522874832E-001;-7.424166053533554E-002;-2.449708408676088E-004;3.243002109229565E-003;
2.423333333333334E+009;1.622812300920487E-001;-7.647693157196045E-002;-1.746177440509200E-004;3.157967235893011E-003;
2.423500000000000E+009;1.618003994226456E-001;-7.879918813705444E-002;1.435940357623622E-004;3.115416038781405E-003;
2.423666666666667E+009;1.619475185871124E-001;-8.090818673372269E-002;2.420530508970842E-004;3.173320787027478E-003;
2.423833333333334E+009;1.616961508989334E-001;-8.297637850046158E-002;3.010632644873112E-004;3.055529203265905E-003;
2.424000000000000E+009;1.617441624403000E-001;-8.519012480974197E-002;4.716282710433006E-004;3.009203355759382E-003;
2.424166666666667E+009;1.617777794599533E-001;-8.698370307683945E-002;6.154329166747630E-004;2.759980503469706E-003;
2.424333333333334E+009;1.620716601610184E-001;-8.881506323814392E-002;7.039106567390263E-004;2.790798200294375E-003;
2.424500000000000E+009;1.624235957860947E-001;-9.093616157770157E-002;6.133220158517361E-004;2.739035524427891E-003;
2.424666666666667E+009;1.626788377761841E-001;-9.262742102146149E-002;8.451379253529012E-004;2.644480206072331E-003;
2.424833333333334E+009;1.634133160114288E-001;-9.408777207136154E-002;9.624453377909958E-004;2.431946108117700E-003;
2.425000000000000E+009;1.638409048318863E-001;-9.578610956668854E-002;1.009828760288656E-003;2.379846991971135E-003;
2.425166666666667E+009;1.644135266542435E-001;-9.712824225425720E-002;1.001719734631479E-003;2.363662701100111E-003;
2.425333333333334E+009;1.648132055997849E-001;-9.842344373464584E-002;1.087853801436722E-003;2.093257382512093E-003;
2.425500000000000E+009;1.656091958284378E-001;-9.959059208631516E-002;9.765450377017260E-004;2.131302841007710E-003;
2.425666666666667E+009;1.661807298660278E-001;-1.005050987005234E-001;1.072995248250663E-003;1.956152496859431E-003;
2.425833333333334E+009;1.667737513780594E-001;-1.015736162662506E-001;1.193894539028406E-003;1.878691604360938E-003;
2.426000000000000E+009;1.673697531223297E-001;-1.021926850080490E-001;1.113112200982869E-003;1.697399653494358E-003;
2.426166666666667E+009;1.680281013250351E-001;-1.029503867030144E-001;1.164919813163579E-003;1.751346047967672E-003;
2.426333333333334E+009;1.685812175273895E-001;-1.035609021782875E-001;1.273934845812619E-003;1.761763007380068E-003;
2.426500000000000E+009;1.692238748073578E-001;-1.039489209651947E-001;1.026911078952253E-003;1.758360769599676E-003;
2.426666666666667E+009;1.697240769863129E-001;-1.044081822037697E-001;1.013080240227282E-003;1.561860321089625E-003;
2.426833333333334E+009;1.703745871782303E-001;-1.046851500868797E-001;1.064525567926467E-003;1.683363225311041E-003;
2.427000000000000E+009;1.706752032041550E-001;-1.049067974090576E-001;1.113788224756718E-003;1.557563315145671E-003;
2.427166666666667E+009;1.711181998252869E-001;-1.050605103373528E-001;1.230555819347501E-003;1.591322943568230E-003;
2.427333333333334E+009;1.713120341300964E-001;-1.053548380732536E-001;1.090169651433826E-003;1.410646247677505E-003;
2.427500000000000E+009;1.714283227920532E-001;-1.054760813713074E-001;1.163298962637782E-003;1.354294945485890E-003;
2.427666666666667E+009;1.715487986803055E-001;-1.053717732429504E-001;1.051038270816207E-003;1.341486815363169E-003;
