# Version 1.00
#
freq[Hz];re:Trc1_S11;im:Trc1_S11;re:Trc2_S21;im:Trc2_S21;
2.400000000000000E+009;1.580456644296646E-001;1.121323481202126E-001;4.914515651762486E-003;4.489505954552442E-004;
2.400166666666667E+009;1.574416160583496E-001;1.099739968776703E-001;5.060414317995310E-003;2.035947545664385E-004;
2.400333333333334E+009;1.572177410125732E-001;1.078196540474892E-001;5.031045060604811E-003;-1.270454813493416E-004;
2.400500000000000E+009;1.568296700716019E-001;1.052492260932922E-001;5.084683652967215E-003;-1.888455881271511E-004;
2.400666666666667E+009;1.566454321146011E-001;1.027017831802368E-001;5.152816418558359E-003;-4.360198508948088E-004;
2.400833333333334E+009;1.561670601367950E-001;9.993701428174973E-002;5.220953375101090E-003;-7.265271851792932E-004;
2.401000000000000E+009;1.560177057981491E-001;9.725474566221237E-002;5.104651208966970E-003;-8.049778407439590E-004;
2.401166666666667E+009;1.556965559720993E-001;9.435626119375229E-002;5.163956433534622E-003;-7.068094564601779E-004;
2.401333333333334E+009;1.556290984153748E-001;9.138973802328110E-002;5.038352683186531E-003;-1.146462862379849E-003;
2.401500000000000E+009;1.557934135198593E-001;8.826337009668350E-002;5.043593235313892E-003;-1.178204431198537E-003;
2.401666666666667E+009;1.558166444301605E-001;8.520825207233429E-002;4.981798119843006E-003;-1.486956141889095E-003;
2.401833333333334E+009;1.558831334114075E-001;8.228015899658203E-002;5.105826072394848E-003;-1.615764689631760E-003;
2.402000000000000E+009;1.564091742038727E-001;7.915620505809784E-002;5.191132891923189E-003;-1.783442567102611E-003;
2.402166666666667E+009;1.570647209882736E-001;7.642546296119690E-002;5.078727379441261E-003;-2.032824093475938E-003;
2.402333333333334E+009;1.575864851474762E-001;7.321574538946152E-002;5.207150708884001E-003;-2.072318224236369E-003;
2.402500000000000E+009;1.585193127393723E-001;7.066845893859863E-002;5.119699519127607E-003;-2.219425747171044E-003;
2.402666666666667E+009;1.594006866216660E-001;6.790742278099060E-002;4.989348351955414E-003;-2.519012195989490E-003;
2.402833333333334E+009;1.606121212244034E-001;6.506671756505966E-002;4.882627632468939E-003;-2.886766102164984E-003;
2.403000000000000E+009;1.618846207857132E-001;6.234667077660561E-002;4.955278243869543E-003;-2.931459341198206E-003;
2.403166666666667E+009;1.635268628597260E-001;5.980353429913521E-002;4.987205844372511E-003;-3.327309153974056E-003;
2.403333333333334E+009;1.649372726678848E-001;5.711883679032326E-002;4.796283785253763E-003;-3.404759569093585E-003;
2.403500000000000E+009;1.665711551904678E-001;5.464981496334076E-002;4.701764322817326E-003;-3.931493498384953E-003;
2.403666666666667E+009;1.682936102151871E-001;5.242279171943665E-002;4.629654344171286E-003;-4.073342308402062E-003;
2.403833333333334E+009;1.700255423784256E-001;5.009859800338745E-002;4.373919684439898E-003;-4.250538069754839E-003;
2.404000000000000E+009;1.714525073766708E-001;4.799579828977585E-002;4.264668561518192E-003;-4.583802074193955E-003;
2.404166666666667E+009;1.734192222356796E-001;4.612120613455772E-002;4.136334173381329E-003;-4.958425648510456E-003;
2.404333333333334E+009;1.752906441688538E-001;4.419785737991333E-002;3.726351540535688E-003;-5.112229846417904E-003;
2.404500000000000E+009;1.770650446414948E-001;4.238153621554375E-002;3.506044857203960E-003;-5.220072343945503E-003;
2.404666666666667E+009;1.787267178297043E-001;4.109494760632515E-002;3.251748159527779E-003;-5.607550963759422E-003;
2.404833333333334E+009;1.805781871080399E-001;3.953396156430244E-002;2.879807725548744E-003;-5.596464034169912E-003;
2.405000000000000E+009;1.822524219751358E-001;3.866510465741158E-002;2.590437885373831E-003;-5.675747059285641E-003;
2.405166666666667E+009;1.839977502822876E-001;3.758159279823303E-002;2.357047051191330E-003;-6.007327232509852E-003;
2.405333333333334E+009;1.856241077184677E-001;3.690280392765999E-002;1.946721458807588E-003;-5.979920737445355E-003;
2.405500000000000E+009;1.874288767576218E-001;3.631094843149185E-002;1.759642967954278E-003;-6.179526448249817E-003;
2.405666666666667E+009;1.888793557882309E-001;3.582250699400902E-002;1.322639407590032E-003;-6.119181402027607E-003;
2.405833333333334E+009;1.904288083314896E-001;3.547876328229904E-002;9.971261024475098E-004;-6.142888683825731E-003;
2.406000000000000E+009;1.915889233350754E-001;3.509419038891792E-002;6.967683439143002E-004;-6.052505224943161E-003;
2.406166666666667E+009;1.931522339582443E-001;3.495036065578461E-002;4.039341583848000E-004;-5.904972553253174E-003;
2.406333333333334E+009;1.943081915378571E-001;3.491733223199844E-002;1.950442529050633E-004;-5.914982408285141E-003;
2.406500000000000E+009;1.953845173120499E-001;3.510623052716255E-002;-5.697558299289085E-005;-5.857505369931459E-003;
2.406666666666667E+009;1.963173300027847E-001;3.525977209210396E-002;-2.667522639967501E-004;-5.756926722824574E-003;
2.406833333333334E+009;1.971431970596314E-001;3.535573557019234E-002;-5.091162165626884E-004;-5.580030847340822E-003;
2.407000000000000E+009;1.979042142629623E-001;3.571464866399765E-002;-7.672054925933480E-004;-5.606998223811388E-003;
2.407166666666667E+009;1.986043900251389E-001;3.581494837999344E-002;-9.834356606006622E-004;-5.454920232295990E-003;
2.407333333333334E+009;1.987963318824768E-001;3.609091788530350E-002;-1.113918842747808E-003;-5.358625203371048E-003;
2.407500000000000E+009;1.991435885429382E-001;3.656926006078720E-002;-1.273497589863837E-003;-5.415868479758501E-003;
2.407666666666667E+009;1.993141174316406E-001;3.668338432908058E-002;-1.591773587279022E-003;-5.147346295416355E-003;
2.407833333333334E+009;1.991754323244095E-001;3.693375736474991E-002;-1.639436697587371E-003;-4.982549697160721E-003;
2.408000000000000E+009;1.994128525257111E-001;3.713959828019142E-002;-1.913232379592955E-003;-4.921935498714447E-003;
2.408166666666667E+009;1.988821923732758E-001;3.710839524865151E-002;-2.049643080681562E-003;-4.815641790628433E-003;
2.408333333333334E+009;1.986044645309448E-001;3.712983056902885E-002;-2.224584575742483E-003;-4.589453805238009E-003;
2.408500000000000E+009;1.981871277093887E-001;3.719911351799965E-002;-2.410141052678227E-003;-4.424145445227623E-003;
2.408666666666667E+009;1.973612606525421E-001;3.716346621513367E-002;-2.355227945372462E-003;-4.175131674855948E-003;
2.408833333333334E+009;1.966781169176102E-001;3.661139681935310E-002;-2.522403374314308E-003;-3.891293657943606E-003;
2.409000000000000E+009;1.957603842020035E-001;3.626602515578270E-002;-2.476126654073596E-003;-3.786357352510095E-003;
2.409166666666667E+009;1.947280317544937E-001;3.566971793770790E-002;-2.482758369296789E-003;-3.735475707799196E-003;
2.409333333333334E+009;1.939511895179749E-001;3.505171090364456E-002;-2.604125300422311E-003;-3.552630310878158E-003;
2.409500000000000E+009;1.926610022783279E-001;3.420545160770416E-002;-2.502207411453128E-003;-3.421699162572622E-003;
2.409666666666667E+009;1.914079636335373E-001;3.329045325517654E-002;-2.535611623898149E-003;-3.224357264116406E-003;
2.409833333333334E+009;1.903300434350967E-001;3.220701217651367E-002;-2.564950613304973E-003;-3.077656496316195E-003;
2.410000000000000E+009;1.891730278730393E-001;3.081567957997322E-002;-2.510571386665106E-003;-3.191922791302204E-003;
2.410166666666667E+009;1.878968775272369E-001;2.936024218797684E-002;-2.482795855030417E-003;-3.255184041336179E-003;
2.410333333333334E+009;1.866320967674255E-001;2.789538726210594E-002;-2.679457655176520E-003;-3.172109369188547E-003;
2.410500000000000E+009;1.852473467588425E-001;2.626042813062668E-002;-2.783819800242782E-003;-3.203626722097397E-003;
2.410666666666667E+009;1.841891109943390E-001;2.414638176560402E-002;-2.771798986941576E-003;-3.007935825735331E-003;
2.410833333333334E+009;1.831913143396378E-001;2.214900404214859E-002;-2.888300921767950E-003;-3.062749281525612E-003;
2.411000000000000E+009;1.820781379938126E-001;2.011420391499996E-002;-3.108006902039051E-003;-2.939494559541345E-003;
2.411166666666667E+009;1.811965852975845E-001;1.810898073017597E-002;-3.202057210728526E-003;-2.853782149031758E-003;
2.411333333333334E+009;1.802645176649094E-001;1.567699946463108E-002;-3.066417062655091E-003;-2.919536782428622E-003;
2.411500000000000E+009;1.795359998941422E-001;1.332946866750717E-002;-3.221062710508704E-003;-2.749005798250437E-003;
2.411666666666667E+009;1.788661628961563E-001;1.093671843409538E-002;-3.309612162411213E-003;-2.634737174957991E-003;
2.411833333333334E+009;1.782229989767075E-001;8.467804640531540E-003;-3.376295091584325E-003;-2.483368851244450E-003;
2.412000000000000E+009;1.781398355960846E-001;5.775856319814920E-003;-3.453877754509449E-003;-2.378306118771434E-003;
2.412166666666667E+009;1.778099983930588E-001;3.444855799898505E-003;-3.525454550981522E-003;-2.259687054902315E-003;
2.412333333333334E+009;1.776429414749146E-001;7.974320324137807E-004;-3.484574379399419E-003;-2.171907341107726E-003;
2.412500000000000E+009;1.779619008302689E-001;-1.908056787215173E-003;-3.594609210267663E-003;-1.954849576577544E-003;
2.412666666666667E+009;1.781234592199326E-001;-4.554212559014559E-003;-3.719709813594818E-003;-1.882261596620083E-003;
2.412833333333334E+009;1.785728633403778E-001;-7.140202447772026E-003;-3.681908361613751E-003;-1.679825130850077E-003;
2.413000000000000E+009;1.791280955076218E-001;-9.715779684484005E-003;-3.695545950904489E-003;-1.561522483825684E-003;
2.413166666666667E+009;1.797184944152832E-001;-1.234110537916422E-002;-3.663175739347935E-003;-1.479330356232822E-003;
2.413333333333334E+009;1.807025074958801E-001;-1.496840827167034E-002;-3.824112005531788E-003;-1.405150513164699E-003;
2.413500000000000E+009;1.814571768045425E-001;-1.734404638409615E-002;-3.800355829298496E-003;-1.348174409940839E-003;
2.413666666666667E+009;1.827190220355988E-001;-1.985937170684338E-002;-3.975489642471075E-003;-1.198985730297864E-003;
2.413833333333334E+009;1.836878657341003E-001;-2.228656783699989E-002;-3.937494009733200E-003;-1.065494492650032E-003;
2.414000000000000E+009;1.846305578947067E-001;-2.465270087122917E-002;-3.956456668674946E-003;-9.900793666020036E-004;
2.414166666666667E+009;1.860113292932510E-001;-2.671561948955059E-002;-3.803402651101351E-003;-8.974046213552356E-004;
2.414333333333334E+009;1.870811879634857E-001;-2.896907739341259E-002;-3.988231066614389E-003;-6.481334567070007E-004;
2.414500000000000E+009;1.884216368198395E-001;-3.081922791898251E-002;-3.970455843955278E-003;-7.170426542870700E-004;
2.414666666666667E+009;1.896545290946960E-001;-3.248986229300499E-002;-3.921447321772575E-003;-5.988273187540472E-004;
2.414833333333334E+009;1.911591440439224E-001;-3.427083045244217E-002;-3.945870790630579E-003;-3.941519826184958E-004;
2.415000000000000E+009;1.922685950994492E-001;-3.572696074843407E-002;-3.937226720154285E-003;-3.779926628340036E-004;
2.415166666666667E+009;1.937682032585144E-001;-3.716512396931648E-002;-4.133746959269047E-003;-4.962455932400189E-005;
2.415333333333334E+009;1.951792538166046E-001;-3.843258321285248E-002;-4.091033712029457E-003;-9.839281847234815E-005;
2.415500000000000E+009;1.964893937110901E-001;-3.930139169096947E-002;-4.044522531330586E-003;2.192870597355068E-004;
2.415666666666667E+009;1.978068947792053E-001;-4.040845111012459E-002;-4.116417840123177E-003;3.948069061152637E-004;
2.415833333333334E+009;1.989744454622269E-001;-4.121090471744537E-002;-4.091920331120491E-003;4.102991370018572E-004;
2.416000000000000E+009;2.000254094600678E-001;-4.189984127879143E-002;-4.140332341194153E-003;8.191689266823232E-004;
2.416166666666667E+009;2.011962085962296E-001;-4.264893382787705E-002;-4.116275813430548E-003;9.058284340426326E-004;
2.416333333333334E+009;2.020947933197022E-001;-4.297079890966415E-002;-3.900332143530250E-003;1.154310069978237E-003;
2.416500000000000E+009;2.029616534709930E-001;-4.333233460783958E-002;-3.835982643067837E-003;1.127736526541412E-003;
2.416666666666667E+009;2.036979347467423E-001;-4.360261186957359E-002;-3.592031542211771E-003;1.480156090110540E-003;
2.416833333333334E+009;2.040523737668991E-001;-4.371771588921547E-002;-3.476334968581796E-003;1.562671852298081E-003;
2.417000000000000E+009;2.046466618776321E-001;-4.379682987928391E-002;-3.349755425006151E-003;1.615271554328501E-003;
2.417166666666667E+009;2.046699076890945E-001;-4.367909207940102E-002;-3.143942682072520E-003;1.690660952590406E-003;
2.417333333333334E+009;2.047962248325348E-001;-4.341892153024674E-002;-3.182224696502090E-003;1.604386256076396E-003;
2.417500000000000E+009;2.048541307449341E-001;-4.349779337644577E-002;-2.893855795264244E-003;1.640851376578212E-003;
2.417666666666667E+009;2.046188563108444E-001;-4.304918646812439E-002;-2.780698705464602E-003;1.602486358024180E-003;
2.417833333333334E+009;2.045387774705887E-001;-4.263855889439583E-002;-2.799835288897157E-003;1.491702743805945E-003;
2.418000000000000E+009;2.039730548858643E-001;-4.216592013835907E-002;-2.763466909527779E-003;1.528403139673173E-003;
2.418166666666667E+009;2.035774588584900E-001;-4.194831103086472E-002;-2.938189310953021E-003;1.516798743978143E-003;
2.418333333333334E+009;2.028347104787827E-001;-4.154108092188835E-002;-2.881406806409359E-003;1.467793248593807E-003;
2.418500000000000E+009;2.020168453454971E-001;-4.130855575203896E-002;-2.897203201428056E-003;1.704346155747771E-003;
2.418666666666667E+009;2.013321667909622E-001;-4.091794788837433E-002;-2.889000577852130E-003;1.904020435176790E-003;
2.418833333333334E+009;2.000651061534882E-001;-4.086650907993317E-002;-2.962972503155470E-003;1.713624689728022E-003;
2.419000000000000E+009;1.989120841026306E-001;-4.082295671105385E-002;-2.918598707765341E-003;2.006217604503036E-003;
2.419166666666667E+009;1.977595090866089E-001;-4.075289145112038E-002;-2.792868763208389E-003;2.053943462669849E-003;
2.419333333333334E+009;1.963741183280945E-001;-4.094526171684265E-002;-2.766950288787484E-003;2.068871632218361E-003;
2.419500000000000E+009;1.948120146989822E-001;-4.107993096113205E-002;-2.845163224264979E-003;2.243058755993843E-003;
2.419666666666667E+009;1.932396590709686E-001;-4.151719808578491E-002;-2.717285649850965E-003;2.434718655422330E-003;
2.419833333333334E+009;1.915338188409805E-001;-4.185837134718895E-002;-2.728382358327508E-003;2.609834773465991E-003;
2.420000000000000E+009;1.899079233407974E-001;-4.258053004741669E-002;-2.444481477141380E-003;2.642105333507061E-003;
2.420166666666667E+009;1.882232129573822E-001;-4.309728369116783E-002;-2.501070499420166E-003;2.667570021003485E-003;
2.420333333333334E+009;1.864056885242462E-001;-4.403598979115486E-002;-2.247720723971725E-003;2.843916881829500E-003;
2.420500000000000E+009;1.844003051519394E-001;-4.510106146335602E-002;-2.092376817017794E-003;3.022528719156981E-003;
2.420666666666667E+009;1.824506521224976E-001;-4.602663964033127E-002;-2.115539973601699E-003;2.925008768215776E-003;
2.420833333333334E+009;1.805469840764999E-001;-4.738487303256989E-002;-1.995468279346824E-003;3.123119939118624E-003;
2.421000000000000E+009;1.788681298494339E-001;-4.884264618158341E-002;-2.000281587243080E-003;3.148151561617851E-003;
2.421166666666667E+009;1.771797090768814E-001;-5.035067722201347E-002;-1.686497009359300E-003;3.176546189934015E-003;
2.421333333333334E+009;1.751219332218170E-001;-5.186652392148972E-002;-1.568281091749668E-003;3.128525335341692E-003;
2.421500000000000E+009;1.736898571252823E-001;-5.372536182403565E-002;-1.635314896702766E-003;3.262471407651901E-003;
2.421666666666667E+009;1.720676273107529E-001;-5.538146197795868E-002;-1.342152012512088E-003;3.211771138012409E-003;
2.421833333333334E+009;1.705665290355682E-001;-5.738476291298866E-002;-1.319650444202125E-003;3.290115389972925E-003;
2.422000000000000E+009;1.691766977310181E-001;-5.935157462954521E-002;-1.129149808548391E-003;3.481061663478613E-003;
2.422166666666667E+009;1.679025739431381E-001;-6.149832904338837E-002;-1.036474946886301E-003;3.520280588418245E-003;
2.422333333333334E+009;1.665152460336685E-001;-6.365765631198883E-002;-9.647689876146615E-004;3.468534210696816E-003;
2.422500000000000E+009;1.654988080263138E-001;-6.558125466108322E-002;-7.847589440643787E-004;3.525355597957969E-003;
2.422666666666667E+009;1.646025776863098E-001;-6.781078130006790E-002;-4.732412344310433E-004;3.464453620836139E-003;
2.422833333333334E+009;1.638405770063400E-001;-6.998330354690552E-002;-3.976908046752214E-004;3.483217675238848E-003;
2.423000000000000E+009;1.631911993026733E-001;-7.239226996898651E-002;-3.468078793957830E-004;3.440486732870340E-003;
2.423166666666667E+009;1.625327467918396E-001;-7.443843781948090E-002;-5.953234722255729E-005;3.484433749690652E-003;
2.423333333333334E+009;1.621307432651520E-001;-7.669135928153992E-002;8.833541505737230E-005;3.491220297291875E-003;
2.423500000000000E+009;1.618141680955887E-001;-7.883927971124649E-002;7.473145524272695E-005;3.424921771511436E-003;
2.423666666666667E+009;1.618600487709045E-001;-8.104264736175537E-002;3.679979126900435E-004;3.281234065070748E-003;
2.423833333333334E+009;1.615921407938004E-001;-8.299859613180161E-002;5.029753083363175E-004;3.314707661047578E-003;
2.424000000000000E+009;1.616976261138916E-001;-8.516021817922592E-002;5.352902226150036E-004;3.290772438049316E-003;
2.424166666666667E+009;1.618223637342453E-001;-8.700398355722427E-002;6.702007376588881E-004;3.180409781634808E-003;
2.424333333333334E+009;1.620132029056549E-001;-8.897128701210022E-002;8.216206333599985E-004;2.910747425630689E-003;
2.424500000000000E+009;1.623415499925613E-001;-9.097325801849365E-002;7.618513773195446E-004;3.053258405998349E-003;
2.424666666666667E+009;1.627520322799683E-001;-9.259876608848572E-002;1.034185639582574E-003;2.829198958352208E-003;
2.424833333333334E+009;1.632444113492966E-001;-9.421670436859131E-002;1.050043385475874E-003;2.540654502809048E-003;
2.425000000000000E+009;1.636155843734741E-001;-9.571956843137741E-002;1.111797988414764E-003;2.573293633759022E-003;
2.425166666666667E+009;1.643178611993790E-001;-9.720190614461899E-002;1.140418113209307E-003;2.460004761815071E-003;
2.425333333333334E+009;1.647255718708038E-001;-9.835480898618698E-002;1.291625783778727E-003;2.376975025981665E-003;
2.425500000000000E+009;1.653618812561035E-001;-9.962698072195053E-002;1.407632953487337E-003;2.263823756948113E-003;
2.425666666666667E+009;1.661067456007004E-001;-1.006009653210640E-001;1.372734201140702E-003;2.209977712482214E-003;
2.425833333333334E+009;1.665326952934265E-001;-1.015528589487076E-001;1.194108277559280E-003;2.150672255083919E-003;
2.426000000000000E+009;1.673209816217423E-001;-1.021830812096596E-001;1.311133848503232E-003;2.094561234116554E-003;
2.426166666666667E+009;1.679588407278061E-001;-1.028753370046616E-001;1.243363134562969E-003;1.750090741552413E-003;
2.426333333333334E+009;1.684461683034897E-001;-1.035823971033096E-001;1.134200952947140E-003;1.814621733501554E-003;
2.426500000000000E+009;1.691281497478485E-001;-1.039520874619484E-001;1.378077082335949E-003;1.927792443893850E-003;
2.426666666666667E+009;1.697052419185638E-001;-1.043489053845406E-001;1.329398597590625E-003;1.656763372011483E-003;
2.426833333333334E+009;1.702484339475632E-001;-1.047468259930611E-001;1.288570114411414E-003;1.588566112332046E-003;
2.427000000000000E+009;1.706653088331223E-001;-1.049096882343292E-001;1.359366811811924E-003;1.665643649175763E-003;
2.427166666666667E+009;1.710773259401321E-001;-1.050475090742111E-001;1.292274799197912E-003;1.554782968014479E-003;
2.427333333333334E+009;1.713089644908905E-001;-1.052511855959892E-001;1.428021234460175E-003;1.467484631575644E-003;
2.427500000000000E+009;1.713391840457916E-001;-1.053239256143570E-001;1.407442032359541E-003;1.436264603398740E-003;
2.427666666666667E+009;1.713562309741974E-001;-1.052767038345337E-001;1.228961511515081E-003;1.535764313302934E-003;
