# Version 1.00
#
freq[Hz];re:Trc1_S11;im:Trc1_S11;re:Trc2_S21;im:Trc2_S21;
2.400000000000000E+009;1.580254733562470E-001;1.121338903903961E-001;4.476417321711779E-003;7.693644729442895E-004;
2.400166666666667E+009;1.573894172906876E-001;1.099603623151779E-001;4.700129851698875E-003;4.317842249292880E-004;
2.400333333333334E+009;1.570836603641510E-001;1.078186333179474E-001;4.757239948958159E-003;2.909281465690583E-004;
2.400500000000000E+009;1.567021012306213E-001;1.051325350999832E-001;4.675265401601791E-003;4.045147215947509E-005;
2.400666666666667E+009;1.564299464225769E-001;1.026675403118134E-001;4.906698130071163E-003;-1.632887433515862E-004;
2.400833333333334E+009;1.559713780879974E-001;9.985861182212830E-002;4.721235018223524E-003;-3.001250734087080E-004;
2.401000000000000E+009;1.558354049921036E-001;9.710183739662170E-002;4.805714357644320E-003;-3.656273765955120E-004;
2.401166666666667E+009;1.556647717952728E-001;9.423369169235230E-002;4.807132761925459E-003;-5.695115542039275E-004;
2.401333333333334E+009;1.556828320026398E-001;9.132755547761917E-002;4.764626733958721E-003;-8.604448521509767E-004;
2.401500000000000E+009;1.557224690914154E-001;8.836122602224350E-002;4.817589651793242E-003;-1.130071817897260E-003;
2.401666666666667E+009;1.556596159934998E-001;8.513863384723663E-002;4.786812700331211E-003;-1.203313819132745E-003;
2.401833333333334E+009;1.557598114013672E-001;8.239875733852387E-002;4.835967905819416E-003;-1.289658248424530E-003;
2.402000000000000E+009;1.563480198383331E-001;7.936585694551468E-002;4.659139085561037E-003;-1.446159789338708E-003;
2.402166666666667E+009;1.569275707006455E-001;7.664257287979126E-002;4.823419731110334E-003;-1.721582724712789E-003;
2.402333333333334E+009;1.574943214654923E-001;7.343545556068420E-002;4.891053307801485E-003;-1.924856449477375E-003;
2.402500000000000E+009;1.584944128990173E-001;7.055058330297470E-002;4.890554118901491E-003;-1.988474279642105E-003;
2.402666666666667E+009;1.595507413148880E-001;6.791737675666809E-002;4.839109256863594E-003;-2.115485724061728E-003;
2.402833333333334E+009;1.605488061904907E-001;6.526889652013779E-002;4.555686376988888E-003;-2.520721638575196E-003;
2.403000000000000E+009;1.619652956724167E-001;6.237850710749626E-002;4.842146299779415E-003;-2.662450773641467E-003;
2.403166666666667E+009;1.634584367275238E-001;5.987041071057320E-002;4.659355618059635E-003;-2.735364018008113E-003;
2.403333333333334E+009;1.648694425821304E-001;5.724547430872917E-002;4.692193586379290E-003;-3.231399692595005E-003;
2.403500000000000E+009;1.665956377983093E-001;5.479627102613449E-002;4.654163960367441E-003;-3.481763647869229E-003;
2.403666666666667E+009;1.683920323848724E-001;5.252832174301148E-002;4.548745229840279E-003;-3.673539729788899E-003;
2.403833333333334E+009;1.703091114759445E-001;5.019229650497437E-002;4.356641788035631E-003;-3.907993901520968E-003;
2.404000000000000E+009;1.716201901435852E-001;4.804116487503052E-002;4.264604765921831E-003;-4.032018594443798E-003;
2.404166666666667E+009;1.734472513198853E-001;4.624307528138161E-002;3.876463742926717E-003;-4.403597675263882E-003;
2.404333333333334E+009;1.753233522176743E-001;4.424951225519180E-002;3.836787538602948E-003;-4.718115553259850E-003;
2.404500000000000E+009;1.771451681852341E-001;4.239317774772644E-002;3.556698793545365E-003;-4.918041173368692E-003;
2.404666666666667E+009;1.787821650505066E-001;4.108249768614769E-002;3.375117201358080E-003;-5.116072483360767E-003;
2.404833333333334E+009;1.807377040386200E-001;3.963309898972511E-002;2.946730470284820E-003;-5.175809841603041E-003;
2.405000000000000E+009;1.822796911001205E-001;3.877162933349609E-002;2.780946670100093E-003;-5.345584359019995E-003;
2.405166666666667E+009;1.839903891086578E-001;3.779761493206024E-002;2.363945357501507E-003;-5.490797106176615E-003;
2.405333333333334E+009;1.857407540082932E-001;3.710168600082398E-002;2.055671066045761E-003;-5.643939133733511E-003;
2.405500000000000E+009;1.874332576990128E-001;3.631106019020081E-002;1.762822852469981E-003;-5.683586467057467E-003;
2.405666666666667E+009;1.887719780206680E-001;3.587514162063599E-002;1.421520602889359E-003;-5.694387946277857E-003;
2.405833333333334E+009;1.904320120811462E-001;3.543190658092499E-002;1.014550216495991E-003;-5.686360877007246E-003;
2.406000000000000E+009;1.917972713708878E-001;3.524455428123474E-002;9.136080625467002E-004;-5.904381629079580E-003;
2.406166666666667E+009;1.930806636810303E-001;3.511890396475792E-002;7.292643422260881E-004;-5.577023606747389E-003;
2.406333333333334E+009;1.944854110479355E-001;3.513992205262184E-002;5.490052863024175E-004;-5.598411429673433E-003;
2.406500000000000E+009;1.954710185527802E-001;3.529202938079834E-002;1.311176165472716E-004;-5.365075543522835E-003;
2.406666666666667E+009;1.964711695909500E-001;3.534024208784103E-002;-1.761852035997436E-004;-5.418255925178528E-003;
2.406833333333334E+009;1.972847878932953E-001;3.544826060533524E-002;-3.122683847323060E-004;-5.531976465135813E-003;
2.407000000000000E+009;1.978317648172379E-001;3.586542978882790E-002;-5.884823040105403E-004;-5.306448321789503E-003;
2.407166666666667E+009;1.986400485038757E-001;3.588007017970085E-002;-8.318677428178489E-004;-5.141532514244318E-003;
2.407333333333334E+009;1.988847702741623E-001;3.631465137004852E-002;-9.683911339379847E-004;-5.130365025252104E-003;
2.407500000000000E+009;1.990933567285538E-001;3.675463423132896E-002;-1.092267106287181E-003;-4.990051966160536E-003;
2.407666666666667E+009;1.993269473314285E-001;3.687163069844246E-002;-1.330399187281728E-003;-4.846361465752125E-003;
2.407833333333334E+009;1.992315948009491E-001;3.716559335589409E-002;-1.605981262400746E-003;-4.757328890264034E-003;
2.408000000000000E+009;1.993954479694367E-001;3.741110488772392E-002;-1.638132613152266E-003;-4.723846912384033E-003;
2.408166666666667E+009;1.988968104124069E-001;3.732748329639435E-002;-1.787586254067719E-003;-4.625102970749140E-003;
2.408333333333334E+009;1.986999809741974E-001;3.734629973769188E-002;-2.025631023570895E-003;-4.380684811621904E-003;
2.408500000000000E+009;1.981214731931686E-001;3.745396807789803E-002;-2.092440612614155E-003;-4.203179851174355E-003;
2.408666666666667E+009;1.975320577621460E-001;3.726188465952873E-002;-2.213618485257030E-003;-4.026419483125210E-003;
2.408833333333334E+009;1.968833655118942E-001;3.688389807939529E-002;-2.285795984789729E-003;-3.760442370548844E-003;
2.409000000000000E+009;1.959201842546463E-001;3.640539944171906E-002;-2.263014204800129E-003;-3.622581483796239E-003;
2.409166666666667E+009;1.949974894523621E-001;3.585990890860558E-002;-2.314038341864944E-003;-3.549846820533276E-003;
2.409333333333334E+009;1.939926296472549E-001;3.524980694055557E-002;-2.423573983833194E-003;-3.336763009428978E-003;
2.409500000000000E+009;1.928586661815643E-001;3.447154909372330E-002;-2.398678567260504E-003;-3.390005556866527E-003;
2.409666666666667E+009;1.916210502386093E-001;3.332306444644928E-002;-2.328770700842142E-003;-3.223847597837448E-003;
2.409833333333334E+009;1.904337704181671E-001;3.211994469165802E-002;-2.327848924323916E-003;-3.191413125023246E-003;
2.410000000000000E+009;1.893049031496048E-001;3.095457144081593E-002;-2.246663905680180E-003;-3.111646976321936E-003;
2.410166666666667E+009;1.880691945552826E-001;2.952011488378048E-002;-2.269927645102143E-003;-3.128940239548683E-003;
2.410333333333334E+009;1.867216229438782E-001;2.787341177463532E-002;-2.386685693636537E-003;-2.987663727253676E-003;
2.410500000000000E+009;1.854047328233719E-001;2.624567225575447E-002;-2.439927542582154E-003;-3.054817905649543E-003;
2.410666666666667E+009;1.845065802335739E-001;2.420740015804768E-002;-2.303045475855470E-003;-2.987025305628777E-003;
2.410833333333334E+009;1.834036111831665E-001;2.221977524459362E-002;-2.554225036874414E-003;-2.970895962789655E-003;
2.411000000000000E+009;1.823368519544601E-001;2.001872658729553E-002;-2.661227481439710E-003;-2.946472493931651E-003;
2.411166666666667E+009;1.812827885150909E-001;1.794393733143807E-002;-2.775150351226330E-003;-2.875837497413158E-003;
2.411333333333334E+009;1.805071681737900E-001;1.553150545805693E-002;-2.855462022125721E-003;-2.633817028254271E-003;
2.411500000000000E+009;1.795861124992371E-001;1.327746454626322E-002;-2.961643273010850E-003;-2.658233745023608E-003;
2.411666666666667E+009;1.791554838418961E-001;1.084309164434671E-002;-3.022940363734961E-003;-2.592297038063407E-003;
2.411833333333334E+009;1.784118264913559E-001;8.325343020260334E-003;-2.978452714160085E-003;-2.472975524142385E-003;
2.412000000000000E+009;1.782356351613998E-001;5.690653808414936E-003;-3.167325863614678E-003;-2.373064635321498E-003;
2.412166666666667E+009;1.779858767986298E-001;3.429276635870338E-003;-3.281055483967066E-003;-2.240211237221956E-003;
2.412333333333334E+009;1.778892129659653E-001;5.979851703159511E-004;-3.288456471636891E-003;-2.153655979782343E-003;
2.412500000000000E+009;1.779727935791016E-001;-1.901345793157816E-003;-3.333840752020478E-003;-1.955556217581034E-003;
2.412666666666667E+009;1.783687919378281E-001;-4.602168221026659E-003;-3.432498546317220E-003;-1.868622028268874E-003;
2.412833333333334E+009;1.786688119173050E-001;-7.245051674544811E-003;-3.424291033297777E-003;-1.903749187476933E-003;
2.413000000000000E+009;1.792705506086350E-001;-9.960452094674110E-003;-3.539156867191196E-003;-1.703368267044425E-003;
2.413166666666667E+009;1.799030452966690E-001;-1.233588065952063E-002;-3.390757134184241E-003;-1.807566499337554E-003;
2.413333333333334E+009;1.808389127254486E-001;-1.490523666143417E-002;-3.494033589959145E-003;-1.453975681215525E-003;
2.413500000000000E+009;1.814741045236588E-001;-1.759061217308044E-002;-3.556743962690234E-003;-1.379271270707250E-003;
2.413666666666667E+009;1.826418787240982E-001;-2.001895569264889E-002;-3.590425709262490E-003;-1.395099679939449E-003;
2.413833333333334E+009;1.836695224046707E-001;-2.252469211816788E-002;-3.456416307017207E-003;-1.154659083113074E-003;
2.414000000000000E+009;1.849179565906525E-001;-2.490437775850296E-002;-3.696512663736939E-003;-1.134683378040791E-003;
2.414166666666667E+009;1.861055940389633E-001;-2.690860629081726E-002;-3.773971460759640E-003;-1.051621744409204E-003;
2.414333333333334E+009;1.873130649328232E-001;-2.908637002110481E-002;-3.687146585434675E-003;-1.045987010002136E-003;
2.414500000000000E+009;1.885531246662140E-001;-3.087721578776836E-002;-3.659431356936693E-003;-8.871720056049526E-004;
2.414666666666667E+009;1.897978931665421E-001;-3.267804905772209E-002;-3.702474758028984E-003;-6.945575005374849E-004;
2.414833333333334E+009;1.911964118480682E-001;-3.448966518044472E-002;-3.753502387553453E-003;-7.670365157537162E-004;
2.415000000000000E+009;1.923678815364838E-001;-3.587390854954720E-002;-3.969035111367703E-003;-4.817206645384431E-004;
2.415166666666667E+009;1.938058435916901E-001;-3.740779682993889E-002;-3.938966430723667E-003;-4.283269518055022E-004;
2.415333333333334E+009;1.952274739742279E-001;-3.861852362751961E-002;-3.763916436582804E-003;-2.293754223501310E-004;
2.415500000000000E+009;1.965004056692123E-001;-3.946952149271965E-002;-4.050685092806816E-003;-7.375946006504819E-005;
2.415666666666667E+009;1.979332119226456E-001;-4.069259017705917E-002;-4.097866825759411E-003;-7.571403693873435E-005;
2.415833333333334E+009;1.990752369165421E-001;-4.136750474572182E-002;-3.969307988882065E-003;1.938503555720672E-004;
2.416000000000000E+009;2.000361829996109E-001;-4.198902100324631E-002;-3.899782663211227E-003;4.080238286405802E-004;
2.416166666666667E+009;2.011164575815201E-001;-4.287885129451752E-002;-3.842202480882406E-003;5.701369955204427E-004;
2.416333333333334E+009;2.021375447511673E-001;-4.307585209608078E-002;-3.807815955951810E-003;8.495976217091084E-004;
2.416500000000000E+009;2.029990255832672E-001;-4.340110719203949E-002;-3.693989478051662E-003;1.035896595567465E-003;
2.416666666666667E+009;2.035310864448547E-001;-4.388809204101563E-002;-3.548310138285160E-003;1.244459301233292E-003;
2.416833333333334E+009;2.040981054306030E-001;-4.384489357471466E-002;-3.595167072489858E-003;1.412444515153766E-003;
2.417000000000000E+009;2.045693397521973E-001;-4.392626136541367E-002;-3.325295634567738E-003;1.486138324253261E-003;
2.417166666666667E+009;2.046091109514237E-001;-4.381116479635239E-002;-3.252865048125386E-003;1.374360406771302E-003;
2.417333333333334E+009;2.047157138586044E-001;-4.349511861801148E-002;-3.057451220229268E-003;1.316865207627416E-003;
2.417500000000000E+009;2.048123031854630E-001;-4.343923926353455E-002;-2.932064468041062E-003;1.343802199698985E-003;
2.417666666666667E+009;2.045017778873444E-001;-4.304067417979240E-002;-2.878729254007340E-003;1.262064906768501E-003;
2.417833333333334E+009;2.044538557529450E-001;-4.279563575983048E-002;-2.750022104009986E-003;1.346139702945948E-003;
2.418000000000000E+009;2.040319442749023E-001;-4.228325560688973E-002;-2.752311062067747E-003;1.273083267733455E-003;
2.418166666666667E+009;2.034964114427567E-001;-4.195707291364670E-002;-2.790645230561495E-003;1.333728549070656E-003;
2.418333333333334E+009;2.027898281812668E-001;-4.161897301673889E-002;-2.726159989833832E-003;1.342896604910493E-003;
2.418500000000000E+009;2.019408792257309E-001;-4.134793579578400E-002;-2.825770992785692E-003;1.284225494600833E-003;
2.418666666666667E+009;2.011676877737045E-001;-4.093457013368607E-002;-2.846084069460630E-003;1.417855732142925E-003;
2.418833333333334E+009;2.000785768032074E-001;-4.088099300861359E-002;-2.713439520448446E-003;1.543986843898892E-003;
2.419000000000000E+009;1.988661140203476E-001;-4.069925099611282E-002;-2.917820354923606E-003;1.632186118513346E-003;
2.419166666666667E+009;1.976425945758820E-001;-4.072701185941696E-002;-2.957499353215098E-003;1.842737314291298E-003;
2.419333333333334E+009;1.963190138339996E-001;-4.080987721681595E-002;-2.906507346779108E-003;1.846018829382956E-003;
2.419500000000000E+009;1.947636455297470E-001;-4.109019786119461E-002;-2.898730337619782E-003;2.067386405542493E-003;
2.419666666666667E+009;1.931042969226837E-001;-4.139117896556854E-002;-2.800422487780452E-003;2.195548964664340E-003;
2.419833333333334E+009;1.913791596889496E-001;-4.194746166467667E-002;-2.832544269040227E-003;2.421908779069781E-003;
2.420000000000000E+009;1.897887587547302E-001;-4.241758212447166E-002;-2.683880738914013E-003;2.459205454215407E-003;
2.420166666666667E+009;1.879559755325317E-001;-4.311599582433701E-002;-2.411089604720473E-003;2.622029511258006E-003;
2.420333333333334E+009;1.862376779317856E-001;-4.405166208744049E-002;-2.346918452531099E-003;2.619381994009018E-003;
2.420500000000000E+009;1.842964291572571E-001;-4.508037865161896E-002;-2.303163753822446E-003;2.589660463854671E-003;
2.420666666666667E+009;1.824732720851898E-001;-4.593556001782417E-002;-2.137537114322186E-003;2.813898725435138E-003;
2.420833333333334E+009;1.804971694946289E-001;-4.735626280307770E-002;-1.999503467231989E-003;2.832013648003340E-003;
2.421000000000000E+009;1.787141710519791E-001;-4.884041473269463E-002;-1.977720763534308E-003;2.807535929605365E-003;
2.421166666666667E+009;1.771402359008789E-001;-5.033499002456665E-002;-1.878733630292118E-003;2.974476898089051E-003;
2.421333333333334E+009;1.751293987035751E-001;-5.169720202684403E-002;-1.641665468923748E-003;3.028050763532519E-003;
2.421500000000000E+009;1.734971553087235E-001;-5.367751792073250E-002;-1.715758815407753E-003;3.072659485042095E-003;
2.421666666666667E+009;1.719156205654144E-001;-5.546611547470093E-002;-1.594930654391646E-003;2.985350321978331E-003;
2.421833333333334E+009;1.705122292041779E-001;-5.721295252442360E-002;-1.390802906826139E-003;3.072939813137054E-003;
2.422000000000000E+009;1.690109074115753E-001;-5.922189354896545E-002;-1.282014185562730E-003;3.166002454236150E-003;
2.422166666666667E+009;1.676445007324219E-001;-6.137783080339432E-002;-1.165935653261840E-003;3.123599337413907E-003;
2.422333333333334E+009;1.665718704462051E-001;-6.365720182657242E-002;-1.166086993180215E-003;3.143948735669255E-003;
2.422500000000000E+009;1.653627455234528E-001;-6.548660993576050E-002;-9.948785882443190E-004;3.308546263724566E-003;
2.422666666666667E+009;1.645163446664810E-001;-6.760164350271225E-002;-8.358404156751931E-004;3.275566734373570E-003;
2.422833333333334E+009;1.638904660940170E-001;-6.998416036367416E-002;-7.094348547980189E-004;3.243100596591830E-003;
2.423000000000000E+009;1.630191355943680E-001;-7.225134223699570E-002;-4.720296419691294E-004;3.212298732250929E-003;
2.423166666666667E+009;1.624971330165863E-001;-7.431450486183167E-002;-4.248441546224058E-004;3.080077935010195E-003;
2.423333333333334E+009;1.620581597089768E-001;-7.659569382667542E-002;-2.779357891995460E-004;3.181463573127985E-003;
2.423500000000000E+009;1.616796106100082E-001;-7.864772528409958E-002;-1.701003056950867E-004;3.142399247735739E-003;
2.423666666666667E+009;1.618615984916687E-001;-8.077235519886017E-002;-5.054328357800841E-005;3.134210361167789E-003;
2.423833333333334E+009;1.615647673606873E-001;-8.278508484363556E-002;2.594495599623770E-004;3.045439487323165E-003;
2.424000000000000E+009;1.616198271512985E-001;-8.508037030696869E-002;3.636780602391809E-004;3.040894633159041E-003;
2.424166666666667E+009;1.617823392152786E-001;-8.694986999034882E-002;3.432464436627924E-004;2.890789648517966E-003;
2.424333333333334E+009;1.619681119918823E-001;-8.877624571323395E-002;5.254821735434234E-004;2.906804438680410E-003;
2.424500000000000E+009;1.624060124158859E-001;-9.089535474777222E-002;3.891544474754483E-004;2.942852210253477E-003;
2.424666666666667E+009;1.627931445837021E-001;-9.255628287792206E-002;6.687866989523172E-004;2.668113913387060E-003;
2.424833333333334E+009;1.634220331907272E-001;-9.413032233715057E-002;6.585159571841359E-004;2.635375596582890E-003;
2.425000000000000E+009;1.638957113027573E-001;-9.566167742013931E-002;7.797058788128197E-004;2.618338214233518E-003;
2.425166666666667E+009;1.642381548881531E-001;-9.704706072807312E-002;8.509124163538218E-004;2.488661557435989E-003;
2.425333333333334E+009;1.648121625185013E-001;-9.828314185142517E-002;8.421195670962334E-004;2.425782149657607E-003;
2.425500000000000E+009;1.655598282814026E-001;-9.958828985691071E-002;8.004135452210903E-004;2.182665979489684E-003;
2.425666666666667E+009;1.661893129348755E-001;-1.004985123872757E-001;8.478406234644353E-004;2.198950387537479E-003;
2.425833333333334E+009;1.667603552341461E-001;-1.016148552298546E-001;1.036991248838604E-003;2.228842582553625E-003;
2.426000000000000E+009;1.674620211124420E-001;-1.022214367985725E-001;1.003438606858254E-003;1.983135240152478E-003;
2.426166666666667E+009;1.681851446628571E-001;-1.029439792037010E-001;9.707710705697537E-004;1.861980301328003E-003;
2.426333333333334E+009;1.685309708118439E-001;-1.035956293344498E-001;9.796969825401902E-004;1.906580291688442E-003;
2.426500000000000E+009;1.693812757730484E-001;-1.039547324180603E-001;9.951033862307668E-004;1.946983044035733E-003;
2.426666666666667E+009;1.699274331331253E-001;-1.043920516967773E-001;9.670495637692511E-004;2.009859308600426E-003;
2.426833333333334E+009;1.704283207654953E-001;-1.046880707144737E-001;1.086797681637108E-003;1.885417732410133E-003;
2.427000000000000E+009;1.706773489713669E-001;-1.050309762358666E-001;9.758378146216273E-004;1.782058156095445E-003;
2.427166666666667E+009;1.712008416652679E-001;-1.049801260232925E-001;1.070710713975132E-003;1.654130057431758E-003;
2.427333333333334E+009;1.713900566101074E-001;-1.052029132843018E-001;1.106885261833668E-003;1.618230948224664E-003;
2.427500000000000E+009;1.714931428432465E-001;-1.053345426917076E-001;1.148160197772086E-003;1.542428624816239E-003;
2.427666666666667E+009;1.715771555900574E-001;-1.054128855466843E-001;1.091394806280732E-003;1.499193254858255E-003;
