# Version 1.00
#
freq[Hz];re:Trc1_S11;im:Trc1_S11;re:Trc2_S21;im:Trc2_S21;
2.400000000000000E+009;1.578986942768097E-001;1.126627475023270E-001;4.861371591687203E-003;1.119365217164159E-003;
2.400166666666667E+009;1.574817746877670E-001;1.100206598639488E-001;5.150107666850090E-003;1.090395453502424E-004;
2.400333333333334E+009;1.571010053157806E-001;1.080566719174385E-001;4.907013382762671E-003;-3.333424974698573E-004;
2.400500000000000E+009;1.563943326473236E-001;1.052716299891472E-001;5.059305112808943E-003;-3.188136615790427E-004;
2.400666666666667E+009;1.559639573097229E-001;1.037531942129135E-001;4.078416619449854E-003;3.625710960477591E-004;
2.400833333333334E+009;1.554159671068192E-001;1.000312864780426E-001;4.361014347523451E-003;-9.996936423704028E-004;
2.401000000000000E+009;1.560848355293274E-001;9.725546836853027E-002;5.119962617754936E-003;-6.275671184994280E-004;
2.401166666666667E+009;1.559492796659470E-001;9.421285986900330E-002;5.777309183031321E-003;-1.067028963007033E-003;
2.401333333333334E+009;1.554406732320786E-001;9.145697206258774E-002;5.031176377087832E-003;-1.270972774364054E-003;
2.401500000000000E+009;1.556092202663422E-001;8.828964829444885E-002;4.975610412657261E-003;-1.417713821865618E-003;
2.401666666666667E+009;1.556507200002670E-001;8.557251840829849E-002;4.867664538323879E-003;-1.640044385567308E-003;
2.401833333333334E+009;1.556788384914398E-001;8.252763748168945E-002;4.855501931160688E-003;-1.737107988446951E-003;
2.402000000000000E+009;1.562205553054810E-001;7.943000644445419E-002;5.044050980359316E-003;-1.879399875178933E-003;
2.402166666666667E+009;1.569623351097107E-001;7.664731889963150E-002;5.005367100238800E-003;-2.069697249680758E-003;
2.402333333333334E+009;1.575892716646195E-001;7.368318736553192E-002;5.000550299882889E-003;-2.240853151306510E-003;
2.402500000000000E+009;1.583767682313919E-001;7.081156224012375E-002;4.921460989862680E-003;-2.402424113824964E-003;
2.402666666666667E+009;1.593613624572754E-001;6.810265034437180E-002;4.845727700740099E-003;-2.660749014467001E-003;
2.402833333333334E+009;1.605473607778549E-001;6.521148234605789E-002;4.699049517512322E-003;-2.991187386214733E-003;
2.403000000000000E+009;1.618721485137940E-001;6.250180304050446E-002;4.810633603483439E-003;-3.178059589117765E-003;
2.403166666666667E+009;1.634661704301834E-001;5.997464433312416E-002;4.792792722582817E-003;-3.405950730666518E-003;
2.403333333333334E+009;1.649421453475952E-001;5.749025568366051E-002;4.545695148408413E-003;-3.672041930258274E-003;
2.403500000000000E+009;1.665069311857224E-001;5.497812852263451E-002;4.574890248477459E-003;-3.842990379780531E-003;
2.403666666666667E+009;1.684479564428330E-001;5.264618620276451E-002;4.519049078226090E-003;-4.133427515625954E-003;
2.403833333333334E+009;1.701196432113648E-001;5.020269751548767E-002;4.258208908140659E-003;-4.325420595705509E-003;
2.404000000000000E+009;1.717648357152939E-001;4.803562164306641E-002;4.093552473932505E-003;-4.712328780442476E-003;
2.404166666666667E+009;1.735767722129822E-001;4.621091485023499E-002;3.750561736524105E-003;-5.016047507524490E-003;
2.404333333333334E+009;1.753482669591904E-001;4.429387301206589E-002;3.774814074859023E-003;-5.174197256565094E-003;
2.404500000000000E+009;1.771792322397232E-001;4.257772862911224E-002;3.392663318663836E-003;-5.297691095620394E-003;
2.404666666666667E+009;1.789630502462387E-001;4.116294905543327E-002;3.061355557292700E-003;-5.324577912688255E-003;
2.404833333333334E+009;1.807262152433395E-001;3.975964337587357E-002;2.800798043608666E-003;-5.677252542227507E-003;
2.405000000000000E+009;1.823138296604157E-001;3.892778605222702E-002;2.350051421672106E-003;-5.717240273952484E-003;
2.405166666666667E+009;1.840600371360779E-001;3.779722005128861E-002;2.062340732663870E-003;-5.915499292314053E-003;
2.405333333333334E+009;1.858183890581131E-001;3.708684071898460E-002;1.879220129922032E-003;-6.011482793837786E-003;
2.405500000000000E+009;1.873053461313248E-001;3.646970167756081E-002;1.577763352543116E-003;-6.043147295713425E-003;
2.405666666666667E+009;1.890291720628738E-001;3.591798618435860E-002;1.115284743718803E-003;-5.995437968522310E-003;
2.405833333333334E+009;1.906294524669647E-001;3.551219403743744E-002;7.032829453237355E-004;-5.941617302596569E-003;
2.406000000000000E+009;1.919410824775696E-001;3.537330776453018E-002;7.267568726092577E-004;-5.900027696043253E-003;
2.406166666666667E+009;1.932724714279175E-001;3.505178913474083E-002;2.140918077202514E-004;-6.225598976016045E-003;
2.406333333333334E+009;1.943806409835815E-001;3.519098833203316E-002;4.871120472671464E-005;-5.827458109706640E-003;
2.406500000000000E+009;1.955988109111786E-001;3.516981005668640E-002;-3.603034128900617E-004;-5.612328648567200E-003;
2.406666666666667E+009;1.965007185935974E-001;3.542263433337212E-002;-4.820817848667502E-004;-5.713706836104393E-003;
2.406833333333334E+009;1.974440962076187E-001;3.545659780502319E-002;-6.575802690349519E-004;-5.612983833998442E-003;
2.407000000000000E+009;1.979847997426987E-001;3.593475744128227E-002;-8.001785026863217E-004;-5.487599410116673E-003;
2.407166666666667E+009;1.986844837665558E-001;3.588001057505608E-002;-1.043652882799506E-003;-5.452272947877646E-003;
2.407333333333334E+009;1.990122795104981E-001;3.636431321501732E-002;-1.190563896670938E-003;-5.236814264208078E-003;
2.407500000000000E+009;1.991463601589203E-001;3.687593713402748E-002;-1.535305287688971E-003;-5.087958183139563E-003;
2.407666666666667E+009;1.994810253381729E-001;3.703194856643677E-002;-1.701527042314410E-003;-5.190519150346518E-003;
2.407833333333334E+009;1.992581635713577E-001;3.710752725601196E-002;-1.696206280030310E-003;-4.951364360749722E-003;
2.408000000000000E+009;1.993910670280457E-001;3.727394714951515E-002;-2.038917969912291E-003;-4.821698181331158E-003;
2.408166666666667E+009;1.990555673837662E-001;3.743991255760193E-002;-2.141579054296017E-003;-4.644152708351612E-003;
2.408333333333334E+009;1.987307816743851E-001;3.722703456878662E-002;-2.263916656374931E-003;-4.477655980736017E-003;
2.408500000000000E+009;1.981240659952164E-001;3.735987097024918E-002;-2.435586648061872E-003;-4.292030353099108E-003;
2.408666666666667E+009;1.976365298032761E-001;3.721996396780014E-002;-2.515990287065506E-003;-4.052818752825260E-003;
2.408833333333334E+009;1.968876272439957E-001;3.696880117058754E-002;-2.624768763780594E-003;-3.870604094117880E-003;
2.409000000000000E+009;1.959682106971741E-001;3.654118627309799E-002;-2.623832784593105E-003;-3.752871183678508E-003;
2.409166666666667E+009;1.950643956661224E-001;3.594127669930458E-002;-2.670908579602838E-003;-3.634594846516848E-003;
2.409333333333334E+009;1.940909475088120E-001;3.529853001236916E-002;-2.611335832625628E-003;-3.440970554947853E-003;
2.409500000000000E+009;1.928639113903046E-001;3.436592221260071E-002;-2.653356641530991E-003;-3.240944119170308E-003;
2.409666666666667E+009;1.917706280946732E-001;3.329717740416527E-002;-2.641887404024601E-003;-3.248536027967930E-003;
2.409833333333334E+009;1.904769390821457E-001;3.223640471696854E-002;-2.537978813052177E-003;-3.159002866595984E-003;
2.410000000000000E+009;1.892018318176270E-001;3.083347901701927E-002;-2.665626117959619E-003;-3.061217721551657E-003;
2.410166666666667E+009;1.880261749029160E-001;2.949760667979717E-002;-2.646561013534665E-003;-3.096371423453093E-003;
2.410333333333334E+009;1.868571341037750E-001;2.790510468184948E-002;-2.627402311190963E-003;-3.068933961912990E-003;
2.410500000000000E+009;1.856116503477097E-001;2.629485540091991E-002;-2.761154901236296E-003;-2.992433961480856E-003;
2.410666666666667E+009;1.843715757131577E-001;2.404889278113842E-002;-2.856799867004156E-003;-3.019984113052487E-003;
2.410833333333334E+009;1.833904832601547E-001;2.219575829803944E-002;-2.958026248961687E-003;-2.884365618228912E-003;
2.411000000000000E+009;1.822480857372284E-001;2.025470323860645E-002;-3.008140716701746E-003;-2.715923124924302E-003;
2.411166666666667E+009;1.813396662473679E-001;1.801198534667492E-002;-3.118028631433845E-003;-2.804065356031060E-003;
2.411333333333334E+009;1.804338842630386E-001;1.558522228151560E-002;-3.168192226439714E-003;-2.770232036709786E-003;
2.411500000000000E+009;1.796559989452362E-001;1.323803607374430E-002;-3.292720532044768E-003;-2.497798763215542E-003;
2.411666666666667E+009;1.790911704301834E-001;1.074075233191252E-002;-3.282120684161782E-003;-2.436670009046793E-003;
2.411833333333334E+009;1.784394234418869E-001;8.532611653208733E-003;-3.418635344132781E-003;-2.378262346610427E-003;
2.412000000000000E+009;1.782151907682419E-001;5.861382000148296E-003;-3.600158262997866E-003;-2.211746294051409E-003;
2.412166666666667E+009;1.779420077800751E-001;3.409672295674682E-003;-3.465119283646345E-003;-2.040052087977529E-003;
2.412333333333334E+009;1.779869496822357E-001;7.002113270573318E-004;-3.533365204930306E-003;-2.039761282503605E-003;
2.412500000000000E+009;1.782239079475403E-001;-1.747896894812584E-003;-3.587073413655162E-003;-1.855200505815446E-003;
2.412666666666667E+009;1.782472282648087E-001;-4.529455211013556E-003;-3.648360958322883E-003;-1.612054300494492E-003;
2.412833333333334E+009;1.786064505577087E-001;-7.309901062399149E-003;-3.671741811558604E-003;-1.666078576818109E-003;
2.413000000000000E+009;1.791892349720001E-001;-9.803004562854767E-003;-3.707412397488952E-003;-1.558387768454850E-003;
2.413166666666667E+009;1.799333244562149E-001;-1.232417672872543E-002;-3.628903301432729E-003;-1.311572734266520E-003;
2.413333333333334E+009;1.808343082666397E-001;-1.497979369014502E-002;-3.647234756499529E-003;-1.175983925350010E-003;
2.413500000000000E+009;1.816027313470841E-001;-1.749844476580620E-002;-3.720807377249003E-003;-1.199976890347898E-003;
2.413666666666667E+009;1.826431006193161E-001;-2.002966962754726E-002;-3.660406684502959E-003;-1.051268773153424E-003;
2.413833333333334E+009;1.836897879838944E-001;-2.230284549295902E-002;-3.746437374502420E-003;-8.801125222817063E-004;
2.414000000000000E+009;1.847374886274338E-001;-2.473134361207485E-002;-3.701391862705350E-003;-9.473340469412506E-004;
2.414166666666667E+009;1.861157268285751E-001;-2.690148726105690E-002;-3.963501658290625E-003;-7.646162412129343E-004;
2.414333333333334E+009;1.871016025543213E-001;-2.891793474555016E-002;-3.903357777744532E-003;-6.096009165048599E-004;
2.414500000000000E+009;1.886230409145355E-001;-3.092379868030548E-002;-3.886378370225430E-003;-6.001485744491220E-004;
2.414666666666667E+009;1.898419708013535E-001;-3.259385749697685E-002;-3.897350979968905E-003;-4.332954122219235E-004;
2.414833333333334E+009;1.912362128496170E-001;-3.428921103477478E-002;-3.876410424709320E-003;-3.503953630570322E-004;
2.415000000000000E+009;1.923249065876007E-001;-3.577908873558044E-002;-4.014090634882450E-003;-2.541111316531897E-004;
2.415166666666667E+009;1.939354687929153E-001;-3.737755864858627E-002;-3.950429148972035E-003;-4.465207166504115E-005;
2.415333333333334E+009;1.951750069856644E-001;-3.855089843273163E-002;-3.967239521443844E-003;1.239947305293754E-004;
2.415500000000000E+009;1.966510266065598E-001;-3.945398330688477E-002;-4.078311379998922E-003;3.065622004214674E-004;
2.415666666666667E+009;1.979184597730637E-001;-4.051872715353966E-002;-4.038088954985142E-003;2.366138796787709E-004;
2.415833333333334E+009;1.990155726671219E-001;-4.127837717533112E-002;-3.923076670616865E-003;5.920617259107530E-004;
2.416000000000000E+009;2.001090347766876E-001;-4.201526567339897E-002;-4.033966921269894E-003;7.656333036720753E-004;
2.416166666666667E+009;2.012078613042831E-001;-4.274970293045044E-002;-4.007381387054920E-003;9.925350314006209E-004;
2.416333333333334E+009;2.021273672580719E-001;-4.304008185863495E-002;-3.802844090387225E-003;1.104784780181944E-003;
2.416500000000000E+009;2.030157446861267E-001;-4.337045550346375E-002;-3.605124307796359E-003;1.311864354647696E-003;
2.416666666666667E+009;2.036582082509995E-001;-4.384490475058556E-002;-3.554692026227713E-003;1.536366064101458E-003;
2.416833333333334E+009;2.042306512594223E-001;-4.376969486474991E-002;-3.323249053210020E-003;1.604781486093998E-003;
2.417000000000000E+009;2.046654820442200E-001;-4.392440244555473E-002;-3.126549068838358E-003;1.648192177526653E-003;
2.417166666666667E+009;2.048136144876480E-001;-4.374943301081657E-002;-3.023967146873474E-003;1.618147944100201E-003;
2.417333333333334E+009;2.049066424369812E-001;-4.342275112867355E-002;-2.806990873068571E-003;1.766591565683484E-003;
2.417500000000000E+009;2.048962712287903E-001;-4.349486157298088E-002;-2.823028014972806E-003;1.633595791645348E-003;
2.417666666666667E+009;2.047168314456940E-001;-4.319394007325172E-002;-2.586234826594591E-003;1.642712042666972E-003;
2.417833333333334E+009;2.045232504606247E-001;-4.270785674452782E-002;-2.565974369645119E-003;1.636375440284610E-003;
2.418000000000000E+009;2.042300254106522E-001;-4.226602986454964E-002;-2.722004428505898E-003;1.641801325604320E-003;
2.418166666666667E+009;2.035893797874451E-001;-4.199123755097389E-002;-2.573020523414016E-003;1.667633652687073E-003;
2.418333333333334E+009;2.028526514768601E-001;-4.152133688330650E-002;-2.741351025179029E-003;1.564101665280759E-003;
2.418500000000000E+009;2.021109163761139E-001;-4.131862893700600E-002;-2.693368121981621E-003;1.631815684959292E-003;
2.418666666666667E+009;2.013054341077805E-001;-4.110372066497803E-002;-2.726217033341527E-003;1.605332829058170E-003;
2.418833333333334E+009;2.001875340938568E-001;-4.080289974808693E-002;-2.869358984753490E-003;1.765729044564068E-003;
2.419000000000000E+009;1.988766342401505E-001;-4.075754806399345E-002;-2.888130024075508E-003;1.782724866643548E-003;
2.419166666666667E+009;1.977949887514114E-001;-4.065476357936859E-002;-2.672379603609443E-003;2.012694720178843E-003;
2.419333333333334E+009;1.963818520307541E-001;-4.095326364040375E-002;-2.895664889365435E-003;2.158265095204115E-003;
2.419500000000000E+009;1.949365288019180E-001;-4.102374985814095E-002;-2.635906217619777E-003;2.283433685079217E-003;
2.419666666666667E+009;1.931869089603424E-001;-4.156707599759102E-002;-2.611798234283924E-003;2.475501969456673E-003;
2.419833333333334E+009;1.915036588907242E-001;-4.190909117460251E-002;-2.398735610768199E-003;2.537004882469773E-003;
2.420000000000000E+009;1.899006068706513E-001;-4.246818646788597E-002;-2.407999243587256E-003;2.735694171860814E-003;
2.420166666666667E+009;1.881446838378906E-001;-4.331053048372269E-002;-2.307557035237551E-003;2.746680984273553E-003;
2.420333333333334E+009;1.863558292388916E-001;-4.420008137822151E-002;-2.079634694382548E-003;2.834610641002655E-003;
2.420500000000000E+009;1.843750774860382E-001;-4.520956799387932E-002;-2.188101178035140E-003;2.931492170318961E-003;
2.420666666666667E+009;1.825545579195023E-001;-4.612447321414948E-002;-1.914135646075010E-003;2.943306928500533E-003;
2.420833333333334E+009;1.808193922042847E-001;-4.744727164506912E-002;-1.905025797896087E-003;2.929538022726774E-003;
2.421000000000000E+009;1.790255159139633E-001;-4.897700250148773E-002;-1.814864459447563E-003;3.124229377135634E-003;
2.421166666666667E+009;1.772599369287491E-001;-5.042308568954468E-002;-1.760717364959419E-003;3.085748990997672E-003;
2.421333333333334E+009;1.752498298883438E-001;-5.180002748966217E-002;-1.582758734002709E-003;3.236579243093729E-003;
2.421500000000000E+009;1.736185550689697E-001;-5.361347645521164E-002;-1.472503412514925E-003;3.094595158472657E-003;
2.421666666666667E+009;1.720446050167084E-001;-5.557403340935707E-002;-1.353161991573870E-003;3.240260761231184E-003;
2.421833333333334E+009;1.705253273248673E-001;-5.744016915559769E-002;-1.251952839083970E-003;3.243907121941447E-003;
2.422000000000000E+009;1.691163927316666E-001;-5.950175970792770E-002;-1.216642674989998E-003;3.246113192290068E-003;
2.422166666666667E+009;1.679770052433014E-001;-6.147218123078346E-002;-9.851747890934348E-004;3.288282779976726E-003;
2.422333333333334E+009;1.666864752769470E-001;-6.355603784322739E-002;-9.099546587094665E-004;3.495110431686044E-003;
2.422500000000000E+009;1.655368655920029E-001;-6.573864072561264E-002;-7.184696150943637E-004;3.333448665216565E-003;
2.422666666666667E+009;1.645762920379639E-001;-6.777369976043701E-002;-6.084194174036384E-004;3.329736646264792E-003;
2.422833333333334E+009;1.639086604118347E-001;-7.002296298742294E-002;-3.880606091115624E-004;3.384497482329607E-003;
2.423000000000000E+009;1.632254272699356E-001;-7.231727987527847E-002;-2.422455581836402E-004;3.334836103022099E-003;
2.423166666666667E+009;1.627420186996460E-001;-7.449931651353836E-002;-2.233970189990941E-005;3.453328972682357E-003;
2.423333333333334E+009;1.620507985353470E-001;-7.683483511209488E-002;-3.641470175352879E-005;3.374271793290973E-003;
2.423500000000000E+009;1.619598567485809E-001;-7.886140048503876E-002;1.849450054578483E-004;3.318224800750613E-003;
2.423666666666667E+009;1.618162095546722E-001;-8.096892386674881E-002;4.675538511946797E-004;3.207092871889472E-003;
2.423833333333334E+009;1.615956127643585E-001;-8.314181119203568E-002;4.971105954609811E-004;3.101608715951443E-003;
2.424000000000000E+009;1.617454737424851E-001;-8.512256294488907E-002;5.610805819742382E-004;3.261622041463852E-003;
2.424166666666667E+009;1.616590917110443E-001;-8.706039935350418E-002;6.285597919486463E-004;3.032845212146640E-003;
2.424333333333334E+009;1.618631333112717E-001;-8.910513669252396E-002;6.799695547670126E-004;2.832258120179176E-003;
2.424500000000000E+009;1.623921692371368E-001;-9.092736244201660E-002;9.073960827663541E-004;2.767907921224833E-003;
2.424666666666667E+009;1.628037244081497E-001;-9.266937524080277E-002;9.936860296875238E-004;2.794027095660567E-003;
2.424833333333334E+009;1.632716357707977E-001;-9.436683356761932E-002;1.018316601403058E-003;2.570816082879901E-003;
2.425000000000000E+009;1.638063788414002E-001;-9.589400887489319E-002;1.036113360896707E-003;2.472412306815386E-003;
2.425166666666667E+009;1.642872691154480E-001;-9.717940539121628E-002;1.042629475705326E-003;2.410185290500522E-003;
2.425333333333334E+009;1.646500825881958E-001;-9.836862236261368E-002;1.147080329246819E-003;2.373618772253394E-003;
2.425500000000000E+009;1.653858721256256E-001;-9.970898181200028E-002;1.292777713388205E-003;2.104128245264292E-003;
2.425666666666667E+009;1.660634130239487E-001;-1.006592214107513E-001;1.193885458633304E-003;2.008068375289440E-003;
2.425833333333334E+009;1.665804535150528E-001;-1.016785725951195E-001;1.235079136677086E-003;2.002699300646782E-003;
2.426000000000000E+009;1.672451794147492E-001;-1.023702248930931E-001;1.232470269314945E-003;1.949113444425166E-003;
2.426166666666667E+009;1.679295450448990E-001;-1.030151844024658E-001;1.228199806064367E-003;1.749891671352089E-003;
2.426333333333334E+009;1.684222072362900E-001;-1.036103889346123E-001;1.145842252299190E-003;1.707945368252695E-003;
2.426500000000000E+009;1.692000627517700E-001;-1.039734557271004E-001;1.182717503979802E-003;1.671384205110371E-003;
2.426666666666667E+009;1.696241199970245E-001;-1.044742166996002E-001;1.214130665175617E-003;1.698163105174899E-003;
2.426833333333334E+009;1.702477484941483E-001;-1.046895682811737E-001;1.379357068799436E-003;1.494097989052534E-003;
2.427000000000000E+009;1.705562919378281E-001;-1.050252765417099E-001;1.254329108633101E-003;1.506489817984402E-003;
2.427166666666667E+009;1.709981709718704E-001;-1.050468310713768E-001;1.324432552792132E-003;1.394193037413061E-003;
2.427333333333334E+009;1.711718291044235E-001;-1.053469479084015E-001;1.302392454817891E-003;1.373636419884861E-003;
2.427500000000000E+009;1.713567674160004E-001;-1.054420545697212E-001;1.236306736245751E-003;1.200677012093365E-003;
2.427666666666667E+009;1.713946163654327E-001;-1.054278910160065E-001;1.377936918288469E-003;1.105326809920371E-003;
