# Version 1.00
#
freq[Hz];re:Trc1_S11;im:Trc1_S11;re:Trc2_S21;im:Trc2_S21;
2.400000000000000E+009;1.577551811933518E-001;1.120868995785713E-001;4.721930716186762E-003;5.661526811309159E-004;
2.400166666666667E+009;1.572861522436142E-001;1.097992286086083E-001;4.761304706335068E-003;2.019266539718956E-004;
2.400333333333334E+009;1.570326834917069E-001;1.077154502272606E-001;4.909567069262266E-003;7.639905379619449E-005;
2.400500000000000E+009;1.567653417587280E-001;1.052080988883972E-001;4.901741165667772E-003;-1.821723271859810E-004;
2.400666666666667E+009;1.562744379043579E-001;1.027538403868675E-001;4.946398548781872E-003;-5.225950153544545E-004;
2.400833333333334E+009;1.560565084218979E-001;9.975703060626984E-002;4.799838177859783E-003;-5.002957768738270E-004;
2.401000000000000E+009;1.558253169059753E-001;9.712399542331696E-002;4.860066808760166E-003;-7.093446911312640E-004;
2.401166666666667E+009;1.556549072265625E-001;9.405546635389328E-002;4.893401172012091E-003;-9.822195861488581E-004;
2.401333333333334E+009;1.555756777524948E-001;9.123700112104416E-002;5.045484751462936E-003;-1.101145520806313E-003;
2.401500000000000E+009;1.556502878665924E-001;8.823998272418976E-002;4.890736192464829E-003;-1.312713255174458E-003;
2.401666666666667E+009;1.556154042482376E-001;8.522982150316238E-002;4.900801926851273E-003;-1.488174428232014E-003;
2.401833333333334E+009;1.558972001075745E-001;8.230105787515640E-002;4.872063640505076E-003;-1.479953178204596E-003;
2.402000000000000E+009;1.563985943794251E-001;7.921375334262848E-002;5.016089417040348E-003;-1.804379862733185E-003;
2.402166666666667E+009;1.568249166011810E-001;7.646129280328751E-002;4.848839715123177E-003;-2.005217131227255E-003;
2.402333333333334E+009;1.576506048440933E-001;7.334757596254349E-002;4.767925012856722E-003;-2.122188918292522E-003;
2.402500000000000E+009;1.585454344749451E-001;7.060428708791733E-002;4.817666951566935E-003;-2.398436889052391E-003;
2.402666666666667E+009;1.593940109014511E-001;6.796016544103622E-002;4.933320451527834E-003;-2.592095872387290E-003;
2.402833333333334E+009;1.606850177049637E-001;6.509087979793549E-002;4.811447113752365E-003;-2.736317692324519E-003;
2.403000000000000E+009;1.618402749300003E-001;6.247022002935410E-002;4.792908206582069E-003;-2.856019651517272E-003;
2.403166666666667E+009;1.633535623550415E-001;5.994786694645882E-002;4.841652233153582E-003;-3.288600360974670E-003;
2.403333333333334E+009;1.647008657455444E-001;5.726850405335426E-002;4.541973583400250E-003;-3.262345446273685E-003;
2.403500000000000E+009;1.663849353790283E-001;5.482639744877815E-002;4.545147530734539E-003;-3.756521735340357E-003;
2.403666666666667E+009;1.681480854749680E-001;5.262118205428124E-002;4.490629769861698E-003;-4.026724956929684E-003;
2.403833333333334E+009;1.698137819766998E-001;5.020851641893387E-002;4.392794333398342E-003;-4.217828623950481E-003;
2.404000000000000E+009;1.714795827865601E-001;4.816208779811859E-002;4.083408042788506E-003;-4.424638114869595E-003;
2.404166666666667E+009;1.733511239290237E-001;4.624449834227562E-002;3.988586831837893E-003;-4.664229694753885E-003;
2.404333333333334E+009;1.750134527683258E-001;4.439271613955498E-002;3.702041460201144E-003;-4.966816864907742E-003;
2.404500000000000E+009;1.769538968801498E-001;4.269581660628319E-002;3.421712899580598E-003;-5.095191299915314E-003;
2.404666666666667E+009;1.786597222089768E-001;4.122583195567131E-002;3.269432112574577E-003;-5.362454336136580E-003;
2.404833333333334E+009;1.806951910257340E-001;3.982665389776230E-002;2.899241168051958E-003;-5.720377434045076E-003;
2.405000000000000E+009;1.821650415658951E-001;3.886490687727928E-002;2.583199180662632E-003;-5.664232186973095E-003;
2.405166666666667E+009;1.838033050298691E-001;3.774616867303848E-002;2.213764935731888E-003;-5.822712089866400E-003;
2.405333333333334E+009;1.855990886688232E-001;3.699546307325363E-002;1.901520416140556E-003;-5.650607403367758E-003;
2.405500000000000E+009;1.872540861368179E-001;3.625411167740822E-002;1.572868204675615E-003;-5.858588498085737E-003;
2.405666666666667E+009;1.887899190187454E-001;3.588679432868958E-002;1.299149356782436E-003;-5.907621700316668E-003;
2.405833333333334E+009;1.903459131717682E-001;3.559099510312080E-002;1.089003984816372E-003;-5.974052939563990E-003;
2.406000000000000E+009;1.917351186275482E-001;3.538867086172104E-002;7.011418929323554E-004;-5.870292428880930E-003;
2.406166666666667E+009;1.931417584419251E-001;3.514452278614044E-002;2.331138530280441E-004;-5.765541922301054E-003;
2.406333333333334E+009;1.943039149045944E-001;3.525575995445252E-002;1.659363770158961E-004;-5.800295155495405E-003;
2.406500000000000E+009;1.954158395528793E-001;3.522266075015068E-002;-1.146623981185257E-004;-5.683884490281344E-003;
2.406666666666667E+009;1.964213550090790E-001;3.538301587104797E-002;-4.566386633086950E-004;-5.507112015038729E-003;
2.406833333333334E+009;1.972163170576096E-001;3.549367189407349E-002;-4.962385864928365E-004;-5.471972748637199E-003;
2.407000000000000E+009;1.979395449161530E-001;3.590568155050278E-002;-8.694738498888910E-004;-5.345317535102367E-003;
2.407166666666667E+009;1.986240446567535E-001;3.590625524520874E-002;-9.631172288209200E-004;-5.353045649826527E-003;
2.407333333333334E+009;1.988783180713654E-001;3.634962812066078E-002;-1.155353034846485E-003;-5.245161242783070E-003;
2.407500000000000E+009;1.992368698120117E-001;3.679025918245316E-002;-1.383344875648618E-003;-5.048439372330904E-003;
2.407666666666667E+009;1.994070410728455E-001;3.683919087052345E-002;-1.495486823841929E-003;-4.966392181813717E-003;
2.407833333333334E+009;1.992008984088898E-001;3.721708059310913E-002;-1.650535152293742E-003;-5.023395642638207E-003;
2.408000000000000E+009;1.994479894638062E-001;3.743033483624458E-002;-1.819610246457160E-003;-4.786050878465176E-003;
2.408166666666667E+009;1.988935619592667E-001;3.750536963343620E-002;-1.937509980052710E-003;-4.659160040318966E-003;
2.408333333333334E+009;1.989395618438721E-001;3.735580295324326E-002;-2.198321977630258E-003;-4.441593773663044E-003;
2.408500000000000E+009;1.979961693286896E-001;3.743256255984306E-002;-2.258223714306951E-003;-4.324572626501322E-003;
2.408666666666667E+009;1.975710391998291E-001;3.712886199355125E-002;-2.420297358185053E-003;-4.073517397046089E-003;
2.408833333333334E+009;1.969929635524750E-001;3.681050613522530E-002;-2.507847966626287E-003;-3.910727798938751E-003;
2.409000000000000E+009;1.959937363862991E-001;3.638566657900810E-002;-2.442521508783102E-003;-3.649657592177391E-003;
2.409166666666667E+009;1.949966996908188E-001;3.578083589673042E-002;-2.517338609322906E-003;-3.545011160895228E-003;
2.409333333333334E+009;1.940522491931915E-001;3.519597649574280E-002;-2.579535823315382E-003;-3.437360748648644E-003;
2.409500000000000E+009;1.928306221961975E-001;3.425071761012077E-002;-2.443236764520407E-003;-3.469124436378479E-003;
2.409666666666667E+009;1.916666626930237E-001;3.320864215493202E-002;-2.513219369575381E-003;-3.224131651222706E-003;
2.409833333333334E+009;1.903493106365204E-001;3.218034654855728E-002;-2.443447941914201E-003;-3.124772803857923E-003;
2.410000000000000E+009;1.892223805189133E-001;3.082714229822159E-002;-2.541726222261787E-003;-3.070372622460127E-003;
2.410166666666667E+009;1.880250722169876E-001;2.932474762201309E-002;-2.534210681915283E-003;-3.150852397084236E-003;
2.410333333333334E+009;1.868123710155487E-001;2.794697135686874E-002;-2.470858162268996E-003;-3.021733602508903E-003;
2.410500000000000E+009;1.856313794851303E-001;2.613222412765026E-002;-2.744814148172736E-003;-2.923456951975822E-003;
2.410666666666667E+009;1.843307316303253E-001;2.413932606577873E-002;-2.735896036028862E-003;-2.991834655404091E-003;
2.410833333333334E+009;1.833907514810562E-001;2.211875841021538E-002;-2.861977322027087E-003;-2.910999814048410E-003;
2.411000000000000E+009;1.822149902582169E-001;2.009418234229088E-002;-2.916957018896937E-003;-3.015194321051240E-003;
2.411166666666667E+009;1.813714206218720E-001;1.784913800656796E-002;-2.918780548498035E-003;-2.947448287159205E-003;
2.411333333333334E+009;1.804905831813812E-001;1.543316897004843E-002;-3.002352314069867E-003;-2.707003848627210E-003;
2.411500000000000E+009;1.796739846467972E-001;1.308395992964506E-002;-3.235992509871721E-003;-2.530758734792471E-003;
2.411666666666667E+009;1.789822429418564E-001;1.076909806579351E-002;-3.131580771878362E-003;-2.532752929255366E-003;
2.411833333333334E+009;1.783764362335205E-001;8.337858133018017E-003;-3.331179497763515E-003;-2.405302366241813E-003;
2.412000000000000E+009;1.782909184694290E-001;5.692603997886181E-003;-3.452855860814452E-003;-2.395450836047530E-003;
2.412166666666667E+009;1.779340952634811E-001;3.346147481352091E-003;-3.406920004636049E-003;-2.256779931485653E-003;
2.412333333333334E+009;1.779065877199173E-001;5.479355459101498E-004;-3.611560910940170E-003;-2.142706885933876E-003;
2.412500000000000E+009;1.782173812389374E-001;-1.929967780597508E-003;-3.513470524922013E-003;-1.892595435492694E-003;
2.412666666666667E+009;1.783181726932526E-001;-4.698667209595442E-003;-3.410395234823227E-003;-1.928275101818144E-003;
2.412833333333334E+009;1.787485927343369E-001;-7.459965534508228E-003;-3.660623915493488E-003;-1.764439744874835E-003;
2.413000000000000E+009;1.793032288551331E-001;-9.994365274906158E-003;-3.633913118392229E-003;-1.553406589664519E-003;
2.413166666666667E+009;1.798636019229889E-001;-1.250540930777788E-002;-3.589315572753549E-003;-1.657212735153735E-003;
2.413333333333334E+009;1.807682216167450E-001;-1.503108628094196E-002;-3.404674120247364E-003;-1.400337321683765E-003;
2.413500000000000E+009;1.815921962261200E-001;-1.771216653287411E-002;-3.506621811538935E-003;-1.277872361242771E-003;
2.413666666666667E+009;1.827597916126251E-001;-2.029718086123467E-002;-3.652372164651752E-003;-1.146419090218842E-003;
2.413833333333334E+009;1.836502403020859E-001;-2.254050597548485E-002;-3.762946929782629E-003;-1.113113481551409E-003;
2.414000000000000E+009;1.848136782646179E-001;-2.468084171414375E-002;-3.825701307505369E-003;-1.029222272336483E-003;
2.414166666666667E+009;1.860402077436447E-001;-2.684509940445423E-002;-3.853283356875181E-003;-8.844042313285172E-004;
2.414333333333334E+009;1.871985495090485E-001;-2.922181785106659E-002;-3.762872889637947E-003;-6.683930405415595E-004;
2.414500000000000E+009;1.886084675788879E-001;-3.095387667417526E-002;-3.753321943804622E-003;-6.761417607776821E-004;
2.414666666666667E+009;1.897092014551163E-001;-3.286390006542206E-002;-4.005379043519497E-003;-6.682747043669224E-004;
2.414833333333334E+009;1.910012066364288E-001;-3.446613252162933E-002;-3.808898851275444E-003;-4.349671944510192E-004;
2.415000000000000E+009;1.924012005329132E-001;-3.598789125680924E-002;-3.941144794225693E-003;-4.151172470301390E-004;
2.415166666666667E+009;1.937770098447800E-001;-3.741611167788506E-002;-3.857661038637161E-003;-2.883741690311581E-004;
2.415333333333334E+009;1.950965374708176E-001;-3.867092356085777E-002;-3.962839487940073E-003;5.342391523299739E-005;
2.415500000000000E+009;1.965290457010269E-001;-3.950803354382515E-002;-4.046972841024399E-003;3.458908031461760E-005;
2.415666666666667E+009;1.978170275688171E-001;-4.051178321242333E-002;-3.983304370194674E-003;3.821447025984526E-004;
2.415833333333334E+009;1.988365650177002E-001;-4.125250503420830E-002;-3.983221482485533E-003;4.320159787312150E-004;
2.416000000000000E+009;2.000442743301392E-001;-4.209411516785622E-002;-3.954402636736631E-003;7.244587177410722E-004;
2.416166666666667E+009;2.010414600372315E-001;-4.281843081116676E-002;-3.874183865264058E-003;7.994894403964281E-004;
2.416333333333334E+009;2.019907832145691E-001;-4.300269857048988E-002;-4.034213721752167E-003;1.026977086439729E-003;
2.416500000000000E+009;2.026937156915665E-001;-4.340023174881935E-002;-3.748041344806552E-003;1.186074689030647E-003;
2.416666666666667E+009;2.034214437007904E-001;-4.379767179489136E-002;-3.529080655425787E-003;1.549190958030522E-003;
2.416833333333334E+009;2.039163112640381E-001;-4.380121082067490E-002;-3.378460416570306E-003;1.591968233697116E-003;
2.417000000000000E+009;2.044390588998795E-001;-4.387238994240761E-002;-3.378099296241999E-003;1.673644175752997E-003;
2.417166666666667E+009;2.044465690851212E-001;-4.365011677145958E-002;-3.080053953453898E-003;1.441121567040682E-003;
2.417333333333334E+009;2.046771943569183E-001;-4.346847906708717E-002;-2.905759261921048E-003;1.561790821142495E-003;
2.417500000000000E+009;2.046011388301849E-001;-4.341451078653336E-002;-2.986768493428826E-003;1.603930257260799E-003;
2.417666666666667E+009;2.044592499732971E-001;-4.291665926575661E-002;-2.785939490422607E-003;1.434787875041366E-003;
2.417833333333334E+009;2.042650878429413E-001;-4.265848174691200E-002;-2.699677366763353E-003;1.599908457137644E-003;
2.418000000000000E+009;2.040037512779236E-001;-4.216617718338966E-002;-2.748758299276233E-003;1.456584199331701E-003;
2.418166666666667E+009;2.033939808607101E-001;-4.198529943823814E-002;-2.756145084276795E-003;1.433614641427994E-003;
2.418333333333334E+009;2.026811838150024E-001;-4.151618480682373E-002;-2.845508046448231E-003;1.544766826555133E-003;
2.418500000000000E+009;2.018546909093857E-001;-4.131948575377464E-002;-2.798684872686863E-003;1.472813775762916E-003;
2.418666666666667E+009;2.011386603116989E-001;-4.083721712231636E-002;-2.960136160254479E-003;1.527248416095972E-003;
2.418833333333334E+009;1.999648660421372E-001;-4.074167460203171E-002;-2.814087318256497E-003;1.706441631540656E-003;
2.419000000000000E+009;1.987328976392746E-001;-4.059689491987228E-002;-2.987491199746728E-003;1.834324910305440E-003;
2.419166666666667E+009;1.975029408931732E-001;-4.058583080768585E-002;-2.857944462448359E-003;2.041860250756145E-003;
2.419333333333334E+009;1.961141526699066E-001;-4.085704311728478E-002;-2.944324631243944E-003;2.037900034338236E-003;
2.419500000000000E+009;1.946625262498856E-001;-4.096379503607750E-002;-2.813986735418439E-003;2.284811111167073E-003;
2.419666666666667E+009;1.929894089698792E-001;-4.134988784790039E-002;-2.798986621201038E-003;2.343026455491781E-003;
2.419833333333334E+009;1.913270056247711E-001;-4.172238335013390E-002;-2.725360449403524E-003;2.472755732014775E-003;
2.420000000000000E+009;1.897843182086945E-001;-4.225963354110718E-002;-2.665947657078505E-003;2.616594312712550E-003;
2.420166666666667E+009;1.879641562700272E-001;-4.302710667252541E-002;-2.534411149099469E-003;2.759976079687476E-003;
2.420333333333334E+009;1.861943602561951E-001;-4.380527511239052E-002;-2.286603907123208E-003;2.863278379663825E-003;
2.420500000000000E+009;1.843034923076630E-001;-4.509144648909569E-002;-2.115339739248157E-003;2.830303972586989E-003;
2.420666666666667E+009;1.824405491352081E-001;-4.594217985868454E-002;-2.026666421443224E-003;3.020555246621370E-003;
2.420833333333334E+009;1.804544031620026E-001;-4.733182489871979E-002;-2.087722765281797E-003;2.925222972407937E-003;
2.421000000000000E+009;1.786983907222748E-001;-4.880960658192635E-002;-1.915229600854218E-003;2.985593862831593E-003;
2.421166666666667E+009;1.770623028278351E-001;-5.025353282690048E-002;-1.799078774638474E-003;3.041180316358805E-003;
2.421333333333334E+009;1.749778240919113E-001;-5.169703438878059E-002;-1.678820350207388E-003;3.071063896641135E-003;
2.421500000000000E+009;1.734913289546967E-001;-5.340645462274551E-002;-1.657917979173362E-003;3.217475488781929E-003;
2.421666666666667E+009;1.719153523445129E-001;-5.533374845981598E-002;-1.564730657264590E-003;3.270964371040463E-003;
2.421833333333334E+009;1.705374121665955E-001;-5.719054490327835E-002;-1.415900769643486E-003;3.072910243645310E-003;
2.422000000000000E+009;1.690153330564499E-001;-5.917609110474587E-002;-1.314181601628661E-003;3.251450136303902E-003;
2.422166666666667E+009;1.679375320672989E-001;-6.127617880702019E-002;-1.058740657754242E-003;3.232698887586594E-003;
2.422333333333334E+009;1.666046082973480E-001;-6.330940872430801E-002;-8.902908302843571E-004;3.295886563137174E-003;
2.422500000000000E+009;1.655278056859970E-001;-6.544841080904007E-002;-8.048652671277523E-004;3.308779094368219E-003;
2.422666666666667E+009;1.645123958587647E-001;-6.760447472333908E-002;-6.916190613992512E-004;3.356261178851128E-003;
2.422833333333334E+009;1.638270318508148E-001;-6.980060040950775E-002;-5.037017399445176E-004;3.382074413821101E-003;
2.423000000000000E+009;1.631144881248474E-001;-7.211919873952866E-002;-4.199410905130208E-004;3.487403970211744E-003;
2.423166666666667E+009;1.626818329095841E-001;-7.420861721038818E-002;-3.901796007994562E-004;3.375942585989833E-003;
2.423333333333334E+009;1.620470285415649E-001;-7.648024708032608E-002;-2.251749101560563E-004;3.407115582376719E-003;
2.423500000000000E+009;1.619600057601929E-001;-7.859906554222107E-002;5.261158366920427E-005;3.275056602433324E-003;
2.423666666666667E+009;1.619209945201874E-001;-8.079112321138382E-002;1.245832245331258E-004;3.354535205289722E-003;
2.423833333333334E+009;1.617739200592041E-001;-8.276871591806412E-002;1.365991192869842E-004;3.270462853834033E-003;
2.424000000000000E+009;1.616530567407608E-001;-8.487588912248612E-002;3.477655409369618E-004;3.090868471190333E-003;
2.424166666666667E+009;1.619988679885864E-001;-8.677989244461060E-002;4.433703725226224E-004;2.999452641233802E-003;
2.424333333333334E+009;1.620011329650879E-001;-8.865632116794586E-002;6.929736118763685E-004;2.997365314513445E-003;
2.424500000000000E+009;1.624646633863449E-001;-9.079696983098984E-002;7.972646853886545E-004;3.018734510987997E-003;
2.424666666666667E+009;1.628260016441345E-001;-9.234500676393509E-002;8.394227479584515E-004;2.739776391535997E-003;
2.424833333333334E+009;1.635201275348663E-001;-9.400404244661331E-002;1.018403447233141E-003;2.761047333478928E-003;
2.425000000000000E+009;1.639456003904343E-001;-9.557498991489410E-002;1.124610775150359E-003;2.688418608158827E-003;
2.425166666666667E+009;1.644376069307327E-001;-9.706836938858032E-002;1.125865033827722E-003;2.575266640633345E-003;
2.425333333333334E+009;1.648841649293900E-001;-9.828365594148636E-002;1.209326670505106E-003;2.387531567364931E-003;
2.425500000000000E+009;1.655345708131790E-001;-9.952940791845322E-002;1.305796904489398E-003;2.365561202168465E-003;
2.425666666666667E+009;1.662417203187943E-001;-1.004177629947662E-001;1.157234772108495E-003;2.254666294902563E-003;
2.425833333333334E+009;1.667254120111466E-001;-1.015619635581970E-001;1.217459095641971E-003;2.163392724469304E-003;
2.426000000000000E+009;1.674175858497620E-001;-1.021176278591156E-001;1.233212416991592E-003;2.043717540800571E-003;
2.426166666666667E+009;1.681586056947708E-001;-1.028434932231903E-001;1.166254049167037E-003;1.980544999241829E-003;
2.426333333333334E+009;1.686121076345444E-001;-1.035331711173058E-001;1.360571826808155E-003;1.961426809430122E-003;
2.426500000000000E+009;1.693158745765686E-001;-1.039965674281120E-001;1.112120342440903E-003;1.938941073603928E-003;
2.426666666666667E+009;1.699225455522537E-001;-1.043157801032066E-001;1.157487393356860E-003;1.820992445573211E-003;
2.426833333333334E+009;1.705198884010315E-001;-1.047035232186317E-001;1.189132453873754E-003;1.809944398701191E-003;
2.427000000000000E+009;1.708242446184158E-001;-1.049991771578789E-001;1.405705465003848E-003;1.758147845976055E-003;
2.427166666666667E+009;1.712976545095444E-001;-1.051493063569069E-001;1.276674331165850E-003;1.634964486584067E-003;
2.427333333333334E+009;1.714751273393631E-001;-1.053002327680588E-001;1.340981107205153E-003;1.649387530051172E-003;
2.427500000000000E+009;1.715945452451706E-001;-1.053511500358582E-001;1.351279905065894E-003;1.408673007972539E-003;
2.427666666666667E+009;1.715285927057266E-001;-1.054366752505302E-001;1.308041624724865E-003;1.330999191850424E-003;
