# Version 1.00
#
freq[Hz];re:Trc1_S11;im:Trc1_S11;re:Trc2_S21;im:Trc2_S21;
2.400000000000000E+009;1.631255596876144E-001;5.228952318429947E-002;2.575369784608483E-003;3.820017445832491E-003;
2.400166666666667E+009;1.629353910684586E-001;5.093455687165260E-002;2.762018237262964E-003;3.825841937214136E-003;
2.400333333333334E+009;1.627732813358307E-001;4.904723912477493E-002;2.754108980298042E-003;3.797412151470780E-003;
2.400500000000000E+009;1.627089232206345E-001;4.725731536746025E-002;2.902272623032332E-003;3.607315244153142E-003;
2.400666666666667E+009;1.627247482538223E-001;4.531506448984146E-002;2.968928543850780E-003;3.790341084823012E-003;
2.400833333333334E+009;1.626236587762833E-001;4.349716752767563E-002;3.346624784171581E-003;3.548447741195560E-003;
2.401000000000000E+009;1.627554446458817E-001;4.161671921610832E-002;3.405572846531868E-003;3.530280431732535E-003;
2.401166666666667E+009;1.628309935331345E-001;3.945504501461983E-002;3.572667483240366E-003;3.729115240275860E-003;
2.401333333333334E+009;1.627279967069626E-001;3.747308254241943E-002;3.656071843579412E-003;3.496157005429268E-003;
2.401500000000000E+009;1.630634516477585E-001;3.554133698344231E-002;3.917505498975515E-003;3.435245016589761E-003;
2.401666666666667E+009;1.632879674434662E-001;3.330647200345993E-002;3.965569194406271E-003;3.510677022859454E-003;
2.401833333333334E+009;1.635303199291229E-001;3.136684373021126E-002;4.330549854785204E-003;3.273711539804936E-003;
2.402000000000000E+009;1.636376380920410E-001;2.945412881672382E-002;4.495155066251755E-003;3.168695606291294E-003;
2.402166666666667E+009;1.639744788408279E-001;2.722649089992046E-002;4.681065678596497E-003;3.103174269199371E-003;
2.402333333333334E+009;1.645208895206451E-001;2.558379806578159E-002;4.726291168481112E-003;2.725441940128803E-003;
2.402500000000000E+009;1.651479005813599E-001;2.380134724080563E-002;4.960813559591770E-003;2.720651449635625E-003;
2.402666666666667E+009;1.654674112796783E-001;2.195888385176659E-002;5.223874934017658E-003;2.576368162408471E-003;
2.402833333333334E+009;1.662010550498962E-001;2.020627073943615E-002;5.417331587523222E-003;2.238157670944929E-003;
2.403000000000000E+009;1.669028550386429E-001;1.868278905749321E-002;5.403150338679552E-003;2.042009262368083E-003;
2.403166666666667E+009;1.674067080020905E-001;1.694988831877708E-002;5.559650249779224E-003;1.776323304511607E-003;
2.403333333333334E+009;1.683288365602493E-001;1.548443175852299E-002;5.878947209566832E-003;1.525131985545158E-003;
2.403500000000000E+009;1.688436269760132E-001;1.395183615386486E-002;5.950976628810167E-003;1.290740561671555E-003;
2.403666666666667E+009;1.696473211050034E-001;1.253401301801205E-002;6.029458250850439E-003;8.999176206998527E-004;
2.403833333333334E+009;1.705292612314224E-001;1.116676721721888E-002;6.123053841292858E-003;5.800662329420447E-004;
2.404000000000000E+009;1.714499592781067E-001;1.001533027738333E-002;6.233889143913984E-003;3.979540779255331E-004;
2.404166666666667E+009;1.719134151935577E-001;8.751980960369110E-003;6.057320162653923E-003;1.463087210140657E-005;
2.404333333333334E+009;1.728802323341370E-001;7.682488765567541E-003;6.142856087535620E-003;-2.778699272312224E-004;
2.404500000000000E+009;1.735834628343582E-001;6.576125510036945E-003;6.021805573254824E-003;-5.773927550762892E-004;
2.404666666666667E+009;1.743476688861847E-001;5.714362952858210E-003;5.877411924302578E-003;-9.865376632660627E-004;
2.404833333333334E+009;1.751207709312439E-001;4.982261452823877E-003;5.943435244262219E-003;-1.293311477638781E-003;
2.405000000000000E+009;1.759801805019379E-001;4.159749951213598E-003;5.768875125795603E-003;-1.637739362195134E-003;
2.405166666666667E+009;1.765858978033066E-001;3.452604636549950E-003;5.971267819404602E-003;-1.811863970942795E-003;
2.405333333333334E+009;1.773695349693298E-001;2.647123299539089E-003;5.666699260473251E-003;-1.920968294143677E-003;
2.405500000000000E+009;1.779544204473496E-001;2.286079572513700E-003;5.444237031042576E-003;-2.358337864279747E-003;
2.405666666666667E+009;1.785524785518646E-001;1.764370361343026E-003;5.234585609287024E-003;-2.615926321595907E-003;
2.405833333333334E+009;1.788462251424789E-001;1.398721477016807E-003;5.115190986543894E-003;-2.751306630671024E-003;
2.406000000000000E+009;1.794357150793076E-001;9.652354056015611E-004;4.934190306812525E-003;-3.032601438462734E-003;
2.406166666666667E+009;1.796425729990006E-001;6.387794855982065E-004;4.726530518382788E-003;-3.117696614935994E-003;
2.406333333333334E+009;1.801481992006302E-001;3.832595830317587E-004;4.464620258659124E-003;-3.486400470137596E-003;
2.406500000000000E+009;1.803101450204849E-001;-6.351542106131092E-005;4.383540246635675E-003;-3.538697026669979E-003;
2.406666666666667E+009;1.803989857435226E-001;-1.970839512068778E-004;4.264835268259049E-003;-3.610472194850445E-003;
2.406833333333334E+009;1.807212531566620E-001;-6.408319459296763E-004;4.020715598016977E-003;-3.938596695661545E-003;
2.407000000000000E+009;1.807049959897995E-001;-8.368411799892783E-004;3.952110651880503E-003;-3.938480746001005E-003;
2.407166666666667E+009;1.805424690246582E-001;-1.140232081525028E-003;3.729920135810971E-003;-4.089507274329662E-003;
2.407333333333334E+009;1.804995536804199E-001;-1.635599764995277E-003;3.471427131444216E-003;-4.281172994524241E-003;
2.407500000000000E+009;1.803617179393768E-001;-1.893845968879759E-003;3.245496423915029E-003;-4.135047551244497E-003;
2.407666666666667E+009;1.801123172044754E-001;-2.204773249104619E-003;3.087044460698962E-003;-4.215329885482788E-003;
2.407833333333334E+009;1.795551180839539E-001;-2.800656948238611E-003;2.916090423241258E-003;-4.419847391545773E-003;
2.408000000000000E+009;1.793535053730011E-001;-3.456452861428261E-003;2.871679607778788E-003;-4.479283466935158E-003;
2.408166666666667E+009;1.788275688886643E-001;-3.799020079895854E-003;2.513403305783868E-003;-4.462257027626038E-003;
2.408333333333334E+009;1.784927695989609E-001;-4.426257219165564E-003;2.251570578664541E-003;-4.410081543028355E-003;
2.408500000000000E+009;1.778235733509064E-001;-5.183747038245201E-003;2.168813487514854E-003;-4.632433410733938E-003;
2.408666666666667E+009;1.770424991846085E-001;-5.976230371743441E-003;1.992650795727968E-003;-4.581688903272152E-003;
2.408833333333334E+009;1.764679253101349E-001;-6.758701056241989E-003;1.813663868233562E-003;-4.619525279849768E-003;
2.409000000000000E+009;1.757086515426636E-001;-7.759421132504940E-003;1.708392635919154E-003;-4.743298050016165E-003;
2.409166666666667E+009;1.750443428754807E-001;-8.704567328095436E-003;1.485986984334886E-003;-4.653132986277342E-003;
2.409333333333334E+009;1.744694858789444E-001;-9.907947853207588E-003;1.276823924854398E-003;-4.762993659824133E-003;
2.409500000000000E+009;1.736220866441727E-001;-1.120688859373331E-002;1.033994718454778E-003;-4.603156354278326E-003;
2.409666666666667E+009;1.727697849273682E-001;-1.239479612559080E-002;9.451545774936676E-004;-4.632419440895319E-003;
2.409833333333334E+009;1.718306839466095E-001;-1.356287486851215E-002;7.189596653915942E-004;-4.709993954747915E-003;
2.410000000000000E+009;1.713915169239044E-001;-1.504676137119532E-002;5.698823952116072E-004;-4.718590993434191E-003;
2.410166666666667E+009;1.706815212965012E-001;-1.643524505198002E-002;3.817887045443058E-004;-4.558068700134754E-003;
2.410333333333334E+009;1.698889583349228E-001;-1.826341636478901E-002;3.001676814164966E-004;-4.496123176068068E-003;
2.410500000000000E+009;1.694186627864838E-001;-1.981345750391483E-002;3.836764517473057E-005;-4.566645715385675E-003;
2.410666666666667E+009;1.687280088663101E-001;-2.145025506615639E-002;-5.144123861100525E-005;-4.546788521111012E-003;
2.410833333333334E+009;1.682620495557785E-001;-2.319531142711639E-002;-2.353089257667307E-005;-4.584338515996933E-003;
2.411000000000000E+009;1.678045988082886E-001;-2.505836263298988E-002;-1.715575199341402E-004;-4.358736332505941E-003;
2.411166666666667E+009;1.671553105115891E-001;-2.698331512510777E-002;-2.459755924064666E-004;-4.368539899587631E-003;
2.411333333333334E+009;1.668615639209747E-001;-2.874964848160744E-002;-4.123321850784123E-004;-4.401113372296095E-003;
2.411500000000000E+009;1.665549427270889E-001;-3.070271201431751E-002;-7.439057808369398E-004;-4.301652312278748E-003;
2.411666666666667E+009;1.664072126150131E-001;-3.267519176006317E-002;-6.978467572480440E-004;-4.211080260574818E-003;
2.411833333333334E+009;1.662013083696365E-001;-3.447236120700836E-002;-8.786845137365162E-004;-4.119675140827894E-003;
2.412000000000000E+009;1.660105586051941E-001;-3.655548766255379E-002;-1.037353766150773E-003;-4.161861259490252E-003;
2.412166666666667E+009;1.658973991870880E-001;-3.856611251831055E-002;-1.151000265963376E-003;-4.144378006458283E-003;
2.412333333333334E+009;1.662023365497589E-001;-4.037965461611748E-002;-1.329105929471552E-003;-4.158199764788151E-003;
2.412500000000000E+009;1.659467071294785E-001;-4.227097332477570E-002;-1.591267646290362E-003;-4.110162146389484E-003;
2.412666666666667E+009;1.662151068449020E-001;-4.439412429928780E-002;-1.540186582133174E-003;-3.900674637407064E-003;
2.412833333333334E+009;1.663110405206680E-001;-4.617010429501534E-002;-1.854079659096897E-003;-4.031911958009005E-003;
2.413000000000000E+009;1.665965467691422E-001;-4.786933958530426E-002;-1.905372948385775E-003;-4.020707681775093E-003;
2.413166666666667E+009;1.668444126844406E-001;-4.969328641891480E-002;-1.837110146880150E-003;-3.728793701156974E-003;
2.413333333333334E+009;1.670956909656525E-001;-5.158732831478119E-002;-2.228231634944677E-003;-3.633535932749510E-003;
2.413500000000000E+009;1.673696041107178E-001;-5.318491160869598E-002;-2.295888960361481E-003;-3.651766572147608E-003;
2.413666666666667E+009;1.679773926734924E-001;-5.488790944218636E-002;-2.383574843406677E-003;-3.641525283455849E-003;
2.413833333333334E+009;1.682085692882538E-001;-5.635546147823334E-002;-2.609754912555218E-003;-3.512562951073051E-003;
2.414000000000000E+009;1.686145812273026E-001;-5.784086883068085E-002;-2.707820385694504E-003;-3.282645717263222E-003;
2.414166666666667E+009;1.693305075168610E-001;-5.917356908321381E-002;-2.875488018617034E-003;-3.232862101867795E-003;
2.414333333333334E+009;1.696030646562576E-001;-6.047403439879417E-002;-2.833058126270771E-003;-3.149411175400019E-003;
2.414500000000000E+009;1.704434454441071E-001;-6.166081503033638E-002;-3.043017815798521E-003;-2.843701746314764E-003;
2.414666666666667E+009;1.706725358963013E-001;-6.274997442960739E-002;-3.188097616657615E-003;-2.756976289674640E-003;
2.414833333333334E+009;1.711349636316299E-001;-6.382521986961365E-002;-3.326982725411654E-003;-2.554995473474264E-003;
2.415000000000000E+009;1.716726273298264E-001;-6.449039280414581E-002;-3.241679864004254E-003;-2.483117859810591E-003;
2.415166666666667E+009;1.719989627599716E-001;-6.546589732170105E-002;-3.487217472866178E-003;-2.405880484730005E-003;
2.415333333333334E+009;1.725230365991592E-001;-6.628648191690445E-002;-3.448589006438851E-003;-2.348314970731735E-003;
2.415500000000000E+009;1.726746112108231E-001;-6.681641936302185E-002;-3.542476566508412E-003;-1.993791665881872E-003;
2.415666666666667E+009;1.730452924966812E-001;-6.740117073059082E-002;-3.697140840813518E-003;-2.027686918154359E-003;
2.415833333333334E+009;1.732697486877441E-001;-6.799811124801636E-002;-3.589938161894679E-003;-1.819973229430616E-003;
2.416000000000000E+009;1.733760982751846E-001;-6.834585964679718E-002;-3.726786235347390E-003;-1.695285085588694E-003;
2.416166666666667E+009;1.736759841442108E-001;-6.872440874576569E-002;-3.802282968536019E-003;-1.673930208198726E-003;
2.416333333333334E+009;1.736569106578827E-001;-6.898928433656693E-002;-3.733169985935092E-003;-1.401473069563508E-003;
2.416500000000000E+009;1.735494583845139E-001;-6.942489743232727E-002;-3.864952363073826E-003;-1.169344643130899E-003;
2.416666666666667E+009;1.733825504779816E-001;-6.950049847364426E-002;-3.823986975476146E-003;-9.956988506019115E-004;
2.416833333333334E+009;1.733554005622864E-001;-6.988690793514252E-002;-3.885117825120688E-003;-8.463746053166688E-004;
2.417000000000000E+009;1.727711856365204E-001;-7.012547552585602E-002;-3.839618293568492E-003;-6.336324731819332E-004;
2.417166666666667E+009;1.724239289760590E-001;-7.018136233091354E-002;-3.829397959634662E-003;-5.989836645312607E-004;
2.417333333333334E+009;1.720633357763290E-001;-7.034261524677277E-002;-3.784089814871550E-003;-3.117170417681336E-004;
2.417500000000000E+009;1.713619530200958E-001;-7.057186961174011E-002;-3.730339230969548E-003;-1.471542054787278E-004;
2.417666666666667E+009;1.708272397518158E-001;-7.067412137985230E-002;-3.792603965848684E-003;-8.607139898231253E-005;
2.417833333333334E+009;1.700392663478851E-001;-7.091931253671646E-002;-3.686943324282765E-003;7.691186328884214E-005;
2.418000000000000E+009;1.692110598087311E-001;-7.111706584692001E-002;-3.589760512113571E-003;3.661757218651474E-004;
2.418166666666667E+009;1.683774739503861E-001;-7.122723758220673E-002;-3.589410800486803E-003;4.777281137648970E-004;
2.418333333333334E+009;1.675728857517242E-001;-7.164055109024048E-002;-3.684628754854202E-003;4.970114096067846E-004;
2.418500000000000E+009;1.664439141750336E-001;-7.196314632892609E-002;-3.630254417657852E-003;5.283742793835700E-004;
2.418666666666667E+009;1.653266251087189E-001;-7.240766286849976E-002;-3.400249406695366E-003;8.020250825211406E-004;
2.418833333333334E+009;1.641276180744171E-001;-7.280842959880829E-002;-3.262086538597941E-003;8.955492521636188E-004;
2.419000000000000E+009;1.630215197801590E-001;-7.326106727123261E-002;-3.337717149406672E-003;1.029728911817074E-003;
2.419166666666667E+009;1.617866903543472E-001;-7.395625859498978E-002;-3.215638455003500E-003;1.226297812536359E-003;
2.419333333333334E+009;1.604387313127518E-001;-7.429575920104981E-002;-3.038060152903199E-003;1.133214449509978E-003;
2.419500000000000E+009;1.592366546392441E-001;-7.503154128789902E-002;-3.011123277246952E-003;1.314580207690597E-003;
2.419666666666667E+009;1.581674516201019E-001;-7.595121860504150E-002;-2.815476385876536E-003;1.440794207155705E-003;
2.419833333333334E+009;1.567018032073975E-001;-7.670944929122925E-002;-2.887211972847581E-003;1.409699441865087E-003;
2.420000000000000E+009;1.554614752531052E-001;-7.774983346462250E-002;-2.854333026334643E-003;1.703236484900117E-003;
2.420166666666667E+009;1.544337868690491E-001;-7.860940694808960E-002;-2.603679895401001E-003;1.596956513822079E-003;
2.420333333333334E+009;1.530643701553345E-001;-7.987932115793228E-002;-2.512350911274552E-003;1.701711560599506E-003;
2.420500000000000E+009;1.519834399223328E-001;-8.087111264467239E-002;-2.450093626976013E-003;1.894909772090614E-003;
2.420666666666667E+009;1.509475558996201E-001;-8.216205984354019E-002;-2.346475375816226E-003;1.981522422283888E-003;
2.420833333333334E+009;1.501066237688065E-001;-8.346492797136307E-002;-2.341388259083033E-003;2.011568518355489E-003;
2.421000000000000E+009;1.488028615713120E-001;-8.495037257671356E-002;-2.347887959331274E-003;2.031535608693957E-003;
2.421166666666667E+009;1.480034291744232E-001;-8.646783232688904E-002;-1.987588824704289E-003;2.131939167156816E-003;
2.421333333333334E+009;1.471085846424103E-001;-8.799878507852554E-002;-1.898532500490546E-003;2.166197402402759E-003;
2.421500000000000E+009;1.461762785911560E-001;-8.950117230415344E-002;-1.677818130701780E-003;2.375465119257569E-003;
2.421666666666667E+009;1.456312090158463E-001;-9.114909172058106E-002;-1.693048630841076E-003;2.420793520286679E-003;
2.421833333333334E+009;1.450497955083847E-001;-9.285243600606918E-002;-1.459305291064084E-003;2.298975363373756E-003;
2.422000000000000E+009;1.443299949169159E-001;-9.436319768428803E-002;-1.496783806942403E-003;2.309089526534081E-003;
2.422166666666667E+009;1.438898444175720E-001;-9.637246280908585E-002;-1.226109452545643E-003;2.439636504277587E-003;
2.422333333333334E+009;1.436619013547897E-001;-9.806100279092789E-002;-1.163961831480265E-003;2.434476744383574E-003;
2.422500000000000E+009;1.432276219129562E-001;-9.967271238565445E-002;-7.387721561826766E-004;2.348351757973433E-003;
2.422666666666667E+009;1.429223269224167E-001;-1.014204695820808E-001;-8.602277375757694E-004;2.463260898366571E-003;
2.422833333333334E+009;1.431127190589905E-001;-1.032385230064392E-001;-7.306358893401921E-004;2.510726917535067E-003;
2.423000000000000E+009;1.427752673625946E-001;-1.049488931894302E-001;-6.873177480883896E-004;2.491587307304144E-003;
2.423166666666667E+009;1.429398357868195E-001;-1.067810952663422E-001;-3.544404462445527E-004;2.319067949429154E-003;
2.423333333333334E+009;1.431359946727753E-001;-1.082205548882484E-001;-3.351640189066529E-004;2.123435027897358E-003;
2.423500000000000E+009;1.431561261415482E-001;-1.100425049662590E-001;-2.227382501587272E-004;1.974443439394236E-003;
2.423666666666667E+009;1.432025432586670E-001;-1.116537228226662E-001;-9.884936298476532E-005;2.207734622061253E-003;
2.423833333333334E+009;1.437551379203796E-001;-1.132038459181786E-001;7.576999450975563E-006;2.046968322247267E-003;
2.424000000000000E+009;1.438366323709488E-001;-1.145026758313179E-001;6.124969513621181E-005;1.926471129991114E-003;
2.424166666666667E+009;1.441876590251923E-001;-1.159178540110588E-001;-7.900077434896957E-006;1.845327322371304E-003;
2.424333333333334E+009;1.446375548839569E-001;-1.171903461217880E-001;1.783282787073404E-004;1.892181695438922E-003;
2.424500000000000E+009;1.450857967138290E-001;-1.185337975621223E-001;2.430126623949036E-004;1.900984789244831E-003;
2.424666666666667E+009;1.454280167818070E-001;-1.194003447890282E-001;1.426998351234943E-004;1.659651636146009E-003;
2.424833333333334E+009;1.456986814737320E-001;-1.205909997224808E-001;2.104993909597397E-004;1.600245130248368E-003;
2.425000000000000E+009;1.462366133928299E-001;-1.216801777482033E-001;3.442374872975051E-004;1.737161772325635E-003;
2.425166666666667E+009;1.465188115835190E-001;-1.224924474954605E-001;4.155028145760298E-004;1.538760727271438E-003;
2.425333333333334E+009;1.468859016895294E-001;-1.232877373695374E-001;3.520387690514326E-004;1.523043029010296E-003;
2.425500000000000E+009;1.471862047910690E-001;-1.240385696291924E-001;4.335245175752789E-004;1.403308939188719E-003;
2.425666666666667E+009;1.474070549011231E-001;-1.246091052889824E-001;5.036367801949382E-004;1.268555410206318E-003;
2.425833333333334E+009;1.477555632591248E-001;-1.252135932445526E-001;4.611267067957670E-004;1.317897229455411E-003;
2.426000000000000E+009;1.479154080152512E-001;-1.257300972938538E-001;4.955716431140900E-004;1.297471928410232E-003;
2.426166666666667E+009;1.482441425323486E-001;-1.261723488569260E-001;6.022558081895113E-004;1.175384735688567E-003;
2.426333333333334E+009;1.481744796037674E-001;-1.264913380146027E-001;4.816477303393185E-004;1.140883890911937E-003;
2.426500000000000E+009;1.482885330915451E-001;-1.266079396009445E-001;6.995713338255882E-004;1.122887828387320E-003;
2.426666666666667E+009;1.483749002218247E-001;-1.266314834356308E-001;6.895614787936211E-004;1.082767616026104E-003;
2.426833333333334E+009;1.482494473457336E-001;-1.267773211002350E-001;5.893695051781833E-004;1.119010965339840E-003;
2.427000000000000E+009;1.479316800832748E-001;-1.269630193710327E-001;6.022839224897325E-004;9.582930360920727E-004;
2.427166666666667E+009;1.476746648550034E-001;-1.268467307090759E-001;5.847613210789859E-004;9.129012469202280E-004;
2.427333333333334E+009;1.471760272979736E-001;-1.268671005964279E-001;5.843257531523705E-004;9.257204947061837E-004;
2.427500000000000E+009;1.466910243034363E-001;-1.268411874771118E-001;6.752709159627557E-004;7.423470378853381E-004;
2.427666666666667E+009;1.460722237825394E-001;-1.268114149570465E-001;6.000548601150513E-004;7.895992021076381E-004;
