# Version 1.00
#
freq[Hz];re:Trc1_S11;im:Trc1_S11;re:Trc2_S21;im:Trc2_S21;
2.400000000000000E+009;1.551511287689209E-001;1.064532101154327E-001;-2.360226120799780E-003;-2.503867261111736E-003;
2.400166666666667E+009;1.548012644052506E-001;1.040955334901810E-001;-2.354231895878911E-003;-2.211920684203506E-003;
2.400333333333334E+009;1.549667567014694E-001;1.017114669084549E-001;-2.414132934063673E-003;-1.776496414095163E-003;
2.400500000000000E+009;1.548723578453064E-001;9.893812984228134E-002;-2.453258493915200E-003;-1.545308623462915E-003;
2.400666666666667E+009;1.548230946063995E-001;9.657655656337738E-002;-2.196872374042869E-003;-1.241091405972838E-003;
2.400833333333334E+009;1.548779010772705E-001;9.359534829854965E-002;-2.181316725909710E-003;-1.044594100676477E-003;
2.401000000000000E+009;1.550308912992477E-001;9.070654213428497E-002;-1.947932061739266E-003;-7.923346129246056E-004;
2.401166666666667E+009;1.551440507173538E-001;8.807011693716049E-002;-1.742730382829905E-003;-8.164512109942734E-004;
2.401333333333334E+009;1.554968804121018E-001;8.535099774599075E-002;-1.381450332701206E-003;-5.342959193512797E-004;
2.401500000000000E+009;1.557709127664566E-001;8.215042948722839E-002;-1.083772396668792E-003;-5.171024822629988E-004;
2.401666666666667E+009;1.561874300241470E-001;7.936348766088486E-002;-9.529575472697616E-004;-5.157664418220520E-004;
2.401833333333334E+009;1.566721946001053E-001;7.665020972490311E-002;-5.702826892957091E-004;-4.335346166044474E-004;
2.402000000000000E+009;1.574796140193939E-001;7.374954223632813E-002;-6.485481862910092E-004;-6.026392802596092E-004;
2.402166666666667E+009;1.583269238471985E-001;7.125091552734375E-002;-4.722912271972746E-004;-8.692674455232918E-004;
2.402333333333334E+009;1.593691259622574E-001;6.854071468114853E-002;-4.058065824210644E-004;-8.523291908204556E-004;
2.402500000000000E+009;1.603562235832214E-001;6.610736250877380E-002;-9.370686893817037E-005;-1.098977518267930E-003;
2.402666666666667E+009;1.614706367254257E-001;6.361644715070725E-002;-1.369769888697192E-004;-1.200418104417622E-003;
2.402833333333334E+009;1.628222763538361E-001;6.126845255494118E-002;-1.999287196667865E-004;-1.250485423952341E-003;
2.403000000000000E+009;1.640070676803589E-001;5.874463915824890E-002;-1.070485304808244E-004;-1.456284546293318E-003;
2.403166666666667E+009;1.659026145935059E-001;5.651983618736267E-002;-2.902688574977219E-004;-1.471817260608077E-003;
2.403333333333334E+009;1.671833544969559E-001;5.444320291280747E-002;-4.073195450473577E-004;-1.526852138340473E-003;
2.403500000000000E+009;1.688816994428635E-001;5.244286358356476E-002;-2.695787115953863E-004;-1.597255934029818E-003;
2.403666666666667E+009;1.705670207738876E-001;5.037818476557732E-002;-4.295150865800679E-004;-1.558528048917651E-003;
2.403833333333334E+009;1.723320186138153E-001;4.865932092070580E-002;-4.849077085964382E-004;-1.764063839800656E-003;
2.404000000000000E+009;1.736776232719421E-001;4.692654684185982E-002;-4.259347042534500E-004;-1.862677745521069E-003;
2.404166666666667E+009;1.755234152078629E-001;4.544024169445038E-002;-6.622454966418445E-004;-1.805298146791756E-003;
2.404333333333334E+009;1.771358996629715E-001;4.383365064859390E-002;-4.438732285052538E-004;-1.834574737586081E-003;
2.404500000000000E+009;1.788066476583481E-001;4.258232191205025E-002;-5.304638762027025E-004;-2.021474065259099E-003;
2.404666666666667E+009;1.802466362714768E-001;4.152061045169830E-002;-6.105215870775282E-004;-1.918131252750754E-003;
2.404833333333334E+009;1.820990741252899E-001;4.028813913464546E-002;-7.060689385980368E-004;-2.018074272200465E-003;
2.405000000000000E+009;1.832373887300491E-001;3.972455486655235E-002;-8.143574814312160E-004;-2.080542035400868E-003;
2.405166666666667E+009;1.849857270717621E-001;3.919117525219917E-002;-8.579257410019636E-004;-2.048747846856713E-003;
2.405333333333334E+009;1.860834211111069E-001;3.870621696114540E-002;-8.600564906373620E-004;-2.111152047291398E-003;
2.405500000000000E+009;1.877194195985794E-001;3.818760439753532E-002;-9.868353372439742E-004;-2.360194921493530E-003;
2.405666666666667E+009;1.887940168380737E-001;3.785131871700287E-002;-1.258571981452406E-003;-2.241768175736070E-003;
2.405833333333334E+009;1.900748908519745E-001;3.770499676465988E-002;-1.378076151013374E-003;-2.077820943668485E-003;
2.406000000000000E+009;1.912370771169663E-001;3.762105107307434E-002;-1.506016706116498E-003;-2.224374795332551E-003;
2.406166666666667E+009;1.921605467796326E-001;3.749873116612434E-002;-1.486915862187743E-003;-2.288797637447715E-003;
2.406333333333334E+009;1.931558400392532E-001;3.746621310710907E-002;-1.731964759528637E-003;-2.399845281615853E-003;
2.406500000000000E+009;1.938856691122055E-001;3.747247532010078E-002;-1.700747059658170E-003;-2.316828118637204E-003;
2.406666666666667E+009;1.945299655199051E-001;3.763130679726601E-002;-1.986918505281210E-003;-2.156223403289914E-003;
2.406833333333334E+009;1.950901448726654E-001;3.771888092160225E-002;-2.068570582196116E-003;-2.198947593569756E-003;
2.407000000000000E+009;1.954105198383331E-001;3.786071762442589E-002;-2.197953872382641E-003;-2.123921643942595E-003;
2.407166666666667E+009;1.957901120185852E-001;3.784130513668060E-002;-2.386829815804958E-003;-2.133079338818789E-003;
2.407333333333334E+009;1.957708448171616E-001;3.809752687811852E-002;-2.455951180309057E-003;-2.019294537603855E-003;
2.407500000000000E+009;1.956634968519211E-001;3.825334832072258E-002;-2.521167043596506E-003;-2.003939589485526E-003;
2.407666666666667E+009;1.957206130027771E-001;3.816809877753258E-002;-2.651294227689505E-003;-1.973990583792329E-003;
2.407833333333334E+009;1.952950805425644E-001;3.817705810070038E-002;-2.786954632028937E-003;-1.847380655817688E-003;
2.408000000000000E+009;1.952846646308899E-001;3.793577477335930E-002;-2.972545102238655E-003;-1.675309962593019E-003;
2.408166666666667E+009;1.947320550680161E-001;3.766588866710663E-002;-2.913450822234154E-003;-1.746837398968637E-003;
2.408333333333334E+009;1.941315233707428E-001;3.728172183036804E-002;-3.098326036706567E-003;-1.674172352068126E-003;
2.408500000000000E+009;1.935848742723465E-001;3.679120540618897E-002;-3.094357904046774E-003;-1.549655222333968E-003;
2.408666666666667E+009;1.928395479917526E-001;3.641140460968018E-002;-3.209745278581977E-003;-1.421706052497029E-003;
2.408833333333334E+009;1.923150271177292E-001;3.564865142107010E-002;-3.240139689296484E-003;-1.341158174909651E-003;
2.409000000000000E+009;1.912365555763245E-001;3.482051566243172E-002;-3.202374791726470E-003;-1.196637516841292E-003;
2.409166666666667E+009;1.903630495071411E-001;3.378718346357346E-002;-3.402409376576543E-003;-1.089734374545515E-003;
2.409333333333334E+009;1.895467936992645E-001;3.278422355651856E-002;-3.398586297407746E-003;-8.990246569737792E-004;
2.409500000000000E+009;1.883466243743897E-001;3.147177770733833E-002;-3.535841358825564E-003;-8.647520444355905E-004;
2.409666666666667E+009;1.873632371425629E-001;3.022417798638344E-002;-3.665986470878124E-003;-7.244008011184633E-004;
2.409833333333334E+009;1.865282952785492E-001;2.862419560551643E-002;-3.743705572560430E-003;-5.168831557966769E-004;
2.410000000000000E+009;1.853706091642380E-001;2.701513469219208E-002;-3.823066363111138E-003;-3.868216299451888E-004;
2.410166666666667E+009;1.843452155590057E-001;2.523938193917275E-002;-3.898924449458718E-003;-1.555449562147260E-004;
2.410333333333334E+009;1.834376454353333E-001;2.336936630308628E-002;-3.781451378017664E-003;-1.479200291214511E-004;
2.410500000000000E+009;1.824778020381928E-001;2.138675004243851E-002;-3.690859302878380E-003;-7.757542334729806E-006;
2.410666666666667E+009;1.815899610519409E-001;1.908764801919460E-002;-3.709010547026992E-003;2.125851751770824E-004;
2.410833333333334E+009;1.808599829673767E-001;1.718697883188725E-002;-3.641767660155892E-003;2.212229010183364E-004;
2.411000000000000E+009;1.800964772701263E-001;1.481456775218248E-002;-3.654466941952705E-003;4.991770256310701E-004;
2.411166666666667E+009;1.794936209917069E-001;1.249997969716787E-002;-3.560060868039727E-003;4.654062213376164E-004;
2.411333333333334E+009;1.790960580110550E-001;1.000386942178011E-002;-3.442229470238090E-003;6.344367866404355E-004;
2.411500000000000E+009;1.785729527473450E-001;7.653865497559309E-003;-3.581047989428043E-003;7.487653638236225E-004;
2.411666666666667E+009;1.784633249044418E-001;5.515004508197308E-003;-3.417246975004673E-003;6.982323830015957E-004;
2.411833333333334E+009;1.781840026378632E-001;3.082023700699210E-003;-3.426409792155027E-003;9.726678836159408E-004;
2.412000000000000E+009;1.780770719051361E-001;5.873910849913955E-004;-3.336819587275386E-003;9.702072129584849E-004;
2.412166666666667E+009;1.783832460641861E-001;-1.798181794583798E-003;-3.397620050236583E-003;9.633049485273659E-004;
2.412333333333334E+009;1.785593330860138E-001;-4.547394812107086E-003;-3.370614023879170E-003;1.062194234691560E-003;
2.412500000000000E+009;1.790478974580765E-001;-6.714071147143841E-003;-3.282458754256368E-003;1.100203837268055E-003;
2.412666666666667E+009;1.794456988573074E-001;-9.426029399037361E-003;-3.256021998822689E-003;1.209830283187330E-003;
2.412833333333334E+009;1.803664118051529E-001;-1.174767687916756E-002;-3.305640304461122E-003;1.083638169802725E-003;
2.413000000000000E+009;1.810868084430695E-001;-1.415558811277151E-002;-3.295769682154059E-003;1.383043476380408E-003;
2.413166666666667E+009;1.819818019866943E-001;-1.643059030175209E-002;-3.365920390933752E-003;1.452225842513144E-003;
2.413333333333334E+009;1.829657852649689E-001;-1.875527761876583E-002;-3.363956697285175E-003;1.558490563184023E-003;
2.413500000000000E+009;1.838724762201309E-001;-2.105476334691048E-002;-3.465204499661923E-003;1.738241175189614E-003;
2.413666666666667E+009;1.850563287734985E-001;-2.330384589731693E-002;-3.271368565037847E-003;1.737620565108955E-003;
2.413833333333334E+009;1.861771494150162E-001;-2.510670572519302E-002;-3.335182089358568E-003;2.099980833008885E-003;
2.414000000000000E+009;1.872565150260925E-001;-2.732880972325802E-002;-3.164972877129912E-003;2.297144616022706E-003;
2.414166666666667E+009;1.886501312255859E-001;-2.905866876244545E-002;-3.162454813718796E-003;2.507911762222648E-003;
2.414333333333334E+009;1.897930055856705E-001;-3.105818480253220E-002;-3.007369115948677E-003;2.603358123451471E-003;
2.414500000000000E+009;1.909289807081223E-001;-3.262463212013245E-002;-2.933259354904294E-003;2.759537892416120E-003;
2.414666666666667E+009;1.920643001794815E-001;-3.412010893225670E-002;-2.657752484083176E-003;2.787446603178978E-003;
2.414833333333334E+009;1.933289915323257E-001;-3.557086363434792E-002;-2.656701952219009E-003;2.996020019054413E-003;
2.415000000000000E+009;1.945014595985413E-001;-3.683391213417053E-002;-2.442513359710574E-003;3.082437440752983E-003;
2.415166666666667E+009;1.957571357488632E-001;-3.805265948176384E-002;-2.290073549374938E-003;3.078893758356571E-003;
2.415333333333334E+009;1.968991756439209E-001;-3.898600116372109E-002;-2.121173311024904E-003;3.410818055272102E-003;
2.415500000000000E+009;1.979524493217468E-001;-3.967272117733955E-002;-1.879090908914805E-003;3.342788200825453E-003;
2.415666666666667E+009;1.990211457014084E-001;-4.054125770926476E-002;-1.720838365145028E-003;3.510798793286085E-003;
2.415833333333334E+009;1.999149769544601E-001;-4.120684415102005E-002;-1.537478528916836E-003;3.673580475151539E-003;
2.416000000000000E+009;2.006561905145645E-001;-4.171493649482727E-002;-1.381338573992252E-003;3.621590556576848E-003;
2.416166666666667E+009;2.013546675443649E-001;-4.236052557826042E-002;-1.188898109830916E-003;3.572867251932621E-003;
2.416333333333334E+009;2.020406872034073E-001;-4.265508428215981E-002;-1.046954188495874E-003;3.592869499698281E-003;
2.416500000000000E+009;2.024396061897278E-001;-4.282315820455551E-002;-7.681227871216834E-004;3.505305154249072E-003;
2.416666666666667E+009;2.027496099472046E-001;-4.323198646306992E-002;-4.541867238003761E-004;3.551666159182787E-003;
2.416833333333334E+009;2.028098255395889E-001;-4.317450523376465E-002;-5.570902139879763E-004;3.412135643884540E-003;
2.417000000000000E+009;2.030203342437744E-001;-4.323450848460197E-002;-1.913401065394282E-004;3.414119593799114E-003;
2.417166666666667E+009;2.027306258678436E-001;-4.310995340347290E-002;-3.188710834365338E-004;3.310650354251266E-003;
2.417333333333334E+009;2.024264633655548E-001;-4.295616969466209E-002;-1.048576668836176E-004;3.245903179049492E-003;
2.417500000000000E+009;2.020931094884872E-001;-4.282873496413231E-002;-6.759552343282849E-005;3.191333031281829E-003;
2.417666666666667E+009;2.016643285751343E-001;-4.276891797780991E-002;1.480170321883634E-004;3.172978758811951E-003;
2.417833333333334E+009;2.012022137641907E-001;-4.241986572742462E-002;1.551617024233565E-004;2.951204776763916E-003;
2.418000000000000E+009;2.006076723337174E-001;-4.219041019678116E-002;2.537972468417138E-004;2.985996892675757E-003;
2.418166666666667E+009;1.996340304613113E-001;-4.213885217905045E-002;3.468197828624398E-004;2.996443770825863E-003;
2.418333333333334E+009;1.988021284341812E-001;-4.195024818181992E-002;4.254104860592634E-004;2.951806643977761E-003;
2.418500000000000E+009;1.978202015161514E-001;-4.197529330849648E-002;6.231506704352796E-004;2.735801506787539E-003;
2.418666666666667E+009;1.968450099229813E-001;-4.182048514485359E-002;6.591043784283102E-004;2.629484981298447E-003;
2.418833333333334E+009;1.955586373806000E-001;-4.206066578626633E-002;7.298242417164147E-004;2.667669206857681E-003;
2.419000000000000E+009;1.941992193460465E-001;-4.220790043473244E-002;8.566885371692479E-004;2.507462399080396E-003;
2.419166666666667E+009;1.929960101842880E-001;-4.257347434759140E-002;8.956977981142700E-004;2.336678793653846E-003;
2.419333333333334E+009;1.916123628616333E-001;-4.297007620334625E-002;1.050933613441885E-003;2.046005334705114E-003;
2.419500000000000E+009;1.900749951601028E-001;-4.341721907258034E-002;1.004112069495022E-003;1.959010493010283E-003;
2.419666666666667E+009;1.884195357561112E-001;-4.419196024537087E-002;1.056313398294151E-003;1.880957861430943E-003;
2.419833333333334E+009;1.867857426404953E-001;-4.482977837324143E-002;9.846241446211934E-004;1.654766267165542E-003;
2.420000000000000E+009;1.852391213178635E-001;-4.592482000589371E-002;8.310860721394420E-004;1.362188369967043E-003;
2.420166666666667E+009;1.836804151535034E-001;-4.658685624599457E-002;7.522922242060304E-004;1.212460105307400E-003;
2.420333333333334E+009;1.819263100624085E-001;-4.792345315217972E-002;5.561258294619620E-004;1.164391753263772E-003;
2.420500000000000E+009;1.803099364042282E-001;-4.918538779020309E-002;3.538900637067854E-004;1.126069342717528E-003;
2.420666666666667E+009;1.785459518432617E-001;-5.022694543004036E-002;1.214245639857836E-004;1.004280638881028E-003;
2.420833333333334E+009;1.769469976425171E-001;-5.190970376133919E-002;-4.412183989188634E-005;1.093712402507663E-003;
2.421000000000000E+009;1.755651235580444E-001;-5.347867682576180E-002;-1.849463733378798E-004;1.148746814578772E-003;
2.421166666666667E+009;1.741535514593124E-001;-5.519234761595726E-002;-2.489818725734949E-004;1.250733155757189E-003;
2.421333333333334E+009;1.723572909832001E-001;-5.657033622264862E-002;-4.894679877907038E-004;1.228502253070474E-003;
2.421500000000000E+009;1.710856705904007E-001;-5.872630327939987E-002;-5.263542989268899E-004;1.497028046287596E-003;
2.421666666666667E+009;1.697343587875366E-001;-6.042704358696938E-002;-5.981362191960216E-004;1.598668168298900E-003;
2.421833333333334E+009;1.686400026082993E-001;-6.237549707293510E-002;-7.490108837373555E-004;1.817421871237457E-003;
2.422000000000000E+009;1.676153540611267E-001;-6.426765024662018E-002;-7.183118723332882E-004;2.060298109427095E-003;
2.422166666666667E+009;1.667226701974869E-001;-6.632281094789505E-002;-5.235530552454293E-004;2.246087649837136E-003;
2.422333333333334E+009;1.657102555036545E-001;-6.837414950132370E-002;-6.934826960787177E-004;2.479930175468326E-003;
2.422500000000000E+009;1.649534851312637E-001;-7.033632695674896E-002;-5.367186968214810E-004;2.562445588409901E-003;
2.422666666666667E+009;1.643640249967575E-001;-7.236190885305405E-002;-6.020964938215911E-004;2.683662343770266E-003;
2.422833333333334E+009;1.638381332159042E-001;-7.437571883201599E-002;-3.397147520445287E-004;2.811606274917722E-003;
2.423000000000000E+009;1.634799689054489E-001;-7.661800831556320E-002;-2.097271353704855E-004;2.773150801658630E-003;
2.423166666666667E+009;1.629719436168671E-001;-7.844983786344528E-002;-2.563391462899745E-004;2.930250484496355E-003;
2.423333333333334E+009;1.629045605659485E-001;-8.053810149431229E-002;-9.647646220400930E-005;3.077857196331024E-003;
2.423500000000000E+009;1.627905964851379E-001;-8.227663487195969E-002;7.592765905428678E-005;3.014147048816085E-003;
2.423666666666667E+009;1.627952158451080E-001;-8.440048247575760E-002;1.636438391869888E-004;3.089531091973186E-003;
2.423833333333334E+009;1.625431329011917E-001;-8.618082106113434E-002;3.694324987009168E-004;3.297582035884261E-003;
2.424000000000000E+009;1.629076302051544E-001;-8.800874650478363E-002;5.055057699792087E-004;3.435914870351553E-003;
2.424166666666667E+009;1.629120707511902E-001;-8.943068236112595E-002;6.863051094114780E-004;3.314536763355136E-003;
2.424333333333334E+009;1.632300019264221E-001;-9.113815426826477E-002;5.626105121336877E-004;3.238859353587031E-003;
2.424500000000000E+009;1.636079698801041E-001;-9.283935278654099E-002;1.030874438583851E-003;3.451119409874082E-003;
2.424666666666667E+009;1.637597233057022E-001;-9.416978806257248E-002;9.944388875737786E-004;3.593095112591982E-003;
2.424833333333334E+009;1.644212305545807E-001;-9.544291347265244E-002;1.431506825610995E-003;3.449930110946298E-003;
2.425000000000000E+009;1.647254079580307E-001;-9.678871929645538E-002;1.479967148043215E-003;3.581640543416143E-003;
2.425166666666667E+009;1.652101576328278E-001;-9.784793853759766E-002;1.760589540936053E-003;3.538008779287338E-003;
2.425333333333334E+009;1.654533445835114E-001;-9.884174168109894E-002;1.891704741865397E-003;3.479324514046311E-003;
2.425500000000000E+009;1.659931391477585E-001;-9.968903660774231E-002;2.177875954657793E-003;3.476399229839444E-003;
2.425666666666667E+009;1.663452982902527E-001;-1.004277691245079E-001;2.389715053141117E-003;3.207757137715817E-003;
2.425833333333334E+009;1.667290180921555E-001;-1.013306006789208E-001;2.587761962786317E-003;3.167703980579972E-003;
2.426000000000000E+009;1.671110093593597E-001;-1.015607565641403E-001;2.774609718471766E-003;2.961957128718495E-003;
2.426166666666667E+009;1.675328463315964E-001;-1.022375449538231E-001;2.945624291896820E-003;2.963560866191983E-003;
2.426333333333334E+009;1.676195561885834E-001;-1.026629507541657E-001;3.061844035983086E-003;2.678337041288614E-003;
2.426500000000000E+009;1.680827289819717E-001;-1.029120385646820E-001;3.084203694015741E-003;2.651638584211469E-003;
2.426666666666667E+009;1.682317256927490E-001;-1.031502261757851E-001;3.374690655618906E-003;2.471700310707092E-003;
2.426833333333334E+009;1.684551835060120E-001;-1.035000607371330E-001;3.429002361372113E-003;2.193290507420898E-003;
2.427000000000000E+009;1.684319078922272E-001;-1.036898270249367E-001;3.421257250010967E-003;2.055687131360173E-003;
2.427166666666667E+009;1.685361415147781E-001;-1.037364080548286E-001;3.623266005888581E-003;2.007724018767476E-003;
2.427333333333334E+009;1.684239506721497E-001;-1.040326729416847E-001;3.635094035416842E-003;1.799364108592272E-003;
2.427500000000000E+009;1.682297289371491E-001;-1.041067317128182E-001;3.709991695359349E-003;1.610994571819902E-003;
2.427666666666667E+009;1.678034067153931E-001;-1.040037497878075E-001;3.712180070579052E-003;1.384242903441191E-003;
