# Version 1.00
#
freq[Hz];re:Trc1_S11;im:Trc1_S11;re:Trc2_S21;im:Trc2_S21;
2.400000000000000E+009;1.553016006946564E-001;1.065668091177940E-001;-2.299361396580935E-003;-2.617055084556341E-003;
2.400166666666667E+009;1.551116853952408E-001;1.040949895977974E-001;-2.436335431411862E-003;-2.231243066489697E-003;
2.400333333333334E+009;1.550959497690201E-001;1.019720509648323E-001;-2.479940652847290E-003;-2.174953697249293E-003;
2.400500000000000E+009;1.550198346376419E-001;9.916909784078598E-002;-2.365646651014686E-003;-1.667619450017810E-003;
2.400666666666667E+009;1.549479812383652E-001;9.670281410217285E-002;-2.332393079996109E-003;-1.272774650715292E-003;
2.400833333333334E+009;1.550992429256439E-001;9.380118548870087E-002;-2.148381667211652E-003;-1.052692066878080E-003;
2.401000000000000E+009;1.551681011915207E-001;9.081721305847168E-002;-2.033705357462168E-003;-8.342004148289561E-004;
2.401166666666667E+009;1.552794724702835E-001;8.822078257799149E-002;-1.678731059655547E-003;-7.150138262659311E-004;
2.401333333333334E+009;1.555575877428055E-001;8.529582619667053E-002;-1.556220231577754E-003;-5.309729021973908E-004;
2.401500000000000E+009;1.559042185544968E-001;8.229321241378784E-002;-1.169571187347174E-003;-4.472912114579231E-004;
2.401666666666667E+009;1.562943458557129E-001;7.949627190828323E-002;-1.006251783110201E-003;-4.945018445141614E-004;
2.401833333333334E+009;1.568286716938019E-001;7.674078643321991E-002;-7.516478071920574E-004;-3.811229253187776E-004;
2.402000000000000E+009;1.576231271028519E-001;7.397210597991943E-002;-5.946938181295991E-004;-5.160499131307006E-004;
2.402166666666667E+009;1.584704220294952E-001;7.142840325832367E-002;-5.298352334648371E-004;-8.170945802703500E-004;
2.402333333333334E+009;1.591636538505554E-001;6.858702749013901E-002;-4.285022732801735E-004;-8.139335550367832E-004;
2.402500000000000E+009;1.603960841894150E-001;6.601517647504807E-002;-1.967199350474402E-004;-1.086855423636735E-003;
2.402666666666667E+009;1.615334004163742E-001;6.365755200386047E-002;-2.603057364467531E-004;-1.128080883063376E-003;
2.402833333333334E+009;1.629099994897842E-001;6.116493418812752E-002;-2.765817625913769E-004;-1.275183516554534E-003;
2.403000000000000E+009;1.642386913299561E-001;5.891590565443039E-002;-2.037851809291169E-004;-1.392095698975027E-003;
2.403166666666667E+009;1.659394204616547E-001;5.672523379325867E-002;-2.192135580116883E-004;-1.440555672161281E-003;
2.403333333333334E+009;1.673573851585388E-001;5.440660938620567E-002;-4.571135505102575E-004;-1.591896987520158E-003;
2.403500000000000E+009;1.690881848335266E-001;5.242582410573959E-002;-3.705611743498594E-004;-1.668634708039463E-003;
2.403666666666667E+009;1.708543598651886E-001;5.054129287600517E-002;-5.606446648016572E-004;-1.727645634673536E-003;
2.403833333333334E+009;1.725001186132431E-001;4.876975342631340E-002;-5.974048981443048E-004;-1.693893107585609E-003;
2.404000000000000E+009;1.738981008529663E-001;4.698413982987404E-002;-4.606826405506581E-004;-1.846857951022685E-003;
2.404166666666667E+009;1.756970286369324E-001;4.535421356558800E-002;-5.630070227198303E-004;-1.784159685485065E-003;
2.404333333333334E+009;1.772064417600632E-001;4.394539445638657E-002;-8.176073315553367E-004;-1.841598423197866E-003;
2.404500000000000E+009;1.789500862360001E-001;4.243902117013931E-002;-7.265585009008646E-004;-1.817737240344286E-003;
2.404666666666667E+009;1.805042922496796E-001;4.150606691837311E-002;-6.962831830605865E-004;-1.970543526113033E-003;
2.404833333333334E+009;1.821835935115814E-001;4.046335443854332E-002;-7.943577365949750E-004;-2.020841231569648E-003;
2.405000000000000E+009;1.834390163421631E-001;3.989978134632111E-002;-7.903819787316024E-004;-2.082930877804756E-003;
2.405166666666667E+009;1.850052475929260E-001;3.913685306906700E-002;-1.097110914997757E-003;-2.115366049110889E-003;
2.405333333333334E+009;1.864190846681595E-001;3.863455355167389E-002;-1.100438646972179E-003;-2.054234733805060E-003;
2.405500000000000E+009;1.877100467681885E-001;3.817461431026459E-002;-1.079517300240696E-003;-2.077781362459064E-003;
2.405666666666667E+009;1.888954490423203E-001;3.798090294003487E-002;-1.315156463533640E-003;-2.171816537156701E-003;
2.405833333333334E+009;1.902460455894470E-001;3.776706010103226E-002;-1.448226859793067E-003;-2.193025080487132E-003;
2.406000000000000E+009;1.914435625076294E-001;3.757548332214356E-002;-1.451666816137731E-003;-2.260464010760188E-003;
2.406166666666667E+009;1.923057734966278E-001;3.741450980305672E-002;-1.631808583624661E-003;-2.167532686144114E-003;
2.406333333333334E+009;1.932734847068787E-001;3.743505105376244E-002;-1.706471084617078E-003;-2.260002540424466E-003;
2.406500000000000E+009;1.940081119537354E-001;3.743597120046616E-002;-1.748590148054063E-003;-2.163526136428118E-003;
2.406666666666667E+009;1.946443319320679E-001;3.766251355409622E-002;-1.932771410793066E-003;-2.375206211581826E-003;
2.406833333333334E+009;1.952310800552368E-001;3.761146217584610E-002;-2.094811061397195E-003;-2.054521813988686E-003;
2.407000000000000E+009;1.954975575208664E-001;3.791283071041107E-002;-2.192816929891706E-003;-2.168926177546382E-003;
2.407166666666667E+009;1.958424150943756E-001;3.778767213225365E-002;-2.372611546888948E-003;-2.013024175539613E-003;
2.407333333333334E+009;1.959377825260162E-001;3.798994794487953E-002;-2.429387532174587E-003;-2.183904638513923E-003;
2.407500000000000E+009;1.958514899015427E-001;3.812113031744957E-002;-2.652487717568874E-003;-2.072057919576764E-003;
2.407666666666667E+009;1.959488391876221E-001;3.801022097468376E-002;-2.689426066353917E-003;-1.814745017327368E-003;
2.407833333333334E+009;1.954637765884399E-001;3.800140693783760E-002;-2.784399548545480E-003;-1.904866658151150E-003;
2.408000000000000E+009;1.952837109565735E-001;3.790624439716339E-002;-2.843934576958418E-003;-1.742599997669458E-003;
2.408166666666667E+009;1.947110146284103E-001;3.754296153783798E-002;-3.067913232371211E-003;-1.744454144500196E-003;
2.408333333333334E+009;1.943083256483078E-001;3.706732764840126E-002;-3.255009418353438E-003;-1.436783582903445E-003;
2.408500000000000E+009;1.936461925506592E-001;3.673010319471359E-002;-3.260776633396745E-003;-1.473377924412489E-003;
2.408666666666667E+009;1.931015551090241E-001;3.628758341073990E-002;-3.411019686609507E-003;-1.349027850665152E-003;
2.408833333333334E+009;1.922990381717682E-001;3.561151400208473E-002;-3.337813774123788E-003;-1.150181982666254E-003;
2.409000000000000E+009;1.913275569677353E-001;3.474787995219231E-002;-3.385470248758793E-003;-1.062850933521986E-003;
2.409166666666667E+009;1.904482990503311E-001;3.386408090591431E-002;-3.496928839012981E-003;-9.360719122923911E-004;
2.409333333333334E+009;1.895851939916611E-001;3.273922204971314E-002;-3.376710927113891E-003;-7.655746885575354E-004;
2.409500000000000E+009;1.885018497705460E-001;3.156648576259613E-002;-3.705621464177966E-003;-5.915569490753114E-004;
2.409666666666667E+009;1.875273883342743E-001;3.014150634407997E-002;-3.646562341600657E-003;-5.979301640763879E-004;
2.409833333333334E+009;1.863371282815933E-001;2.871002629399300E-002;-3.590109292417765E-003;-4.350153903942555E-004;
2.410000000000000E+009;1.854989230632782E-001;2.700915746390820E-002;-3.705230774357915E-003;-4.179148527327925E-004;
2.410166666666667E+009;1.845280975103378E-001;2.512065880000591E-002;-3.722304245457053E-003;-1.929374993778765E-004;
2.410333333333334E+009;1.834597438573837E-001;2.340567298233509E-002;-3.647437551990151E-003;-7.116515917005017E-005;
2.410500000000000E+009;1.824335157871246E-001;2.144229970872402E-002;-3.710218006744981E-003;1.008972467388958E-004;
2.410666666666667E+009;1.816264092922211E-001;1.931772194802761E-002;-3.526140702888370E-003;1.067105840775184E-004;
2.410833333333334E+009;1.809195876121521E-001;1.700792089104652E-002;-3.541868645697832E-003;4.084437969140708E-004;
2.411000000000000E+009;1.802099496126175E-001;1.471411809325218E-002;-3.609992330893874E-003;4.243603325448930E-004;
2.411166666666667E+009;1.794814467430115E-001;1.264805160462856E-002;-3.503274405375123E-003;5.334549350664020E-004;
2.411333333333334E+009;1.790827512741089E-001;1.012056786566973E-002;-3.459331346675754E-003;7.135189371183515E-004;
2.411500000000000E+009;1.785616427659988E-001;7.585244718939066E-003;-3.464740933850408E-003;7.638229872100055E-004;
2.411666666666667E+009;1.784197986125946E-001;5.246999673545361E-003;-3.276988863945007E-003;7.636565132997930E-004;
2.411833333333334E+009;1.781857311725617E-001;2.930198097601533E-003;-3.238291712477803E-003;9.342235862277448E-004;
2.412000000000000E+009;1.782622337341309E-001;2.305311936652288E-004;-3.353612497448921E-003;1.001886790618300E-003;
2.412166666666667E+009;1.783114373683929E-001;-1.947716576978564E-003;-3.311896463856101E-003;1.128795789554715E-003;
2.412333333333334E+009;1.785625219345093E-001;-4.513636231422424E-003;-3.220448503270745E-003;1.040709321387112E-003;
2.412500000000000E+009;1.789509057998657E-001;-6.952155381441116E-003;-3.295444883406162E-003;1.260558608919382E-003;
2.412666666666667E+009;1.795099526643753E-001;-9.539829567074776E-003;-3.280648030340672E-003;1.308376668021083E-003;
2.412833333333334E+009;1.803175508975983E-001;-1.190490368753672E-002;-3.173471428453922E-003;1.361468574032188E-003;
2.413000000000000E+009;1.810791790485382E-001;-1.422154810279608E-002;-3.237667027860880E-003;1.471388037316501E-003;
2.413166666666667E+009;1.818886995315552E-001;-1.632888428866863E-002;-3.195686498656869E-003;1.617028377950192E-003;
2.413333333333334E+009;1.829533278942108E-001;-1.888960972428322E-002;-3.390195081010461E-003;1.753472723066807E-003;
2.413500000000000E+009;1.837679594755173E-001;-2.114162594079971E-002;-3.265576204285026E-003;1.794036012142897E-003;
2.413666666666667E+009;1.851075440645218E-001;-2.329868264496326E-002;-3.144302172586322E-003;2.068266505375505E-003;
2.413833333333334E+009;1.862042695283890E-001;-2.525625377893448E-002;-3.287824103608728E-003;2.186024328693748E-003;
2.414000000000000E+009;1.871646195650101E-001;-2.738839387893677E-002;-3.053730586543679E-003;2.378152450546622E-003;
2.414166666666667E+009;1.886430233716965E-001;-2.921054512262344E-002;-3.013290464878082E-003;2.475426997989416E-003;
2.414333333333334E+009;1.898359358310700E-001;-3.121634386479855E-002;-2.921485109254718E-003;2.658785786479712E-003;
2.414500000000000E+009;1.909169405698776E-001;-3.278986364603043E-002;-3.013099310919642E-003;2.757786074653268E-003;
2.414666666666667E+009;1.921816915273666E-001;-3.431384637951851E-002;-2.529885154217482E-003;2.945090644061565E-003;
2.414833333333334E+009;1.932992935180664E-001;-3.560359030961990E-002;-2.735146088525653E-003;3.136268584057689E-003;
2.415000000000000E+009;1.946239322423935E-001;-3.692089766263962E-002;-2.308104187250137E-003;3.121133893728256E-003;
2.415166666666667E+009;1.956702619791031E-001;-3.805451467633247E-002;-2.155437599867582E-003;3.329323371872306E-003;
2.415333333333334E+009;1.969691216945648E-001;-3.914466872811317E-002;-2.024852205067873E-003;3.447427647188306E-003;
2.415500000000000E+009;1.979465931653976E-001;-3.988413885235786E-002;-1.795229269191623E-003;3.566985949873924E-003;
2.415666666666667E+009;1.990915089845657E-001;-4.063822701573372E-002;-1.546558341942728E-003;3.462926950305700E-003;
2.415833333333334E+009;1.998202055692673E-001;-4.129763692617416E-002;-1.439030747860670E-003;3.572717774659395E-003;
2.416000000000000E+009;2.006340771913528E-001;-4.175104945898056E-002;-1.310438499785960E-003;3.751848591491580E-003;
2.416166666666667E+009;2.012378275394440E-001;-4.240122437477112E-002;-1.073735882528126E-003;3.734870348125696E-003;
2.416333333333334E+009;2.018792331218720E-001;-4.255642369389534E-002;-8.109025657176971E-004;3.620094619691372E-003;
2.416500000000000E+009;2.023473232984543E-001;-4.294551163911820E-002;-4.759532166644931E-004;3.697423730045557E-003;
2.416666666666667E+009;2.025540918111801E-001;-4.320309683680534E-002;-4.371303075458854E-004;3.587770974263549E-003;
2.416833333333334E+009;2.028075456619263E-001;-4.320609942078590E-002;-3.339567338116467E-004;3.490849630907178E-003;
2.417000000000000E+009;2.028988599777222E-001;-4.332365840673447E-002;-2.137987758032978E-004;3.369294572621584E-003;
2.417166666666667E+009;2.026136964559555E-001;-4.315440356731415E-002;-1.552748144604266E-004;3.274324582889676E-003;
2.417333333333334E+009;2.023386359214783E-001;-4.292806610465050E-002;-1.703950110822916E-004;3.163133515045047E-003;
2.417500000000000E+009;2.021192461252213E-001;-4.300506040453911E-002;2.515822598070372E-005;3.265159903094173E-003;
2.417666666666667E+009;2.015593349933624E-001;-4.269278049468994E-002;1.565856800880283E-004;3.074581269174814E-003;
2.417833333333334E+009;2.011216878890991E-001;-4.250657930970192E-002;1.548006839584559E-004;3.001621924340725E-003;
2.418000000000000E+009;2.006183564662933E-001;-4.229285567998886E-002;1.908208505483344E-004;2.997004194185138E-003;
2.418166666666667E+009;1.996925324201584E-001;-4.220071062445641E-002;4.000697226729244E-004;2.840505447238684E-003;
2.418333333333334E+009;1.988068521022797E-001;-4.194247350096703E-002;4.682823491748422E-004;2.983135869726539E-003;
2.418500000000000E+009;1.977247893810272E-001;-4.195796698331833E-002;4.797934379894286E-004;2.794619649648666E-003;
2.418666666666667E+009;1.968793869018555E-001;-4.193058982491493E-002;6.970029789954424E-004;2.698017749935389E-003;
2.418833333333334E+009;1.955699771642685E-001;-4.204716533422470E-002;7.645786972716451E-004;2.585387555882335E-003;
2.419000000000000E+009;1.941727697849274E-001;-4.238276183605194E-002;8.979685371741653E-004;2.507397206500173E-003;
2.419166666666667E+009;1.929506361484528E-001;-4.261701926589012E-002;9.981968905776739E-004;2.272580051794648E-003;
2.419333333333334E+009;1.915352940559387E-001;-4.304604604840279E-002;1.100021530874074E-003;2.041185973212123E-003;
2.419500000000000E+009;1.899328827857971E-001;-4.346347972750664E-002;9.215646423399448E-004;1.906392979435623E-003;
2.419666666666667E+009;1.883420795202255E-001;-4.431754350662231E-002;1.015671296045184E-003;1.705304486677051E-003;
2.419833333333334E+009;1.868241131305695E-001;-4.488002881407738E-002;8.468437008559704E-004;1.602987991645932E-003;
2.420000000000000E+009;1.852220743894577E-001;-4.576412588357925E-002;8.197107235901058E-004;1.387998694553971E-003;
2.420166666666667E+009;1.836420148611069E-001;-4.688921943306923E-002;6.707158172503114E-004;1.196866622194648E-003;
2.420333333333334E+009;1.819572150707245E-001;-4.803992807865143E-002;4.869618278462440E-004;1.103239599615336E-003;
2.420500000000000E+009;1.802330762147903E-001;-4.932177811861038E-002;3.390995843801647E-004;1.113992999307811E-003;
2.420666666666667E+009;1.787481009960175E-001;-5.027505010366440E-002;2.438550436636433E-004;1.091814250685275E-003;
2.420833333333334E+009;1.769556999206543E-001;-5.203983560204506E-002;1.201514896820299E-004;1.055961591191590E-003;
2.421000000000000E+009;1.754068583250046E-001;-5.349846184253693E-002;-2.006513968808577E-004;1.143242116086185E-003;
2.421166666666667E+009;1.741474419832230E-001;-5.515558272600174E-002;-2.461700059939176E-004;1.096680178306997E-003;
2.421333333333334E+009;1.722618639469147E-001;-5.669439584016800E-002;-3.871776279993355E-004;1.397493761032820E-003;
2.421500000000000E+009;1.711216866970062E-001;-5.872019380331039E-002;-5.666580982506275E-004;1.475598546676338E-003;
2.421666666666667E+009;1.697900146245956E-001;-6.043189764022827E-002;-6.310541648417711E-004;1.698869164101780E-003;
2.421833333333334E+009;1.688297241926193E-001;-6.226071342825890E-002;-8.896210929378867E-004;1.797009375877678E-003;
2.422000000000000E+009;1.675750315189362E-001;-6.424766033887863E-002;-7.006780942901969E-004;2.006584312766790E-003;
2.422166666666667E+009;1.668930053710938E-001;-6.643488258123398E-002;-7.693411898799241E-004;2.026594942435622E-003;
2.422333333333334E+009;1.657226830720902E-001;-6.858599185943604E-002;-6.732997135259211E-004;2.243725350126624E-003;
2.422500000000000E+009;1.649083197116852E-001;-7.031425833702087E-002;-5.014159251004458E-004;2.375090960413218E-003;
2.422666666666667E+009;1.641888916492462E-001;-7.234529405832291E-002;-3.528615925461054E-004;2.598449820652604E-003;
2.422833333333334E+009;1.638479530811310E-001;-7.447783648967743E-002;-3.061509341932833E-004;2.649656264111400E-003;
2.423000000000000E+009;1.633976399898529E-001;-7.656463980674744E-002;-2.577916602604091E-004;2.806124743074179E-003;
2.423166666666667E+009;1.630413532257080E-001;-7.869184762239456E-002;-3.315796857350506E-005;2.927933121100068E-003;
2.423333333333334E+009;1.628172695636749E-001;-8.065768331289291E-002;-3.075762606385979E-006;3.092177445068955E-003;
2.423500000000000E+009;1.626811921596527E-001;-8.237356692552567E-002;1.743584580253810E-004;2.941658720374107E-003;
2.423666666666667E+009;1.628120243549347E-001;-8.433871716260910E-002;3.506850916892290E-004;3.293810179457068E-003;
2.423833333333334E+009;1.626454144716263E-001;-8.602619171142578E-002;4.134124028496444E-004;3.217190504074097E-003;
2.424000000000000E+009;1.627917289733887E-001;-8.800555765628815E-002;5.995422834530473E-004;3.201407147571445E-003;
2.424166666666667E+009;1.628985106945038E-001;-8.960503339767456E-002;7.693089428357780E-004;3.276287112385035E-003;
2.424333333333334E+009;1.631668955087662E-001;-9.103056788444519E-002;8.296287851408124E-004;3.317158669233322E-003;
2.424500000000000E+009;1.636606901884079E-001;-9.276094287633896E-002;1.011452986858785E-003;3.449165960773826E-003;
2.424666666666667E+009;1.637975722551346E-001;-9.430134296417236E-002;1.143249915912747E-003;3.325137542560697E-003;
2.424833333333334E+009;1.644524335861206E-001;-9.544909000396729E-002;1.456294907256961E-003;3.279881319031119E-003;
2.425000000000000E+009;1.647342443466187E-001;-9.669052809476852E-002;1.612661057151854E-003;3.455379512161017E-003;
2.425166666666667E+009;1.651373207569122E-001;-9.781804680824280E-002;1.858048723079264E-003;3.299513133242726E-003;
2.425333333333334E+009;1.654043644666672E-001;-9.863611310720444E-002;1.744988956488669E-003;3.439886029809713E-003;
2.425500000000000E+009;1.658670455217362E-001;-9.978745877742767E-002;2.191003877669573E-003;3.206212772056460E-003;
2.425666666666667E+009;1.663924008607864E-001;-1.003541126847267E-001;2.428448991850019E-003;3.217178629711270E-003;
2.425833333333334E+009;1.665650755167007E-001;-1.013059839606285E-001;2.613763092085719E-003;3.176093101501465E-003;
2.426000000000000E+009;1.670448035001755E-001;-1.017169356346130E-001;2.738461364060640E-003;2.994473557919264E-003;
2.426166666666667E+009;1.674609780311585E-001;-1.021934375166893E-001;2.988530788570643E-003;2.914356999099255E-003;
2.426333333333334E+009;1.675855368375778E-001;-1.026862338185310E-001;3.080355469137430E-003;2.846208633854985E-003;
2.426500000000000E+009;1.679819673299789E-001;-1.030430570244789E-001;3.318348666653037E-003;2.573749050498009E-003;
2.426666666666667E+009;1.682363003492355E-001;-1.032237336039543E-001;3.264592727646232E-003;2.354996278882027E-003;
2.426833333333334E+009;1.684173941612244E-001;-1.034954562783241E-001;3.359403228387237E-003;2.214229200035334E-003;
2.427000000000000E+009;1.683712452650070E-001;-1.037029549479485E-001;3.524266649037600E-003;2.014035126194358E-003;
2.427166666666667E+009;1.683697700500488E-001;-1.037612631917000E-001;3.541426733136177E-003;1.973452512174845E-003;
2.427333333333334E+009;1.683521270751953E-001;-1.040091216564179E-001;3.554309485480189E-003;1.774133881554008E-003;
2.427500000000000E+009;1.680469959974289E-001;-1.040701791644096E-001;3.726855851709843E-003;1.749714370816946E-003;
2.427666666666667E+009;1.676901280879974E-001;-1.041361540555954E-001;3.719617146998644E-003;1.519678975455463E-003;
