# Version 1.00
#
freq[Hz];re:Trc1_S11;im:Trc1_S11;re:Trc2_S21;im:Trc2_S21;
2.400000000000000E+009;1.544106155633926E-001;1.111871153116226E-001;-2.114143455401063E-003;6.840437185019255E-003;
2.400166666666667E+009;1.540275663137436E-001;1.082630902528763E-001;-6.639048806391656E-004;6.616695318371058E-003;
2.400333333333334E+009;1.537781804800034E-001;1.052177920937538E-001;8.486231090500951E-004;6.076484452933073E-003;
2.400500000000000E+009;1.537748575210571E-001;1.035336479544640E-001;3.121692279819399E-004;7.347735110670328E-003;
2.400666666666667E+009;1.534844487905502E-001;1.004122719168663E-001;1.333278836682439E-003;6.581789348274469E-003;
2.400833333333334E+009;1.527609527111054E-001;9.852387011051178E-002;-1.145334681496024E-004;7.005917839705944E-003;
2.401000000000000E+009;1.528270840644836E-001;9.553052484989166E-002;4.729754873551428E-004;7.077295333147049E-003;
2.401166666666667E+009;1.529350578784943E-001;9.244470298290253E-002;1.268259948119521E-003;7.254476193338633E-003;
2.401333333333334E+009;1.530576050281525E-001;8.956003934144974E-002;1.623601419851184E-003;7.144888397306204E-003;
2.401500000000000E+009;1.533473730087280E-001;8.664324134588242E-002;1.779401791281998E-003;7.113351020962000E-003;
2.401666666666667E+009;1.534094363451004E-001;8.357810229063034E-002;1.998855266720057E-003;7.146166171878576E-003;
2.401833333333334E+009;1.537058800458908E-001;8.089990168809891E-002;2.208777703344822E-003;6.938019767403603E-003;
2.402000000000000E+009;1.542408764362335E-001;7.790467143058777E-002;2.378734527155757E-003;7.117600180208683E-003;
2.402166666666667E+009;1.548142731189728E-001;7.501439750194550E-002;2.742315176874399E-003;6.955377757549286E-003;
2.402333333333334E+009;1.559297293424606E-001;7.213780283927918E-002;2.872643293812871E-003;7.056108210235834E-003;
2.402500000000000E+009;1.568246632814407E-001;6.932612508535385E-002;3.305578138679266E-003;7.126145530492067E-003;
2.402666666666667E+009;1.577386707067490E-001;6.722425669431686E-002;3.531574038788676E-003;7.043553516268730E-003;
2.402833333333334E+009;1.597114503383637E-001;6.400913745164871E-002;3.805034095421433E-003;6.892727687954903E-003;
2.403000000000000E+009;1.605632156133652E-001;6.140868738293648E-002;4.254969302564859E-003;6.882886867970228E-003;
2.403166666666667E+009;1.625009626150131E-001;5.915595963597298E-002;4.456501454114914E-003;6.756597664207220E-003;
2.403333333333334E+009;1.638863682746887E-001;5.702598020434380E-002;4.988368134945631E-003;6.589949596673250E-003;
2.403500000000000E+009;1.655510365962982E-001;5.445696040987968E-002;5.195819772779942E-003;6.629026029258966E-003;
2.403666666666667E+009;1.674652844667435E-001;5.218695104122162E-002;5.566592328250408E-003;6.231995765119791E-003;
2.403833333333334E+009;1.692855060100555E-001;5.015522986650467E-002;6.036146078258753E-003;5.949411075562239E-003;
2.404000000000000E+009;1.708378642797470E-001;4.819184541702271E-002;6.382239516824484E-003;5.674193613231182E-003;
2.404166666666667E+009;1.727833896875382E-001;4.640321061015129E-002;6.746021099388599E-003;5.439372267574072E-003;
2.404333333333334E+009;1.747485101222992E-001;4.468718171119690E-002;6.938568782061338E-003;4.995048046112061E-003;
2.404500000000000E+009;1.763643771409988E-001;4.310351610183716E-002;7.278401870280504E-003;4.699097946286202E-003;
2.404666666666667E+009;1.781988143920898E-001;4.203078150749207E-002;7.416031323373318E-003;4.180475138127804E-003;
2.404833333333334E+009;1.800243854522705E-001;4.066969454288483E-002;7.471495773643255E-003;3.600223455578089E-003;
2.405000000000000E+009;1.816058754920960E-001;4.012787714600563E-002;7.751958910375834E-003;3.254092298448086E-003;
2.405166666666667E+009;1.835524141788483E-001;3.916978836059570E-002;7.877328433096409E-003;2.847414230927825E-003;
2.405333333333334E+009;1.851239800453186E-001;3.887800499796867E-002;7.789293304085732E-003;2.453159773722291E-003;
2.405500000000000E+009;1.868728250265122E-001;3.818432614207268E-002;7.899995893239975E-003;2.291573910042644E-003;
2.405666666666667E+009;1.883388757705689E-001;3.795799612998962E-002;7.847238332033157E-003;1.754984376020730E-003;
2.405833333333334E+009;1.898238807916641E-001;3.763654083013535E-002;7.841680198907852E-003;1.466163084842265E-003;
2.406000000000000E+009;1.912865936756134E-001;3.760138154029846E-002;7.706207223236561E-003;9.217009064741433E-004;
2.406166666666667E+009;1.924100369215012E-001;3.748330101370812E-002;7.694531232118607E-003;7.676194654777646E-004;
2.406333333333334E+009;1.935864239931107E-001;3.770434111356735E-002;7.597827818244696E-003;4.516533517744392E-004;
2.406500000000000E+009;1.946336925029755E-001;3.789930418133736E-002;7.445416413247585E-003;2.451055042911321E-004;
2.406666666666667E+009;1.955650895833969E-001;3.810346499085426E-002;7.489440497010946E-003;-3.541796759236604E-004;
2.406833333333334E+009;1.964567899703980E-001;3.837858140468597E-002;7.281757891178131E-003;-3.872403758578003E-004;
2.407000000000000E+009;1.968874037265778E-001;3.880745172500610E-002;7.270743604749441E-003;-8.110189228318632E-004;
2.407166666666667E+009;1.974813789129257E-001;3.895635530352593E-002;6.927345879375935E-003;-9.996212320402265E-004;
2.407333333333334E+009;1.977744549512863E-001;3.928798809647560E-002;6.892605684697628E-003;-1.281423144973815E-003;
2.407500000000000E+009;1.977729350328445E-001;3.985729813575745E-002;6.778708659112454E-003;-1.361399888992310E-003;
2.407666666666667E+009;1.980687528848648E-001;4.006630554795265E-002;6.604042835533619E-003;-1.624415628612042E-003;
2.407833333333334E+009;1.978216767311096E-001;4.018886387348175E-002;6.531524006277323E-003;-1.983291236683726E-003;
2.408000000000000E+009;1.978907138109207E-001;4.043501242995262E-002;6.329473108053207E-003;-2.005560789257288E-003;
2.408166666666667E+009;1.974743157625198E-001;4.042122513055801E-002;6.251108832657337E-003;-2.200491493567824E-003;
2.408333333333334E+009;1.969287693500519E-001;4.023028165102005E-002;5.889771971851587E-003;-2.439195057377219E-003;
2.408500000000000E+009;1.963172703981400E-001;4.024221748113632E-002;5.775276571512222E-003;-2.500525908544660E-003;
2.408666666666667E+009;1.957787722349167E-001;4.013358056545258E-002;5.641691852360964E-003;-2.596866572275758E-003;
2.408833333333334E+009;1.950546056032181E-001;3.975082188844681E-002;5.512107629328966E-003;-2.768192440271378E-003;
2.409000000000000E+009;1.941185742616653E-001;3.911495208740234E-002;5.204926710575819E-003;-2.930484246462584E-003;
2.409166666666667E+009;1.931665390729904E-001;3.836531192064285E-002;5.027391947805882E-003;-2.931789495050907E-003;
2.409333333333334E+009;1.921279728412628E-001;3.772087395191193E-002;4.887866321951151E-003;-3.021839307621121E-003;
2.409500000000000E+009;1.909461468458176E-001;3.675176948308945E-002;4.578184802085161E-003;-3.097682725638151E-003;
2.409666666666667E+009;1.898320615291596E-001;3.557318449020386E-002;4.412133712321520E-003;-3.146478906273842E-003;
2.409833333333334E+009;1.887345463037491E-001;3.437925130128861E-002;4.301005508750677E-003;-3.093290841206908E-003;
2.410000000000000E+009;1.875535845756531E-001;3.306826576590538E-002;4.007845651358366E-003;-3.099186113104224E-003;
2.410166666666667E+009;1.862992048263550E-001;3.135344013571739E-002;3.968000411987305E-003;-2.991618355736136E-003;
2.410333333333334E+009;1.850657910108566E-001;2.963350713253021E-002;3.833660157397389E-003;-2.853726735338569E-003;
2.410500000000000E+009;1.839741915464401E-001;2.784974314272404E-002;3.946721553802490E-003;-2.900797873735428E-003;
2.410666666666667E+009;1.829321682453156E-001;2.559934183955193E-002;3.686812473461032E-003;-2.803244628012180E-003;
2.410833333333334E+009;1.820098906755447E-001;2.354187518358231E-002;3.854472190141678E-003;-2.994274022057653E-003;
2.411000000000000E+009;1.811521500349045E-001;2.133066207170487E-002;3.752632066607475E-003;-2.882697386667132E-003;
2.411166666666667E+009;1.802336126565933E-001;1.911589503288269E-002;3.850585082545877E-003;-2.992744790390134E-003;
2.411333333333334E+009;1.793021410703659E-001;1.641763933002949E-002;3.695785999298096E-003;-2.989932661876082E-003;
2.411500000000000E+009;1.789052933454514E-001;1.420777291059494E-002;3.669749712571502E-003;-2.916868543252349E-003;
2.411666666666667E+009;1.782471984624863E-001;1.161849312484264E-002;3.625425742939115E-003;-2.992428606376052E-003;
2.411833333333334E+009;1.778366267681122E-001;9.095564484596252E-003;3.595538437366486E-003;-3.123083850368857E-003;
2.412000000000000E+009;1.777145564556122E-001;6.262474693357945E-003;3.532582893967629E-003;-3.129580290988088E-003;
2.412166666666667E+009;1.777548789978027E-001;3.892471781000495E-003;3.557200310751796E-003;-3.157008439302445E-003;
2.412333333333334E+009;1.777267158031464E-001;1.154374447651207E-003;3.508166642859578E-003;-3.062723437324166E-003;
2.412500000000000E+009;1.781634092330933E-001;-1.483741449192166E-003;3.539304016157985E-003;-3.107233438640833E-003;
2.412666666666667E+009;1.785090565681458E-001;-4.233542364090681E-003;3.593819914385676E-003;-3.234668867662549E-003;
2.412833333333334E+009;1.789530366659164E-001;-6.819043308496475E-003;3.576660295948386E-003;-3.398610046133399E-003;
2.413000000000000E+009;1.796919107437134E-001;-9.419070556759834E-003;3.636653302237392E-003;-3.396396292373538E-003;
2.413166666666667E+009;1.805772334337235E-001;-1.193924155086279E-002;3.633094485849142E-003;-3.559258300811052E-003;
2.413333333333334E+009;1.814471185207367E-001;-1.470321230590344E-002;3.743409179151058E-003;-3.487512236461043E-003;
2.413500000000000E+009;1.823638826608658E-001;-1.710384897887707E-002;3.647636855021119E-003;-3.673546714708209E-003;
2.413666666666667E+009;1.835833042860031E-001;-1.966235227882862E-002;3.764393739402294E-003;-3.906272817403078E-003;
2.413833333333334E+009;1.847301423549652E-001;-2.199611440300942E-002;3.742210799828172E-003;-4.116462077945471E-003;
2.414000000000000E+009;1.859078407287598E-001;-2.407886832952499E-002;3.811164759099484E-003;-4.302478861063719E-003;
2.414166666666667E+009;1.872418522834778E-001;-2.632739022374153E-002;3.588239429518580E-003;-4.406264517456293E-003;
2.414333333333334E+009;1.884060204029083E-001;-2.841089479625225E-002;3.570569446310401E-003;-4.595221951603890E-003;
2.414500000000000E+009;1.899375617504120E-001;-3.024284727871418E-002;3.497309051454067E-003;-4.943803884088993E-003;
2.414666666666667E+009;1.910534799098969E-001;-3.199122473597527E-002;3.409130498766899E-003;-5.242161452770233E-003;
2.414833333333334E+009;1.925406903028488E-001;-3.353970125317574E-002;3.333879169076681E-003;-5.424604751169682E-003;
2.415000000000000E+009;1.938948184251785E-001;-3.495433554053307E-002;3.191279480233789E-003;-5.612106528133154E-003;
2.415166666666667E+009;1.954103112220764E-001;-3.632226958870888E-002;2.826137701049447E-003;-5.908246152102947E-003;
2.415333333333334E+009;1.968301385641098E-001;-3.741434589028359E-002;2.789559308439493E-003;-5.973755382001400E-003;
2.415500000000000E+009;1.981470137834549E-001;-3.832654654979706E-002;2.517177024856210E-003;-6.270326673984528E-003;
2.415666666666667E+009;1.994945555925369E-001;-3.937354311347008E-002;2.240851521492004E-003;-6.296544801443815E-003;
2.415833333333334E+009;2.005071043968201E-001;-4.001635685563088E-002;2.081922488287091E-003;-6.515858229249716E-003;
2.416000000000000E+009;2.016212046146393E-001;-4.069904237985611E-002;1.716609927825630E-003;-6.624612491577864E-003;
2.416166666666667E+009;2.026689201593399E-001;-4.145728424191475E-002;1.613054075278342E-003;-6.803822703659535E-003;
2.416333333333334E+009;2.035496085882187E-001;-4.163365066051483E-002;1.230019493959844E-003;-6.904463749378920E-003;
2.416500000000000E+009;2.043493837118149E-001;-4.188804328441620E-002;9.148842073045671E-004;-7.078058551996946E-003;
2.416666666666667E+009;2.048797309398651E-001;-4.232060164213181E-002;5.809895228594542E-004;-7.214391138404608E-003;
2.416833333333334E+009;2.052129209041596E-001;-4.221403598785400E-002;3.672845487017185E-004;-7.285192143172026E-003;
2.417000000000000E+009;2.058729380369186E-001;-4.230826720595360E-002;-5.557862823479809E-005;-7.351424079388380E-003;
2.417166666666667E+009;2.057513445615768E-001;-4.222565889358521E-002;-2.325502573512495E-004;-7.313271518796682E-003;
2.417333333333334E+009;2.058150917291641E-001;-4.190773144364357E-002;-4.446094681043178E-004;-7.323921192437410E-003;
2.417500000000000E+009;2.056159675121307E-001;-4.176915809512138E-002;-1.030735205858946E-003;-7.352796848863363E-003;
2.417666666666667E+009;2.054386287927628E-001;-4.155782610177994E-002;-1.280587981455028E-003;-7.221381179988384E-003;
2.417833333333334E+009;2.051839530467987E-001;-4.106910899281502E-002;-1.456585130654275E-003;-7.074540015310049E-003;
2.418000000000000E+009;2.046152055263519E-001;-4.067370295524597E-002;-1.665134914219379E-003;-6.962577346712351E-003;
2.418166666666667E+009;2.041158229112625E-001;-4.039973393082619E-002;-1.840198296122253E-003;-7.057589478790760E-003;
2.418333333333334E+009;2.032925486564636E-001;-4.017396643757820E-002;-2.215604297816753E-003;-6.906576920300722E-003;
2.418500000000000E+009;2.022911012172699E-001;-3.989881649613380E-002;-2.389743225648999E-003;-6.970506627112627E-003;
2.418666666666667E+009;2.015481889247894E-001;-3.949346393346787E-002;-2.670985413715243E-003;-6.810719147324562E-003;
2.418833333333334E+009;2.003089040517807E-001;-3.955828025937080E-002;-2.826292067766190E-003;-6.695829331874847E-003;
2.419000000000000E+009;1.990833282470703E-001;-3.951119631528854E-002;-3.216361626982689E-003;-6.730438675731421E-003;
2.419166666666667E+009;1.977932453155518E-001;-3.966132551431656E-002;-3.400855697691441E-003;-6.607325281947851E-003;
2.419333333333334E+009;1.964142620563507E-001;-4.006195440888405E-002;-3.783050691708922E-003;-6.459737662225962E-003;
2.419500000000000E+009;1.948358416557312E-001;-4.007623344659805E-002;-3.947613295167685E-003;-6.297187414020300E-003;
2.419666666666667E+009;1.932033002376556E-001;-4.069180786609650E-002;-4.106453619897366E-003;-6.332057062536478E-003;
2.419833333333334E+009;1.914467215538025E-001;-4.125255346298218E-002;-4.458764102309942E-003;-6.110457703471184E-003;
2.420000000000000E+009;1.898540258407593E-001;-4.205754771828651E-002;-4.728978034108877E-003;-5.881874356418848E-003;
2.420166666666667E+009;1.879806369543076E-001;-4.285971075296402E-002;-4.938288591802120E-003;-5.724960006773472E-003;
2.420333333333334E+009;1.860133707523346E-001;-4.373094812035561E-002;-5.243198480457068E-003;-5.534871015697718E-003;
2.420500000000000E+009;1.842783242464066E-001;-4.506902769207954E-002;-5.429616663604975E-003;-5.239597987383604E-003;
2.420666666666667E+009;1.823879778385162E-001;-4.603857174515724E-002;-5.577397532761097E-003;-5.074331536889076E-003;
2.420833333333334E+009;1.806913465261459E-001;-4.756151884794235E-002;-5.797512363642454E-003;-4.820856265723705E-003;
2.421000000000000E+009;1.789709031581879E-001;-4.903319850564003E-002;-5.920396652072668E-003;-4.462307784706354E-003;
2.421166666666667E+009;1.774023175239563E-001;-5.070105567574501E-002;-6.130489055067301E-003;-4.150810651481152E-003;
2.421333333333334E+009;1.754906028509140E-001;-5.226270481944084E-002;-6.093225907534361E-003;-3.869471838697791E-003;
2.421500000000000E+009;1.738166213035584E-001;-5.415345728397369E-002;-6.344637833535671E-003;-3.618810093030334E-003;
2.421666666666667E+009;1.723756492137909E-001;-5.596895143389702E-002;-6.333660334348679E-003;-3.370053600519896E-003;
2.421833333333334E+009;1.711549311876297E-001;-5.797297880053520E-002;-6.428285036236048E-003;-3.187702037394047E-003;
2.422000000000000E+009;1.695914417505264E-001;-5.993713438510895E-002;-6.390074267983437E-003;-2.944671548902988E-003;
2.422166666666667E+009;1.686417609453201E-001;-6.230386719107628E-002;-6.519909016788006E-003;-2.596078207716346E-003;
2.422333333333334E+009;1.674354374408722E-001;-6.441401690244675E-002;-6.406086031347513E-003;-2.405681414529681E-003;
2.422500000000000E+009;1.664361059665680E-001;-6.652010977268219E-002;-6.592514459043741E-003;-2.195128938183188E-003;
2.422666666666667E+009;1.655866801738739E-001;-6.866911798715591E-002;-6.477393675595522E-003;-1.942615490406752E-003;
2.422833333333334E+009;1.647900342941284E-001;-7.097408175468445E-002;-6.631269119679928E-003;-1.628680503927171E-003;
2.423000000000000E+009;1.642715185880661E-001;-7.308211177587509E-002;-6.521380506455898E-003;-1.486232853494585E-003;
2.423166666666667E+009;1.636438071727753E-001;-7.531987875699997E-002;-6.431893911212683E-003;-1.259809010662139E-003;
2.423333333333334E+009;1.634153425693512E-001;-7.753952592611313E-002;-6.577938795089722E-003;-9.717011707834899E-004;
2.423500000000000E+009;1.633388102054596E-001;-7.961454242467880E-002;-6.408446468412876E-003;-7.767951465211809E-004;
2.423666666666667E+009;1.632486879825592E-001;-8.167119324207306E-002;-6.633074488490820E-003;-7.031304412521422E-004;
2.423833333333334E+009;1.630950272083283E-001;-8.370252698659897E-002;-6.402064114809036E-003;-3.772395139094442E-004;
2.424000000000000E+009;1.632724702358246E-001;-8.579983562231064E-002;-6.333468016237021E-003;-2.752313739620149E-004;
2.424166666666667E+009;1.634546518325806E-001;-8.772888779640198E-002;-6.371107418090105E-003;-7.684947195230052E-005;
2.424333333333334E+009;1.636686325073242E-001;-8.948753029108048E-002;-6.151799112558365E-003;9.486193448537961E-005;
2.424500000000000E+009;1.640725433826447E-001;-9.146504104137421E-002;-6.177389994263649E-003;4.141584795434028E-004;
2.424666666666667E+009;1.645712852478027E-001;-9.296557307243347E-002;-6.181864533573389E-003;5.961838178336620E-004;
2.424833333333334E+009;1.653167903423309E-001;-9.460747987031937E-002;-6.102099083364010E-003;7.940524374134839E-004;
2.425000000000000E+009;1.657106578350067E-001;-9.590986371040344E-002;-5.950340069830418E-003;9.014592505991459E-004;
2.425166666666667E+009;1.661918908357620E-001;-9.727916866540909E-002;-5.923764314502478E-003;1.171710668131709E-003;
2.425333333333334E+009;1.667463481426239E-001;-9.845588356256485E-002;-5.863489583134651E-003;1.286290236748755E-003;
2.425500000000000E+009;1.673456132411957E-001;-9.960346668958664E-002;-5.763034336268902E-003;1.512733637355268E-003;
2.425666666666667E+009;1.679985374212265E-001;-1.004074662923813E-001;-5.716187413781881E-003;1.653808867558837E-003;
2.425833333333334E+009;1.686126887798309E-001;-1.014028713107109E-001;-5.493640433996916E-003;1.814570277929306E-003;
2.426000000000000E+009;1.691334843635559E-001;-1.020237654447556E-001;-5.630907136946917E-003;1.879520714282990E-003;
2.426166666666667E+009;1.697949618101120E-001;-1.026581078767777E-001;-5.397313740104437E-003;1.975337509065867E-003;
2.426333333333334E+009;1.701936572790146E-001;-1.032931581139565E-001;-5.277053453028202E-003;2.108264481648803E-003;
2.426500000000000E+009;1.708123236894608E-001;-1.036424040794373E-001;-5.096987821161747E-003;2.166306832805276E-003;
2.426666666666667E+009;1.712247282266617E-001;-1.039570420980454E-001;-5.070929881185293E-003;2.292128512635827E-003;
2.426833333333334E+009;1.718440651893616E-001;-1.042442172765732E-001;-5.003050435334444E-003;2.456567250192165E-003;
2.427000000000000E+009;1.719683110713959E-001;-1.044960469007492E-001;-5.079080350697041E-003;2.622984582558274E-003;
2.427166666666667E+009;1.723452359437943E-001;-1.044927611947060E-001;-4.890538286417723E-003;2.731271786615253E-003;
2.427333333333334E+009;1.724627614021301E-001;-1.047306433320046E-001;-4.742858931422234E-003;2.950217574834824E-003;
2.427500000000000E+009;1.723900288343430E-001;-1.049023494124413E-001;-4.651599563658238E-003;2.854213351383805E-003;
2.427666666666667E+009;1.722357273101807E-001;-1.048671603202820E-001;-4.563410766422749E-003;3.108512610197067E-003;
