# Version 1.00
#
freq[Hz];re:Trc1_S11;im:Trc1_S11;re:Trc2_S21;im:Trc2_S21;
2.400000000000000E+009;1.573861837387085E-001;6.309080868959427E-002;-2.538037719205022E-003;-1.079869922250509E-003;
2.400166666666667E+009;1.571875810623169E-001;6.130970641970635E-002;-2.456702990457416E-003;-1.086198491975665E-003;
2.400333333333334E+009;1.569794565439224E-001;5.928963422775269E-002;-2.436098409816623E-003;-9.182466892525554E-004;
2.400500000000000E+009;1.572225391864777E-001;5.732655525207520E-002;-2.579493680968881E-003;-7.520347717218101E-004;
2.400666666666667E+009;1.571357995271683E-001;5.527476966381073E-002;-2.576753264293075E-003;-7.809664239175618E-004;
2.400833333333334E+009;1.571757942438126E-001;5.339005216956139E-002;-2.517076209187508E-003;-9.261465747840703E-004;
2.401000000000000E+009;1.572306901216507E-001;5.123268440365791E-002;-2.568541094660759E-003;-6.815892993472517E-004;
2.401166666666667E+009;1.575847566127777E-001;4.899760708212853E-002;-2.645569853484631E-003;-6.500502349808812E-004;
2.401333333333334E+009;1.577209532260895E-001;4.703321680426598E-002;-2.738468581810594E-003;-5.734359147027135E-004;
2.401500000000000E+009;1.579719334840775E-001;4.497717320919037E-002;-2.601558808237314E-003;-5.439879605546594E-004;
2.401666666666667E+009;1.583887487649918E-001;4.304041713476181E-002;-2.760042203590274E-003;-6.671555456705391E-004;
2.401833333333334E+009;1.588145792484283E-001;4.082883149385452E-002;-2.693808637559414E-003;-4.876149469055235E-004;
2.402000000000000E+009;1.592319756746292E-001;3.882580623030663E-002;-2.629427704960108E-003;-4.227317986078560E-004;
2.402166666666667E+009;1.598759293556213E-001;3.670004010200501E-002;-2.705025253817439E-003;-4.996471107006073E-004;
2.402333333333334E+009;1.602993160486221E-001;3.487104922533035E-002;-2.855838509276509E-003;-3.357933019287884E-004;
2.402500000000000E+009;1.613991111516953E-001;3.320043161511421E-002;-2.776490757241845E-003;-3.565072547644377E-004;
2.402666666666667E+009;1.620290279388428E-001;3.130710497498512E-002;-2.899689367040992E-003;-5.663509364239872E-005;
2.402833333333334E+009;1.628584116697311E-001;2.967085316777229E-002;-2.981256693601608E-003;6.299315828073304E-006;
2.403000000000000E+009;1.637344956398010E-001;2.808651886880398E-002;-2.830546582117677E-003;-1.094960025511682E-004;
2.403166666666667E+009;1.645692586898804E-001;2.643948793411255E-002;-3.063317388296127E-003;7.900004129623994E-005;
2.403333333333334E+009;1.656606495380402E-001;2.484727464616299E-002;-3.087074961513281E-003;2.346957189729437E-004;
2.403500000000000E+009;1.665678471326828E-001;2.373091317713261E-002;-3.088416997343302E-003;4.472191503737122E-004;
2.403666666666667E+009;1.675784438848496E-001;2.221400663256645E-002;-3.068950260058045E-003;5.461234832182527E-004;
2.403833333333334E+009;1.685863882303238E-001;2.101643942296505E-002;-3.029792336747050E-003;3.968869859818369E-004;
2.404000000000000E+009;1.695735901594162E-001;1.992897130548954E-002;-3.164233407005668E-003;7.304779719561338E-004;
2.404166666666667E+009;1.706477552652359E-001;1.874584890902042E-002;-3.131440607830882E-003;7.954944740049541E-004;
2.404333333333334E+009;1.714349389076233E-001;1.773237995803356E-002;-3.204122185707092E-003;1.071907230652869E-003;
2.404500000000000E+009;1.723027080297470E-001;1.675829105079174E-002;-3.239702433347702E-003;1.061747549101710E-003;
2.404666666666667E+009;1.734511554241180E-001;1.601326465606690E-002;-3.121258690953255E-003;1.139139174483717E-003;
2.404833333333334E+009;1.742375940084457E-001;1.530679408460856E-002;-3.160468302667141E-003;1.484064268879592E-003;
2.405000000000000E+009;1.752477586269379E-001;1.459697168320417E-002;-3.080603666603565E-003;1.601551310159266E-003;
2.405166666666667E+009;1.760612130165100E-001;1.396741904318333E-002;-2.940649399533868E-003;1.712666475214064E-003;
2.405333333333334E+009;1.769813597202301E-001;1.328487321734428E-002;-2.965831197798252E-003;1.870566396974027E-003;
2.405500000000000E+009;1.777165681123734E-001;1.304394658654928E-002;-2.899425104260445E-003;2.067369874566793E-003;
2.405666666666667E+009;1.782998889684677E-001;1.262063439935446E-002;-2.799761248752475E-003;2.150914398953319E-003;
2.405833333333334E+009;1.789051741361618E-001;1.228119619190693E-002;-2.711852313950658E-003;2.389221452176571E-003;
2.406000000000000E+009;1.793614923954010E-001;1.181304361671209E-002;-2.431001281365752E-003;2.535020466893911E-003;
2.406166666666667E+009;1.797814965248108E-001;1.176622230559588E-002;-2.414039103314281E-003;2.665736246854067E-003;
2.406333333333334E+009;1.802743077278137E-001;1.142603624612093E-002;-2.280927961692214E-003;2.792126266285777E-003;
2.406500000000000E+009;1.805697828531265E-001;1.108275819569826E-002;-1.946905045770109E-003;2.777808345854282E-003;
2.406666666666667E+009;1.806557178497315E-001;1.083688717335463E-002;-2.020864514634013E-003;2.910541137680411E-003;
2.406833333333334E+009;1.809428632259369E-001;1.052290573716164E-002;-1.783345127478242E-003;3.186177462339401E-003;
2.407000000000000E+009;1.809329241514206E-001;1.017916202545166E-002;-1.733700628392398E-003;3.203960834071040E-003;
2.407166666666667E+009;1.809984445571899E-001;9.846579283475876E-003;-1.399163505993784E-003;3.201019018888474E-003;
2.407333333333334E+009;1.806868314743042E-001;9.399033151566982E-003;-1.147598959505558E-003;3.455787664279342E-003;
2.407500000000000E+009;1.806087046861649E-001;9.068244136869907E-003;-1.022943411953747E-003;3.270186483860016E-003;
2.407666666666667E+009;1.803012490272522E-001;8.710508234798908E-003;-8.425706182606518E-004;3.382016438990831E-003;
2.407833333333334E+009;1.798531413078308E-001;8.052608929574490E-003;-6.180020282045007E-004;3.248463384807110E-003;
2.408000000000000E+009;1.794925481081009E-001;7.464440539479256E-003;-5.385727854445577E-004;3.381863934919238E-003;
2.408166666666667E+009;1.789884716272354E-001;6.895980332046747E-003;-4.479699709918350E-004;3.224155865609646E-003;
2.408333333333334E+009;1.787288188934326E-001;6.181812379509211E-003;-1.229366625921102E-005;3.113027429208159E-003;
2.408500000000000E+009;1.779378950595856E-001;5.379488226026297E-003;-1.042191943270154E-004;2.968087093904614E-003;
2.408666666666667E+009;1.773280948400497E-001;4.492674488574266E-003;1.337353896815330E-004;3.093664068728685E-003;
2.408833333333334E+009;1.767375171184540E-001;3.488092217594385E-003;3.407889453228563E-004;3.051728243008256E-003;
2.409000000000000E+009;1.758925765752792E-001;2.293804893270135E-003;4.215065564494580E-004;2.892418764531612E-003;
2.409166666666667E+009;1.753009110689163E-001;1.236525713466108E-003;5.297688185237348E-004;2.804688643664122E-003;
2.409333333333334E+009;1.746815294027329E-001;-1.012283464660868E-004;6.786477169953287E-004;2.725100843235850E-003;
2.409500000000000E+009;1.739283651113510E-001;-1.423510257154703E-003;8.368197013624013E-004;2.558300970122218E-003;
2.409666666666667E+009;1.729113161563873E-001;-2.825218252837658E-003;7.587861618958414E-004;2.451539505273104E-003;
2.409833333333334E+009;1.722881942987442E-001;-4.330486059188843E-003;8.938245591707528E-004;2.367339795455337E-003;
2.410000000000000E+009;1.719828248023987E-001;-5.796604324132204E-003;1.036465167999268E-003;2.275519771501422E-003;
2.410166666666667E+009;1.713009327650070E-001;-7.448982447385788E-003;9.346010047011077E-004;2.143456134945154E-003;
2.410333333333334E+009;1.706099510192871E-001;-9.183874353766441E-003;1.055733300745487E-003;2.232456346973777E-003;
2.410500000000000E+009;1.700470596551895E-001;-1.090323273092508E-002;1.253031077794731E-003;2.024330431595445E-003;
2.410666666666667E+009;1.695369929075241E-001;-1.282730232924223E-002;1.195387914776802E-003;1.907169469632208E-003;
2.410833333333334E+009;1.690293848514557E-001;-1.468777563422918E-002;1.058716210536659E-003;1.655952073633671E-003;
2.411000000000000E+009;1.686752438545227E-001;-1.645628921687603E-002;1.130581251345575E-003;1.815039431676269E-003;
2.411166666666667E+009;1.684070974588394E-001;-1.844364218413830E-002;1.228824025020003E-003;1.781419501639903E-003;
2.411333333333334E+009;1.680266261100769E-001;-2.046062797307968E-002;1.204301370307803E-003;1.589810475707054E-003;
2.411500000000000E+009;1.679917722940445E-001;-2.257142961025238E-002;1.238938304595649E-003;1.580193988047540E-003;
2.411666666666667E+009;1.679067164659500E-001;-2.440207451581955E-002;1.215363270603120E-003;1.397920539602637E-003;
2.411833333333334E+009;1.679795086383820E-001;-2.642765641212463E-002;1.198448240756989E-003;1.323654898442328E-003;
2.412000000000000E+009;1.679754108190537E-001;-2.848032116889954E-002;1.177671598270536E-003;1.303759519942105E-003;
2.412166666666667E+009;1.679498404264450E-001;-3.050043247640133E-002;1.323005300946534E-003;1.136293169111013E-003;
2.412333333333334E+009;1.683770418167114E-001;-3.241203352808952E-002;1.178066711872816E-003;1.021993346512318E-003;
2.412500000000000E+009;1.684104949235916E-001;-3.423426300287247E-002;1.310524879954755E-003;1.149646588601172E-003;
2.412666666666667E+009;1.688467264175415E-001;-3.635439276695252E-002;1.188375987112522E-003;9.855385869741440E-004;
2.412833333333334E+009;1.691371500492096E-001;-3.811960294842720E-002;1.094730920158327E-003;9.479799773544073E-004;
2.413000000000000E+009;1.696244329214096E-001;-3.982720524072647E-002;1.184290042147040E-003;5.676245200447738E-004;
2.413166666666667E+009;1.699378490447998E-001;-4.153010249137878E-002;1.175498007796705E-003;8.255969150923193E-004;
2.413333333333334E+009;1.705252379179001E-001;-4.324718192219734E-002;1.011296175420284E-003;7.953165913932025E-004;
2.413500000000000E+009;1.710529625415802E-001;-4.497586935758591E-002;1.052029663696885E-003;5.841145757585764E-004;
2.413666666666667E+009;1.718012988567352E-001;-4.637173563241959E-002;9.100236929953098E-004;5.823984392918646E-004;
2.413833333333334E+009;1.721567362546921E-001;-4.797063395380974E-002;9.263254469260573E-004;5.498092505149543E-004;
2.414000000000000E+009;1.727817952632904E-001;-4.930817335844040E-002;8.130495552904904E-004;4.422910860739648E-004;
2.414166666666667E+009;1.735204309225082E-001;-5.054951831698418E-002;8.657365106046200E-004;4.387336957734078E-004;
2.414333333333334E+009;1.739267259836197E-001;-5.187025666236877E-002;7.589657907374203E-004;5.813204334117472E-004;
2.414500000000000E+009;1.747344285249710E-001;-5.282192677259445E-002;5.964614101685584E-004;4.124635888729245E-004;
2.414666666666667E+009;1.751380413770676E-001;-5.398024991154671E-002;6.786331068724394E-004;6.021452718414366E-004;
2.414833333333334E+009;1.757029443979263E-001;-5.479381605982781E-002;4.796129942405969E-004;5.158753483556211E-004;
2.415000000000000E+009;1.761131435632706E-001;-5.564420670270920E-002;5.426418501883745E-004;4.772858810611069E-004;
2.415166666666667E+009;1.766596883535385E-001;-5.638529732823372E-002;4.497033951338381E-004;5.660650786012411E-004;
2.415333333333334E+009;1.771281361579895E-001;-5.708584934473038E-002;5.692641134373844E-004;5.243392661213875E-004;
2.415500000000000E+009;1.774739623069763E-001;-5.752538889646530E-002;4.671388014685363E-004;5.589838838204742E-004;
2.415666666666667E+009;1.776785552501679E-001;-5.801230296492577E-002;5.856983480043709E-004;7.252504001371563E-004;
2.415833333333334E+009;1.779678612947464E-001;-5.860031396150589E-002;4.393960989546031E-004;6.259480724111199E-004;
2.416000000000000E+009;1.778491288423538E-001;-5.905685201287270E-002;6.439809803850949E-004;6.142967031337321E-004;
2.416166666666667E+009;1.782805770635605E-001;-5.930571258068085E-002;4.462180368136615E-004;6.698769284412265E-004;
2.416333333333334E+009;1.781403124332428E-001;-5.952021852135658E-002;6.055839476175606E-004;7.496551843360066E-004;
2.416500000000000E+009;1.779624819755554E-001;-5.985734984278679E-002;5.551523063331842E-004;8.387353736907244E-004;
2.416666666666667E+009;1.777890175580978E-001;-5.988746508955956E-002;5.493992939591408E-004;7.518948987126350E-004;
2.416833333333334E+009;1.777198314666748E-001;-6.027341261506081E-002;6.049196817912161E-004;7.408907986246049E-004;
2.417000000000000E+009;1.770660728216171E-001;-6.047193333506584E-002;6.330313626676798E-004;7.480921922251582E-004;
2.417166666666667E+009;1.766083538532257E-001;-6.052346155047417E-002;6.076872232370079E-004;8.258837624453008E-004;
2.417333333333334E+009;1.761465221643448E-001;-6.071186065673828E-002;5.884667043574154E-004;9.932379471138120E-004;
2.417500000000000E+009;1.754719614982605E-001;-6.102516874670982E-002;5.806267727166414E-004;8.109486079774797E-004;
2.417666666666667E+009;1.748357117176056E-001;-6.113238260149956E-002;7.172605255618691E-004;9.120833128690720E-004;
2.417833333333334E+009;1.738942265510559E-001;-6.145199015736580E-002;7.391544058918953E-004;9.862474398687482E-004;
2.418000000000000E+009;1.728957444429398E-001;-6.178732216358185E-002;9.119273745454848E-004;9.270889568142593E-004;
2.418166666666667E+009;1.720690876245499E-001;-6.197064742445946E-002;9.013100643642247E-004;1.020339434035122E-003;
2.418333333333334E+009;1.712604016065598E-001;-6.239257380366325E-002;8.579188724979758E-004;9.468707721680403E-004;
2.418500000000000E+009;1.700285226106644E-001;-6.278215348720551E-002;9.144808282144368E-004;1.010283594951034E-003;
2.418666666666667E+009;1.689435094594955E-001;-6.321889162063599E-002;1.184048363938928E-003;9.534966666251421E-004;
2.418833333333334E+009;1.676551550626755E-001;-6.381109356880188E-002;1.135235419496894E-003;9.340312099084258E-004;
2.419000000000000E+009;1.664271354675293E-001;-6.437944620847702E-002;1.082801958546042E-003;9.886129992082715E-004;
2.419166666666667E+009;1.653223186731339E-001;-6.494796276092529E-002;1.155921956524253E-003;8.336334140039980E-004;
2.419333333333334E+009;1.637990772724152E-001;-6.553140282630920E-002;1.244411338120699E-003;9.730812162160873E-004;
2.419500000000000E+009;1.627245247364044E-001;-6.669364869594574E-002;1.177708618342876E-003;9.615632588975132E-004;
2.419666666666667E+009;1.615563035011292E-001;-6.759674102067947E-002;1.193487434647977E-003;8.615701808594167E-004;
2.419833333333334E+009;1.603914648294449E-001;-6.841909140348434E-002;1.219420344568789E-003;9.399764821864665E-004;
2.420000000000000E+009;1.592747122049332E-001;-6.950400769710541E-002;1.335627166554332E-003;8.928904426284134E-004;
2.420166666666667E+009;1.579215377569199E-001;-7.057733088731766E-002;1.453895936720073E-003;8.329252013936639E-004;
2.420333333333334E+009;1.570075750350952E-001;-7.196588814258575E-002;1.434163074009121E-003;7.975174230523408E-004;
2.420500000000000E+009;1.560576558113098E-001;-7.305409014225006E-002;1.472501317039132E-003;6.618576589971781E-004;
2.420666666666667E+009;1.551526039838791E-001;-7.423727959394455E-002;1.650276943109930E-003;7.225555600598455E-004;
2.420833333333334E+009;1.540701836347580E-001;-7.586349546909332E-002;1.596529153175652E-003;6.526212091557682E-004;
2.421000000000000E+009;1.532458066940308E-001;-7.737471163272858E-002;1.593788503669202E-003;7.216598605737090E-004;
2.421166666666667E+009;1.525572091341019E-001;-7.899045199155808E-002;1.800618250854313E-003;5.864717531949282E-004;
2.421333333333334E+009;1.519487947225571E-001;-8.059018850326538E-002;1.688243704847992E-003;5.903443088755012E-004;
2.421500000000000E+009;1.512361466884613E-001;-8.209955692291260E-002;1.762177329510450E-003;5.270779365673661E-004;
2.421666666666667E+009;1.508312970399857E-001;-8.384737372398377E-002;1.714389421977103E-003;4.494241438806057E-004;
2.421833333333334E+009;1.504767537117004E-001;-8.552555739879608E-002;1.871782820671797E-003;3.345549921505153E-004;
2.422000000000000E+009;1.497161537408829E-001;-8.729091286659241E-002;1.907369936816394E-003;3.400086134206504E-004;
2.422166666666667E+009;1.494864821434021E-001;-8.909348398447037E-002;1.927843433804810E-003;2.952014037873596E-004;
2.422333333333334E+009;1.495112329721451E-001;-9.073740243911743E-002;1.847906503826380E-003;8.396850898861885E-005;
2.422500000000000E+009;1.495650857686997E-001;-9.233452379703522E-002;1.873113214969635E-003;1.412172860000283E-004;
2.422666666666667E+009;1.492969840764999E-001;-9.412287920713425E-002;2.038160571828485E-003;1.575708738528192E-004;
2.422833333333334E+009;1.496104151010513E-001;-9.588348120450974E-002;2.055495977401733E-003;1.004711521090940E-005;
2.423000000000000E+009;1.495255231857300E-001;-9.758042544126511E-002;1.964733004570007E-003;-1.193256539409049E-004;
2.423166666666667E+009;1.499494910240173E-001;-9.916929900646210E-002;2.042896347120404E-003;-2.760436618700624E-004;
2.423333333333334E+009;1.504135131835938E-001;-1.006072983145714E-001;1.983031863346696E-003;-2.746835234574974E-004;
2.423500000000000E+009;1.506545245647430E-001;-1.024368554353714E-001;1.957127358764410E-003;-3.066485223826021E-004;
2.423666666666667E+009;1.508031636476517E-001;-1.040292233228684E-001;1.904940232634544E-003;-3.867896157316864E-004;
2.423833333333334E+009;1.515567600727081E-001;-1.053788736462593E-001;1.942628645338118E-003;-2.721917699091137E-004;
2.424000000000000E+009;1.517539918422699E-001;-1.066565588116646E-001;2.120289253070951E-003;-6.335406797006726E-004;
2.424166666666667E+009;1.521975398063660E-001;-1.079573407769203E-001;2.005271846428514E-003;-5.854814662598074E-004;
2.424333333333334E+009;1.527608186006546E-001;-1.090795099735260E-001;2.016827696934342E-003;-5.757506587542594E-004;
2.424500000000000E+009;1.533512920141220E-001;-1.104062125086784E-001;1.995648955926299E-003;-8.077192469500005E-004;
2.424666666666667E+009;1.539344042539597E-001;-1.111975833773613E-001;1.878762035630643E-003;-8.254881249740720E-004;
2.424833333333334E+009;1.542968302965164E-001;-1.122726425528526E-001;1.897950540296733E-003;-8.733964059501886E-004;
2.425000000000000E+009;1.549104154109955E-001;-1.133361831307411E-001;1.860126736573875E-003;-9.361308766528964E-004;
2.425166666666667E+009;1.551348119974136E-001;-1.140690222382546E-001;1.837831223383546E-003;-9.399963892064989E-004;
2.425333333333334E+009;1.555172204971314E-001;-1.147764772176743E-001;1.688456861302257E-003;-1.002220902591944E-003;
2.425500000000000E+009;1.561408787965775E-001;-1.155459955334663E-001;1.773235155269504E-003;-1.028644735924900E-003;
2.425666666666667E+009;1.561357975006104E-001;-1.161379292607307E-001;1.788534340448678E-003;-1.035758294165134E-003;
2.425833333333334E+009;1.565656065940857E-001;-1.165733262896538E-001;1.727538998238742E-003;-1.126162358559668E-003;
2.426000000000000E+009;1.566894948482513E-001;-1.170607060194016E-001;1.607359736226499E-003;-1.116463681682944E-003;
2.426166666666667E+009;1.569857299327850E-001;-1.174524426460266E-001;1.496165757998824E-003;-1.392301986925304E-003;
2.426333333333334E+009;1.569023877382278E-001;-1.178185045719147E-001;1.526228385046125E-003;-1.248744782060385E-003;
2.426500000000000E+009;1.569877564907074E-001;-1.180248558521271E-001;1.619975664652884E-003;-1.268749008886516E-003;
2.426666666666667E+009;1.569614112377167E-001;-1.180972531437874E-001;1.500894664786756E-003;-1.357369939796627E-003;
2.426833333333334E+009;1.567877382040024E-001;-1.182472407817841E-001;1.553480396978557E-003;-1.441230415366590E-003;
2.427000000000000E+009;1.563928276300430E-001;-1.185978353023529E-001;1.495454926043749E-003;-1.351972226984799E-003;
2.427166666666667E+009;1.560663580894470E-001;-1.185209602117539E-001;1.494015450589359E-003;-1.565537764690816E-003;
2.427333333333334E+009;1.554636806249619E-001;-1.186117678880692E-001;1.533778849989176E-003;-1.610930310562253E-003;
2.427500000000000E+009;1.550390571355820E-001;-1.186310350894928E-001;1.364087802357972E-003;-1.563234254717827E-003;
2.427666666666667E+009;1.543542742729187E-001;-1.187889575958252E-001;1.376445172354579E-003;-1.672909245826304E-003;
2.427833333333334E+009;1.534757614135742E-001;-1.188712120056152E-001;1.403994858264923E-003;-1.596221583895385E-003;
