# Version 1.00
#
freq[Hz];re:Trc1_S11;im:Trc1_S11;re:Trc2_S21;im:Trc2_S21;
2.400000000000000E+009;1.575066000223160E-001;6.291984766721726E-002;-2.603165106847882E-003;-1.076399115845561E-003;
2.400166666666667E+009;1.572931557893753E-001;6.147388368844986E-002;-2.665815176442266E-003;-1.027683611027896E-003;
2.400333333333334E+009;1.570896804332733E-001;5.939404666423798E-002;-2.610792405903339E-003;-9.774728678166866E-004;
2.400500000000000E+009;1.570888608694077E-001;5.742603167891502E-002;-2.746157580986619E-003;-8.060117252171040E-004;
2.400666666666667E+009;1.569845080375671E-001;5.531809106469154E-002;-2.606190275400877E-003;-7.941026124171913E-004;
2.400833333333334E+009;1.572033911943436E-001;5.366211757063866E-002;-2.670308807864785E-003;-7.451265119016171E-004;
2.401000000000000E+009;1.572654992341995E-001;5.126877129077911E-002;-2.590099582448602E-003;-7.079222705215216E-004;
2.401166666666667E+009;1.574810594320297E-001;4.929664358496666E-002;-2.676883479580283E-003;-6.212064181454480E-004;
2.401333333333334E+009;1.576775759458542E-001;4.718302562832832E-002;-2.764302305877209E-003;-4.209002363495529E-004;
2.401500000000000E+009;1.582355052232742E-001;4.517417773604393E-002;-2.673162380233407E-003;-3.697174834087491E-004;
2.401666666666667E+009;1.584920436143875E-001;4.321398958563805E-002;-2.639218466356397E-003;-5.112402141094208E-004;
2.401833333333334E+009;1.588504165410996E-001;4.099589213728905E-002;-2.739622490480542E-003;-2.849500742740929E-004;
2.402000000000000E+009;1.592966020107269E-001;3.895656764507294E-002;-2.843490568920970E-003;-3.214364987798035E-004;
2.402166666666667E+009;1.599977314472199E-001;3.694038465619087E-002;-2.846837276592851E-003;-1.296366826863959E-004;
2.402333333333334E+009;1.603538990020752E-001;3.495628386735916E-002;-2.756477799266577E-003;-3.236923657823354E-004;
2.402500000000000E+009;1.613107323646545E-001;3.298035264015198E-002;-2.803562209010124E-003;-1.861289638327435E-004;
2.402666666666667E+009;1.620881557464600E-001;3.164786100387573E-002;-3.004136495292187E-003;-1.086318879970349E-004;
2.402833333333334E+009;1.629350334405899E-001;2.987960912287235E-002;-3.124875249341130E-003;6.816187669755891E-005;
2.403000000000000E+009;1.637798547744751E-001;2.814930677413940E-002;-2.956459531560540E-003;1.191341434605420E-004;
2.403166666666667E+009;1.646381467580795E-001;2.648776024580002E-002;-2.995551098138094E-003;2.041868283413351E-004;
2.403333333333334E+009;1.656095683574677E-001;2.507607266306877E-002;-3.169698873534799E-003;4.125179257243872E-004;
2.403500000000000E+009;1.664743423461914E-001;2.383297495543957E-002;-3.136269049718976E-003;2.675803843885660E-004;
2.403666666666667E+009;1.674170345067978E-001;2.235028333961964E-002;-2.981839235872030E-003;3.792640054598451E-004;
2.403833333333334E+009;1.685948222875595E-001;2.105974033474922E-002;-3.192561445757747E-003;7.205440197139978E-004;
2.404000000000000E+009;1.696400046348572E-001;1.978721469640732E-002;-3.247850108891726E-003;7.542636012658477E-004;
2.404166666666667E+009;1.705971509218216E-001;1.865345798432827E-002;-3.278573509305716E-003;1.078058849088848E-003;
2.404333333333334E+009;1.715900897979736E-001;1.792805455625057E-002;-3.243575338274241E-003;1.079195877537131E-003;
2.404500000000000E+009;1.725052893161774E-001;1.692341826856136E-002;-3.236024873331189E-003;1.220540492795408E-003;
2.404666666666667E+009;1.734627783298492E-001;1.614110916852951E-002;-3.232634859159589E-003;1.389272511005402E-003;
2.404833333333334E+009;1.745746880769730E-001;1.536384969949722E-002;-2.931848866865039E-003;1.504993182606995E-003;
2.405000000000000E+009;1.753907948732376E-001;1.467858627438545E-002;-2.930796938017011E-003;1.674080966040492E-003;
2.405166666666667E+009;1.761603057384491E-001;1.400444284081459E-002;-2.952850423753262E-003;1.867418875917792E-003;
2.405333333333334E+009;1.770858466625214E-001;1.345550268888474E-002;-2.926024375483394E-003;1.898492570035160E-003;
2.405500000000000E+009;1.777394562959671E-001;1.307652704417706E-002;-2.759045921266079E-003;2.194477943703532E-003;
2.405666666666667E+009;1.784423440694809E-001;1.258301641792059E-002;-2.644599881023169E-003;2.278165426105261E-003;
2.405833333333334E+009;1.790426671504974E-001;1.236459147185087E-002;-2.687409287318587E-003;2.300601685419679E-003;
2.406000000000000E+009;1.795276701450348E-001;1.186790876090527E-002;-2.414580434560776E-003;2.620628802105784E-003;
2.406166666666667E+009;1.797799915075302E-001;1.167973596602678E-002;-2.403633901849389E-003;2.674374496564269E-003;
2.406333333333334E+009;1.804516911506653E-001;1.129659917205572E-002;-2.223639516159892E-003;2.824916038662195E-003;
2.406500000000000E+009;1.806152760982513E-001;1.107388082891703E-002;-1.957243541255593E-003;3.079252084717155E-003;
2.406666666666667E+009;1.806142330169678E-001;1.079191546887159E-002;-1.963027287274599E-003;3.138821804895997E-003;
2.406833333333334E+009;1.808463931083679E-001;1.050830725580454E-002;-1.694841426797211E-003;3.249021247029305E-003;
2.407000000000000E+009;1.810300648212433E-001;1.010764203965664E-002;-1.479756785556674E-003;3.213126678019762E-003;
2.407166666666667E+009;1.811093538999558E-001;1.000462379306555E-002;-1.379646826535463E-003;3.147563431411982E-003;
2.407333333333334E+009;1.808042824268341E-001;9.382349438965321E-003;-1.138899242505431E-003;3.249814966693521E-003;
2.407500000000000E+009;1.806095838546753E-001;9.125428274273872E-003;-8.618903229944408E-004;3.368481295183301E-003;
2.407666666666667E+009;1.804296672344208E-001;8.745420724153519E-003;-7.345831254497170E-004;3.478523576632142E-003;
2.407833333333334E+009;1.799696981906891E-001;8.016241714358330E-003;-7.225770386867225E-004;3.378218971192837E-003;
2.408000000000000E+009;1.794574707746506E-001;7.446335162967444E-003;-3.394501691218466E-004;3.255699528381228E-003;
2.408166666666667E+009;1.791053414344788E-001;7.039892952889204E-003;-1.606059086043388E-004;3.276204224675894E-003;
2.408333333333334E+009;1.787070184946060E-001;6.251494865864515E-003;1.100018344004639E-004;3.051282139495015E-003;
2.408500000000000E+009;1.779931783676148E-001;5.364750046283007E-003;4.629438626579940E-005;3.171082120388746E-003;
2.408666666666667E+009;1.774920523166657E-001;4.362719599157572E-003;2.234898274764419E-004;2.978405216708779E-003;
2.408833333333334E+009;1.768306344747543E-001;3.363082651048899E-003;3.881732118315995E-004;2.837113104760647E-003;
2.409000000000000E+009;1.759703457355499E-001;2.351872157305479E-003;3.902215685229749E-004;2.949946094304323E-003;
2.409166666666667E+009;1.753310114145279E-001;1.245600287802517E-003;4.883522051386535E-004;2.876706887036562E-003;
2.409333333333334E+009;1.746816337108612E-001;-1.614102366147563E-004;5.801185034215450E-004;2.727371873334050E-003;
2.409500000000000E+009;1.739559620618820E-001;-1.533864415250719E-003;7.650113548152149E-004;2.603330183774233E-003;
2.409666666666667E+009;1.729889810085297E-001;-2.806382952257991E-003;8.712681592442095E-004;2.523866714909673E-003;
2.409833333333334E+009;1.723825782537460E-001;-4.385549109429121E-003;9.143052739091218E-004;2.417691284790635E-003;
2.410000000000000E+009;1.719436496496201E-001;-5.865561310201883E-003;9.175324812531471E-004;2.308018272742629E-003;
2.410166666666667E+009;1.712091863155365E-001;-7.515196222811937E-003;9.360661497339606E-004;2.345256274566054E-003;
2.410333333333334E+009;1.706373393535614E-001;-9.062425233423710E-003;1.162625150755048E-003;1.990591408684850E-003;
2.410500000000000E+009;1.699760705232620E-001;-1.090769656002522E-002;1.144276815466583E-003;2.046502195298672E-003;
2.410666666666667E+009;1.694562286138535E-001;-1.291393395513296E-002;1.066131168045104E-003;1.984880305826664E-003;
2.410833333333334E+009;1.690375059843063E-001;-1.461290847510099E-002;1.288571162149310E-003;1.841004355810583E-003;
2.411000000000000E+009;1.686435937881470E-001;-1.655652560293675E-002;1.179530634544790E-003;1.768697751685977E-003;
2.411166666666667E+009;1.684132367372513E-001;-1.859485730528832E-002;1.139539177529514E-003;1.649847836233676E-003;
2.411333333333334E+009;1.681483834981918E-001;-2.036526240408421E-002;1.243366161361337E-003;1.653405837714672E-003;
2.411500000000000E+009;1.679787188768387E-001;-2.259835414588451E-002;1.221748651005328E-003;1.507183071225882E-003;
2.411666666666667E+009;1.679659038782120E-001;-2.447729185223579E-002;1.412389683537185E-003;1.538225566036999E-003;
2.411833333333334E+009;1.678805947303772E-001;-2.659121714532375E-002;1.470251590944827E-003;1.604354591108859E-003;
2.412000000000000E+009;1.678842157125473E-001;-2.852515690028667E-002;1.354606356471777E-003;1.468738773837686E-003;
2.412166666666667E+009;1.680346727371216E-001;-3.034337051212788E-002;1.407202915288508E-003;1.217591343447566E-003;
2.412333333333334E+009;1.684104800224304E-001;-3.226609155535698E-002;1.557298819534481E-003;1.202020095661283E-003;
2.412500000000000E+009;1.684761643409729E-001;-3.443156927824020E-002;1.267094979993999E-003;1.271681743673980E-003;
2.412666666666667E+009;1.688669621944428E-001;-3.635729104280472E-002;1.427616574801505E-003;1.059020054526627E-003;
2.412833333333334E+009;1.692850440740585E-001;-3.795601427555084E-002;1.412729616276920E-003;9.336254443041980E-004;
2.413000000000000E+009;1.697386950254440E-001;-3.992718458175659E-002;1.376660075038672E-003;8.824436808936298E-004;
2.413166666666667E+009;1.700256764888763E-001;-4.172645136713982E-002;1.393589191138744E-003;8.804205572232604E-004;
2.413333333333334E+009;1.706041842699051E-001;-4.347406700253487E-002;1.291338354349136E-003;6.565377116203308E-004;
2.413500000000000E+009;1.711734235286713E-001;-4.503414034843445E-002;1.393341226503253E-003;6.352539639919996E-004;
2.413666666666667E+009;1.719007045030594E-001;-4.664480313658714E-002;1.084396499209106E-003;5.899997195228934E-004;
2.413833333333334E+009;1.723808795213699E-001;-4.799801856279373E-002;1.164071261882782E-003;5.220752791501582E-004;
2.414000000000000E+009;1.726590842008591E-001;-4.940273240208626E-002;1.126284478232265E-003;3.664352698251605E-004;
2.414166666666667E+009;1.735495179891586E-001;-5.063450336456299E-002;1.074228435754776E-003;5.303055513650179E-004;
2.414333333333334E+009;1.740290969610214E-001;-5.181017890572548E-002;8.578153792768717E-004;4.240750276949257E-004;
2.414500000000000E+009;1.746976375579834E-001;-5.282518267631531E-002;9.454864193685353E-004;4.755356349050999E-004;
2.414666666666667E+009;1.751673519611359E-001;-5.383733287453651E-002;8.590695797465742E-004;4.612556367646903E-004;
2.414833333333334E+009;1.756658703088760E-001;-5.485066026449204E-002;8.370356517843902E-004;4.091351001989096E-004;
2.415000000000000E+009;1.762070357799530E-001;-5.556974187493324E-002;7.925789686851203E-004;4.151321772951633E-004;
2.415166666666667E+009;1.765874922275543E-001;-5.639601498842239E-002;7.042934885248542E-004;3.710399323608726E-004;
2.415333333333334E+009;1.770246773958206E-001;-5.714535713195801E-002;8.149623754434288E-004;5.490302573889494E-004;
2.415500000000000E+009;1.774034351110458E-001;-5.759974196553230E-002;7.171814213506877E-004;4.969284636899829E-004;
2.415666666666667E+009;1.776212006807327E-001;-5.805378034710884E-002;6.579633336514235E-004;4.731141380034387E-004;
2.415833333333334E+009;1.777450144290924E-001;-5.844843760132790E-002;4.838568274863064E-004;6.675792392343283E-004;
2.416000000000000E+009;1.779401898384094E-001;-5.901170521974564E-002;5.843392573297024E-004;7.269064662978053E-004;
2.416166666666667E+009;1.782406568527222E-001;-5.927161127328873E-002;4.918475169688463E-004;7.051589200273156E-004;
2.416333333333334E+009;1.781197190284729E-001;-5.951593443751335E-002;5.079816910438240E-004;6.067329086363316E-004;
2.416500000000000E+009;1.780215501785278E-001;-5.978529527783394E-002;5.904308054596186E-004;7.075713947415352E-004;
2.416666666666667E+009;1.778230965137482E-001;-6.003044918179512E-002;6.513103144243360E-004;7.592592737637460E-004;
2.416833333333334E+009;1.776653975248337E-001;-6.033149734139442E-002;6.049686926417053E-004;8.379457285627723E-004;
2.417000000000000E+009;1.770334243774414E-001;-6.047020480036736E-002;7.382166804745793E-004;8.858743822202086E-004;
2.417166666666667E+009;1.767075210809708E-001;-6.049903482198715E-002;6.966813234612346E-004;8.824524702504277E-004;
2.417333333333334E+009;1.761668473482132E-001;-6.073030456900597E-002;7.560488302260637E-004;9.157267049886286E-004;
2.417500000000000E+009;1.754223555326462E-001;-6.111407279968262E-002;6.768963648937643E-004;8.843329851515591E-004;
2.417666666666667E+009;1.748201251029968E-001;-6.107707321643829E-002;7.361390744335949E-004;9.122314513660967E-004;
2.417833333333334E+009;1.739679723978043E-001;-6.137151271104813E-002;8.105016895569861E-004;7.743085152469575E-004;
2.418000000000000E+009;1.729802191257477E-001;-6.170649826526642E-002;8.243654156103730E-004;9.288004948757589E-004;
2.418166666666667E+009;1.719816476106644E-001;-6.196280568838120E-002;9.417309192940593E-004;8.334441226907075E-004;
2.418333333333334E+009;1.713125258684158E-001;-6.238204985857010E-002;8.871798636391759E-004;9.397331159561873E-004;
2.418500000000000E+009;1.700942814350128E-001;-6.268921494483948E-002;1.038131536915898E-003;1.033133943565190E-003;
2.418666666666667E+009;1.690419912338257E-001;-6.334737688302994E-002;1.040729228407145E-003;9.106622310355306E-004;
2.418833333333334E+009;1.678211987018585E-001;-6.382761895656586E-002;1.174419885501266E-003;9.593972936272621E-004;
2.419000000000000E+009;1.664458960294724E-001;-6.435136497020721E-002;1.186285167932510E-003;8.985675522126257E-004;
2.419166666666667E+009;1.653157770633698E-001;-6.507696211338043E-002;1.178228878416121E-003;8.130870992317796E-004;
2.419333333333334E+009;1.639796793460846E-001;-6.554833054542542E-002;1.050674123689532E-003;7.829077076166868E-004;
2.419500000000000E+009;1.628464311361313E-001;-6.665426492691040E-002;1.296499627642334E-003;8.575200918130577E-004;
2.419666666666667E+009;1.617167592048645E-001;-6.765362620353699E-002;1.174600096419454E-003;7.247689645737410E-004;
2.419833333333334E+009;1.603089272975922E-001;-6.833402067422867E-002;1.212600385770202E-003;7.163080736063421E-004;
2.420000000000000E+009;1.592762172222138E-001;-6.945178657770157E-002;1.391379628330469E-003;8.770234417170286E-004;
2.420166666666667E+009;1.581584960222244E-001;-7.074940949678421E-002;1.440038438886404E-003;7.726888288743794E-004;
2.420333333333334E+009;1.570368856191635E-001;-7.196816802024841E-002;1.400146284140647E-003;6.494279368780553E-004;
2.420500000000000E+009;1.559989005327225E-001;-7.302096486091614E-002;1.569017069414258E-003;6.498357397504151E-004;
2.420666666666667E+009;1.550399512052536E-001;-7.439735531806946E-002;1.658045104704797E-003;6.532125407829881E-004;
2.420833333333334E+009;1.541761904954910E-001;-7.585113495588303E-002;1.514672883786261E-003;6.829667836427689E-004;
2.421000000000000E+009;1.531779766082764E-001;-7.735925912857056E-002;1.649847486987710E-003;3.974519204348326E-004;
2.421166666666667E+009;1.525505483150482E-001;-7.884655892848969E-002;1.490590744651854E-003;4.609753377735615E-004;
2.421333333333334E+009;1.518361419439316E-001;-8.062537759542465E-002;1.746430527418852E-003;3.801553102675825E-004;
2.421500000000000E+009;1.511748582124710E-001;-8.207967132329941E-002;1.681091962382197E-003;5.398546345531941E-004;
2.421666666666667E+009;1.508721560239792E-001;-8.382039517164230E-002;1.940546673722565E-003;3.740974352695048E-004;
2.421833333333334E+009;1.504708230495453E-001;-8.542185276746750E-002;1.715731457807124E-003;2.631468814797700E-004;
2.422000000000000E+009;1.498384028673172E-001;-8.733232319355011E-002;1.864538760855794E-003;2.117429830832407E-004;
2.422166666666667E+009;1.495800316333771E-001;-8.909809589385986E-002;1.845189370214939E-003;1.939987705554813E-004;
2.422333333333334E+009;1.496397256851196E-001;-9.071806818246841E-002;1.827999367378652E-003;1.865194062702358E-004;
2.422500000000000E+009;1.492699086666107E-001;-9.233220666646957E-002;1.745871151797473E-003;2.858834523067344E-005;
2.422666666666667E+009;1.493158787488937E-001;-9.406919032335281E-002;1.955062849447131E-003;6.864260649308562E-005;
2.422833333333334E+009;1.495990306138992E-001;-9.592006355524063E-002;1.948498538695276E-003;-4.867855386692099E-005;
2.423000000000000E+009;1.495785117149353E-001;-9.753862023353577E-002;1.970696961507201E-003;-1.102828100556508E-004;
2.423166666666667E+009;1.499052941799164E-001;-9.917286783456802E-002;1.808017143048346E-003;-1.856814924394712E-004;
2.423333333333334E+009;1.503744572401047E-001;-1.007064357399941E-001;2.041674219071865E-003;-2.620993182063103E-004;
2.423500000000000E+009;1.505594551563263E-001;-1.023684367537499E-001;1.958686392754316E-003;-3.685129631776363E-004;
2.423666666666667E+009;1.507857143878937E-001;-1.038738191127777E-001;1.947379438206554E-003;-2.825241826940328E-004;
2.423833333333334E+009;1.512982994318008E-001;-1.054154336452484E-001;1.960094785317779E-003;-4.700369609054178E-004;
2.424000000000000E+009;1.517288088798523E-001;-1.065470799803734E-001;1.868027029559016E-003;-4.118231008760631E-004;
2.424166666666667E+009;1.522467434406281E-001;-1.080348268151283E-001;1.716273720376194E-003;-8.318846812471747E-004;
2.424333333333334E+009;1.529169082641602E-001;-1.091407835483551E-001;1.759368809871376E-003;-7.664257427677512E-004;
2.424500000000000E+009;1.533369570970535E-001;-1.103077605366707E-001;1.848023384809494E-003;-6.989418179728091E-004;
2.424666666666667E+009;1.539645940065384E-001;-1.113067567348480E-001;1.862114178948104E-003;-7.483293302357197E-004;
2.424833333333334E+009;1.542432010173798E-001;-1.123106181621552E-001;1.773892785422504E-003;-9.499497828073800E-004;
2.425000000000000E+009;1.548574268817902E-001;-1.132194250822067E-001;1.676835119724274E-003;-8.587111369706690E-004;
2.425166666666667E+009;1.551300287246704E-001;-1.140258908271790E-001;1.663477858528495E-003;-1.034954097121954E-003;
2.425333333333334E+009;1.555020660161972E-001;-1.148595437407494E-001;1.712851226329804E-003;-9.612286812625825E-004;
2.425500000000000E+009;1.560693383216858E-001;-1.155105903744698E-001;1.526754000224173E-003;-1.131105236709118E-003;
2.425666666666667E+009;1.561985909938812E-001;-1.159884855151177E-001;1.627870136871934E-003;-1.183508313260973E-003;
2.425833333333334E+009;1.565058082342148E-001;-1.165234521031380E-001;1.571229659020901E-003;-1.128439442254603E-003;
2.426000000000000E+009;1.567021459341049E-001;-1.170435175299645E-001;1.637053326703608E-003;-1.227822038345039E-003;
2.426166666666667E+009;1.570049077272415E-001;-1.174067780375481E-001;1.543293008580804E-003;-1.203068532049656E-003;
2.426333333333334E+009;1.568633466959000E-001;-1.177300512790680E-001;1.374703249894083E-003;-1.275161863304675E-003;
2.426500000000000E+009;1.569121479988098E-001;-1.179420500993729E-001;1.519292360171676E-003;-1.251135254278779E-003;
2.426666666666667E+009;1.570741832256317E-001;-1.179651692509651E-001;1.456902595236898E-003;-1.399627071805298E-003;
2.426833333333334E+009;1.566697061061859E-001;-1.183425337076187E-001;1.530289999209344E-003;-1.355201122350991E-003;
2.427000000000000E+009;1.564347892999649E-001;-1.184903010725975E-001;1.411947305314243E-003;-1.426269998773933E-003;
2.427166666666667E+009;1.559859216213226E-001;-1.183753386139870E-001;1.448648748919368E-003;-1.495307544246316E-003;
2.427333333333334E+009;1.554140746593475E-001;-1.185926273465157E-001;1.306723919697106E-003;-1.661758404225111E-003;
2.427500000000000E+009;1.550979465246201E-001;-1.186922639608383E-001;1.370853045955300E-003;-1.494547468610108E-003;
2.427666666666667E+009;1.542612761259079E-001;-1.188596934080124E-001;1.378017943352461E-003;-1.567434635944665E-003;
2.427833333333334E+009;1.534531265497208E-001;-1.188360080122948E-001;1.319493982009590E-003;-1.702970941551030E-003;
