# Version 1.00
#
freq[Hz];re:Trc1_S11;im:Trc1_S11;re:Trc2_S21;im:Trc2_S21;
2.400000000000000E+009;1.552601754665375E-001;1.070276871323586E-001;-4.847683478146792E-003;3.489958122372627E-003;
2.400166666666667E+009;1.549768149852753E-001;1.046793311834335E-001;-4.541666712611914E-003;3.645454999059439E-003;
2.400333333333334E+009;1.550784707069397E-001;1.022959426045418E-001;-4.461206961423159E-003;3.765855450183153E-003;
2.400500000000000E+009;1.549174785614014E-001;9.958359599113464E-002;-4.236304201185703E-003;3.743046894669533E-003;
2.400666666666667E+009;1.550725847482681E-001;9.712957590818405E-002;-4.019415006041527E-003;3.825414925813675E-003;
2.400833333333334E+009;1.551461815834045E-001;9.425281733274460E-002;-3.788051428273320E-003;3.868720028549433E-003;
2.401000000000000E+009;1.552298069000244E-001;9.144033491611481E-002;-3.664245130494237E-003;4.024981055408716E-003;
2.401166666666667E+009;1.555416285991669E-001;8.854179084300995E-002;-3.580200718715787E-003;4.032615106552839E-003;
2.401333333333334E+009;1.558089703321457E-001;8.554010093212128E-002;-3.565050428733230E-003;4.053251817822456E-003;
2.401500000000000E+009;1.563047021627426E-001;8.285021781921387E-002;-3.333798842504621E-003;4.131016787141562E-003;
2.401666666666667E+009;1.566451936960220E-001;7.988988608121872E-002;-3.181548789143562E-003;4.320463631302118E-003;
2.401833333333334E+009;1.571748107671738E-001;7.713191211223602E-002;-3.047385020181537E-003;4.176640417426825E-003;
2.402000000000000E+009;1.579670608043671E-001;7.433647662401199E-002;-2.908967901021242E-003;4.354779608547688E-003;
2.402166666666667E+009;1.587404310703278E-001;7.177490741014481E-002;-2.718911971896887E-003;4.402341321110725E-003;
2.402333333333334E+009;1.598293185234070E-001;6.896638125181198E-002;-2.482544863596559E-003;4.465250298380852E-003;
2.402500000000000E+009;1.608456969261169E-001;6.645178794860840E-002;-2.558578737080097E-003;4.440468735992909E-003;
2.402666666666667E+009;1.621023118495941E-001;6.414453685283661E-002;-2.185831777751446E-003;4.494457971304655E-003;
2.402833333333334E+009;1.632472723722458E-001;6.166209280490875E-002;-2.169223735108972E-003;4.616500344127417E-003;
2.403000000000000E+009;1.648490577936173E-001;5.926134064793587E-002;-1.920811948366463E-003;4.763946868479252E-003;
2.403166666666667E+009;1.664877533912659E-001;5.710727348923683E-002;-1.721094595268369E-003;4.799170419573784E-003;
2.403333333333334E+009;1.677934974431992E-001;5.480656027793884E-002;-1.599152572453022E-003;4.654498305171728E-003;
2.403500000000000E+009;1.696338653564453E-001;5.270189046859741E-002;-1.568371430039406E-003;4.711057059466839E-003;
2.403666666666667E+009;1.713846623897553E-001;5.082873627543449E-002;-1.286917133256793E-003;4.732971545308828E-003;
2.403833333333334E+009;1.730168312788010E-001;4.887502640485764E-002;-1.099237939342856E-003;4.841033369302750E-003;
2.404000000000000E+009;1.744483858346939E-001;4.712921380996704E-002;-1.097335130907595E-003;4.896819591522217E-003;
2.404166666666667E+009;1.764122247695923E-001;4.557676985859871E-002;-8.066386217251420E-004;4.854474682360888E-003;
2.404333333333334E+009;1.779376268386841E-001;4.395340755581856E-002;-6.792385247536004E-004;4.868324846029282E-003;
2.404500000000000E+009;1.796287000179291E-001;4.270407930016518E-002;-4.368708468973637E-004;4.779106006026268E-003;
2.404666666666667E+009;1.812082082033157E-001;4.171776399016380E-002;-1.491760049248114E-004;4.775962326675654E-003;
2.404833333333334E+009;1.829181015491486E-001;4.057602211833000E-002;-1.535734045319259E-004;4.594005644321442E-003;
2.405000000000000E+009;1.841944456100464E-001;3.992047160863876E-002;9.020836296258494E-005;4.697951022535563E-003;
2.405166666666667E+009;1.858076453208923E-001;3.920958936214447E-002;2.291726559633389E-004;4.534510429948568E-003;
2.405333333333334E+009;1.871555596590042E-001;3.866866603493691E-002;2.935960656031966E-004;4.242681898176670E-003;
2.405500000000000E+009;1.885498762130737E-001;3.819621726870537E-002;6.908274954184890E-004;4.314648453146219E-003;
2.405666666666667E+009;1.897223442792893E-001;3.797212243080139E-002;6.834375672042370E-004;4.259482026100159E-003;
2.405833333333334E+009;1.910422742366791E-001;3.767017275094986E-002;7.526416447944939E-004;4.147293046116829E-003;
2.406000000000000E+009;1.920281499624252E-001;3.760678321123123E-002;8.796806214377284E-004;3.981333225965500E-003;
2.406166666666667E+009;1.931628733873367E-001;3.727038204669952E-002;8.919506217353046E-004;3.865055739879608E-003;
2.406333333333334E+009;1.940518617630005E-001;3.744375333189964E-002;1.036250963807106E-003;3.794157877564430E-003;
2.406500000000000E+009;1.948241293430328E-001;3.742896765470505E-002;1.028907368890941E-003;3.538368735462427E-003;
2.406666666666667E+009;1.953541487455368E-001;3.755404800176621E-002;1.130670192651451E-003;3.534429939463735E-003;
2.406833333333334E+009;1.960098743438721E-001;3.754366561770439E-002;1.018339185975492E-003;3.532638773322105E-003;
2.407000000000000E+009;1.961459368467331E-001;3.789390623569489E-002;1.098572858609259E-003;3.250796580687165E-003;
2.407166666666667E+009;1.965953558683395E-001;3.770380094647408E-002;1.154827070422471E-003;3.209979273378849E-003;
2.407333333333334E+009;1.964230835437775E-001;3.781965747475624E-002;1.088952994905412E-003;3.418133361265063E-003;
2.407500000000000E+009;1.963207423686981E-001;3.788863494992256E-002;1.058942172676325E-003;3.239805111661553E-003;
2.407666666666667E+009;1.964126676321030E-001;3.784050047397614E-002;1.176288002170622E-003;3.186672460287809E-003;
2.407833333333334E+009;1.959313452243805E-001;3.772559762001038E-002;1.068434678018093E-003;3.050870029255748E-003;
2.408000000000000E+009;1.959009915590286E-001;3.761015459895134E-002;1.207966357469559E-003;2.967159962281585E-003;
2.408166666666667E+009;1.951576471328735E-001;3.739275410771370E-002;1.090171746909618E-003;3.005954436957836E-003;
2.408333333333334E+009;1.948854029178619E-001;3.686172515153885E-002;9.876762051135302E-004;3.027265425771475E-003;
2.408500000000000E+009;1.940430551767349E-001;3.655738383531570E-002;1.068600104190409E-003;2.908078255131841E-003;
2.408666666666667E+009;1.932805329561234E-001;3.607494384050369E-002;1.014892244711518E-003;2.903537126258016E-003;
2.408833333333334E+009;1.926142275333405E-001;3.529344126582146E-002;8.952869684435427E-004;2.950365422293544E-003;
2.409000000000000E+009;1.916481107473373E-001;3.438924625515938E-002;8.892063051462174E-004;2.921907464042306E-003;
2.409166666666667E+009;1.905564814805985E-001;3.345885500311852E-002;9.635887690819800E-004;2.899794140830636E-003;
2.409333333333334E+009;1.896925270557404E-001;3.241135552525520E-002;7.605212158523500E-004;2.942374441772699E-003;
2.409500000000000E+009;1.884510666131973E-001;3.112671338021755E-002;9.668029379099608E-004;3.168903756886721E-003;
2.409666666666667E+009;1.876281648874283E-001;2.972414344549179E-002;8.510641055181623E-004;3.270422108471394E-003;
2.409833333333334E+009;1.864835470914841E-001;2.825848199427128E-002;8.483179844915867E-004;3.272030735388398E-003;
2.410000000000000E+009;1.853903830051422E-001;2.656145766377449E-002;9.124928619712591E-004;3.518545767292380E-003;
2.410166666666667E+009;1.843601018190384E-001;2.480368874967098E-002;1.067258068360388E-003;3.599955700337887E-003;
2.410333333333334E+009;1.834142506122589E-001;2.308840118348599E-002;1.219426048919559E-003;3.771765390411019E-003;
2.410500000000000E+009;1.824712008237839E-001;2.117131277918816E-002;1.462686341255903E-003;3.747300477698445E-003;
2.410666666666667E+009;1.815370619297028E-001;1.874804496765137E-002;1.529169385321438E-003;3.876463044434786E-003;
2.410833333333334E+009;1.808777600526810E-001;1.669850759208202E-002;1.616884488612413E-003;3.830776317045093E-003;
2.411000000000000E+009;1.801680326461792E-001;1.440772973001003E-002;1.920646638609469E-003;3.790460294112563E-003;
2.411166666666667E+009;1.794356405735016E-001;1.227897778153420E-002;2.158122137188911E-003;3.846830688416958E-003;
2.411333333333334E+009;1.789921969175339E-001;9.640808217227459E-003;2.291931305080652E-003;3.807055065408349E-003;
2.411500000000000E+009;1.784055083990097E-001;7.363213691860437E-003;2.405761741101742E-003;3.823139471933246E-003;
2.411666666666667E+009;1.784465909004211E-001;5.003050900995731E-003;2.707398729398847E-003;3.638414200395346E-003;
2.411833333333334E+009;1.779095381498337E-001;2.524384530261159E-003;2.838590648025274E-003;3.796216100454330E-003;
2.412000000000000E+009;1.781691461801529E-001;1.198569079861045E-004;3.145687980577350E-003;3.574038157239556E-003;
2.412166666666667E+009;1.781922429800034E-001;-2.282308880239725E-003;3.153377212584019E-003;3.450858406722546E-003;
2.412333333333334E+009;1.784690171480179E-001;-5.041046999394894E-003;3.534613177180290E-003;3.360700327903032E-003;
2.412500000000000E+009;1.788937598466873E-001;-7.291399408131838E-003;3.703098045662046E-003;3.167201764881611E-003;
2.412666666666667E+009;1.792509108781815E-001;-9.910625405609608E-003;3.821643069386482E-003;2.983120270073414E-003;
2.412833333333334E+009;1.800968497991562E-001;-1.222403720021248E-002;3.951144870370626E-003;2.834292128682137E-003;
2.413000000000000E+009;1.807839274406433E-001;-1.449061464518309E-002;3.966968972235918E-003;2.702252008020878E-003;
2.413166666666667E+009;1.816570609807968E-001;-1.679928787052631E-002;4.241647664457560E-003;2.397278090938926E-003;
2.413333333333334E+009;1.827499568462372E-001;-1.909913308918476E-002;4.259794950485230E-003;2.108504297211766E-003;
2.413500000000000E+009;1.835089474916458E-001;-2.133451774716377E-002;4.346925299614668E-003;2.147085266187787E-003;
2.413666666666667E+009;1.847013682126999E-001;-2.348812296986580E-002;4.519594833254814E-003;1.941541326232255E-003;
2.413833333333334E+009;1.857777088880539E-001;-2.539483457803726E-002;4.525194410234690E-003;1.591330976225436E-003;
2.414000000000000E+009;1.869054138660431E-001;-2.751615643501282E-002;4.589382559061050E-003;1.517444616183639E-003;
2.414166666666667E+009;1.883457899093628E-001;-2.937970124185085E-002;4.556869622319937E-003;1.363634364679456E-003;
2.414333333333334E+009;1.893456727266312E-001;-3.127503022551537E-002;4.497033078223467E-003;1.102018170058727E-003;
2.414500000000000E+009;1.905270218849182E-001;-3.271121531724930E-002;4.637208767235279E-003;1.072585815563798E-003;
2.414666666666667E+009;1.918134093284607E-001;-3.419988602399826E-002;4.531813785433769E-003;8.291870472021401E-004;
2.414833333333334E+009;1.928709149360657E-001;-3.554584458470345E-002;4.473555367439985E-003;7.294028764590621E-004;
2.415000000000000E+009;1.940188258886337E-001;-3.688245266675949E-002;4.635058343410492E-003;5.092229112051427E-004;
2.415166666666667E+009;1.953118294477463E-001;-3.792203962802887E-002;4.364145454019308E-003;2.562100416980684E-004;
2.415333333333334E+009;1.966677159070969E-001;-3.877041488885880E-002;4.473091103136540E-003;9.012190275825560E-006;
2.415500000000000E+009;1.975025683641434E-001;-3.948397934436798E-002;4.448100924491882E-003;-2.438468654872850E-004;
2.415666666666667E+009;1.985230445861816E-001;-4.037020355463028E-002;4.479500930756331E-003;-3.249041037634015E-004;
2.415833333333334E+009;1.995385289192200E-001;-4.098267480731010E-002;4.401585087180138E-003;-4.828178207390010E-004;
2.416000000000000E+009;2.004089802503586E-001;-4.135117679834366E-002;4.346850328147411E-003;-7.065699319355190E-004;
2.416166666666667E+009;2.010969668626785E-001;-4.202525317668915E-002;4.303858615458012E-003;-7.097688503563404E-004;
2.416333333333334E+009;2.017537504434586E-001;-4.221042618155479E-002;4.120451398193836E-003;-8.782205404713750E-004;
2.416500000000000E+009;2.022121399641037E-001;-4.233989119529724E-002;3.957573324441910E-003;-1.118832733482122E-003;
2.416666666666667E+009;2.024989724159241E-001;-4.279801994562149E-002;3.800514154136181E-003;-1.067397650331259E-003;
2.416833333333334E+009;2.027265876531601E-001;-4.284144192934036E-002;3.887674771249294E-003;-1.233628601767123E-003;
2.417000000000000E+009;2.028170824050903E-001;-4.293588176369667E-002;3.685111412778497E-003;-1.262138481251895E-003;
2.417166666666667E+009;2.025748640298843E-001;-4.281484708189964E-002;3.756052348762751E-003;-1.412870944477618E-003;
2.417333333333334E+009;2.023043185472488E-001;-4.255734384059906E-002;3.588587511330843E-003;-1.558110001496971E-003;
2.417500000000000E+009;2.020221501588821E-001;-4.257572442293167E-002;3.604251192882657E-003;-1.553528360091150E-003;
2.417666666666667E+009;2.014884352684021E-001;-4.239676520228386E-002;3.626495832577348E-003;-1.723163062706590E-003;
2.417833333333334E+009;2.010577023029327E-001;-4.221362620592117E-002;3.500866238027811E-003;-1.705882255919278E-003;
2.418000000000000E+009;2.004200667142868E-001;-4.192498326301575E-002;3.289791988208890E-003;-1.870292238891125E-003;
2.418166666666667E+009;1.995823085308075E-001;-4.178606346249580E-002;3.233018098399043E-003;-1.960406079888344E-003;
2.418333333333334E+009;1.986535340547562E-001;-4.171049594879150E-002;3.207406960427761E-003;-2.091454574838281E-003;
2.418500000000000E+009;1.976791471242905E-001;-4.156686738133431E-002;3.052554791793227E-003;-2.187987323850393E-003;
2.418666666666667E+009;1.967410296201706E-001;-4.152611643075943E-002;2.883188659325242E-003;-2.383077517151833E-003;
2.418833333333334E+009;1.954247057437897E-001;-4.172779619693756E-002;2.767849713563919E-003;-2.393481321632862E-003;
2.419000000000000E+009;1.941728144884110E-001;-4.186538234353066E-002;2.541614230722189E-003;-2.296621445566416E-003;
2.419166666666667E+009;1.928564310073853E-001;-4.220257699489594E-002;2.304048743098974E-003;-2.543910173699260E-003;
2.419333333333334E+009;1.914625018835068E-001;-4.267087578773499E-002;2.185139805078507E-003;-2.555719809606671E-003;
2.419500000000000E+009;1.898718625307083E-001;-4.311482608318329E-002;2.187422942370176E-003;-2.352231414988637E-003;
2.419666666666667E+009;1.883753687143326E-001;-4.375283792614937E-002;2.079085679724813E-003;-2.522859722375870E-003;
2.419833333333334E+009;1.867838650941849E-001;-4.450758174061775E-002;1.815762137994170E-003;-2.413117326796055E-003;
2.420000000000000E+009;1.851434111595154E-001;-4.542303457856178E-002;1.839364762417972E-003;-2.426223363727331E-003;
2.420166666666667E+009;1.835989207029343E-001;-4.639833420515060E-002;1.663624774664640E-003;-2.339522819966078E-003;
2.420333333333334E+009;1.819892376661301E-001;-4.761323332786560E-002;1.506434637121856E-003;-2.305255504325032E-003;
2.420500000000000E+009;1.802820414304733E-001;-4.889310896396637E-002;1.554815447889268E-003;-2.153340028598905E-003;
2.420666666666667E+009;1.787632107734680E-001;-5.000644922256470E-002;1.399803091771901E-003;-2.081331098452210E-003;
2.420833333333334E+009;1.771103888750076E-001;-5.169175937771797E-002;1.382931135594845E-003;-1.984442351385951E-003;
2.421000000000000E+009;1.756051033735275E-001;-5.317671224474907E-002;1.455135294236243E-003;-2.020872198045254E-003;
2.421166666666667E+009;1.742043346166611E-001;-5.499597266316414E-002;1.369424979202449E-003;-2.123951213434339E-003;
2.421333333333334E+009;1.726533025503159E-001;-5.646442994475365E-002;1.391806406900287E-003;-1.940423273481429E-003;
2.421500000000000E+009;1.711963117122650E-001;-5.852077528834343E-002;1.425034250132740E-003;-1.837115734815598E-003;
2.421666666666667E+009;1.699901521205902E-001;-6.024461239576340E-002;1.417960505932570E-003;-1.923166331835091E-003;
2.421833333333334E+009;1.689282655715942E-001;-6.215322017669678E-002;1.441722502931953E-003;-1.888067577965558E-003;
2.422000000000000E+009;1.676296293735504E-001;-6.419795751571655E-002;1.440227264538407E-003;-1.974253915250301E-003;
2.422166666666667E+009;1.668801903724670E-001;-6.629317998886108E-002;1.434579724445939E-003;-2.088461769744754E-003;
2.422333333333334E+009;1.659960001707077E-001;-6.826607882976532E-002;1.302862423472107E-003;-2.171390922740102E-003;
2.422500000000000E+009;1.650111377239227E-001;-7.028681039810181E-002;1.383178285323083E-003;-2.135263057425618E-003;
2.422666666666667E+009;1.644155681133270E-001;-7.226908206939697E-002;1.288440776988864E-003;-2.048202790319920E-003;
2.422833333333334E+009;1.638264358043671E-001;-7.439371943473816E-002;1.083998242393136E-003;-2.168701263144612E-003;
2.423000000000000E+009;1.634187549352646E-001;-7.645206153392792E-002;1.238303259015083E-003;-2.042094012722373E-003;
2.423166666666667E+009;1.631031483411789E-001;-7.840869575738907E-002;1.046303194016218E-003;-2.065951004624367E-003;
2.423333333333334E+009;1.628219187259674E-001;-8.056776225566864E-002;1.095738611184061E-003;-1.997631276026368E-003;
2.423500000000000E+009;1.626895368099213E-001;-8.240190148353577E-002;8.888020529411733E-004;-2.082218648865819E-003;
2.423666666666667E+009;1.628073602914810E-001;-8.424631506204605E-002;8.889868622645736E-004;-2.079201396554709E-003;
2.423833333333334E+009;1.626722812652588E-001;-8.611626178026199E-002;7.727844640612602E-004;-2.014542929828167E-003;
2.424000000000000E+009;1.628054082393646E-001;-8.771023899316788E-002;8.109239279292524E-004;-2.009471412748098E-003;
2.424166666666667E+009;1.628384739160538E-001;-8.925908058881760E-002;8.537349058315158E-004;-2.036532387137413E-003;
2.424333333333334E+009;1.630939692258835E-001;-9.081832319498062E-002;8.318712352775037E-004;-2.008585259318352E-003;
2.424500000000000E+009;1.634305715560913E-001;-9.275942295789719E-002;7.171282195486128E-004;-1.957729225978255E-003;
2.424666666666667E+009;1.636581271886826E-001;-9.388647973537445E-002;6.503490149043500E-004;-1.922402996569872E-003;
2.424833333333334E+009;1.642956137657166E-001;-9.518314152956009E-002;6.785976001992822E-004;-1.926321536302567E-003;
2.425000000000000E+009;1.646476536989212E-001;-9.637532383203507E-002;7.908462430350483E-004;-1.922054099850357E-003;
2.425166666666667E+009;1.649245619773865E-001;-9.738370031118393E-002;6.323920679278672E-004;-2.028702059760690E-003;
2.425333333333334E+009;1.652793884277344E-001;-9.843382984399796E-002;7.318410207517445E-004;-2.000043401494622E-003;
2.425500000000000E+009;1.657620668411255E-001;-9.936953336000443E-002;7.557430653832853E-004;-1.948352553881705E-003;
2.425666666666667E+009;1.661472171545029E-001;-9.995336085557938E-002;6.799221155233681E-004;-2.001983346417546E-003;
2.425833333333334E+009;1.665003746747971E-001;-1.008050516247749E-001;7.535166223533452E-004;-2.083124825730920E-003;
2.426000000000000E+009;1.669827401638031E-001;-1.010735183954239E-001;9.094667620956898E-004;-2.215715358033776E-003;
2.426166666666667E+009;1.673751324415207E-001;-1.015778183937073E-001;8.170396904461086E-004;-2.160055330023170E-003;
2.426333333333334E+009;1.674437820911408E-001;-1.021489575505257E-001;7.114050094969571E-004;-2.221351722255349E-003;
2.426500000000000E+009;1.679229587316513E-001;-1.023732423782349E-001;7.278008852154017E-004;-2.171684522181749E-003;
2.426666666666667E+009;1.680647730827332E-001;-1.026731655001640E-001;6.784482975490391E-004;-2.330435207113624E-003;
2.426833333333334E+009;1.684588789939880E-001;-1.029135882854462E-001;6.747738225385547E-004;-2.375802490860224E-003;
2.427000000000000E+009;1.684109568595886E-001;-1.031513661146164E-001;5.510371993295848E-004;-2.334299031645060E-003;
2.427166666666667E+009;1.683752089738846E-001;-1.031921878457069E-001;6.069193477742374E-004;-2.323503140360117E-003;
2.427333333333334E+009;1.683101505041122E-001;-1.034025922417641E-001;4.898972692899406E-004;-2.508322475478053E-003;
2.427500000000000E+009;1.681360751390457E-001;-1.035622358322144E-001;4.088449641130865E-004;-2.504517324268818E-003;
2.427666666666667E+009;1.677631288766861E-001;-1.035803481936455E-001;4.323166795074940E-004;-2.554033650085330E-003;
2.427833333333334E+009;1.674162894487381E-001;-1.036045253276825E-001;3.895449626725167E-004;-2.685156883671880E-003;
