# Version 1.00
#
freq[Hz];re:Trc1_S11;im:Trc1_S11;re:Trc2_S21;im:Trc2_S21;
2.400000000000000E+009;1.552274823188782E-001;1.070695072412491E-001;-4.761343821883202E-003;3.361363429576159E-003;
2.400166666666667E+009;1.549990922212601E-001;1.046999469399452E-001;-4.641822539269924E-003;3.624220145866275E-003;
2.400333333333334E+009;1.550166159868240E-001;1.023246422410011E-001;-4.466172773391008E-003;3.671202110126615E-003;
2.400500000000000E+009;1.549682766199112E-001;9.961000084877014E-002;-4.204674158245325E-003;3.835656214505434E-003;
2.400666666666667E+009;1.549671143293381E-001;9.707758575677872E-002;-3.977546468377113E-003;3.811800619587302E-003;
2.400833333333334E+009;1.550396680831909E-001;9.420529007911682E-002;-3.922872710973024E-003;3.980862442404032E-003;
2.401000000000000E+009;1.551537662744522E-001;9.135088324546814E-002;-3.667674725875258E-003;4.076439887285233E-003;
2.401166666666667E+009;1.554732322692871E-001;8.847142755985260E-002;-3.560209413990378E-003;4.148203879594803E-003;
2.401333333333334E+009;1.558195799589157E-001;8.561860024929047E-002;-3.633208340033889E-003;4.172558896243572E-003;
2.401500000000000E+009;1.560845226049423E-001;8.273210376501083E-002;-3.248438239097595E-003;4.176949150860310E-003;
2.401666666666667E+009;1.563376188278198E-001;7.983196526765823E-002;-3.117071697488427E-003;4.245661664754152E-003;
2.401833333333334E+009;1.569871306419373E-001;7.709452509880066E-002;-2.924718195572496E-003;4.267001524567604E-003;
2.402000000000000E+009;1.578276306390762E-001;7.420108467340469E-002;-2.857590094208717E-003;4.535060375928879E-003;
2.402166666666667E+009;1.585783064365387E-001;7.170941680669785E-002;-2.663776976987720E-003;4.458376672118902E-003;
2.402333333333334E+009;1.594474762678146E-001;6.892906874418259E-002;-2.643180545419455E-003;4.629625473171473E-003;
2.402500000000000E+009;1.607438325881958E-001;6.647340953350067E-002;-2.429072745144367E-003;4.643644671887159E-003;
2.402666666666667E+009;1.619516462087631E-001;6.402478367090225E-002;-2.169502200558782E-003;4.525304771959782E-003;
2.402833333333334E+009;1.632367819547653E-001;6.155833601951599E-002;-2.135967602953315E-003;4.557943437248468E-003;
2.403000000000000E+009;1.646837145090103E-001;5.927976593375206E-002;-1.922559225931764E-003;4.696564748883247E-003;
2.403166666666667E+009;1.663164645433426E-001;5.689925700426102E-002;-1.805817359127104E-003;4.651399794965982E-003;
2.403333333333334E+009;1.677085012197495E-001;5.478306859731674E-002;-1.837611198425293E-003;4.801747389137745E-003;
2.403500000000000E+009;1.696527153253555E-001;5.266582593321800E-002;-1.447605201974511E-003;4.752062261104584E-003;
2.403666666666667E+009;1.713274866342545E-001;5.076137930154800E-002;-1.286425744183362E-003;4.694417119026184E-003;
2.403833333333334E+009;1.729975938796997E-001;4.884978011250496E-002;-1.217860728502274E-003;4.881987348198891E-003;
2.404000000000000E+009;1.746300756931305E-001;4.711985588073731E-002;-1.003130106255412E-003;4.844712093472481E-003;
2.404166666666667E+009;1.764985471963882E-001;4.551469162106514E-002;-9.869914501905441E-004;4.683965351432562E-003;
2.404333333333334E+009;1.778800636529923E-001;4.411973804235458E-002;-6.325926515273750E-004;4.868090152740479E-003;
2.404500000000000E+009;1.796670705080032E-001;4.259758442640305E-002;-5.340905627235770E-004;4.858503583818674E-003;
2.404666666666667E+009;1.812743544578552E-001;4.153778776526451E-002;-3.630456631071866E-004;4.719289019703865E-003;
2.404833333333334E+009;1.829683184623718E-001;4.044245183467865E-002;-2.068487519863993E-004;4.679047502577305E-003;
2.405000000000000E+009;1.844201833009720E-001;3.972635790705681E-002;1.006780585157685E-004;4.597034305334091E-003;
2.405166666666667E+009;1.857905983924866E-001;3.906609863042831E-002;2.724739315453917E-004;4.480563569813967E-003;
2.405333333333334E+009;1.872325688600540E-001;3.859135508537293E-002;3.841842408291996E-004;4.564946983009577E-003;
2.405500000000000E+009;1.885465979576111E-001;3.821719810366631E-002;6.647817790508270E-004;4.199123010039330E-003;
2.405666666666667E+009;1.898043751716614E-001;3.795512393116951E-002;7.284503080882132E-004;4.180278163403273E-003;
2.405833333333334E+009;1.910025179386139E-001;3.762882202863693E-002;7.593909394927323E-004;4.170589148998261E-003;
2.406000000000000E+009;1.919841468334198E-001;3.754068911075592E-002;8.589987992309034E-004;3.965326119214296E-003;
2.406166666666667E+009;1.931525915861130E-001;3.730619698762894E-002;9.578781900927424E-004;3.943535033613443E-003;
2.406333333333334E+009;1.939294487237930E-001;3.734004124999046E-002;1.042761025018990E-003;3.762487089261413E-003;
2.406500000000000E+009;1.946844011545181E-001;3.736418113112450E-002;9.741201647557318E-004;3.560464596375823E-003;
2.406666666666667E+009;1.953450888395309E-001;3.748405352234840E-002;1.071447855792940E-003;3.717050421983004E-003;
2.406833333333334E+009;1.959238648414612E-001;3.738921135663986E-002;1.143710105679929E-003;3.530960297212005E-003;
2.407000000000000E+009;1.961621195077896E-001;3.781669214367867E-002;9.613729198463261E-004;3.293053247034550E-003;
2.407166666666667E+009;1.965623944997788E-001;3.758108615875244E-002;1.125802635215223E-003;3.363971365615726E-003;
2.407333333333334E+009;1.966012716293335E-001;3.775520250201225E-002;1.057010842487216E-003;3.142654895782471E-003;
2.407500000000000E+009;1.964548677206039E-001;3.787319734692574E-002;9.830747731029987E-004;3.289395710453391E-003;
2.407666666666667E+009;1.964033842086792E-001;3.777876123785973E-002;1.198422047309578E-003;2.935280092060566E-003;
2.407833333333334E+009;1.959460228681564E-001;3.770006448030472E-002;1.109615899622440E-003;3.061193739995360E-003;
2.408000000000000E+009;1.957303732633591E-001;3.759414702653885E-002;1.108653261326253E-003;3.210467752069235E-003;
2.408166666666667E+009;1.951420754194260E-001;3.738152980804443E-002;1.182541833259165E-003;2.961758989840746E-003;
2.408333333333334E+009;1.946278661489487E-001;3.680104389786720E-002;1.047505997121334E-003;2.937539713457227E-003;
2.408500000000000E+009;1.939580738544464E-001;3.658197447657585E-002;1.211394555866718E-003;3.090325510129333E-003;
2.408666666666667E+009;1.932755410671234E-001;3.606465831398964E-002;9.605273953638971E-004;2.966431202366948E-003;
2.408833333333334E+009;1.925005614757538E-001;3.524518758058548E-002;1.099159126169980E-003;2.830128651112318E-003;
2.409000000000000E+009;1.916469633579254E-001;3.433193266391754E-002;9.265980334021151E-004;2.988558029755950E-003;
2.409166666666667E+009;1.907416433095932E-001;3.339109197258949E-002;9.375258814543486E-004;2.992570400238037E-003;
2.409333333333334E+009;1.895885616540909E-001;3.243585303425789E-002;8.740865741856396E-004;2.995245391502976E-003;
2.409500000000000E+009;1.885283738374710E-001;3.119587339460850E-002;8.359657367691398E-004;3.076976863667369E-003;
2.409666666666667E+009;1.874841600656509E-001;2.976999990642071E-002;1.021818490698934E-003;3.208179958164692E-003;
2.409833333333334E+009;1.863296329975128E-001;2.836822345852852E-002;9.946799837052822E-004;3.264361759647727E-003;
2.410000000000000E+009;1.852812469005585E-001;2.654610760509968E-002;9.290449088439345E-004;3.387905191630125E-003;
2.410166666666667E+009;1.845391839742661E-001;2.484868280589581E-002;1.309531042352319E-003;3.537336597219110E-003;
2.410333333333334E+009;1.833029091358185E-001;2.315670810639858E-002;1.353581319563091E-003;3.505029017105699E-003;
2.410500000000000E+009;1.824730932712555E-001;2.107439935207367E-002;1.425774418748915E-003;3.630841383710504E-003;
2.410666666666667E+009;1.814759373664856E-001;1.892844401299954E-002;1.529789296910167E-003;3.888060338795185E-003;
2.410833333333334E+009;1.808445155620575E-001;1.663077622652054E-002;1.712851459160447E-003;3.763439832255244E-003;
2.411000000000000E+009;1.800134778022766E-001;1.444309111684561E-002;1.831278204917908E-003;3.807533765211701E-003;
2.411166666666667E+009;1.794131547212601E-001;1.209332421422005E-002;2.182711847126484E-003;3.777723060920835E-003;
2.411333333333334E+009;1.788760870695114E-001;9.665151126682758E-003;2.402819227427244E-003;3.922344651073217E-003;
2.411500000000000E+009;1.784030199050903E-001;7.278590463101864E-003;2.577787730842829E-003;3.832224290817976E-003;
2.411666666666667E+009;1.785229593515396E-001;4.945361521095038E-003;2.632692223414779E-003;3.867921652272344E-003;
2.411833333333334E+009;1.780457198619843E-001;2.700432203710079E-003;2.902932232245803E-003;3.706299234181643E-003;
2.412000000000000E+009;1.781878918409348E-001;1.145828355220147E-005;3.091014921665192E-003;3.552081994712353E-003;
2.412166666666667E+009;1.781673580408096E-001;-2.328815404325724E-003;3.381280694156885E-003;3.481088206171989E-003;
2.412333333333334E+009;1.782626509666443E-001;-5.028385203331709E-003;3.486973932012916E-003;3.412010148167610E-003;
2.412500000000000E+009;1.786210238933563E-001;-7.471709512174130E-003;3.732634941115975E-003;3.154292935505509E-003;
2.412666666666667E+009;1.791548430919647E-001;-9.722942486405373E-003;3.800203325226903E-003;3.020832547917962E-003;
2.412833333333334E+009;1.797968298196793E-001;-1.214381679892540E-002;3.819892881438136E-003;2.930748509243131E-003;
2.413000000000000E+009;1.807228624820709E-001;-1.460292376577854E-002;4.031613934785128E-003;2.755958354100585E-003;
2.413166666666667E+009;1.813966482877731E-001;-1.674304157495499E-002;4.280535038560629E-003;2.550077391788364E-003;
2.413333333333334E+009;1.824904680252075E-001;-1.898877136409283E-002;4.309216979891062E-003;2.509515965357423E-003;
2.413500000000000E+009;1.833913475275040E-001;-2.140842750668526E-002;4.318687599152327E-003;2.094551688060165E-003;
2.413666666666667E+009;1.846087872982025E-001;-2.355361171066761E-002;4.453765228390694E-003;1.908970763906837E-003;
2.413833333333334E+009;1.857494264841080E-001;-2.555274218320847E-002;4.478861112147570E-003;1.601867959834635E-003;
2.414000000000000E+009;1.868376582860947E-001;-2.748777903616428E-002;4.475169815123081E-003;1.609565573744476E-003;
2.414166666666667E+009;1.880845427513123E-001;-2.937443554401398E-002;4.558216314762831E-003;1.324964337982237E-003;
2.414333333333334E+009;1.892685890197754E-001;-3.131314739584923E-002;4.566774703562260E-003;1.262536738067865E-003;
2.414500000000000E+009;1.905655562877655E-001;-3.267420083284378E-002;4.610131960362196E-003;8.773420704528689E-004;
2.414666666666667E+009;1.915965527296066E-001;-3.425372019410133E-002;4.514269065111876E-003;8.819529903121293E-004;
2.414833333333334E+009;1.927714496850967E-001;-3.551340848207474E-002;4.486932884901762E-003;6.544670904986560E-004;
2.415000000000000E+009;1.940511614084244E-001;-3.668805584311485E-002;4.523748997598887E-003;4.667047760449350E-004;
2.415166666666667E+009;1.952586024999619E-001;-3.804134204983711E-002;4.548602271825075E-003;1.989499432966113E-004;
2.415333333333334E+009;1.963838487863541E-001;-3.887851908802986E-002;4.579806234687567E-003;7.403972267638892E-005;
2.415500000000000E+009;1.975523680448532E-001;-3.953152894973755E-002;4.518010653555393E-003;-1.264890161110088E-004;
2.415666666666667E+009;1.985923349857330E-001;-4.039093479514122E-002;4.553925711661577E-003;-3.235935873817653E-004;
2.415833333333334E+009;1.994949281215668E-001;-4.099428281188011E-002;4.292746540158987E-003;-4.154763009864837E-004;
2.416000000000000E+009;2.002938240766525E-001;-4.136757925152779E-002;4.276384599506855E-003;-6.907543283887208E-004;
2.416166666666667E+009;2.009951323270798E-001;-4.196915030479431E-002;4.167211242020130E-003;-7.455642917193472E-004;
2.416333333333334E+009;2.016532719135284E-001;-4.226175323128700E-002;4.199585411697626E-003;-8.366230758838356E-004;
2.416500000000000E+009;2.020356953144074E-001;-4.252122715115547E-002;4.042473156005144E-003;-9.067446808330715E-004;
2.416666666666667E+009;2.025605440139771E-001;-4.284873232245445E-002;3.955532331019640E-003;-1.117851352319121E-003;
2.416833333333334E+009;2.025433927774429E-001;-4.274198412895203E-002;3.751562675461173E-003;-1.130054122768343E-003;
2.417000000000000E+009;2.027623206377029E-001;-4.292476922273636E-002;3.685164265334606E-003;-1.267371117137373E-003;
2.417166666666667E+009;2.024558037519455E-001;-4.279185459017754E-002;3.707154653966427E-003;-1.489887828938663E-003;
2.417333333333334E+009;2.023344486951828E-001;-4.250966757535934E-002;3.640664042904973E-003;-1.493930933065713E-003;
2.417500000000000E+009;2.020165175199509E-001;-4.263667389750481E-002;3.458854742348194E-003;-1.586635713465512E-003;
2.417666666666667E+009;2.014338225126267E-001;-4.240631312131882E-002;3.545369720086455E-003;-1.675609615631402E-003;
2.417833333333334E+009;2.009796202182770E-001;-4.211470112204552E-002;3.414971986785531E-003;-1.638157875277102E-003;
2.418000000000000E+009;2.004175484180450E-001;-4.189188405871391E-002;3.485495923087001E-003;-1.880984986200929E-003;
2.418166666666667E+009;1.995834857225418E-001;-4.186888784170151E-002;3.152668708935380E-003;-2.027159556746483E-003;
2.418333333333334E+009;1.986125707626343E-001;-4.165865480899811E-002;3.113526618108153E-003;-2.034637844190002E-003;
2.418500000000000E+009;1.975284814834595E-001;-4.160063341259956E-002;3.095125313848257E-003;-2.208863152191043E-003;
2.418666666666667E+009;1.966936439275742E-001;-4.158375784754753E-002;2.878573257476091E-003;-2.368125598877668E-003;
2.418833333333334E+009;1.954378485679627E-001;-4.164865612983704E-002;2.919731196016073E-003;-2.304357476532459E-003;
2.419000000000000E+009;1.940727531909943E-001;-4.179692268371582E-002;2.508230274543166E-003;-2.404714003205299E-003;
2.419166666666667E+009;1.928070783615112E-001;-4.210641607642174E-002;2.462607575580478E-003;-2.531520090997219E-003;
2.419333333333334E+009;1.914980411529541E-001;-4.266021773219109E-002;2.252217149361968E-003;-2.443940844386816E-003;
2.419500000000000E+009;1.898767054080963E-001;-4.300460219383240E-002;2.030776115134358E-003;-2.598390216007829E-003;
2.419666666666667E+009;1.883422732353210E-001;-4.395808652043343E-002;2.019055886194110E-003;-2.498608315363526E-003;
2.419833333333334E+009;1.867990791797638E-001;-4.449414461851120E-002;1.939019421115518E-003;-2.351633505895734E-003;
2.420000000000000E+009;1.852295249700546E-001;-4.543130472302437E-002;1.840433222241700E-003;-2.329164883121848E-003;
2.420166666666667E+009;1.836072206497192E-001;-4.644937440752983E-002;1.701034838333726E-003;-2.403796883299947E-003;
2.420333333333334E+009;1.819828003644943E-001;-4.757585749030113E-002;1.646786346100271E-003;-2.335934666916728E-003;
2.420500000000000E+009;1.802991330623627E-001;-4.879600927233696E-002;1.530650886707008E-003;-2.131266053766012E-003;
2.420666666666667E+009;1.786573380231857E-001;-4.994099959731102E-002;1.515197916887701E-003;-2.270793309435248E-003;
2.420833333333334E+009;1.771574020385742E-001;-5.154784396290779E-002;1.331193954683840E-003;-2.148400060832501E-003;
2.421000000000000E+009;1.755470782518387E-001;-5.314068496227264E-002;1.464020926505327E-003;-2.085995627567172E-003;
2.421166666666667E+009;1.740803569555283E-001;-5.493301525712013E-002;1.326021971181035E-003;-2.145518548786640E-003;
2.421333333333334E+009;1.725107282400131E-001;-5.630834400653839E-002;1.278156880289316E-003;-1.966529525816441E-003;
2.421500000000000E+009;1.712230294942856E-001;-5.850033834576607E-002;1.449460629373789E-003;-2.042644424363971E-003;
2.421666666666667E+009;1.700033694505692E-001;-6.018120050430298E-002;1.388208824209869E-003;-2.038575941696763E-003;
2.421833333333334E+009;1.689129918813705E-001;-6.212823092937470E-002;1.261593657545745E-003;-2.113629132509232E-003;
2.422000000000000E+009;1.677625030279160E-001;-6.414242088794708E-002;1.433575991541147E-003;-1.893426757305861E-003;
2.422166666666667E+009;1.668969690799713E-001;-6.620681285858154E-002;1.471321913413703E-003;-1.971031073480845E-003;
2.422333333333334E+009;1.658996939659119E-001;-6.832406669855118E-002;1.410461612977088E-003;-2.157449256628752E-003;
2.422500000000000E+009;1.652103364467621E-001;-7.025271654129028E-002;1.381113426759839E-003;-2.002533990889788E-003;
2.422666666666667E+009;1.643321067094803E-001;-7.241223007440567E-002;1.274198060855269E-003;-2.243432216346264E-003;
2.422833333333334E+009;1.639667004346848E-001;-7.454904168844223E-002;9.984226198866963E-004;-2.077159238979220E-003;
2.423000000000000E+009;1.633356809616089E-001;-7.658492028713226E-002;1.157337450422347E-003;-2.250733086839318E-003;
2.423166666666667E+009;1.631212085485458E-001;-7.841648161411285E-002;9.704909753054380E-004;-2.144820056855679E-003;
2.423333333333334E+009;1.626814305782318E-001;-8.042893558740616E-002;8.884950075298548E-004;-2.123921178281307E-003;
2.423500000000000E+009;1.626996397972107E-001;-8.227282762527466E-002;1.034088432788849E-003;-2.129009226337075E-003;
2.423666666666667E+009;1.625868231058121E-001;-8.413264155387878E-002;7.902965298853815E-004;-2.109349472448230E-003;
2.423833333333334E+009;1.626889705657959E-001;-8.594843745231628E-002;8.165988256223500E-004;-2.036792691797018E-003;
2.424000000000000E+009;1.627875715494156E-001;-8.768236637115479E-002;8.047216106206179E-004;-2.015244914218783E-003;
2.424166666666667E+009;1.628642678260803E-001;-8.923687040805817E-002;7.037192117422819E-004;-1.987370895221829E-003;
2.424333333333334E+009;1.631150692701340E-001;-9.095801413059235E-002;6.170429987832904E-004;-2.049833768978715E-003;
2.424500000000000E+009;1.635188907384872E-001;-9.266100078821182E-002;7.101696683093905E-004;-1.921133021824062E-003;
2.424666666666667E+009;1.636789441108704E-001;-9.387267380952835E-002;9.016872500069439E-004;-1.822705613449216E-003;
2.424833333333334E+009;1.642199307680130E-001;-9.507732093334198E-002;8.011044701561332E-004;-2.017528051510453E-003;
2.425000000000000E+009;1.646632403135300E-001;-9.640295803546906E-002;8.378513739444315E-004;-2.017379039898515E-003;
2.425166666666667E+009;1.649567335844040E-001;-9.727987647056580E-002;6.084326887503266E-004;-1.891598338261247E-003;
2.425333333333334E+009;1.653754413127899E-001;-9.835204482078552E-002;7.062673103064299E-004;-1.953972270712256E-003;
2.425500000000000E+009;1.658048033714294E-001;-9.928285330533981E-002;7.170280441641808E-004;-1.939645037055016E-003;
2.425666666666667E+009;1.662353724241257E-001;-9.995264559984207E-002;8.585768518969417E-004;-2.104738261550665E-003;
2.425833333333334E+009;1.666695326566696E-001;-1.006382182240486E-001;9.081535390578210E-004;-1.887342426925898E-003;
2.426000000000000E+009;1.669443100690842E-001;-1.010854989290237E-001;7.596936775371432E-004;-2.007595729082823E-003;
2.426166666666667E+009;1.674429923295975E-001;-1.016528755426407E-001;7.995889754965901E-004;-2.102501690387726E-003;
2.426333333333334E+009;1.674879491329193E-001;-1.020559743046761E-001;7.430621772073209E-004;-2.164646051824093E-003;
2.426500000000000E+009;1.678933203220367E-001;-1.024211421608925E-001;6.173081346787512E-004;-2.188917482271791E-003;
2.426666666666667E+009;1.682168543338776E-001;-1.026049777865410E-001;7.356053101830185E-004;-2.215774729847908E-003;
2.426833333333334E+009;1.683723479509354E-001;-1.029738113284111E-001;5.580098368227482E-004;-2.292492659762502E-003;
2.427000000000000E+009;1.684728264808655E-001;-1.031209602952004E-001;5.200590821914375E-004;-2.459642244502902E-003;
2.427166666666667E+009;1.684985607862473E-001;-1.030343621969223E-001;5.793853779323399E-004;-2.498626010492444E-003;
2.427333333333334E+009;1.683613359928131E-001;-1.033670678734779E-001;4.495514149311930E-004;-2.676362171769142E-003;
2.427500000000000E+009;1.680717319250107E-001;-1.035173237323761E-001;4.761776654049754E-004;-2.605193760246038E-003;
2.427666666666667E+009;1.677424907684326E-001;-1.036168709397316E-001;3.162081993650645E-004;-2.613976830616593E-003;
2.427833333333334E+009;1.673374772071838E-001;-1.036181300878525E-001;3.148628748022020E-004;-2.650619484484196E-003;
