# Version 1.00
#
freq[Hz];re:Trc1_S11;im:Trc1_S11;re:Trc2_S21;im:Trc2_S21;
2.400000000000000E+009;1.553741097450256E-001;1.071005538105965E-001;-4.724931903183460E-003;3.558197757229209E-003;
2.400166666666667E+009;1.550555378198624E-001;1.047113388776779E-001;-4.528093617409468E-003;3.627270692959428E-003;
2.400333333333334E+009;1.551035791635513E-001;1.023746132850647E-001;-4.322780761867762E-003;3.622964955866337E-003;
2.400500000000000E+009;1.550286710262299E-001;9.964844584465027E-002;-4.192433319985867E-003;3.763660788536072E-003;
2.400666666666667E+009;1.550305932760239E-001;9.713911265134811E-002;-4.006062634289265E-003;3.954680636525154E-003;
2.400833333333334E+009;1.550543755292893E-001;9.430614113807678E-002;-3.791504306718707E-003;4.048924427479506E-003;
2.401000000000000E+009;1.553455591201782E-001;9.129208326339722E-002;-3.712203120812774E-003;4.133134149014950E-003;
2.401166666666667E+009;1.554417610168457E-001;8.857896178960800E-002;-3.560738172382116E-003;4.142140969634056E-003;
2.401333333333334E+009;1.557933539152145E-001;8.561458438634872E-002;-3.443044843152165E-003;4.155588336288929E-003;
2.401500000000000E+009;1.561515331268311E-001;8.270068466663361E-002;-3.260283265262842E-003;4.059773869812489E-003;
2.401666666666667E+009;1.564581543207169E-001;7.977842539548874E-002;-3.136865794658661E-003;4.229214973747730E-003;
2.401833333333334E+009;1.568868756294251E-001;7.709462195634842E-002;-2.988816704601049E-003;4.189271945506334E-003;
2.402000000000000E+009;1.578588038682938E-001;7.438342273235321E-002;-2.981652738526464E-003;4.369327798485756E-003;
2.402166666666667E+009;1.587807387113571E-001;7.186926901340485E-002;-2.667600987479091E-003;4.426176194101572E-003;
2.402333333333334E+009;1.596454232931137E-001;6.900815665721893E-002;-2.368176355957985E-003;4.392920061945915E-003;
2.402500000000000E+009;1.609057337045670E-001;6.642808020114899E-002;-2.372596878558397E-003;4.517068155109882E-003;
2.402666666666667E+009;1.621125489473343E-001;6.399446725845337E-002;-2.409886103123426E-003;4.556621424853802E-003;
2.402833333333334E+009;1.632410436868668E-001;6.173588335514069E-002;-1.959874527528882E-003;4.533782135695219E-003;
2.403000000000000E+009;1.649388521909714E-001;5.931915715336800E-002;-1.986110117286444E-003;4.599352832883596E-003;
2.403166666666667E+009;1.665435135364533E-001;5.716164782643318E-002;-1.819369383156300E-003;4.706412553787231E-003;
2.403333333333334E+009;1.678678691387177E-001;5.473579466342926E-002;-1.497385674156249E-003;4.757777322083712E-003;
2.403500000000000E+009;1.696544736623764E-001;5.272455513477325E-002;-1.415862934663892E-003;4.730426240712404E-003;
2.403666666666667E+009;1.716598272323608E-001;5.082386732101440E-002;-1.461771433241665E-003;4.908821545541287E-003;
2.403833333333334E+009;1.731119304895401E-001;4.893555119633675E-002;-1.099122106097639E-003;4.932971671223640E-003;
2.404000000000000E+009;1.747300475835800E-001;4.716523736715317E-002;-1.015686895698309E-003;4.756575450301170E-003;
2.404166666666667E+009;1.764947623014450E-001;4.550700634717941E-002;-8.283020579256117E-004;4.859820939600468E-003;
2.404333333333334E+009;1.782233864068985E-001;4.413082450628281E-002;-5.596791743300855E-004;4.822453018277884E-003;
2.404500000000000E+009;1.796796321868897E-001;4.263885691761971E-002;-3.607368853408843E-004;4.701425787061453E-003;
2.404666666666667E+009;1.814241111278534E-001;4.158846288919449E-002;-1.354054256808013E-004;4.764034412801266E-003;
2.404833333333334E+009;1.831263899803162E-001;4.044198244810104E-002;-1.635518710827455E-004;4.771258682012558E-003;
2.405000000000000E+009;1.843156963586807E-001;3.973655030131340E-002;9.194643644150347E-005;4.543025977909565E-003;
2.405166666666667E+009;1.858565658330917E-001;3.910495340824127E-002;3.305594727862626E-004;4.585283808410168E-003;
2.405333333333334E+009;1.873438805341721E-001;3.865907341241837E-002;3.181163920089603E-004;4.358083475381136E-003;
2.405500000000000E+009;1.887263059616089E-001;3.818100318312645E-002;5.448179435916245E-004;4.272775724530220E-003;
2.405666666666667E+009;1.899070441722870E-001;3.782614693045616E-002;6.688929279334843E-004;4.097641911357641E-003;
2.405833333333334E+009;1.912458688020706E-001;3.761687129735947E-002;7.073104497976601E-004;4.091852344572544E-003;
2.406000000000000E+009;1.921035945415497E-001;3.750872984528542E-002;8.196447743102908E-004;3.820777405053377E-003;
2.406166666666667E+009;1.932472139596939E-001;3.722683340311050E-002;1.032942207530141E-003;3.556312061846256E-003;
2.406333333333334E+009;1.941890865564346E-001;3.745073080062866E-002;1.095076906494796E-003;3.454574383795261E-003;
2.406500000000000E+009;1.948726922273636E-001;3.732433542609215E-002;9.450969519093633E-004;3.676898544654250E-003;
2.406666666666667E+009;1.953974217176437E-001;3.753589466214180E-002;1.079565379768610E-003;3.467103699222207E-003;
2.406833333333334E+009;1.960177123546600E-001;3.752893954515457E-002;1.105537288822234E-003;3.476880257949233E-003;
2.407000000000000E+009;1.963107138872147E-001;3.763619437813759E-002;1.095890533179045E-003;3.378131659701467E-003;
2.407166666666667E+009;1.966784000396729E-001;3.753979131579399E-002;1.348599558696151E-003;3.317806404083967E-003;
2.407333333333334E+009;1.965554207563400E-001;3.777087852358818E-002;1.107154879719019E-003;3.151711542159319E-003;
2.407500000000000E+009;1.964533627033234E-001;3.785548359155655E-002;1.195441698655486E-003;3.113199025392532E-003;
2.407666666666667E+009;1.965255439281464E-001;3.783840313553810E-002;1.096281106583774E-003;3.148444229736924E-003;
2.407833333333334E+009;1.960447877645493E-001;3.764106333255768E-002;1.179676619358361E-003;3.097669221460819E-003;
2.408000000000000E+009;1.958920359611511E-001;3.761027008295059E-002;1.030779792927206E-003;3.022086806595326E-003;
2.408166666666667E+009;1.952849030494690E-001;3.715744614601135E-002;1.065364689566195E-003;2.856960752978921E-003;
2.408333333333334E+009;1.946834921836853E-001;3.684503212571144E-002;9.781469125300646E-004;2.920397790148854E-003;
2.408500000000000E+009;1.941091120243073E-001;3.646989911794663E-002;1.053277286700904E-003;2.972848480567336E-003;
2.408666666666667E+009;1.933712512254715E-001;3.596748784184456E-002;1.089746947400272E-003;2.795471111312509E-003;
2.408833333333334E+009;1.926960200071335E-001;3.520460054278374E-002;1.089486526325345E-003;2.813014434650540E-003;
2.409000000000000E+009;1.916880458593369E-001;3.440323099493980E-002;9.167373063974083E-004;2.900633262470365E-003;
2.409166666666667E+009;1.907160431146622E-001;3.350147977471352E-002;9.817755781114101E-004;3.031752305105329E-003;
2.409333333333334E+009;1.897770613431931E-001;3.258240967988968E-002;9.804744040593505E-004;2.916755853220820E-003;
2.409500000000000E+009;1.886349320411682E-001;3.113907389342785E-002;9.337529190815985E-004;2.999739954248071E-003;
2.409666666666667E+009;1.877127289772034E-001;2.975221164524555E-002;9.616366005502641E-004;3.180149244144559E-003;
2.409833333333334E+009;1.865257322788239E-001;2.825108543038368E-002;1.018692273646593E-003;3.249933710321784E-003;
2.410000000000000E+009;1.856133937835693E-001;2.671543508768082E-002;1.138520194217563E-003;3.340265480801463E-003;
2.410166666666667E+009;1.845601946115494E-001;2.489041909575462E-002;1.188271678984165E-003;3.552569542080164E-003;
2.410333333333334E+009;1.834299862384796E-001;2.304868958890438E-002;1.274288631975651E-003;3.548149252310395E-003;
2.410500000000000E+009;1.824529916048050E-001;2.103591151535511E-002;1.403046073392034E-003;3.633357584476471E-003;
2.410666666666667E+009;1.816480606794357E-001;1.884137094020844E-002;1.637933892197907E-003;3.785566193982959E-003;
2.410833333333334E+009;1.809633523225784E-001;1.656363345682621E-002;1.843606471084058E-003;3.767014946788549E-003;
2.411000000000000E+009;1.802251338958740E-001;1.437079161405563E-002;1.965594710782170E-003;3.737444989383221E-003;
2.411166666666667E+009;1.795690953731537E-001;1.220455579459667E-002;2.114351838827133E-003;3.764752298593521E-003;
2.411333333333334E+009;1.790052205324173E-001;9.691994637250900E-003;2.302122535184026E-003;3.854378825053573E-003;
2.411500000000000E+009;1.784974336624146E-001;7.346357684582472E-003;2.461082767695189E-003;3.894799854606390E-003;
2.411666666666667E+009;1.783244460821152E-001;4.979221615940332E-003;2.677568467333913E-003;3.700319910421968E-003;
2.411833333333334E+009;1.779882907867432E-001;2.554031088948250E-003;2.780149225145578E-003;3.652667393907905E-003;
2.412000000000000E+009;1.780363321304321E-001;-2.360319631407037E-004;3.059153910726309E-003;3.462406806647778E-003;
2.412166666666667E+009;1.780324280261993E-001;-2.617315854877234E-003;3.273452399298549E-003;3.578157164156437E-003;
2.412333333333334E+009;1.782847195863724E-001;-5.037656053900719E-003;3.442400600761175E-003;3.400036599487066E-003;
2.412500000000000E+009;1.787176132202148E-001;-7.364107761532068E-003;3.594174049794674E-003;3.208068897947669E-003;
2.412666666666667E+009;1.792290806770325E-001;-9.917557239532471E-003;3.813043469563127E-003;3.003036370500922E-003;
2.412833333333334E+009;1.799317449331284E-001;-1.228428352624178E-002;4.015834536403418E-003;2.841739449650049E-003;
2.413000000000000E+009;1.808526217937470E-001;-1.451933104544878E-002;4.031248390674591E-003;2.798316767439246E-003;
2.413166666666667E+009;1.815536469221115E-001;-1.690074428915978E-002;4.042390268296003E-003;2.432415494695306E-003;
2.413333333333334E+009;1.827287673950195E-001;-1.902782730758190E-002;4.200252704322338E-003;2.176275709643960E-003;
2.413500000000000E+009;1.834249496459961E-001;-2.146227844059467E-002;4.333640448749065E-003;2.161337062716484E-003;
2.413666666666667E+009;1.846486181020737E-001;-2.358101680874825E-002;4.429597873240709E-003;1.967102987691760E-003;
2.413833333333334E+009;1.858148425817490E-001;-2.547908574342728E-002;4.616648890078068E-003;1.839481177739799E-003;
2.414000000000000E+009;1.868805736303330E-001;-2.769565954804421E-002;4.372121766209602E-003;1.617503003217280E-003;
2.414166666666667E+009;1.882240325212479E-001;-2.940259315073490E-002;4.375786520540714E-003;1.218297169543803E-003;
2.414333333333334E+009;1.891297250986099E-001;-3.127003461122513E-002;4.527422133833170E-003;1.101914094761014E-003;
2.414500000000000E+009;1.905874460935593E-001;-3.276074677705765E-002;4.414077848196030E-003;9.456627303734422E-004;
2.414666666666667E+009;1.917044222354889E-001;-3.418340533971787E-002;4.519756417721510E-003;8.109536138363183E-004;
2.414833333333334E+009;1.929620951414108E-001;-3.558298572897911E-002;4.576990846544504E-003;6.025797920301557E-004;
2.415000000000000E+009;1.940187066793442E-001;-3.690507635474205E-002;4.592894576489925E-003;4.034305457025766E-004;
2.415166666666667E+009;1.953080743551254E-001;-3.797657415270805E-002;4.558844957500696E-003;3.755766374524683E-004;
2.415333333333334E+009;1.963951885700226E-001;-3.897537291049957E-002;4.587783478200436E-003;7.275208190549165E-005;
2.415500000000000E+009;1.976423263549805E-001;-3.950216993689537E-002;4.526700824499130E-003;-1.413383433828130E-004;
2.415666666666667E+009;1.986985206604004E-001;-4.053431749343872E-002;4.378749057650566E-003;-2.865958667825908E-004;
2.415833333333334E+009;1.994533687829971E-001;-4.102715104818344E-002;4.304086789488792E-003;-5.107474280521274E-004;
2.416000000000000E+009;2.002725601196289E-001;-4.162967950105667E-002;4.199306014925242E-003;-6.862244918011129E-004;
2.416166666666667E+009;2.009645849466324E-001;-4.217228665947914E-002;4.263609647750855E-003;-7.415181607939303E-004;
2.416333333333334E+009;2.017153650522232E-001;-4.228758439421654E-002;4.080732818692923E-003;-8.561128051951528E-004;
2.416500000000000E+009;2.020961791276932E-001;-4.250620305538178E-002;4.105236381292343E-003;-1.020557130686939E-003;
2.416666666666667E+009;2.024626284837723E-001;-4.280336573719978E-002;3.898306051269174E-003;-1.046777819283307E-003;
2.416833333333334E+009;2.026984393596649E-001;-4.289422184228897E-002;3.793674288317561E-003;-1.160290907137096E-003;
2.417000000000000E+009;2.027732729911804E-001;-4.297829046845436E-002;3.771117422729731E-003;-1.271789777092636E-003;
2.417166666666667E+009;2.024298310279846E-001;-4.287098348140717E-002;3.719971282407641E-003;-1.464079366996884E-003;
2.417333333333334E+009;2.023581713438034E-001;-4.271361231803894E-002;3.634965512901545E-003;-1.493621151894331E-003;
2.417500000000000E+009;2.019599080085754E-001;-4.258003458380699E-002;3.541547339409590E-003;-1.435810117982328E-003;
2.417666666666667E+009;2.014186680316925E-001;-4.237901791930199E-002;3.456305479630828E-003;-1.748195150867105E-003;
2.417833333333334E+009;2.010965049266815E-001;-4.219910129904747E-002;3.285663202404976E-003;-1.814666320569813E-003;
2.418000000000000E+009;2.003497928380966E-001;-4.192011803388596E-002;3.221053862944245E-003;-1.871051266789436E-003;
2.418166666666667E+009;1.994813382625580E-001;-4.190491884946823E-002;3.260863479226828E-003;-2.053302479907870E-003;
2.418333333333334E+009;1.985855698585510E-001;-4.170025140047073E-002;3.081081667914987E-003;-2.108122687786818E-003;
2.418500000000000E+009;1.976313591003418E-001;-4.181411862373352E-002;2.948992885649204E-003;-2.209864091128111E-003;
2.418666666666667E+009;1.967387497425079E-001;-4.163046553730965E-002;2.859852509573102E-003;-2.229975536465645E-003;
2.418833333333334E+009;1.953241974115372E-001;-4.177961125969887E-002;2.699520671740174E-003;-2.311762189492583E-003;
2.419000000000000E+009;1.941048353910446E-001;-4.187425225973129E-002;2.565085887908936E-003;-2.349897520616651E-003;
2.419166666666667E+009;1.928910911083221E-001;-4.221636056900024E-002;2.467507030814886E-003;-2.548554679378867E-003;
2.419333333333334E+009;1.913686096668243E-001;-4.267862066626549E-002;2.257721964269877E-003;-2.458336995914578E-003;
2.419500000000000E+009;1.899604052305222E-001;-4.309262335300446E-002;2.144393278285861E-003;-2.540305489674211E-003;
2.419666666666667E+009;1.883298456668854E-001;-4.386236518621445E-002;1.995867583900690E-003;-2.436543116346002E-003;
2.419833333333334E+009;1.867369115352631E-001;-4.455624893307686E-002;1.789394067600370E-003;-2.370148431509733E-003;
2.420000000000000E+009;1.851741522550583E-001;-4.541437327861786E-002;1.734735094942153E-003;-2.320742467418313E-003;
2.420166666666667E+009;1.836968213319778E-001;-4.644615203142166E-002;1.582697732374072E-003;-2.404793165624142E-003;
2.420333333333334E+009;1.819075793027878E-001;-4.765043035149574E-002;1.580037176609039E-003;-2.317960374057293E-003;
2.420500000000000E+009;1.803552806377411E-001;-4.888446629047394E-002;1.556255156174302E-003;-2.119838958606124E-003;
2.420666666666667E+009;1.787676811218262E-001;-5.005350708961487E-002;1.347628771327436E-003;-2.108121756464243E-003;
2.420833333333334E+009;1.771110594272614E-001;-5.161399766802788E-002;1.302572432905436E-003;-2.055581891909242E-003;
2.421000000000000E+009;1.755586266517639E-001;-5.325677990913391E-002;1.350415288470686E-003;-1.972300233319402E-003;
2.421166666666667E+009;1.740903407335281E-001;-5.493935570120812E-002;1.348208752460778E-003;-1.866326667368412E-003;
2.421333333333334E+009;1.725530922412872E-001;-5.658018216490746E-002;1.388756092637777E-003;-1.936499029397965E-003;
2.421500000000000E+009;1.712935715913773E-001;-5.857851728796959E-002;1.429796568118036E-003;-1.925324788317084E-003;
2.421666666666667E+009;1.700003892183304E-001;-6.035510078072548E-002;1.438861014321446E-003;-2.077748300507665E-003;
2.421833333333334E+009;1.689019948244095E-001;-6.222704052925110E-002;1.440484891645610E-003;-1.969203818589449E-003;
2.422000000000000E+009;1.676003485918045E-001;-6.420896202325821E-002;1.392721547745168E-003;-1.984550617635250E-003;
2.422166666666667E+009;1.669527292251587E-001;-6.631421297788620E-002;1.256122486665845E-003;-1.923764823004603E-003;
2.422333333333334E+009;1.657399237155914E-001;-6.824108958244324E-002;1.346628530882299E-003;-2.174326917156577E-003;
2.422500000000000E+009;1.651371717453003E-001;-7.041611522436142E-002;1.405233866535127E-003;-2.043975284323096E-003;
2.422666666666667E+009;1.643868535757065E-001;-7.249601185321808E-002;1.180257997475565E-003;-2.024589106440544E-003;
2.422833333333334E+009;1.639960259199143E-001;-7.447852939367294E-002;1.129633863456547E-003;-2.134898211807013E-003;
2.423000000000000E+009;1.632927656173706E-001;-7.663773745298386E-002;9.828635957092047E-004;-2.108055632561445E-003;
2.423166666666667E+009;1.630240529775620E-001;-7.849045097827911E-002;1.098057371564210E-003;-2.067652530968189E-003;
2.423333333333334E+009;1.627443730831146E-001;-8.053424954414368E-002;9.006212349049747E-004;-2.092110225930810E-003;
2.423500000000000E+009;1.627143174409866E-001;-8.230173587799072E-002;9.056261624209583E-004;-2.005971968173981E-003;
2.423666666666667E+009;1.626579761505127E-001;-8.429732918739319E-002;7.540691876783967E-004;-2.107523381710053E-003;
2.423833333333334E+009;1.625082790851593E-001;-8.592277765274048E-002;8.621487650088966E-004;-1.937814638949931E-003;
2.424000000000000E+009;1.627299040555954E-001;-8.775322139263153E-002;7.773665129207075E-004;-1.849698252044618E-003;
2.424166666666667E+009;1.627442836761475E-001;-8.936132490634918E-002;9.343162528239191E-004;-2.039624145254493E-003;
2.424333333333334E+009;1.630982607603073E-001;-9.080962836742401E-002;7.218031096272171E-004;-1.818002085201442E-003;
2.424500000000000E+009;1.633681654930115E-001;-9.255848824977875E-002;8.123111911118031E-004;-1.913202926516533E-003;
2.424666666666667E+009;1.636838018894196E-001;-9.388961642980576E-002;8.097273530438542E-004;-1.959285466000438E-003;
2.424833333333334E+009;1.642598956823349E-001;-9.526932239532471E-002;7.528027053922415E-004;-1.988207222893834E-003;
2.425000000000000E+009;1.645171940326691E-001;-9.636418521404266E-002;7.677064859308302E-004;-1.696913619525731E-003;
2.425166666666667E+009;1.648114770650864E-001;-9.736128151416779E-002;7.638274109922350E-004;-1.915288739837706E-003;
2.425333333333334E+009;1.652631014585495E-001;-9.839592128992081E-002;6.875018589198589E-004;-1.918089459650219E-003;
2.425500000000000E+009;1.658115237951279E-001;-9.941218793392181E-002;9.245307883247733E-004;-1.939191948622465E-003;
2.425666666666667E+009;1.661175340414047E-001;-9.989857673645020E-002;7.992187165655196E-004;-1.980413217097521E-003;
2.425833333333334E+009;1.665121018886566E-001;-1.007266044616699E-001;9.203403024002910E-004;-1.978062326088548E-003;
2.426000000000000E+009;1.669262498617172E-001;-1.011989861726761E-001;8.331533754244447E-004;-2.101025078445673E-003;
2.426166666666667E+009;1.672685295343399E-001;-1.015868335962296E-001;7.918032933957875E-004;-2.083699684590101E-003;
2.426333333333334E+009;1.674988567829132E-001;-1.021687909960747E-001;8.852563914842904E-004;-2.305753063410521E-003;
2.426500000000000E+009;1.678104251623154E-001;-1.023926138877869E-001;8.270264952443540E-004;-2.205179538577795E-003;
2.426666666666667E+009;1.680875271558762E-001;-1.026093214750290E-001;8.193072862923145E-004;-2.236441941931844E-003;
2.426833333333334E+009;1.684146821498871E-001;-1.030077412724495E-001;6.265853880904615E-004;-2.260462148115039E-003;
2.427000000000000E+009;1.683533191680908E-001;-1.030849367380142E-001;6.908336654305458E-004;-2.321628155186772E-003;
2.427166666666667E+009;1.684299409389496E-001;-1.032536923885346E-001;5.583520396612585E-004;-2.491907682269812E-003;
2.427333333333334E+009;1.682794839143753E-001;-1.034271717071533E-001;4.717575502581894E-004;-2.585302805528045E-003;
2.427500000000000E+009;1.679872274398804E-001;-1.035060584545136E-001;4.846149240620434E-004;-2.533565275371075E-003;
2.427666666666667E+009;1.677722781896591E-001;-1.035719886422157E-001;4.562473332043737E-004;-2.564825117588043E-003;
2.427833333333334E+009;1.673257946968079E-001;-1.036723405122757E-001;3.857842239085585E-004;-2.529563149437308E-003;
