# Version 1.00
#
freq[Hz];re:Trc1_S11;im:Trc1_S11;re:Trc2_S21;im:Trc2_S21;
2.400000000000000E+009;1.736984699964523E-001;4.916509240865707E-002;4.369725473225117E-003;5.343167576938868E-003;
2.400166666666667E+009;1.742350012063980E-001;4.875776916742325E-002;4.328525625169277E-003;4.984781611710787E-003;
2.400333333333334E+009;1.745995134115219E-001;4.786378517746925E-002;4.528078250586987E-003;4.925795830786228E-003;
2.400500000000000E+009;1.749127060174942E-001;4.710230603814125E-002;4.475634545087814E-003;4.664153326302767E-003;
2.400666666666667E+009;1.751690059900284E-001;4.661455377936363E-002;4.573689773678780E-003;4.369161091744900E-003;
2.400833333333334E+009;1.753214448690414E-001;4.610875621438026E-002;4.716752562671900E-003;4.120308440178633E-003;
2.401000000000000E+009;1.754567176103592E-001;4.525996372103691E-002;4.707934334874153E-003;4.119374323636293E-003;
2.401166666666667E+009;1.756335794925690E-001;4.466200619935989E-002;4.591122269630432E-003;3.926212899386883E-003;
2.401333333333334E+009;1.757498085498810E-001;4.390288144350052E-002;4.660273436456919E-003;3.753687487915158E-003;
2.401500000000000E+009;1.758161038160324E-001;4.333568736910820E-002;4.720750264823437E-003;3.573788562789559E-003;
2.401666666666667E+009;1.755733042955399E-001;4.270238056778908E-002;4.793127998709679E-003;3.500518156215549E-003;
2.401833333333334E+009;1.754982024431229E-001;4.190367832779884E-002;4.874607082456350E-003;3.346391720697284E-003;
2.402000000000000E+009;1.751836091279984E-001;4.105286672711372E-002;4.748006816953421E-003;3.265701932832599E-003;
2.402166666666667E+009;1.749923080205917E-001;3.991539403796196E-002;4.864525049924851E-003;3.043631324544549E-003;
2.402333333333334E+009;1.747636348009110E-001;3.913122788071632E-002;4.815917927771807E-003;3.079399233683944E-003;
2.402500000000000E+009;1.746852397918701E-001;3.808265551924706E-002;4.988457541912794E-003;2.592822071164846E-003;
2.402666666666667E+009;1.742536574602127E-001;3.697004541754723E-002;5.016309209167957E-003;2.818592358380556E-003;
2.402833333333334E+009;1.740280836820602E-001;3.577896952629089E-002;4.956576973199844E-003;2.604162320494652E-003;
2.403000000000000E+009;1.737767010927200E-001;3.426920250058174E-002;4.867070354521275E-003;2.358624478802085E-003;
2.403166666666667E+009;1.732786297798157E-001;3.307280316948891E-002;4.878210835158825E-003;2.256839303299785E-003;
2.403333333333334E+009;1.728979349136353E-001;3.149149566888809E-002;4.744426812976599E-003;2.085908548906446E-003;
2.403500000000000E+009;1.725341081619263E-001;2.980392426252365E-002;4.759663250297308E-003;2.079229801893234E-003;
2.403666666666667E+009;1.721022427082062E-001;2.819840051233769E-002;4.642200656235218E-003;1.901754061691463E-003;
2.403833333333334E+009;1.717742830514908E-001;2.663866430521011E-002;4.748508334159851E-003;1.746701193042100E-003;
2.404000000000000E+009;1.715202778577805E-001;2.466849423944950E-002;4.798618610948324E-003;1.843843259848654E-003;
2.404166666666667E+009;1.707772612571716E-001;2.298397757112980E-002;4.751081112772226E-003;1.738635590299964E-003;
2.404333333333334E+009;1.705944240093231E-001;2.113782055675983E-002;4.727780353277922E-003;1.759046223014593E-003;
2.404500000000000E+009;1.702796071767807E-001;1.910833083093166E-002;4.666905384510756E-003;1.679829671047628E-003;
2.404666666666667E+009;1.699746698141098E-001;1.711210794746876E-002;4.780802875757217E-003;1.787205692380667E-003;
2.404833333333334E+009;1.697514802217484E-001;1.515964232385159E-002;4.969420842826366E-003;1.666387310251594E-003;
2.405000000000000E+009;1.695938855409622E-001;1.325067877769470E-002;4.990508779883385E-003;1.693818252533674E-003;
2.405166666666667E+009;1.694842576980591E-001;1.109855622053146E-002;4.958797246217728E-003;1.515985582955182E-003;
2.405333333333334E+009;1.695914715528488E-001;8.912517689168453E-003;5.012689158320427E-003;1.754098455421627E-003;
2.405500000000000E+009;1.695889830589294E-001;7.054504007101059E-003;5.184865090996027E-003;1.640412723645568E-003;
2.405666666666667E+009;1.698563247919083E-001;5.084809847176075E-003;5.327422171831131E-003;1.602191128768027E-003;
2.405833333333334E+009;1.697123199701309E-001;2.952770097181201E-003;5.369753111153841E-003;1.432339893653989E-003;
2.406000000000000E+009;1.701675206422806E-001;7.317872368730605E-004;5.508210510015488E-003;1.376317581161857E-003;
2.406166666666667E+009;1.703617721796036E-001;-1.053893705829978E-003;5.519079975783825E-003;1.276759314350784E-003;
2.406333333333334E+009;1.709479391574860E-001;-3.096584696322680E-003;5.877373274415731E-003;1.055399887263775E-003;
2.406500000000000E+009;1.714299619197846E-001;-5.119922570884228E-003;5.879336502403021E-003;1.074572443030775E-003;
2.406666666666667E+009;1.717950552701950E-001;-6.905395537614822E-003;6.037440150976181E-003;7.673969375900924E-004;
2.406833333333334E+009;1.725322008132935E-001;-8.959796279668808E-003;6.079667247831821E-003;8.108294568955898E-004;
2.407000000000000E+009;1.732553243637085E-001;-1.076228730380535E-002;6.263072136789560E-003;6.028304924257100E-004;
2.407166666666667E+009;1.738988757133484E-001;-1.238952111452818E-002;6.518867332488298E-003;1.767112262314186E-004;
2.407333333333334E+009;1.745876222848892E-001;-1.433017384260893E-002;6.507305428385735E-003;8.976756362244487E-005;
2.407500000000000E+009;1.753625422716141E-001;-1.606704853475094E-002;6.737563293427229E-003;-8.078922837739810E-005;
2.407666666666667E+009;1.763028353452683E-001;-1.757861673831940E-002;6.790297571569681E-003;-5.509034963324666E-004;
2.407833333333334E+009;1.769663989543915E-001;-1.931424997746944E-002;6.935144308954477E-003;-8.083016728051007E-004;
2.408000000000000E+009;1.777186393737793E-001;-2.093212120234966E-002;6.917525082826614E-003;-1.213336363434792E-003;
2.408166666666667E+009;1.785584241151810E-001;-2.220103144645691E-002;6.920531857758761E-003;-1.429180498234928E-003;
2.408333333333334E+009;1.793419718742371E-001;-2.366138808429241E-002;7.020912598818541E-003;-1.843181904405356E-003;
2.408500000000000E+009;1.801070570945740E-001;-2.504059672355652E-002;7.091787178069353E-003;-2.215543529018760E-003;
2.408666666666667E+009;1.807348728179932E-001;-2.619443088769913E-002;6.848934106528759E-003;-2.531999023631215E-003;
2.408833333333334E+009;1.811983287334442E-001;-2.733030170202255E-002;6.748202256858349E-003;-2.670220099389553E-003;
2.409000000000000E+009;1.816884726285934E-001;-2.833939716219902E-002;6.672912742942572E-003;-3.237196244299412E-003;
2.409166666666667E+009;1.823312193155289E-001;-2.921341359615326E-002;6.574028171598911E-003;-3.279580269008875E-003;
2.409333333333334E+009;1.827506721019745E-001;-3.022412024438381E-002;6.054246332496405E-003;-3.697730135172606E-003;
2.409500000000000E+009;1.831330060958862E-001;-3.101856634020805E-002;6.212827283889055E-003;-3.836929798126221E-003;
2.409666666666667E+009;1.832439154386520E-001;-3.154699876904488E-002;5.916906986385584E-003;-4.140805453062058E-003;
2.409833333333334E+009;1.834598779678345E-001;-3.203402087092400E-002;5.774256307631731E-003;-4.342821426689625E-003;
2.410000000000000E+009;1.837376356124878E-001;-3.251628950238228E-002;5.622472614049912E-003;-4.521442111581564E-003;
2.410166666666667E+009;1.839153170585632E-001;-3.288679942488670E-002;5.414518527686596E-003;-4.721080884337425E-003;
2.410333333333334E+009;1.840626597404480E-001;-3.330919891595841E-002;5.188907030969858E-003;-4.863580688834190E-003;
2.410500000000000E+009;1.839845627546310E-001;-3.345286101102829E-002;4.958928562700748E-003;-5.191341508179903E-003;
2.410666666666667E+009;1.837864816188812E-001;-3.401526436209679E-002;4.914032295346260E-003;-5.248910747468472E-003;
2.410833333333334E+009;1.836843043565750E-001;-3.407720103859901E-002;4.614102188497782E-003;-5.415770225226879E-003;
2.411000000000000E+009;1.834442317485809E-001;-3.428376466035843E-002;4.430127330124378E-003;-5.588401108980179E-003;
2.411166666666667E+009;1.831836700439453E-001;-3.467315435409546E-002;4.157747142016888E-003;-5.622202064841986E-003;
2.411333333333334E+009;1.827974021434784E-001;-3.495569154620171E-002;4.134694114327431E-003;-5.785172339528799E-003;
2.411500000000000E+009;1.821643412113190E-001;-3.534210845828056E-002;3.818566445261240E-003;-5.902073346078396E-003;
2.411666666666667E+009;1.817323416471481E-001;-3.557636961340904E-002;3.632805543020368E-003;-5.989159457385540E-003;
2.411833333333334E+009;1.809487640857697E-001;-3.595836088061333E-002;3.398818196728826E-003;-6.109741516411305E-003;
2.412000000000000E+009;1.802289038896561E-001;-3.641801327466965E-002;3.038028720766306E-003;-6.363491993397474E-003;
2.412166666666667E+009;1.792065054178238E-001;-3.706441447138786E-002;2.928191795945168E-003;-6.266545969992876E-003;
2.412333333333334E+009;1.783392876386643E-001;-3.755401819944382E-002;2.606288995593786E-003;-6.424077320843935E-003;
2.412500000000000E+009;1.771612167358398E-001;-3.802625089883804E-002;2.539055189117789E-003;-6.493996828794479E-003;
2.412666666666667E+009;1.760385036468506E-001;-3.893666341900826E-002;2.204463118687272E-003;-6.515779532492161E-003;
2.412833333333334E+009;1.749169379472733E-001;-3.961241245269775E-002;2.080519217997789E-003;-6.432183552533388E-003;
2.413000000000000E+009;1.737888306379318E-001;-4.032406583428383E-002;1.785504748113453E-003;-6.574468687176704E-003;
2.413166666666667E+009;1.725062727928162E-001;-4.113878682255745E-002;1.599121605977416E-003;-6.752127315849066E-003;
2.413333333333334E+009;1.710241436958313E-001;-4.226778447628021E-002;1.281155040487647E-003;-6.662923842668533E-003;
2.413500000000000E+009;1.699582338333130E-001;-4.331551492214203E-002;1.184377004392445E-003;-6.834718398749828E-003;
2.413666666666667E+009;1.685681194067001E-001;-4.451164603233337E-002;7.960809161886573E-004;-6.717647891491652E-003;
2.413833333333334E+009;1.671605408191681E-001;-4.549818858504295E-002;5.996446125209332E-004;-6.730780471116304E-003;
2.414000000000000E+009;1.656524091959000E-001;-4.681518673896790E-002;4.800791502930224E-004;-6.694069132208824E-003;
2.414166666666667E+009;1.644460260868073E-001;-4.808005318045616E-002;1.658136170590296E-004;-6.939333863556385E-003;
2.414333333333334E+009;1.633652299642563E-001;-4.950187355279923E-002;-2.635772980283946E-004;-6.820946000516415E-003;
2.414500000000000E+009;1.622762531042099E-001;-5.099668726325035E-002;-4.700632998719811E-004;-6.720342207700014E-003;
2.414666666666667E+009;1.610699594020844E-001;-5.248897150158882E-002;-8.452545735053718E-004;-6.699669174849987E-003;
2.414833333333334E+009;1.600218713283539E-001;-5.430009588599205E-002;-1.038792543113232E-003;-6.624493282288313E-003;
2.415000000000000E+009;1.588999778032303E-001;-5.587933212518692E-002;-1.413826015777886E-003;-6.568925920873880E-003;
2.415166666666667E+009;1.580107510089874E-001;-5.763697251677513E-002;-1.736253034323454E-003;-6.396193988621235E-003;
2.415333333333334E+009;1.572073847055435E-001;-5.958855152130127E-002;-1.828246284276247E-003;-6.100371945649386E-003;
2.415500000000000E+009;1.563776731491089E-001;-6.146728619933128E-002;-2.113600261509419E-003;-6.148350425064564E-003;
2.415666666666667E+009;1.554940044879913E-001;-6.334660202264786E-002;-2.371977316215634E-003;-5.832041613757610E-003;
2.415833333333334E+009;1.550172120332718E-001;-6.527146697044373E-002;-2.547160256654024E-003;-5.483596585690975E-003;
2.416000000000000E+009;1.543610394001007E-001;-6.716870516538620E-002;-2.717528957873583E-003;-5.450155586004257E-003;
2.416166666666667E+009;1.539719551801682E-001;-6.920282542705536E-002;-2.959061414003372E-003;-5.169686395674944E-003;
2.416333333333334E+009;1.534452140331268E-001;-7.120686024427414E-002;-2.984273014590144E-003;-4.825651179999113E-003;
2.416500000000000E+009;1.530923843383789E-001;-7.319302111864090E-002;-3.214514581486583E-003;-4.540813155472279E-003;
2.416666666666667E+009;1.526949852705002E-001;-7.512182742357254E-002;-3.235872834920883E-003;-4.276014398783445E-003;
2.416833333333334E+009;1.525992304086685E-001;-7.717327028512955E-002;-3.088849363848567E-003;-4.149839747697115E-003;
2.417000000000000E+009;1.521996259689331E-001;-7.910370826721191E-002;-3.061756491661072E-003;-3.964800853282213E-003;
2.417166666666667E+009;1.520826965570450E-001;-8.073558658361435E-002;-3.143767360597849E-003;-3.728510113433003E-003;
2.417333333333334E+009;1.521123796701431E-001;-8.249784260988236E-002;-3.004832658916712E-003;-3.545698011294007E-003;
2.417500000000000E+009;1.519844383001328E-001;-8.437513560056686E-002;-2.877410966902971E-003;-3.308153478428721E-003;
2.417666666666667E+009;1.521919667720795E-001;-8.581417798995972E-002;-2.829350298270583E-003;-3.301583463326097E-003;
2.417833333333334E+009;1.522759944200516E-001;-8.738178759813309E-002;-2.671264577656984E-003;-3.179000224918127E-003;
2.418000000000000E+009;1.522513628005981E-001;-8.882417529821396E-002;-2.799022011458874E-003;-3.261367091909051E-003;
2.418166666666667E+009;1.523174792528153E-001;-9.001484513282776E-002;-2.695736940950155E-003;-3.322095144540072E-003;
2.418333333333334E+009;1.528476029634476E-001;-9.139370173215866E-002;-2.589188050478697E-003;-3.246425883844495E-003;
2.418500000000000E+009;1.528439223766327E-001;-9.240061789751053E-002;-2.669387962669134E-003;-3.319392912089825E-003;
2.418666666666667E+009;1.531822085380554E-001;-9.353985637426376E-002;-2.669291337952018E-003;-3.392488928511739E-003;
2.418833333333334E+009;1.531390398740768E-001;-9.445866942405701E-002;-2.700599143281579E-003;-3.167130984365940E-003;
2.419000000000000E+009;1.533324271440506E-001;-9.518099576234818E-002;-2.849519019946456E-003;-3.417720319703221E-003;
2.419166666666667E+009;1.536453068256378E-001;-9.589715301990509E-002;-2.856103004887700E-003;-3.378220368176699E-003;
2.419333333333334E+009;1.537607610225678E-001;-9.623625874519348E-002;-2.958988770842552E-003;-3.339942777529359E-003;
2.419500000000000E+009;1.539787054061890E-001;-9.685426205396652E-002;-3.026912920176983E-003;-3.277951385825872E-003;
2.419666666666667E+009;1.542559713125229E-001;-9.713149070739746E-002;-3.173286793753505E-003;-3.236460732296109E-003;
2.419833333333334E+009;1.542639285326004E-001;-9.729206562042236E-002;-3.209226764738560E-003;-3.306102240458131E-003;
2.420000000000000E+009;1.545458287000656E-001;-9.755690395832062E-002;-3.521136241033673E-003;-3.216321812942624E-003;
2.420166666666667E+009;1.544264256954193E-001;-9.748409688472748E-002;-3.802921157330275E-003;-3.077974310144782E-003;
2.420333333333334E+009;1.546363234519959E-001;-9.754707664251328E-002;-3.750484669581056E-003;-2.950168447569013E-003;
2.420500000000000E+009;1.546931266784668E-001;-9.712948650121689E-002;-3.943660296499729E-003;-2.858778927475214E-003;
2.420666666666667E+009;1.545329838991165E-001;-9.695122390985489E-002;-3.953785169869661E-003;-2.804448595270515E-003;
2.420833333333334E+009;1.543637663125992E-001;-9.664025157690048E-002;-3.971670754253864E-003;-2.645375207066536E-003;
2.421000000000000E+009;1.541565954685211E-001;-9.645188599824905E-002;-4.226741380989552E-003;-2.522648312151432E-003;
2.421166666666667E+009;1.540645360946655E-001;-9.604692459106445E-002;-4.176831338554621E-003;-2.367928856983781E-003;
2.421333333333334E+009;1.535878926515579E-001;-9.586477279663086E-002;-4.229193087667227E-003;-2.387078246101737E-003;
2.421500000000000E+009;1.532553434371948E-001;-9.537024796009064E-002;-4.412913229316473E-003;-2.116513671353459E-003;
2.421666666666667E+009;1.527141481637955E-001;-9.497012943029404E-002;-4.519085399806500E-003;-1.979412510991097E-003;
2.421833333333334E+009;1.522425413131714E-001;-9.478931128978729E-002;-4.559664055705071E-003;-2.017176710069180E-003;
2.422000000000000E+009;1.513158380985260E-001;-9.440425783395767E-002;-4.553420469164848E-003;-1.828496344387531E-003;
2.422166666666667E+009;1.505576968193054E-001;-9.427686780691147E-002;-4.623950924724340E-003;-1.815489726141095E-003;
2.422333333333334E+009;1.496537178754807E-001;-9.403128921985626E-002;-4.790466278791428E-003;-1.605772180482745E-003;
2.422500000000000E+009;1.485065370798111E-001;-9.373015910387039E-002;-4.694258328527212E-003;-1.371568301692605E-003;
2.422666666666667E+009;1.473806053400040E-001;-9.370115399360657E-002;-4.862236324697733E-003;-1.224902807734907E-003;
2.422833333333334E+009;1.462456434965134E-001;-9.369149059057236E-002;-4.663408733904362E-003;-1.078236731700599E-003;
2.423000000000000E+009;1.448900848627091E-001;-9.349695593118668E-002;-4.821421578526497E-003;-8.645944180898368E-004;
2.423166666666667E+009;1.436298936605454E-001;-9.352383017539978E-002;-4.764516372233629E-003;-8.018573862500489E-004;
2.423333333333334E+009;1.422708928585053E-001;-9.336715191602707E-002;-4.882117267698050E-003;-7.773601682856679E-004;
2.423500000000000E+009;1.407993733882904E-001;-9.348289668560028E-002;-4.812897648662329E-003;-5.207237554714084E-004;
2.423666666666667E+009;1.390967965126038E-001;-9.397301822900772E-002;-4.694912582635880E-003;-4.101126978639513E-004;
2.423833333333334E+009;1.379061043262482E-001;-9.413653612136841E-002;-4.687907639890909E-003;-2.783042727969587E-004;
2.424000000000000E+009;1.361930519342423E-001;-9.425935894250870E-002;-4.743255209177733E-003;-7.381707837339491E-005;
2.424166666666667E+009;1.345451921224594E-001;-9.476952254772186E-002;-4.825220443308353E-003;-1.465909153921530E-004;
2.424333333333334E+009;1.331844478845596E-001;-9.525329619646072E-002;-4.753591027110815E-003;3.697144347825088E-005;
2.424500000000000E+009;1.316760927438736E-001;-9.593372046947479E-002;-4.752933047711849E-003;2.271992707392201E-004;
2.424666666666667E+009;1.303317099809647E-001;-9.627920389175415E-002;-4.807354416698217E-003;2.979990094900131E-004;
2.424833333333334E+009;1.286686509847641E-001;-9.715627133846283E-002;-4.549636505544186E-003;6.623836816288531E-004;
2.425000000000000E+009;1.273500472307205E-001;-9.813372790813446E-002;-4.619344137609005E-003;6.957519799470902E-004;
2.425166666666667E+009;1.258733421564102E-001;-9.909540414810181E-002;-4.569331649690867E-003;7.269837078638375E-004;
2.425333333333334E+009;1.246906220912933E-001;-1.000415980815888E-001;-4.436098970472813E-003;8.754910086281598E-004;
2.425500000000000E+009;1.235336884856224E-001;-1.013051792979240E-001;-4.420588724315167E-003;1.034777727909386E-003;
2.425666666666667E+009;1.222625225782394E-001;-1.024440377950668E-001;-4.436578601598740E-003;1.178198726847768E-003;
2.425833333333334E+009;1.212871894240379E-001;-1.037005484104157E-001;-4.198411013931036E-003;1.093257684260607E-003;
2.426000000000000E+009;1.203880012035370E-001;-1.051976159214973E-001;-4.369139671325684E-003;1.380634494125843E-003;
2.426166666666667E+009;1.194770783185959E-001;-1.066101118922234E-001;-4.093129653483629E-003;1.401082496158779E-003;
2.426333333333334E+009;1.186389252543449E-001;-1.080986708402634E-001;-4.120420664548874E-003;1.615833723917604E-003;
2.426500000000000E+009;1.178282499313355E-001;-1.096071302890778E-001;-3.964086063206196E-003;1.530074398033321E-003;
2.426666666666667E+009;1.172808557748795E-001;-1.110043153166771E-001;-3.947026096284390E-003;1.652565435506403E-003;
2.426833333333334E+009;1.166986078023911E-001;-1.127724871039391E-001;-3.768150694668293E-003;1.721443259157240E-003;
2.427000000000000E+009;1.161829382181168E-001;-1.144609749317169E-001;-3.842890961095691E-003;1.860245363786817E-003;
2.427166666666667E+009;1.157681867480278E-001;-1.159127205610275E-001;-3.646913450211287E-003;1.912709791213274E-003;
2.427333333333334E+009;1.153590083122253E-001;-1.175681874155998E-001;-3.807055065408349E-003;1.947639742866159E-003;
2.427500000000000E+009;1.152119413018227E-001;-1.191959083080292E-001;-3.590486478060484E-003;1.873475383035839E-003;
2.427666666666667E+009;1.149162128567696E-001;-1.206975132226944E-001;-3.483518725261092E-003;1.858465839177370E-003;
