# Version 1.00
#
freq[Hz];re:Trc1_S11;im:Trc1_S11;re:Trc2_S21;im:Trc2_S21;
2.400000000000000E+009;1.581106483936310E-001;6.164022535085678E-002;1.757589052431285E-003;9.798650862649083E-004;
2.400166666666667E+009;1.579605191946030E-001;5.999520048499107E-002;1.667964737862349E-003;1.027085701934993E-003;
2.400333333333334E+009;1.579274982213974E-001;5.809100717306137E-002;1.736641046591103E-003;9.220651700161398E-004;
2.400500000000000E+009;1.579437404870987E-001;5.636869743466377E-002;1.750846859067679E-003;8.319675689563155E-004;
2.400666666666667E+009;1.576531529426575E-001;5.443065986037254E-002;1.729061827063561E-003;7.975836633704603E-004;
2.400833333333334E+009;1.579090356826782E-001;5.241347104310989E-002;1.780134509317577E-003;7.444218499585986E-004;
2.401000000000000E+009;1.579869538545609E-001;5.039542913436890E-002;1.763281878083944E-003;5.725615192204714E-004;
2.401166666666667E+009;1.581673622131348E-001;4.837448149919510E-002;1.728652161546052E-003;4.519430513028055E-004;
2.401333333333334E+009;1.584456861019135E-001;4.634217172861099E-002;1.728663919493556E-003;3.101640613749623E-004;
2.401500000000000E+009;1.587959229946137E-001;4.434727504849434E-002;1.798601704649627E-003;4.318626306485385E-004;
2.401666666666667E+009;1.591897606849670E-001;4.249618574976921E-002;1.716547296382487E-003;3.322742413729429E-004;
2.401833333333334E+009;1.595478951931000E-001;4.032230004668236E-002;1.791115966625512E-003;1.614588254597038E-004;
2.402000000000000E+009;1.596776992082596E-001;3.840487077832222E-002;1.605894300155342E-003;1.847801759140566E-004;
2.402166666666667E+009;1.603574752807617E-001;3.635291755199432E-002;1.440187566913664E-003;1.078105342458002E-004;
2.402333333333334E+009;1.610456556081772E-001;3.461460769176483E-002;1.581839751452208E-003;6.028030838933773E-005;
2.402500000000000E+009;1.618191450834274E-001;3.272926062345505E-002;1.426601898856461E-003;-1.341007282462670E-005;
2.402666666666667E+009;1.622245609760284E-001;3.119435720145702E-002;1.419517095200717E-003;-1.639784313738346E-004;
2.402833333333334E+009;1.631634384393692E-001;2.941860258579254E-002;1.362920040264726E-003;-7.926623948151246E-005;
2.403000000000000E+009;1.639717370271683E-001;2.788360789418221E-002;1.386513235047460E-003;-1.868762628873810E-004;
2.403166666666667E+009;1.647775620222092E-001;2.639282867312431E-002;1.114473794586957E-003;-1.669476914685220E-004;
2.403333333333334E+009;1.656298935413361E-001;2.482736296951771E-002;1.123483874835074E-003;-1.877050090115517E-004;
2.403500000000000E+009;1.664499342441559E-001;2.358173020184040E-002;1.140744425356388E-003;-1.686474133748561E-004;
2.403666666666667E+009;1.675316244363785E-001;2.204658836126328E-002;1.056727487593889E-003;-2.334525343030691E-004;
2.403833333333334E+009;1.686147451400757E-001;2.092617377638817E-002;1.043303636834025E-003;-1.104732509702444E-004;
2.404000000000000E+009;1.695229560136795E-001;1.963203586637974E-002;8.285068324767053E-004;-7.041688513709232E-005;
2.404166666666667E+009;1.702871024608612E-001;1.855758391320705E-002;1.005210448056459E-003;-2.694214635994285E-004;
2.404333333333334E+009;1.711794734001160E-001;1.770967990159988E-002;8.823070093058050E-004;-1.048062986228615E-004;
2.404500000000000E+009;1.720725595951080E-001;1.673980057239533E-002;9.185997769236565E-004;-5.518208490684629E-005;
2.404666666666667E+009;1.729996502399445E-001;1.578377746045589E-002;8.515092777088285E-004;-8.020209497772157E-005;
2.404833333333334E+009;1.739560067653656E-001;1.497090701013804E-002;8.176221163012087E-004;9.825032066146378E-006;
2.405000000000000E+009;1.749332100152969E-001;1.438542734831572E-002;6.260414957068861E-004;4.636274752556346E-005;
2.405166666666667E+009;1.756126731634140E-001;1.378715224564076E-002;6.871377700008452E-004;1.118838335969485E-004;
2.405333333333334E+009;1.763496547937393E-001;1.289024110883474E-002;7.825662032701075E-004;-1.217155004269444E-004;
2.405500000000000E+009;1.770309954881668E-001;1.250022090971470E-002;7.337203132919967E-004;8.583816816098988E-005;
2.405666666666667E+009;1.777658164501190E-001;1.222615409642458E-002;7.895540911704302E-004;1.700080320006236E-004;
2.405833333333334E+009;1.782092452049255E-001;1.196436490863562E-002;5.719990003854036E-004;1.178858874482103E-004;
2.406000000000000E+009;1.789211183786392E-001;1.134218927472830E-002;8.262688643299043E-004;2.115389070240781E-004;
2.406166666666667E+009;1.790960282087326E-001;1.103551965206862E-002;7.417358574457467E-004;2.241803886136040E-004;
2.406333333333334E+009;1.796809732913971E-001;1.071984879672527E-002;7.513706223107874E-004;3.805667802225798E-004;
2.406500000000000E+009;1.798946410417557E-001;1.031574327498674E-002;8.525853045284748E-004;5.016391514800489E-004;
2.406666666666667E+009;1.799110919237137E-001;9.971017949283123E-003;7.979284273460507E-004;3.864569880533963E-004;
2.406833333333334E+009;1.802443563938141E-001;9.715599007904530E-003;9.373043430969119E-004;6.007127813063562E-004;
2.407000000000000E+009;1.803857535123825E-001;9.323781356215477E-003;9.966171346604824E-004;4.748355713672936E-004;
2.407166666666667E+009;1.804478168487549E-001;9.027220308780670E-003;1.021761447191238E-003;4.751420638058335E-004;
2.407333333333334E+009;1.803027093410492E-001;8.495806716382504E-003;1.165532041341066E-003;5.291100824251771E-004;
2.407500000000000E+009;1.800154894590378E-001;8.091014809906483E-003;1.268812455236912E-003;3.859191201627255E-004;
2.407666666666667E+009;1.797942817211151E-001;7.727784570306540E-003;1.447702990844846E-003;5.180964362807572E-004;
2.407833333333334E+009;1.794674843549728E-001;6.851470097899437E-003;1.354478881694377E-003;4.044458619318903E-004;
2.408000000000000E+009;1.792760491371155E-001;6.324335932731628E-003;1.352021005004644E-003;4.292702651582658E-004;
2.408166666666667E+009;1.787674427032471E-001;5.712552927434444E-003;1.510911155492067E-003;3.971271507907659E-004;
2.408333333333334E+009;1.784643679857254E-001;4.897239152342081E-003;1.567288883961737E-003;4.095584154129028E-004;
2.408500000000000E+009;1.778722405433655E-001;3.991454839706421E-003;1.623625284992158E-003;3.571767592802644E-004;
2.408666666666667E+009;1.772634536027908E-001;3.069643629714847E-003;1.603599870577455E-003;3.553388232830912E-004;
2.408833333333334E+009;1.764750778675079E-001;2.159127732738853E-003;1.691246172413230E-003;2.235656429547817E-004;
2.409000000000000E+009;1.758909672498703E-001;9.824807057157159E-004;1.831150031648576E-003;2.191143867094070E-004;
2.409166666666667E+009;1.753083318471909E-001;-1.396534935338423E-004;1.741818268783391E-003;2.024417626671493E-004;
2.409333333333334E+009;1.747554689645767E-001;-1.338694826699793E-003;1.979401335120201E-003;2.777597501335549E-006;
2.409500000000000E+009;1.739923059940338E-001;-2.807829761877656E-003;1.923624775372446E-003;4.231304410495795E-005;
2.409666666666667E+009;1.733781397342682E-001;-4.161319229751825E-003;2.004426904022694E-003;-9.845874592429027E-005;
2.409833333333334E+009;1.725216656923294E-001;-5.370382219552994E-003;2.160766161978245E-003;-1.649957121117041E-004;
2.410000000000000E+009;1.721349060535431E-001;-6.880201399326325E-003;2.215486252680421E-003;-2.222482289653271E-004;
2.410166666666667E+009;1.714437603950501E-001;-8.526329882442951E-003;2.301852218806744E-003;-4.214158398099244E-004;
2.410333333333334E+009;1.707075834274292E-001;-1.040294859558344E-002;2.226938959211111E-003;-4.689560155384243E-004;
2.410500000000000E+009;1.702996343374252E-001;-1.203398965299130E-002;2.248161472380161E-003;-5.724427755922079E-004;
2.410666666666667E+009;1.697193831205368E-001;-1.383774913847446E-002;2.235417254269123E-003;-7.078516064211726E-004;
2.410833333333334E+009;1.693013161420822E-001;-1.540380530059338E-002;2.057073870673776E-003;-8.163428283296526E-004;
2.411000000000000E+009;1.689348965883255E-001;-1.733599230647087E-002;2.252747071906924E-003;-8.745490340515971E-004;
2.411166666666667E+009;1.686282604932785E-001;-1.939908415079117E-002;2.186044352129102E-003;-1.055810367688537E-003;
2.411333333333334E+009;1.683718413114548E-001;-2.105757035315037E-002;2.282858360558748E-003;-1.041721669025719E-003;
2.411500000000000E+009;1.681320071220398E-001;-2.331104502081871E-002;2.251735655590892E-003;-1.181647414341569E-003;
2.411666666666667E+009;1.682934761047363E-001;-2.511314675211906E-002;2.226003911346197E-003;-1.303646829910576E-003;
2.411833333333334E+009;1.681286841630936E-001;-2.679925411939621E-002;2.111585577949882E-003;-1.254825852811337E-003;
2.412000000000000E+009;1.681319326162338E-001;-2.896709740161896E-002;2.198043977841735E-003;-1.585359801538289E-003;
2.412166666666667E+009;1.680922508239746E-001;-3.088645264506340E-002;2.011426957324147E-003;-1.691348617896438E-003;
2.412333333333334E+009;1.685125827789307E-001;-3.263342753052712E-002;1.909860409796238E-003;-1.933368155732751E-003;
2.412500000000000E+009;1.686626672744751E-001;-3.451888263225555E-002;1.748278387822211E-003;-1.855307724326849E-003;
2.412666666666667E+009;1.689427644014359E-001;-3.642497211694717E-002;1.718042767606676E-003;-1.961245667189360E-003;
2.412833333333334E+009;1.692723035812378E-001;-3.816992044448853E-002;1.595819485373795E-003;-2.150808461010456E-003;
2.413000000000000E+009;1.697121411561966E-001;-3.999965265393257E-002;1.567546860314906E-003;-2.049299888312817E-003;
2.413166666666667E+009;1.700693219900131E-001;-4.164967313408852E-002;1.578555325977504E-003;-2.415254013612866E-003;
2.413333333333334E+009;1.704499125480652E-001;-4.329992085695267E-002;1.357930712401867E-003;-2.269147196784616E-003;
2.413500000000000E+009;1.710890233516693E-001;-4.489218443632126E-002;1.252200454473496E-003;-2.556301653385162E-003;
2.413666666666667E+009;1.715439558029175E-001;-4.652866721153259E-002;1.079800771549344E-003;-2.494670450687408E-003;
2.413833333333334E+009;1.721943318843842E-001;-4.792163521051407E-002;9.946168866008520E-004;-2.460629912093282E-003;
2.414000000000000E+009;1.724328994750977E-001;-4.924540594220161E-002;9.557703742757440E-004;-2.569707343354821E-003;
2.414166666666667E+009;1.733051985502243E-001;-5.046702921390533E-002;8.038933156058192E-004;-2.638141391798854E-003;
2.414333333333334E+009;1.737656295299530E-001;-5.185068398714066E-002;6.961218896321952E-004;-2.548449207097292E-003;
2.414500000000000E+009;1.744029074907303E-001;-5.267500877380371E-002;4.245461605023593E-004;-2.730004023760557E-003;
2.414666666666667E+009;1.746954768896103E-001;-5.380364134907723E-002;4.722269950434566E-004;-2.734334440901876E-003;
2.414833333333334E+009;1.751776784658432E-001;-5.491836369037628E-002;4.123557882849127E-004;-2.615222241729498E-003;
2.415000000000000E+009;1.755947321653366E-001;-5.557604134082794E-002;1.374019047943875E-004;-2.556495834141970E-003;
2.415166666666667E+009;1.760853379964829E-001;-5.641702562570572E-002;2.566086550359614E-005;-2.709678374230862E-003;
2.415333333333334E+009;1.764475554227829E-001;-5.707192793488503E-002;6.386853783624247E-005;-2.494029467925429E-003;
2.415500000000000E+009;1.767740696668625E-001;-5.770588293671608E-002;-1.406447408953682E-004;-2.665251493453980E-003;
2.415666666666667E+009;1.768426746129990E-001;-5.824998021125794E-002;-1.734966353978962E-004;-2.466161968186498E-003;
2.415833333333334E+009;1.770622134208679E-001;-5.871887877583504E-002;-2.654287673067302E-004;-2.480927854776382E-003;
2.416000000000000E+009;1.770721673965454E-001;-5.917082726955414E-002;-4.262926813680679E-004;-2.392564667388797E-003;
2.416166666666667E+009;1.773741394281387E-001;-5.967161804437637E-002;-4.628645256161690E-004;-2.391226356849074E-003;
2.416333333333334E+009;1.771923452615738E-001;-5.998212099075317E-002;-5.148467607796192E-004;-2.415488474071026E-003;
2.416500000000000E+009;1.772537231445313E-001;-6.024438887834549E-002;-6.501227617263794E-004;-2.177283866330981E-003;
2.416666666666667E+009;1.769781857728958E-001;-6.047342717647553E-002;-7.465695380233228E-004;-2.306190319359303E-003;
2.416833333333334E+009;1.767026185989380E-001;-6.079529970884323E-002;-7.940994692035019E-004;-2.040322637185454E-003;
2.417000000000000E+009;1.761716902256012E-001;-6.108864396810532E-002;-9.141711634583771E-004;-2.142661716789007E-003;
2.417166666666667E+009;1.757969409227371E-001;-6.121016666293144E-002;-9.750694734975696E-004;-2.071124035865068E-003;
2.417333333333334E+009;1.752199381589890E-001;-6.142608821392059E-002;-9.400357375852764E-004;-2.003658097237349E-003;
2.417500000000000E+009;1.745220869779587E-001;-6.184864416718483E-002;-8.801564108580351E-004;-1.966504380106926E-003;
2.417666666666667E+009;1.739819943904877E-001;-6.191281974315643E-002;-9.261309169232845E-004;-1.972659723833203E-003;
2.417833333333334E+009;1.731590032577515E-001;-6.224013864994049E-002;-1.013365457765758E-003;-1.731741474941373E-003;
2.418000000000000E+009;1.721731573343277E-001;-6.274790316820145E-002;-1.044794917106628E-003;-1.872505759820342E-003;
2.418166666666667E+009;1.713552027940750E-001;-6.292234361171722E-002;-9.228055132552981E-004;-1.805625623092055E-003;
2.418333333333334E+009;1.705776602029800E-001;-6.342050433158875E-002;-9.784577414393425E-004;-1.778117613866925E-003;
2.418500000000000E+009;1.693353950977325E-001;-6.390094012022018E-002;-1.023452728986740E-003;-1.749697374179959E-003;
2.418666666666667E+009;1.683843731880188E-001;-6.442648172378540E-002;-1.053042476996779E-003;-1.765624037943780E-003;
2.418833333333334E+009;1.670524626970291E-001;-6.502852588891983E-002;-1.016393187455833E-003;-1.694232341833413E-003;
2.419000000000000E+009;1.659784913063049E-001;-6.555815041065216E-002;-1.175750512629747E-003;-1.806158106774092E-003;
2.419166666666667E+009;1.648115515708923E-001;-6.632999330759049E-002;-1.176268211565912E-003;-1.823610509745777E-003;
2.419333333333334E+009;1.634770929813385E-001;-6.701619923114777E-002;-1.177945989184082E-003;-1.750198425725102E-003;
2.419500000000000E+009;1.623860001564026E-001;-6.790915131568909E-002;-1.114679151214659E-003;-1.743281260132790E-003;
2.419666666666667E+009;1.612665951251984E-001;-6.891282647848129E-002;-1.161008374765515E-003;-1.568608917295933E-003;
2.419833333333334E+009;1.600094437599182E-001;-6.969740241765976E-002;-1.247905544005334E-003;-1.623636111617088E-003;
2.420000000000000E+009;1.589932441711426E-001;-7.089116424322128E-002;-1.151432748883963E-003;-1.769908936694264E-003;
2.420166666666667E+009;1.579778343439102E-001;-7.192161679267883E-002;-1.168833812698722E-003;-1.673376420512795E-003;
2.420333333333334E+009;1.569487005472183E-001;-7.316599786281586E-002;-1.285939128138125E-003;-1.793163595721126E-003;
2.420500000000000E+009;1.559409797191620E-001;-7.435756921768189E-002;-1.454994431696832E-003;-1.754120574332774E-003;
2.420666666666667E+009;1.549296826124191E-001;-7.564829289913178E-002;-1.492774346843362E-003;-1.748287701047957E-003;
2.420833333333334E+009;1.541124731302261E-001;-7.712322473526001E-002;-1.475714379921556E-003;-1.919826143421233E-003;
2.421000000000000E+009;1.531737744808197E-001;-7.846339046955109E-002;-1.516485586762428E-003;-1.676884479820728E-003;
2.421166666666667E+009;1.526567935943604E-001;-8.001815527677536E-002;-1.807144843041897E-003;-1.629008096642792E-003;
2.421333333333334E+009;1.519680768251419E-001;-8.161683380603790E-002;-1.705695525743067E-003;-1.704845577478409E-003;
2.421500000000000E+009;1.513838469982147E-001;-8.314897119998932E-002;-1.710007782094181E-003;-1.724783331155777E-003;
2.421666666666667E+009;1.506598889827728E-001;-8.476451784372330E-002;-2.057420089840889E-003;-1.715943333692849E-003;
2.421833333333334E+009;1.504962146282196E-001;-8.634451776742935E-002;-1.972260652109981E-003;-1.659538364037871E-003;
2.422000000000000E+009;1.499454081058502E-001;-8.813402801752091E-002;-2.160744043067098E-003;-1.633330713957548E-003;
2.422166666666667E+009;1.499160677194595E-001;-8.988077938556671E-002;-2.167353872209787E-003;-1.591461244970560E-003;
2.422333333333334E+009;1.496445983648300E-001;-9.140612930059433E-002;-2.454058965668082E-003;-1.527994289062917E-003;
2.422500000000000E+009;1.494648158550263E-001;-9.299615025520325E-002;-2.524395473301411E-003;-1.455269521102309E-003;
2.422666666666667E+009;1.494000107049942E-001;-9.488576650619507E-002;-2.625521039590240E-003;-1.282480312511325E-003;
2.422833333333334E+009;1.495929956436157E-001;-9.651537239551544E-002;-2.651125425472856E-003;-1.303066615946591E-003;
2.423000000000000E+009;1.497248709201813E-001;-9.812536835670471E-002;-2.821062458679080E-003;-1.055860659107566E-003;
2.423166666666667E+009;1.499713212251663E-001;-9.967617690563202E-002;-2.835908904671669E-003;-1.032267813570797E-003;
2.423333333333334E+009;1.502670347690582E-001;-1.012031510472298E-001;-2.979041077196598E-003;-8.723567007109523E-004;
2.423500000000000E+009;1.504820734262466E-001;-1.027950197458267E-001;-2.941099926829338E-003;-7.436386076733470E-004;
2.423666666666667E+009;1.506872028112412E-001;-1.043147146701813E-001;-3.048770129680634E-003;-5.891300388611853E-004;
2.423833333333334E+009;1.512061655521393E-001;-1.056671887636185E-001;-3.135571489110589E-003;-3.979265457019210E-004;
2.424000000000000E+009;1.516048610210419E-001;-1.068918555974960E-001;-2.966721542179585E-003;-1.267506449948996E-004;
2.424166666666667E+009;1.519284993410111E-001;-1.083498746156693E-001;-3.157473169267178E-003;-1.687374897301197E-004;
2.424333333333334E+009;1.524936854839325E-001;-1.094137951731682E-001;-3.265975974500179E-003;1.121229070122354E-005;
2.424500000000000E+009;1.530035436153412E-001;-1.107844635844231E-001;-3.147117793560028E-003;2.211082464782521E-004;
2.424666666666667E+009;1.535896062850952E-001;-1.115039959549904E-001;-3.205602755770087E-003;3.190142451785505E-004;
2.424833333333334E+009;1.537242829799652E-001;-1.125166416168213E-001;-3.153822151944041E-003;6.635931786149740E-004;
2.425000000000000E+009;1.542940288782120E-001;-1.135648116469383E-001;-2.920830389484763E-003;6.154846050776541E-004;
2.425166666666667E+009;1.544277518987656E-001;-1.143420264124870E-001;-2.982542151585221E-003;9.115554275922477E-004;
2.425333333333334E+009;1.549654155969620E-001;-1.150036305189133E-001;-2.912858966737986E-003;8.660542662255466E-004;
2.425500000000000E+009;1.553840488195419E-001;-1.157893761992455E-001;-2.816087566316128E-003;1.174240489490330E-003;
2.425666666666667E+009;1.555225998163223E-001;-1.163347065448761E-001;-2.707303967326880E-003;1.214596326462925E-003;
2.425833333333334E+009;1.556175798177719E-001;-1.169225051999092E-001;-2.698407275602222E-003;1.440791063942015E-003;
2.426000000000000E+009;1.558506637811661E-001;-1.173757016658783E-001;-2.604029141366482E-003;1.341265044175088E-003;
2.426166666666667E+009;1.561579406261444E-001;-1.177499517798424E-001;-2.489924198016524E-003;1.472229952923954E-003;
2.426333333333334E+009;1.560589671134949E-001;-1.180844977498055E-001;-2.325880341231823E-003;1.515114679932594E-003;
2.426500000000000E+009;1.560998708009720E-001;-1.182626858353615E-001;-2.260406268760562E-003;1.715910620987415E-003;
2.426666666666667E+009;1.559430062770844E-001;-1.183717250823975E-001;-2.147600287571549E-003;1.841298653744161E-003;
2.426833333333334E+009;1.556759625673294E-001;-1.186382248997688E-001;-2.099673030897975E-003;1.805295352824032E-003;
2.427000000000000E+009;1.552931964397430E-001;-1.188672333955765E-001;-2.017153194174171E-003;1.783908344805241E-003;
2.427166666666667E+009;1.549431234598160E-001;-1.188396885991097E-001;-1.919404603540897E-003;1.864159596152604E-003;
2.427333333333334E+009;1.544329822063446E-001;-1.189567968249321E-001;-1.946081523783505E-003;1.929219462908804E-003;
2.427500000000000E+009;1.540501266717911E-001;-1.190671771764755E-001;-1.829694956541061E-003;1.967958640307188E-003;
2.427666666666667E+009;1.533139944076538E-001;-1.193132773041725E-001;-1.590255531482399E-003;1.933501218445599E-003;
