# Version 1.00
#
freq[Hz];re:Trc1_S11;im:Trc1_S11;re:Trc2_S21;im:Trc2_S21;
2.400000000000000E+009;1.579919755458832E-001;6.180679053068161E-002;1.598938135430217E-003;1.065580523572862E-003;
2.400166666666667E+009;1.580148935317993E-001;6.014640629291534E-002;1.699150074273348E-003;8.945873123593628E-004;
2.400333333333334E+009;1.578629761934280E-001;5.825871974229813E-002;1.768811489455402E-003;8.816658519208431E-004;
2.400500000000000E+009;1.579142957925797E-001;5.639418959617615E-002;1.599496812559664E-003;6.224947283044457E-004;
2.400666666666667E+009;1.580016762018204E-001;5.463618785142899E-002;1.630188315175474E-003;7.246537716127932E-004;
2.400833333333334E+009;1.580097079277039E-001;5.264303833246231E-002;1.708905794657767E-003;4.121737438254058E-004;
2.401000000000000E+009;1.580235660076141E-001;5.056685954332352E-002;1.655058469623327E-003;4.050341085530818E-004;
2.401166666666667E+009;1.582643091678619E-001;4.851185530424118E-002;1.681709778495133E-003;3.626677498687059E-004;
2.401333333333334E+009;1.584397703409195E-001;4.639365524053574E-002;1.665480784140527E-003;2.371144655626267E-004;
2.401500000000000E+009;1.588132083415985E-001;4.427248612046242E-002;1.562601421028376E-003;1.676118554314598E-004;
2.401666666666667E+009;1.591704785823822E-001;4.252717271447182E-002;1.677914871834219E-003;2.732129069045186E-004;
2.401833333333334E+009;1.595005840063095E-001;4.041856899857521E-002;1.564200501888990E-003;-2.058549216599204E-005;
2.402000000000000E+009;1.599711328744888E-001;3.852036222815514E-002;1.601129188202322E-003;-8.687897206982598E-005;
2.402166666666667E+009;1.603759527206421E-001;3.650252148509026E-002;1.439380343072116E-003;-1.150822354247794E-004;
2.402333333333334E+009;1.610437780618668E-001;3.474966064095497E-002;1.290058135055006E-003;5.498977043316700E-005;
2.402500000000000E+009;1.618936061859131E-001;3.302735835313797E-002;1.372546888887882E-003;5.325572146830382E-006;
2.402666666666667E+009;1.624966263771057E-001;3.114650025963783E-002;1.305791083723307E-003;-1.398356980644167E-004;
2.402833333333334E+009;1.631412506103516E-001;2.958291023969650E-002;1.207362161949277E-003;-2.516418462619185E-004;
2.403000000000000E+009;1.640842109918594E-001;2.802454866468906E-002;1.044922391884029E-003;-1.396153093082830E-004;
2.403166666666667E+009;1.648519933223724E-001;2.637484669685364E-002;1.053787069395185E-003;-3.262359241489321E-004;
2.403333333333334E+009;1.657642275094986E-001;2.504744008183479E-002;9.775458602234721E-004;-3.600343479774892E-004;
2.403500000000000E+009;1.666059643030167E-001;2.364678122103214E-002;9.276872733607888E-004;-1.879990886664018E-004;
2.403666666666667E+009;1.677020937204361E-001;2.202867716550827E-002;9.311167523264885E-004;-2.265266230097041E-004;
2.403833333333334E+009;1.684742420911789E-001;2.106093429028988E-002;7.520383805967867E-004;-1.554237533127889E-004;
2.404000000000000E+009;1.695403307676315E-001;1.985556632280350E-002;6.128349923528731E-004;-3.084685886278749E-004;
2.404166666666667E+009;1.704492419958115E-001;1.867503114044666E-002;8.908206946216524E-004;-2.843672118615359E-004;
2.404333333333334E+009;1.713027209043503E-001;1.773757673799992E-002;6.089048110879958E-004;3.493197436910123E-005;
2.404500000000000E+009;1.722231954336166E-001;1.652595400810242E-002;6.315580685622990E-004;-1.540706434752792E-004;
2.404666666666667E+009;1.731666326522827E-001;1.584395207464695E-002;5.733411526307464E-004;-1.164664536190685E-005;
2.404833333333334E+009;1.738803684711456E-001;1.507910434156656E-002;5.330916028469801E-004;5.606138438452035E-005;
2.405000000000000E+009;1.749625653028488E-001;1.422859635204077E-002;6.755862268619239E-004;1.929686259245500E-004;
2.405166666666667E+009;1.756565719842911E-001;1.373378187417984E-002;6.119164172559977E-004;5.026906364946626E-005;
2.405333333333334E+009;1.764173954725266E-001;1.301389373838902E-002;5.364178214222193E-004;2.796867629513145E-004;
2.405500000000000E+009;1.772082000970841E-001;1.247091498225927E-002;4.877817700617015E-004;1.541047822684050E-004;
2.405666666666667E+009;1.779648512601852E-001;1.212934684008360E-002;4.744629550259560E-004;2.816033957060427E-004;
2.405833333333334E+009;1.782128810882568E-001;1.179078873246908E-002;5.910717300139368E-004;2.580159634817392E-004;
2.406000000000000E+009;1.787987798452377E-001;1.111395098268986E-002;6.718330550938845E-004;2.355976757826284E-004;
2.406166666666667E+009;1.792176961898804E-001;1.101111155003309E-002;6.435886025428772E-004;3.933276748284698E-004;
2.406333333333334E+009;1.797213107347488E-001;1.058815605938435E-002;6.997082382440567E-004;3.554120485205203E-004;
2.406500000000000E+009;1.800313293933868E-001;1.027815043926239E-002;7.132508908398449E-004;3.424663445912302E-004;
2.406666666666667E+009;1.799458563327789E-001;1.002279389649630E-002;8.534973603673279E-004;6.695385673083365E-004;
2.406833333333334E+009;1.802773326635361E-001;9.516611695289612E-003;8.098831167444587E-004;5.412022001110017E-004;
2.407000000000000E+009;1.804266870021820E-001;9.181822650134563E-003;9.957527508959174E-004;6.379862315952778E-004;
2.407166666666667E+009;1.805340349674225E-001;8.987328037619591E-003;9.554278803989291E-004;5.011027096770704E-004;
2.407333333333334E+009;1.802544295787811E-001;8.363705128431320E-003;9.032752714119852E-004;4.963491228409112E-004;
2.407500000000000E+009;1.801137626171112E-001;7.993998005986214E-003;1.083889976143837E-003;6.238622590899468E-004;
2.407666666666667E+009;1.798441708087921E-001;7.539242040365934E-003;1.102874171920121E-003;6.285338313318789E-004;
2.407833333333334E+009;1.794791668653488E-001;6.816885899752379E-003;1.274051493965089E-003;5.689804675057530E-004;
2.408000000000000E+009;1.790607571601868E-001;6.105643697082996E-003;1.325300196185708E-003;5.502535495907068E-004;
2.408166666666667E+009;1.787091791629791E-001;5.667102057486773E-003;1.451606745831668E-003;6.473548710346222E-004;
2.408333333333334E+009;1.784020811319351E-001;4.809608217328787E-003;1.420011511072516E-003;5.094120278954506E-004;
2.408500000000000E+009;1.777864545583725E-001;4.035276360809803E-003;1.543466583825648E-003;5.593266105279326E-004;
2.408666666666667E+009;1.770984232425690E-001;3.128346288576722E-003;1.661784364841878E-003;4.464378289412707E-004;
2.408833333333334E+009;1.764990389347076E-001;2.018746919929981E-003;1.766414497978985E-003;4.677583056036383E-004;
2.409000000000000E+009;1.758179366588593E-001;1.084106857888401E-003;1.799424062483013E-003;2.498996327631176E-004;
2.409166666666667E+009;1.752193272113800E-001;-1.927840821736027E-005;1.989348325878382E-003;1.665816089371219E-004;
2.409333333333334E+009;1.747450977563858E-001;-1.379664638079703E-003;2.024051500484347E-003;2.992383961100131E-004;
2.409500000000000E+009;1.738969981670380E-001;-2.845894079655409E-003;1.962708774954081E-003;1.107309799408540E-004;
2.409666666666667E+009;1.732759773731232E-001;-3.999520093202591E-003;2.200130140408874E-003;1.634256295801606E-005;
2.409833333333334E+009;1.726354509592056E-001;-5.507354158908129E-003;2.071588532999158E-003;-1.181176703539677E-004;
2.410000000000000E+009;1.721753776073456E-001;-7.036755792796612E-003;2.186871133744717E-003;-6.189459236338735E-005;
2.410166666666667E+009;1.713657230138779E-001;-8.669901639223099E-003;2.067029941827059E-003;-1.345423806924373E-004;
2.410333333333334E+009;1.707438826560974E-001;-1.044008415192366E-002;2.346240682527423E-003;-3.964612260460854E-004;
2.410500000000000E+009;1.703372448682785E-001;-1.196595095098019E-002;2.265577204525471E-003;-5.316648748703301E-004;
2.410666666666667E+009;1.696811914443970E-001;-1.382823940366507E-002;2.117685740813613E-003;-6.538450252264738E-004;
2.410833333333334E+009;1.694949716329575E-001;-1.552196592092514E-002;2.446159487590194E-003;-8.462614496238530E-004;
2.411000000000000E+009;1.690783798694611E-001;-1.740648038685322E-002;2.275538397952914E-003;-9.162874775938690E-004;
2.411166666666667E+009;1.687391102313995E-001;-1.922486536204815E-002;2.450834261253476E-003;-1.002238946966827E-003;
2.411333333333334E+009;1.684738397598267E-001;-2.120045386254787E-002;2.235334366559982E-003;-1.035329769365490E-003;
2.411500000000000E+009;1.683873236179352E-001;-2.315550856292248E-002;2.299425657838583E-003;-1.180222141556442E-003;
2.411666666666667E+009;1.682577133178711E-001;-2.515705116093159E-002;2.378073288127780E-003;-1.460909610614181E-003;
2.411833333333334E+009;1.682000011205673E-001;-2.685872092843056E-002;2.302319277077913E-003;-1.366735203191638E-003;
2.412000000000000E+009;1.681561470031738E-001;-2.893741056323052E-002;2.153667621314526E-003;-1.596538932062686E-003;
2.412166666666667E+009;1.682474464178085E-001;-3.083100914955139E-002;2.049801172688603E-003;-1.658622524701059E-003;
2.412333333333334E+009;1.686666309833527E-001;-3.273497149348259E-002;2.010266063734889E-003;-1.924772514030337E-003;
2.412500000000000E+009;1.686384677886963E-001;-3.449626266956329E-002;1.928011421114206E-003;-1.928930520080030E-003;
2.412666666666667E+009;1.689446121454239E-001;-3.661100938916206E-002;1.699015614576638E-003;-1.913694199174643E-003;
2.412833333333334E+009;1.694357097148895E-001;-3.816583380103111E-002;1.851820270530880E-003;-2.163863973692060E-003;
2.413000000000000E+009;1.697526574134827E-001;-3.992998600006104E-002;1.607556012459099E-003;-2.226356416940689E-003;
2.413166666666667E+009;1.701274067163467E-001;-4.168349131941795E-002;1.583488774485886E-003;-2.252077683806419E-003;
2.413333333333334E+009;1.703931987285614E-001;-4.324636980891228E-002;1.508371671661735E-003;-2.425159094855189E-003;
2.413500000000000E+009;1.709627360105515E-001;-4.500210285186768E-002;1.262115780264139E-003;-2.414292423054576E-003;
2.413666666666667E+009;1.715547889471054E-001;-4.636812210083008E-002;1.135471975430846E-003;-2.489858539775014E-003;
2.413833333333334E+009;1.719693392515183E-001;-4.779811576008797E-002;9.992955019697547E-004;-2.436776878312230E-003;
2.414000000000000E+009;1.723172813653946E-001;-4.918905347585678E-002;9.757009102031589E-004;-2.571487799286842E-003;
2.414166666666667E+009;1.731201261281967E-001;-5.027509108185768E-002;7.972797029651702E-004;-2.397098345682025E-003;
2.414333333333334E+009;1.735338419675827E-001;-5.164269357919693E-002;6.918659200891852E-004;-2.490268554538488E-003;
2.414500000000000E+009;1.744118928909302E-001;-5.272170528769493E-002;4.574650956783444E-004;-2.564939670264721E-003;
2.414666666666667E+009;1.746386885643005E-001;-5.374789237976074E-002;4.027661634609103E-004;-2.634086413308978E-003;
2.414833333333334E+009;1.750357598066330E-001;-5.467100813984871E-002;5.294427974149585E-004;-2.662743907421827E-003;
2.415000000000000E+009;1.755170077085495E-001;-5.552168190479279E-002;3.704049740917981E-004;-2.538448665291071E-003;
2.415166666666667E+009;1.759903728961945E-001;-5.617756024003029E-002;2.018591912928969E-004;-2.680235309526324E-003;
2.415333333333334E+009;1.765702217817307E-001;-5.704575777053833E-002;7.514360186178237E-005;-2.699521137401462E-003;
2.415500000000000E+009;1.766306161880493E-001;-5.761888623237610E-002;-1.876254100352526E-004;-2.636781195178628E-003;
2.415666666666667E+009;1.769536286592484E-001;-5.806108191609383E-002;-3.239742363803089E-004;-2.625296590849757E-003;
2.415833333333334E+009;1.771960258483887E-001;-5.858998745679855E-002;-2.658322919160128E-004;-2.507169032469392E-003;
2.416000000000000E+009;1.770538389682770E-001;-5.910721048712730E-002;-3.071312094107270E-004;-2.493110951036215E-003;
2.416166666666667E+009;1.772989183664322E-001;-5.940029770135880E-002;-4.772525280714035E-004;-2.469618106260896E-003;
2.416333333333334E+009;1.772220581769943E-001;-5.972277745604515E-002;-4.978095530532301E-004;-2.462798729538918E-003;
2.416500000000000E+009;1.771284937858582E-001;-6.010586768388748E-002;-7.263344014063478E-004;-2.273704390972853E-003;
2.416666666666667E+009;1.769660413265228E-001;-6.041023507714272E-002;-7.796913268975914E-004;-2.298182342201471E-003;
2.416833333333334E+009;1.767211407423019E-001;-6.068731844425201E-002;-7.398635498248041E-004;-2.268674084916711E-003;
2.417000000000000E+009;1.760949045419693E-001;-6.090962141752243E-002;-7.467736722901464E-004;-2.325414447113872E-003;
2.417166666666667E+009;1.757606863975525E-001;-6.113737449049950E-002;-8.138408884406090E-004;-2.108324086293578E-003;
2.417333333333334E+009;1.753214299678803E-001;-6.129775196313858E-002;-8.419968653470278E-004;-2.233919221907854E-003;
2.417500000000000E+009;1.745227873325348E-001;-6.178776547312737E-002;-9.785327129065990E-004;-2.234453335404396E-003;
2.417666666666667E+009;1.739365905523300E-001;-6.192707270383835E-002;-8.957300451584160E-004;-2.109480788931251E-003;
2.417833333333334E+009;1.732164323329926E-001;-6.221121549606323E-002;-1.048204372636974E-003;-1.980751752853394E-003;
2.418000000000000E+009;1.723119169473648E-001;-6.269830465316773E-002;-9.565288200974464E-004;-1.904568169265986E-003;
2.418166666666667E+009;1.713087856769562E-001;-6.274706870317459E-002;-9.096447611227632E-004;-1.840121694840491E-003;
2.418333333333334E+009;1.704966276884079E-001;-6.340565532445908E-002;-1.073036459274590E-003;-1.924351090565324E-003;
2.418500000000000E+009;1.694924235343933E-001;-6.381142884492874E-002;-1.126121147535741E-003;-1.817968674004078E-003;
2.418666666666667E+009;1.684393286705017E-001;-6.436711549758911E-002;-1.033173059113324E-003;-1.881202915683389E-003;
2.418833333333334E+009;1.672454327344894E-001;-6.496771425008774E-002;-1.068041659891605E-003;-1.647145370952785E-003;
2.419000000000000E+009;1.660228818655014E-001;-6.549410521984100E-002;-1.107519725337625E-003;-1.840128679759800E-003;
2.419166666666667E+009;1.648490875959396E-001;-6.620173156261444E-002;-9.667397243902087E-004;-1.778714940883219E-003;
2.419333333333334E+009;1.635956466197968E-001;-6.682298332452774E-002;-1.232564682140946E-003;-1.776814693585038E-003;
2.419500000000000E+009;1.623553931713104E-001;-6.791465729475021E-002;-1.272493158467114E-003;-1.743325381539762E-003;
2.419666666666667E+009;1.614527553319931E-001;-6.879378855228424E-002;-1.302898977883160E-003;-1.861827215179801E-003;
2.419833333333334E+009;1.600963622331619E-001;-6.953883171081543E-002;-1.335109700448811E-003;-1.687664538621903E-003;
2.420000000000000E+009;1.590945720672607E-001;-7.074191421270371E-002;-1.345524680800736E-003;-1.876441878266633E-003;
2.420166666666667E+009;1.580544710159302E-001;-7.192299515008926E-002;-1.369986217468977E-003;-1.733937533572316E-003;
2.420333333333334E+009;1.569457054138184E-001;-7.308697700500488E-002;-1.480702310800552E-003;-1.731074997223914E-003;
2.420500000000000E+009;1.560092568397522E-001;-7.433437556028366E-002;-1.338364207185805E-003;-1.747281174175441E-003;
2.420666666666667E+009;1.550026088953018E-001;-7.571689784526825E-002;-1.538956421427429E-003;-1.900643808767200E-003;
2.420833333333334E+009;1.541491746902466E-001;-7.712516188621521E-002;-1.542307203635573E-003;-1.690617646090686E-003;
2.421000000000000E+009;1.532248854637146E-001;-7.843176275491715E-002;-1.857686904259026E-003;-1.802649931050837E-003;
2.421166666666667E+009;1.525998115539551E-001;-7.988664507865906E-002;-1.765139168128371E-003;-1.911644241772592E-003;
2.421333333333334E+009;1.520528942346573E-001;-8.156138658523560E-002;-1.887548132799566E-003;-1.839876640588045E-003;
2.421500000000000E+009;1.512142121791840E-001;-8.307342231273651E-002;-1.953862840309739E-003;-1.663267263211310E-003;
2.421666666666667E+009;1.507587283849716E-001;-8.487038314342499E-002;-2.126521198078990E-003;-1.759347738698125E-003;
2.421833333333334E+009;1.505158543586731E-001;-8.643036335706711E-002;-2.376183401793242E-003;-1.575630856677890E-003;
2.422000000000000E+009;1.499561220407486E-001;-8.813069760799408E-002;-2.336923498660326E-003;-1.607995247468352E-003;
2.422166666666667E+009;1.497302949428558E-001;-8.995033055543900E-002;-2.481102710589767E-003;-1.602942822501063E-003;
2.422333333333334E+009;1.496700048446655E-001;-9.146739542484283E-002;-2.395668532699347E-003;-1.486613531596959E-003;
2.422500000000000E+009;1.496704667806625E-001;-9.311814606189728E-002;-2.596469828858972E-003;-1.297888578847051E-003;
2.422666666666667E+009;1.495536416769028E-001;-9.486018866300583E-002;-2.655048854649067E-003;-1.209723413921893E-003;
2.422833333333334E+009;1.496903747320175E-001;-9.655720740556717E-002;-2.866098424419761E-003;-1.196212833747268E-003;
2.423000000000000E+009;1.496586352586746E-001;-9.816419333219528E-002;-2.858411986380816E-003;-9.900368750095367E-004;
2.423166666666667E+009;1.499395221471787E-001;-9.983313828706741E-002;-2.826744224876165E-003;-9.386811871081591E-004;
2.423333333333334E+009;1.502208858728409E-001;-1.011760309338570E-001;-2.922950545325875E-003;-8.717828313820064E-004;
2.423500000000000E+009;1.505900770425797E-001;-1.027692705392838E-001;-3.009532112628222E-003;-4.977742210030556E-004;
2.423666666666667E+009;1.506701111793518E-001;-1.044130548834801E-001;-3.129960503429174E-003;-5.855411291122437E-004;
2.423833333333334E+009;1.512338370084763E-001;-1.057421788573265E-001;-3.124561393633485E-003;-3.117419255431742E-004;
2.424000000000000E+009;1.516392678022385E-001;-1.070351824164391E-001;-3.133850637823343E-003;-1.815679715946317E-004;
2.424166666666667E+009;1.520561873912811E-001;-1.082533821463585E-001;-3.353761276230216E-003;5.195902122068219E-005;
2.424333333333334E+009;1.523725837469101E-001;-1.094505041837692E-001;-3.167977789416909E-003;1.821101468522102E-004;
2.424500000000000E+009;1.530254781246185E-001;-1.107613220810890E-001;-3.086446551606059E-003;2.429767773719505E-004;
2.424666666666667E+009;1.534949392080307E-001;-1.115584298968315E-001;-3.189836395904422E-003;5.783501546829939E-004;
2.424833333333334E+009;1.538301855325699E-001;-1.125783026218414E-001;-3.104096977040172E-003;5.317170289345086E-004;
2.425000000000000E+009;1.542660444974899E-001;-1.136083230376244E-001;-3.048091428354383E-003;7.724417373538017E-004;
2.425166666666667E+009;1.545118838548660E-001;-1.142967119812965E-001;-3.051432082429528E-003;1.011455082334578E-003;
2.425333333333334E+009;1.549917906522751E-001;-1.150029599666596E-001;-2.800594782456756E-003;1.073502120561898E-003;
2.425500000000000E+009;1.552564948797226E-001;-1.157796084880829E-001;-2.922530984506011E-003;1.104102469980717E-003;
2.425666666666667E+009;1.553957164287567E-001;-1.162942349910736E-001;-2.634408418089151E-003;1.478887163102627E-003;
2.425833333333334E+009;1.557323038578033E-001;-1.168697103857994E-001;-2.605143934488297E-003;1.497494755312800E-003;
2.426000000000000E+009;1.558981835842133E-001;-1.172658279538155E-001;-2.536171814426780E-003;1.508797751739621E-003;
2.426166666666667E+009;1.561152487993240E-001;-1.177319660782814E-001;-2.368607791140676E-003;1.636853907257319E-003;
2.426333333333334E+009;1.560917347669601E-001;-1.179891526699066E-001;-2.358181867748499E-003;1.724625704810023E-003;
2.426500000000000E+009;1.560476422309876E-001;-1.183090806007385E-001;-2.198434667661786E-003;1.710897660814226E-003;
2.426666666666667E+009;1.560856997966766E-001;-1.184073761105537E-001;-2.166270045563579E-003;1.874982030130923E-003;
2.426833333333334E+009;1.557051092386246E-001;-1.185699850320816E-001;-1.949791912920773E-003;1.985998125746846E-003;
2.427000000000000E+009;1.553758829832077E-001;-1.188117861747742E-001;-1.838378841057420E-003;1.988564617931843E-003;
2.427166666666667E+009;1.550349742174149E-001;-1.188077405095100E-001;-1.874524285085499E-003;1.935553271323443E-003;
2.427333333333334E+009;1.545570194721222E-001;-1.189602911472321E-001;-1.678906264714897E-003;1.904542441479862E-003;
2.427500000000000E+009;1.541023999452591E-001;-1.191498860716820E-001;-1.553952926769853E-003;2.011872129514813E-003;
2.427666666666667E+009;1.532677859067917E-001;-1.191417872905731E-001;-1.533146249130368E-003;1.920261885970831E-003;
