# Version 1.00
#
freq[Hz];re:Trc1_S11;im:Trc1_S11;re:Trc2_S21;im:Trc2_S21;
2.400000000000000E+009;1.580417454242706E-001;6.203337013721466E-002;1.426252652890980E-003;9.860568679869175E-004;
2.400166666666667E+009;1.580091118812561E-001;6.024079769849777E-002;1.424260903149843E-003;9.980166796594858E-004;
2.400333333333334E+009;1.578325480222702E-001;5.831567570567131E-002;1.578660332597792E-003;8.687198860570788E-004;
2.400500000000000E+009;1.579193621873856E-001;5.651959404349327E-002;1.553015434183180E-003;7.775040576234460E-004;
2.400666666666667E+009;1.578918844461441E-001;5.465584620833397E-002;1.683053676970303E-003;6.607727264054120E-004;
2.400833333333334E+009;1.579471230506897E-001;5.279110372066498E-002;1.449352363124490E-003;8.804569952189922E-004;
2.401000000000000E+009;1.581604182720184E-001;5.047354847192764E-002;1.633605570532382E-003;4.872777208220214E-004;
2.401166666666667E+009;1.581358760595322E-001;4.844091832637787E-002;1.540304278023541E-003;5.462653352878988E-004;
2.401333333333334E+009;1.585950106382370E-001;4.644224792718887E-002;1.551916473545134E-003;3.517268341965973E-004;
2.401500000000000E+009;1.589090079069138E-001;4.437465593218803E-002;1.536911120638251E-003;2.427376748528332E-004;
2.401666666666667E+009;1.592039167881012E-001;4.245039820671082E-002;1.633936073631048E-003;2.494103973731399E-004;
2.401833333333334E+009;1.595599204301834E-001;4.045005142688751E-002;1.427041599527001E-003;1.522768288850784E-004;
2.402000000000000E+009;1.598933786153793E-001;3.854557871818543E-002;1.441618544049561E-003;1.163937413366512E-004;
2.402166666666667E+009;1.604067683219910E-001;3.652257099747658E-002;1.326314290054143E-003;7.501035724999383E-005;
2.402333333333334E+009;1.609867811203003E-001;3.477270901203156E-002;1.472172094509006E-003;1.873257569968700E-004;
2.402500000000000E+009;1.618582755327225E-001;3.291093558073044E-002;1.261010649614036E-003;-5.069018880021758E-005;
2.402666666666667E+009;1.624266654253006E-001;3.138542175292969E-002;1.196133089251816E-003;7.654738146811724E-005;
2.402833333333334E+009;1.630075871944428E-001;2.952759899199009E-002;1.145357498899102E-003;-1.766758941812441E-004;
2.403000000000000E+009;1.640918254852295E-001;2.788419649004936E-002;1.069640740752220E-003;-1.720320724416524E-004;
2.403166666666667E+009;1.650612503290176E-001;2.625646628439426E-002;1.123460941016674E-003;-1.106873460230418E-004;
2.403333333333334E+009;1.656260639429092E-001;2.500523068010807E-002;9.391665807925165E-004;-3.189058043062687E-005;
2.403500000000000E+009;1.665808260440826E-001;2.347777411341667E-002;8.655287674628198E-004;-2.062072016997263E-004;
2.403666666666667E+009;1.675506830215454E-001;2.224033325910568E-002;9.129974641837180E-004;-9.417161345481873E-005;
2.403833333333334E+009;1.687567234039307E-001;2.080941200256348E-002;8.533766376785934E-004;-4.504652315517888E-005;
2.404000000000000E+009;1.694789230823517E-001;1.956662721931934E-002;7.065379759296775E-004;-3.440507862251252E-005;
2.404166666666667E+009;1.704958230257034E-001;1.861240155994892E-002;8.326437091454864E-004;-3.035855115740560E-005;
2.404333333333334E+009;1.713512539863586E-001;1.774109899997711E-002;6.842770380899310E-004;5.274240538710728E-005;
2.404500000000000E+009;1.722754240036011E-001;1.659185625612736E-002;7.275791722349823E-004;-4.154354610363953E-005;
2.404666666666667E+009;1.731816232204437E-001;1.580574177205563E-002;6.557611632160842E-004;1.371977414237335E-004;
2.404833333333334E+009;1.740302145481110E-001;1.512908563017845E-002;7.428742246702313E-004;9.798217070056126E-005;
2.405000000000000E+009;1.749600023031235E-001;1.437667571008205E-002;6.413451628759503E-004;2.000476524699479E-004;
2.405166666666667E+009;1.755871027708054E-001;1.369627751410008E-002;5.048058810643852E-004;1.345544296782464E-004;
2.405333333333334E+009;1.764934211969376E-001;1.284470595419407E-002;5.001346580684185E-004;2.395709598204121E-004;
2.405500000000000E+009;1.771932840347290E-001;1.241761539131403E-002;5.955299711786211E-004;2.345053362660110E-004;
2.405666666666667E+009;1.778688430786133E-001;1.204032637178898E-002;7.298127165995538E-004;4.490171268116683E-004;
2.405833333333334E+009;1.783104240894318E-001;1.167965959757567E-002;8.087350288406014E-004;4.041306965518743E-004;
2.406000000000000E+009;1.787596791982651E-001;1.115623768419027E-002;6.565269432030618E-004;3.556967130862176E-004;
2.406166666666667E+009;1.791830360889435E-001;1.102379150688648E-002;6.460921140387654E-004;5.593858659267426E-004;
2.406333333333334E+009;1.798089593648911E-001;1.056570000946522E-002;7.639382965862751E-004;5.107537726871669E-004;
2.406500000000000E+009;1.799541264772415E-001;1.021136716008186E-002;7.373840780928731E-004;5.103550502099097E-004;
2.406666666666667E+009;1.798982769250870E-001;9.918076917529106E-003;8.459673263132572E-004;6.399330450221896E-004;
2.406833333333334E+009;1.801735460758209E-001;9.568819776177406E-003;9.211632423102856E-004;5.821061204187572E-004;
2.407000000000000E+009;1.804060637950897E-001;9.189031086862087E-003;8.635815465822816E-004;8.282884955406189E-004;
2.407166666666667E+009;1.803465336561203E-001;8.933841250836849E-003;9.973802370950580E-004;6.855729152448475E-004;
2.407333333333334E+009;1.801785677671433E-001;8.381233550608158E-003;1.170055358670652E-003;5.248896777629852E-004;
2.407500000000000E+009;1.800347268581390E-001;8.027825504541397E-003;1.225103274919093E-003;7.829391397535801E-004;
2.407666666666667E+009;1.798066943883896E-001;7.461200933903456E-003;1.155835692770779E-003;6.376362871378660E-004;
2.407833333333334E+009;1.793290227651596E-001;6.862833630293608E-003;1.351423445157707E-003;7.695579552091658E-004;
2.408000000000000E+009;1.790241450071335E-001;6.231092382222414E-003;1.455022837035358E-003;5.181037122383714E-004;
2.408166666666667E+009;1.786773651838303E-001;5.633716937154532E-003;1.427430892363191E-003;6.800380069762468E-004;
2.408333333333334E+009;1.784099787473679E-001;4.891504999250174E-003;1.504001091234386E-003;5.953515646979213E-004;
2.408500000000000E+009;1.776945739984512E-001;3.968235105276108E-003;1.718559185974300E-003;6.919091683812439E-004;
2.408666666666667E+009;1.770733445882797E-001;2.947050612419844E-003;1.831893459893763E-003;4.142885445617139E-004;
2.408833333333334E+009;1.764951795339584E-001;2.083964180201292E-003;1.962814712896943E-003;4.582455148920417E-004;
2.409000000000000E+009;1.758585274219513E-001;1.036465517245233E-003;1.833539223298430E-003;3.490990784484893E-004;
2.409166666666667E+009;1.754447817802429E-001;-5.037009395891801E-005;1.968802185729146E-003;2.878334198612720E-004;
2.409333333333334E+009;1.746701896190643E-001;-1.366085489280522E-003;1.967717427760363E-003;1.838606985984370E-004;
2.409500000000000E+009;1.739112585783005E-001;-2.985472092404962E-003;2.097186865285039E-003;3.208271518815309E-004;
2.409666666666667E+009;1.732519567012787E-001;-4.043534398078919E-003;2.157817827537656E-003;3.313731867820025E-004;
2.409833333333334E+009;1.725783199071884E-001;-5.562661215662956E-003;2.266975119709969E-003;7.252362411236391E-005;
2.410000000000000E+009;1.718983203172684E-001;-6.984967738389969E-003;2.330847783014178E-003;-1.580550597282127E-004;
2.410166666666667E+009;1.714683026075363E-001;-8.565407246351242E-003;2.204514341428876E-003;-3.246328851673752E-004;
2.410333333333334E+009;1.707740277051926E-001;-1.017908006906509E-002;2.344763837754726E-003;-3.683932591229677E-004;
2.410500000000000E+009;1.703758537769318E-001;-1.200247649103403E-002;2.346476074308157E-003;-3.535807190928608E-004;
2.410666666666667E+009;1.698165535926819E-001;-1.388657558709383E-002;2.356473123654723E-003;-6.548968958668411E-004;
2.410833333333334E+009;1.693053245544434E-001;-1.544133666902781E-002;2.411019057035446E-003;-5.724498769268394E-004;
2.411000000000000E+009;1.689853370189667E-001;-1.731104403734207E-002;2.275266218930483E-003;-8.288011304102838E-004;
2.411166666666667E+009;1.687688827514648E-001;-1.909388042986393E-002;2.360965358093381E-003;-9.757861844263971E-004;
2.411333333333334E+009;1.684293150901794E-001;-2.098286524415016E-002;2.416719449684024E-003;-1.115564373321831E-003;
2.411500000000000E+009;1.683442890644074E-001;-2.323038317263126E-002;2.551924670115113E-003;-1.278490060940385E-003;
2.411666666666667E+009;1.683261692523956E-001;-2.511120401322842E-002;2.391002140939236E-003;-1.333380350843072E-003;
2.411833333333334E+009;1.681602746248245E-001;-2.682408690452576E-002;2.187274862080813E-003;-1.433363067917526E-003;
2.412000000000000E+009;1.684931516647339E-001;-2.897389419376850E-002;2.105247694998980E-003;-1.496751559898257E-003;
2.412166666666667E+009;1.681517809629440E-001;-3.076514229178429E-002;2.148965373635292E-003;-1.750086899846792E-003;
2.412333333333334E+009;1.685736626386643E-001;-3.265170007944107E-002;2.114916220307350E-003;-1.926488010212779E-003;
2.412500000000000E+009;1.686380505561829E-001;-3.445108234882355E-002;2.003707457333803E-003;-2.033242490142584E-003;
2.412666666666667E+009;1.690774410963059E-001;-3.660415485501289E-002;2.015334786847234E-003;-2.114323899149895E-003;
2.412833333333334E+009;1.694908887147903E-001;-3.827353194355965E-002;1.785774133168161E-003;-2.202325267717242E-003;
2.413000000000000E+009;1.695976257324219E-001;-3.993077576160431E-002;1.789862639270723E-003;-2.282813191413879E-003;
2.413166666666667E+009;1.701789349317551E-001;-4.155063629150391E-002;1.580131240189076E-003;-2.296436578035355E-003;
2.413333333333334E+009;1.705468446016312E-001;-4.331824928522110E-002;1.478676684200764E-003;-2.402578713372350E-003;
2.413500000000000E+009;1.711177229881287E-001;-4.480345547199249E-002;1.451761461794376E-003;-2.344359876587987E-003;
2.413666666666667E+009;1.717719733715057E-001;-4.635883495211601E-002;1.302974531427026E-003;-2.528985263779759E-003;
2.413833333333334E+009;1.719543784856796E-001;-4.781035333871841E-002;1.120851025916636E-003;-2.693554619327188E-003;
2.414000000000000E+009;1.724618971347809E-001;-4.921509698033333E-002;1.139990519732237E-003;-2.566302893683314E-003;
2.414166666666667E+009;1.731731742620468E-001;-5.012502893805504E-002;9.893318638205528E-004;-2.744298195466399E-003;
2.414333333333334E+009;1.737338155508041E-001;-5.165814608335495E-002;8.312930003739893E-004;-2.682306570932269E-003;
2.414500000000000E+009;1.743327230215073E-001;-5.272229388356209E-002;6.416797987185419E-004;-2.727075479924679E-003;
2.414666666666667E+009;1.746880859136581E-001;-5.363958701491356E-002;4.808523517567664E-004;-2.870698459446430E-003;
2.414833333333334E+009;1.752045154571533E-001;-5.466333776712418E-002;5.081720300950110E-004;-2.704386832192540E-003;
2.415000000000000E+009;1.756312400102615E-001;-5.562337860465050E-002;3.416254767216742E-004;-2.769172890111804E-003;
2.415166666666667E+009;1.759462654590607E-001;-5.623902007937431E-002;1.834800932556391E-004;-2.843708731234074E-003;
2.415333333333334E+009;1.764099448919296E-001;-5.705337971448898E-002;2.012356417253614E-004;-2.637383993715048E-003;
2.415500000000000E+009;1.767058968544006E-001;-5.763678997755051E-002;7.212489435914904E-006;-2.638643607497215E-003;
2.415666666666667E+009;1.770119071006775E-001;-5.803792178630829E-002;1.395766867062775E-005;-2.559810178354383E-003;
2.415833333333334E+009;1.771955490112305E-001;-5.867697671055794E-002;-9.691775630926713E-005;-2.577237552031875E-003;
2.416000000000000E+009;1.771773546934128E-001;-5.914387106895447E-002;-2.842593239620328E-004;-2.580165630206466E-003;
2.416166666666667E+009;1.775264143943787E-001;-5.940696224570274E-002;-2.639955491758883E-004;-2.445149701088667E-003;
2.416333333333334E+009;1.772845834493637E-001;-5.974107235670090E-002;-3.257151984144002E-004;-2.551307668909431E-003;
2.416500000000000E+009;1.772349923849106E-001;-6.001848354935646E-002;-4.284139140509069E-004;-2.546328818425536E-003;
2.416666666666667E+009;1.768597662448883E-001;-6.027856841683388E-002;-5.848559085279703E-004;-2.405175473541021E-003;
2.416833333333334E+009;1.767007857561112E-001;-6.073774397373200E-002;-6.618623738177121E-004;-2.455974929034710E-003;
2.417000000000000E+009;1.761648952960968E-001;-6.100141629576683E-002;-8.509940234944224E-004;-2.187642734497786E-003;
2.417166666666667E+009;1.759002357721329E-001;-6.104621663689613E-002;-7.755408296361566E-004;-2.231109421700239E-003;
2.417333333333334E+009;1.753481179475784E-001;-6.134175509214401E-002;-8.846909622661769E-004;-2.184008946642280E-003;
2.417500000000000E+009;1.746934801340103E-001;-6.186691671609879E-002;-8.942452841438353E-004;-2.326172078028321E-003;
2.417666666666667E+009;1.739706993103027E-001;-6.184467300772667E-002;-1.004597172141075E-003;-2.174478257074952E-003;
2.417833333333334E+009;1.731702536344528E-001;-6.220050528645515E-002;-9.494335972703993E-004;-2.088530221953988E-003;
2.418000000000000E+009;1.723036915063858E-001;-6.267965584993362E-002;-1.137153129093349E-003;-1.900667441077530E-003;
2.418166666666667E+009;1.713068783283234E-001;-6.287628412246704E-002;-9.821839630603790E-004;-2.023409353569150E-003;
2.418333333333334E+009;1.706434637308121E-001;-6.338297575712204E-002;-9.899865835905075E-004;-2.013459103181958E-003;
2.418500000000000E+009;1.694195121526718E-001;-6.386636197566986E-002;-9.800599655136466E-004;-1.874189241789281E-003;
2.418666666666667E+009;1.684491187334061E-001;-6.430425494909287E-002;-1.098214881494641E-003;-1.848361804150045E-003;
2.418833333333334E+009;1.671359837055206E-001;-6.486077606678009E-002;-1.083534560166299E-003;-1.854761037975550E-003;
2.419000000000000E+009;1.658507436513901E-001;-6.546590477228165E-002;-1.089709461666644E-003;-1.862189499661326E-003;
2.419166666666667E+009;1.649960130453110E-001;-6.625811010599136E-002;-1.243991544470191E-003;-1.911644474603236E-003;
2.419333333333334E+009;1.635966002941132E-001;-6.675449758768082E-002;-1.200965372845531E-003;-1.818002667278051E-003;
2.419500000000000E+009;1.624933183193207E-001;-6.782226264476776E-002;-1.134041813202202E-003;-1.807573251426220E-003;
2.419666666666667E+009;1.614284068346024E-001;-6.878717988729477E-002;-1.176511053927243E-003;-1.960476860404015E-003;
2.419833333333334E+009;1.602081954479218E-001;-6.961078941822052E-002;-1.320732990279794E-003;-1.898023765534163E-003;
2.420000000000000E+009;1.591257750988007E-001;-7.092079520225525E-002;-1.261113793589175E-003;-1.860790303908289E-003;
2.420166666666667E+009;1.578818112611771E-001;-7.205749303102493E-002;-1.443517277948558E-003;-1.795866992324591E-003;
2.420333333333334E+009;1.570981889963150E-001;-7.314532995223999E-002;-1.397556974552572E-003;-1.914263120852411E-003;
2.420500000000000E+009;1.560623794794083E-001;-7.435949891805649E-002;-1.537836389616132E-003;-1.975417602807283E-003;
2.420666666666667E+009;1.549995392560959E-001;-7.562943547964096E-002;-1.670599449425936E-003;-1.793055213056505E-003;
2.420833333333334E+009;1.542333513498306E-001;-7.700373977422714E-002;-1.644507865421474E-003;-1.834296388551593E-003;
2.421000000000000E+009;1.532524377107620E-001;-7.852324843406677E-002;-1.666590687818825E-003;-1.815992756746709E-003;
2.421166666666667E+009;1.526753455400467E-001;-7.997877895832062E-002;-1.855940441600978E-003;-1.758138183504343E-003;
2.421333333333334E+009;1.520108878612518E-001;-8.162726461887360E-002;-1.896067871712148E-003;-1.760059152729809E-003;
2.421500000000000E+009;1.513363122940064E-001;-8.312830328941345E-002;-2.115238225087524E-003;-1.863788347691298E-003;
2.421666666666667E+009;1.507926881313324E-001;-8.471773564815521E-002;-2.102820668369532E-003;-1.690002973191440E-003;
2.421833333333334E+009;1.503496617078781E-001;-8.647548407316208E-002;-2.151889260858297E-003;-1.837877207435668E-003;
2.422000000000000E+009;1.500996947288513E-001;-8.811619132757187E-002;-2.337104873731732E-003;-1.572923967614770E-003;
2.422166666666667E+009;1.496635377407074E-001;-8.983080834150314E-002;-2.359479898586869E-003;-1.810977235436440E-003;
2.422333333333334E+009;1.496471762657166E-001;-9.139355272054672E-002;-2.402106998488307E-003;-1.496142940595746E-003;
2.422500000000000E+009;1.494403034448624E-001;-9.308753162622452E-002;-2.605245215818286E-003;-1.477675396017730E-003;
2.422666666666667E+009;1.494427770376205E-001;-9.480834007263184E-002;-2.679488155990839E-003;-1.434493577107787E-003;
2.422833333333334E+009;1.495080292224884E-001;-9.652861952781677E-002;-2.798370085656643E-003;-1.274238922633231E-003;
2.423000000000000E+009;1.497159153223038E-001;-9.810579568147659E-002;-2.703056670725346E-003;-1.098074950277805E-003;
2.423166666666667E+009;1.500179618597031E-001;-9.975909441709518E-002;-3.053392516449094E-003;-9.930439991876483E-004;
2.423333333333334E+009;1.501532495021820E-001;-1.011715084314346E-001;-3.132251324132085E-003;-8.891915204003453E-004;
2.423500000000000E+009;1.505317389965057E-001;-1.027629524469376E-001;-3.102719085291028E-003;-6.405880558304489E-004;
2.423666666666667E+009;1.505953818559647E-001;-1.043943092226982E-001;-3.078324254602194E-003;-5.889161839149892E-004;
2.423833333333334E+009;1.512037366628647E-001;-1.057878360152245E-001;-3.231841605156660E-003;-3.833688679151237E-004;
2.424000000000000E+009;1.514306366443634E-001;-1.069449782371521E-001;-3.281452460214496E-003;-1.764938933774829E-004;
2.424166666666667E+009;1.519296318292618E-001;-1.082776263356209E-001;-3.268097992986441E-003;-1.742924359859899E-004;
2.424333333333334E+009;1.524021327495575E-001;-1.095152422785759E-001;-3.324435791000724E-003;1.365485077258200E-004;
2.424500000000000E+009;1.528399735689163E-001;-1.106033548712730E-001;-3.488916670903564E-003;2.281958004459739E-004;
2.424666666666667E+009;1.534853130578995E-001;-1.115988940000534E-001;-3.178543876856566E-003;4.969655419699848E-004;
2.424833333333334E+009;1.538045406341553E-001;-1.126181110739708E-001;-3.175511723384261E-003;5.964349256828427E-004;
2.425000000000000E+009;1.542404741048813E-001;-1.135608479380608E-001;-2.986483275890350E-003;6.612875731661916E-004;
2.425166666666667E+009;1.544734239578247E-001;-1.143587082624435E-001;-3.017340088263154E-003;8.446657448075712E-004;
2.425333333333334E+009;1.548780351877213E-001;-1.149047538638115E-001;-2.904259134083986E-003;1.111950608901680E-003;
2.425500000000000E+009;1.552505195140839E-001;-1.157220751047134E-001;-3.119993722066283E-003;1.121452311053872E-003;
2.425666666666667E+009;1.553830355405808E-001;-1.162690669298172E-001;-2.819653134793043E-003;1.397410756908357E-003;
2.425833333333334E+009;1.556701511144638E-001;-1.167074143886566E-001;-2.773285843431950E-003;1.473058131523430E-003;
2.426000000000000E+009;1.558136343955994E-001;-1.173370480537415E-001;-2.720175543799996E-003;1.664965995587409E-003;
2.426166666666667E+009;1.560198813676834E-001;-1.177393272519112E-001;-2.483129501342773E-003;1.605531550012529E-003;
2.426333333333334E+009;1.558566242456436E-001;-1.178945377469063E-001;-2.356676617637277E-003;1.747120404615998E-003;
2.426500000000000E+009;1.560524702072144E-001;-1.181471794843674E-001;-2.390800509601831E-003;1.859153271652758E-003;
2.426666666666667E+009;1.559448093175888E-001;-1.183073148131371E-001;-2.283761044964194E-003;1.820382545702159E-003;
2.426833333333334E+009;1.557663530111313E-001;-1.185128837823868E-001;-2.089745365083218E-003;1.804144936613739E-003;
2.427000000000000E+009;1.555123627185822E-001;-1.187322139739990E-001;-1.907693338580430E-003;1.911058789119124E-003;
2.427166666666667E+009;1.549574136734009E-001;-1.187220439314842E-001;-1.789076719433069E-003;1.932930201292038E-003;
2.427333333333334E+009;1.544504612684250E-001;-1.188971325755119E-001;-1.835542730987072E-003;2.018168335780501E-003;
2.427500000000000E+009;1.539999246597290E-001;-1.189824789762497E-001;-1.636579982005060E-003;2.140051219612360E-003;
2.427666666666667E+009;1.531735062599182E-001;-1.192689836025238E-001;-1.657501677982509E-003;2.109288936480880E-003;
