# Version 1.00
#
freq[Hz];re:Trc1_S11;im:Trc1_S11;re:Trc2_S21;im:Trc2_S21;
2.400000000000000E+009;1.562326550483704E-001;1.106669083237648E-001;1.693879486992955E-003;5.643135868012905E-003;
2.400166666666667E+009;1.556954383850098E-001;1.086424514651299E-001;1.977166393771768E-003;5.499305203557015E-003;
2.400333333333334E+009;1.553894430398941E-001;1.062978431582451E-001;2.303166082128882E-003;5.332849919795990E-003;
2.400500000000000E+009;1.549531668424606E-001;1.036174148321152E-001;2.712929621338844E-003;5.445390008389950E-003;
2.400666666666667E+009;1.547504216432571E-001;1.013415828347206E-001;2.887814771384001E-003;5.103506613522768E-003;
2.400833333333334E+009;1.543776094913483E-001;9.829467535018921E-002;2.918155863881111E-003;4.836241714656353E-003;
2.401000000000000E+009;1.541778594255447E-001;9.565862268209457E-002;3.234850941225886E-003;4.549146629869938E-003;
2.401166666666667E+009;1.541654318571091E-001;9.274482727050781E-002;3.428068011999130E-003;4.352029878646135E-003;
2.401333333333334E+009;1.542565077543259E-001;8.973942697048187E-002;3.627544967457652E-003;4.120129626244307E-003;
2.401500000000000E+009;1.544935107231140E-001;8.676803112030029E-002;3.612968837842345E-003;3.818436758592725E-003;
2.401666666666667E+009;1.546162813901901E-001;8.377986401319504E-002;3.686390584334731E-003;3.646778408437967E-003;
2.401833333333334E+009;1.547245234251022E-001;8.079569786787033E-002;3.726917784661055E-003;3.631250699982047E-003;
2.402000000000000E+009;1.554641723632813E-001;7.794224470853806E-002;3.918675705790520E-003;3.528653876855969E-003;
2.402166666666667E+009;1.558528691530228E-001;7.516928762197495E-002;4.032694268971682E-003;3.103774040937424E-003;
2.402333333333334E+009;1.570889502763748E-001;7.227107882499695E-002;4.052762873470783E-003;3.145071910694242E-003;
2.402500000000000E+009;1.578540951013565E-001;6.938177347183228E-002;4.156981129199266E-003;2.937071025371552E-003;
2.402666666666667E+009;1.590562760829926E-001;6.685991585254669E-002;4.245033487677574E-003;2.818407723680139E-003;
2.402833333333334E+009;1.601964980363846E-001;6.409271806478500E-002;4.289391450583935E-003;2.581487642601132E-003;
2.403000000000000E+009;1.615861654281616E-001;6.142231822013855E-002;4.472805652767420E-003;2.535845618695021E-003;
2.403166666666667E+009;1.630707979202271E-001;5.909908190369606E-002;4.581413231790066E-003;2.352212090045214E-003;
2.403333333333334E+009;1.647566556930542E-001;5.670030415058136E-002;4.827099386602640E-003;2.043775282800198E-003;
2.403500000000000E+009;1.664037406444550E-001;5.415431410074234E-002;4.974060691893101E-003;1.668806420639157E-003;
2.403666666666667E+009;1.681865453720093E-001;5.225178971886635E-002;4.844726528972387E-003;1.589655992574990E-003;
2.403833333333334E+009;1.698404103517532E-001;5.012942478060722E-002;4.948463756591082E-003;1.188050606288016E-003;
2.404000000000000E+009;1.714887619018555E-001;4.790622740983963E-002;4.753064829856157E-003;1.059300964698196E-003;
2.404166666666667E+009;1.733393967151642E-001;4.620970785617828E-002;4.901302512735128E-003;5.212482647038996E-004;
2.404333333333334E+009;1.752403378486633E-001;4.455510899424553E-002;4.751771688461304E-003;3.082829935010523E-004;
2.404500000000000E+009;1.769109070301056E-001;4.289890825748444E-002;4.621935077011585E-003;2.020844258368015E-004;
2.404666666666667E+009;1.789401322603226E-001;4.168922081589699E-002;4.611553624272347E-003;-5.510331175173633E-005;
2.404833333333334E+009;1.806397140026093E-001;4.040670767426491E-002;4.511073697358370E-003;-1.961746165761724E-004;
2.405000000000000E+009;1.821657568216324E-001;3.956479951739311E-002;4.477400332689285E-003;-5.254094721749425E-004;
2.405166666666667E+009;1.840353012084961E-001;3.876345232129097E-002;4.348986782133579E-003;-7.605123682878912E-004;
2.405333333333334E+009;1.855536401271820E-001;3.822461515665054E-002;4.223820753395557E-003;-7.707045879215002E-004;
2.405500000000000E+009;1.872367113828659E-001;3.772442787885666E-002;4.081841558218002E-003;-8.191350498236716E-004;
2.405666666666667E+009;1.887290179729462E-001;3.728924691677094E-002;3.797943005338311E-003;-9.887220803648233E-004;
2.405833333333334E+009;1.901583075523377E-001;3.700250759720802E-002;3.781771287322044E-003;-1.002175267785788E-003;
2.406000000000000E+009;1.914319396018982E-001;3.678972646594048E-002;3.568039275705814E-003;-1.350934733636677E-003;
2.406166666666667E+009;1.926805377006531E-001;3.684986010193825E-002;3.330947831273079E-003;-1.307344413362443E-003;
2.406333333333334E+009;1.937932223081589E-001;3.693275153636932E-002;3.377514425665140E-003;-1.362170907668769E-003;
2.406500000000000E+009;1.949221938848496E-001;3.718163073062897E-002;3.354478161782026E-003;-1.342769246548414E-003;
2.406666666666667E+009;1.957925707101822E-001;3.735489025712013E-002;3.101467853412032E-003;-1.546083600260317E-003;
2.406833333333334E+009;1.964247822761536E-001;3.755681589245796E-002;2.892781980335712E-003;-1.495353062637150E-003;
2.407000000000000E+009;1.969622075557709E-001;3.783120959997177E-002;2.786558819934726E-003;-1.554234186187387E-003;
2.407166666666667E+009;1.975809633731842E-001;3.797125071287155E-002;2.715123351663351E-003;-1.557534094899893E-003;
2.407333333333334E+009;1.977186203002930E-001;3.838523849844933E-002;2.548740012571216E-003;-1.476157223805785E-003;
2.407500000000000E+009;1.978287845849991E-001;3.880436718463898E-002;2.412551548331976E-003;-1.334562664851546E-003;
2.407666666666667E+009;1.980197429656982E-001;3.900351002812386E-002;2.335745608434081E-003;-1.404556329362094E-003;
2.407833333333334E+009;1.975684762001038E-001;3.928805887699127E-002;2.359475241973996E-003;-1.318723079748452E-003;
2.408000000000000E+009;1.976781487464905E-001;3.937483206391335E-002;2.318518236279488E-003;-1.214378280565143E-003;
2.408166666666667E+009;1.971144527196884E-001;3.951360657811165E-002;2.331726020202041E-003;-1.175475539639592E-003;
2.408333333333334E+009;1.966914981603622E-001;3.926894813776016E-002;2.270167693495750E-003;-1.163405249826610E-003;
2.408500000000000E+009;1.961212754249573E-001;3.945161402225494E-002;2.145610051229596E-003;-1.119387801736593E-003;
2.408666666666667E+009;1.955202668905258E-001;3.920608013868332E-002;2.358163706958294E-003;-1.019154326058924E-003;
2.408833333333334E+009;1.948435753583908E-001;3.875116258859634E-002;2.263527363538742E-003;-8.535221568308771E-004;
2.409000000000000E+009;1.937111914157867E-001;3.835447877645493E-002;2.360512269660831E-003;-1.046558609232307E-003;
2.409166666666667E+009;1.927609145641327E-001;3.759214654564858E-002;2.497279783710837E-003;-9.704194962978363E-004;
2.409333333333334E+009;1.917834579944611E-001;3.702253848314285E-002;2.563273999840021E-003;-9.245535475201905E-004;
2.409500000000000E+009;1.905239522457123E-001;3.603683039546013E-002;2.622728468850255E-003;-8.841623784974217E-004;
2.409666666666667E+009;1.892665773630142E-001;3.490274772047997E-002;2.645300934091210E-003;-9.911969536915422E-004;
2.409833333333334E+009;1.881211698055267E-001;3.379121050238609E-002;2.917892066761851E-003;-9.855735115706921E-004;
2.410000000000000E+009;1.869980841875076E-001;3.234375268220902E-002;2.853801008313894E-003;-9.990626713261008E-004;
2.410166666666667E+009;1.857258081436157E-001;3.079050779342651E-002;2.810359699651599E-003;-1.107437652535737E-003;
2.410333333333334E+009;1.845394074916840E-001;2.924766205251217E-002;3.022897988557816E-003;-1.256491988897324E-003;
2.410500000000000E+009;1.834862977266312E-001;2.732630446553230E-002;3.200348699465394E-003;-1.411170000210404E-003;
2.410666666666667E+009;1.823270320892334E-001;2.513447962701321E-002;3.069897182285786E-003;-1.458177925087512E-003;
2.410833333333334E+009;1.813266575336456E-001;2.315615303814411E-002;3.028783248737454E-003;-1.577779767103493E-003;
2.411000000000000E+009;1.804527193307877E-001;2.114925719797611E-002;3.010415704920888E-003;-1.654114574193955E-003;
2.411166666666667E+009;1.796694695949554E-001;1.877992972731590E-002;3.033434040844441E-003;-1.901284209452570E-003;
2.411333333333334E+009;1.789582222700119E-001;1.631781645119190E-002;3.069744212552905E-003;-1.937574590556324E-003;
2.411500000000000E+009;1.781725287437439E-001;1.390741858631373E-002;2.912874100729823E-003;-2.175252418965101E-003;
2.411666666666667E+009;1.777686625719070E-001;1.157045736908913E-002;3.011934459209442E-003;-2.007601317018271E-003;
2.411833333333334E+009;1.773835718631744E-001;9.050400927662849E-003;3.054490778595209E-003;-2.185638295486569E-003;
2.412000000000000E+009;1.772504150867462E-001;6.319732405245304E-003;3.049568273127079E-003;-2.349325921386480E-003;
2.412166666666667E+009;1.771083772182465E-001;3.921417053788900E-003;2.982814563438296E-003;-2.473818371072412E-003;
2.412333333333334E+009;1.770749688148499E-001;1.367641962133348E-003;3.019860479980707E-003;-2.507074270397425E-003;
2.412500000000000E+009;1.775497049093247E-001;-1.316474867053330E-003;2.854993799701333E-003;-2.798612462356687E-003;
2.412666666666667E+009;1.777899712324143E-001;-3.900829469785094E-003;3.028185805305839E-003;-2.905055647715926E-003;
2.412833333333334E+009;1.786436885595322E-001;-6.573496386408806E-003;2.947014989331365E-003;-3.006361657753587E-003;
2.413000000000000E+009;1.791134923696518E-001;-9.204206988215447E-003;3.132223850116134E-003;-3.130870405584574E-003;
2.413166666666667E+009;1.799895167350769E-001;-1.175403408706188E-002;3.151169279590249E-003;-3.455187194049358E-003;
2.413333333333334E+009;1.809335350990295E-001;-1.424251869320869E-002;2.935878466814756E-003;-3.584056394174695E-003;
2.413500000000000E+009;1.818057000637054E-001;-1.673283055424690E-002;2.970737870782614E-003;-3.824557410553098E-003;
2.413666666666667E+009;1.830789148807526E-001;-1.924590580165386E-002;2.872782060876489E-003;-4.084850661456585E-003;
2.413833333333334E+009;1.841501295566559E-001;-2.152394317090511E-002;2.754957880824804E-003;-4.301983863115311E-003;
2.414000000000000E+009;1.853287369012833E-001;-2.365494705736637E-002;2.550260629504919E-003;-4.517416004091501E-003;
2.414166666666667E+009;1.867288202047348E-001;-2.591339685022831E-002;2.276562154293060E-003;-4.660966806113720E-003;
2.414333333333334E+009;1.879567950963974E-001;-2.804664522409439E-002;2.120445948094130E-003;-4.891858436167240E-003;
2.414500000000000E+009;1.893030852079392E-001;-2.973176725208759E-002;1.922445371747017E-003;-5.048706196248531E-003;
2.414666666666667E+009;1.907225996255875E-001;-3.132100403308868E-002;1.618514885194600E-003;-5.304827354848385E-003;
2.414833333333334E+009;1.920968890190125E-001;-3.315012902021408E-002;1.348311197943986E-003;-5.483465269207954E-003;
2.415000000000000E+009;1.933626681566238E-001;-3.457743301987648E-002;1.243795850314200E-003;-5.632912274450064E-003;
2.415166666666667E+009;1.948467046022415E-001;-3.587380424141884E-002;8.855252526700497E-004;-5.819004960358143E-003;
2.415333333333334E+009;1.961784958839417E-001;-3.694253414869309E-002;6.476182024925947E-004;-5.790073424577713E-003;
2.415500000000000E+009;1.975110769271851E-001;-3.784932196140289E-002;2.520628331694752E-004;-5.835790187120438E-003;
2.415666666666667E+009;1.988841891288757E-001;-3.882795572280884E-002;4.093547249794938E-005;-5.923264659941196E-003;
2.415833333333334E+009;2.001787424087524E-001;-3.964500129222870E-002;-2.850716700777412E-004;-5.852642003446817E-003;
2.416000000000000E+009;2.011348903179169E-001;-4.038169234991074E-002;-6.679718499071896E-004;-5.729672033339739E-003;
2.416166666666667E+009;2.020137459039688E-001;-4.096182808279991E-002;-1.032068044878542E-003;-5.909420549869537E-003;
2.416333333333334E+009;2.030898928642273E-001;-4.112743586301804E-002;-1.421615597791970E-003;-5.974105093628168E-003;
2.416500000000000E+009;2.038267254829407E-001;-4.147092625498772E-002;-1.427072333171964E-003;-5.817603319883347E-003;
2.416666666666667E+009;2.043970972299576E-001;-4.183780401945114E-002;-1.884854980744422E-003;-5.529531743377447E-003;
2.416833333333334E+009;2.047664076089859E-001;-4.184482619166374E-002;-2.254088642075658E-003;-5.591605789959431E-003;
2.417000000000000E+009;2.051885128021240E-001;-4.185421392321587E-002;-2.406789688393474E-003;-5.347421392798424E-003;
2.417166666666667E+009;2.051698267459869E-001;-4.178726673126221E-002;-2.580688567832112E-003;-5.260806996375322E-003;
2.417333333333334E+009;2.051065117120743E-001;-4.147144779562950E-002;-2.773099346086383E-003;-4.957778379321098E-003;
2.417500000000000E+009;2.051075100898743E-001;-4.136235639452934E-002;-3.141321009024978E-003;-4.843993112444878E-003;
2.417666666666667E+009;2.047879844903946E-001;-4.090542346239090E-002;-3.187745809555054E-003;-4.913248121738434E-003;
2.417833333333334E+009;2.046505063772202E-001;-4.059420898556709E-002;-3.359429538249970E-003;-4.559797234833241E-003;
2.418000000000000E+009;2.042394578456879E-001;-4.012315347790718E-002;-3.631528932601214E-003;-4.365766420960426E-003;
2.418166666666667E+009;2.035008519887924E-001;-3.989762440323830E-002;-3.686300246044993E-003;-4.142556339502335E-003;
2.418333333333334E+009;2.027230411767960E-001;-3.955185040831566E-002;-3.736388403922319E-003;-3.856368828564882E-003;
2.418500000000000E+009;2.019097805023193E-001;-3.919675946235657E-002;-3.866344224661589E-003;-3.769418923184276E-003;
2.418666666666667E+009;2.011624723672867E-001;-3.901571035385132E-002;-4.087617620825768E-003;-3.520574420690537E-003;
2.418833333333334E+009;1.999776363372803E-001;-3.897453472018242E-002;-4.074135795235634E-003;-3.342128591611981E-003;
2.419000000000000E+009;1.987064778804779E-001;-3.890248388051987E-002;-4.238099791109562E-003;-3.118541324511170E-003;
2.419166666666667E+009;1.974063068628311E-001;-3.896185383200645E-002;-4.238759633153677E-003;-3.049674443900585E-003;
2.419333333333334E+009;1.960562169551849E-001;-3.928029164671898E-002;-4.326084628701210E-003;-2.875478705391288E-003;
2.419500000000000E+009;1.946526169776917E-001;-3.946860507130623E-002;-4.463769961148500E-003;-2.623850479722023E-003;
2.419666666666667E+009;1.928909122943878E-001;-4.010268673300743E-002;-4.471181426197290E-003;-2.490361221134663E-003;
2.419833333333334E+009;1.911698281764984E-001;-4.042927920818329E-002;-4.515371751040220E-003;-2.258491935208440E-003;
2.420000000000000E+009;1.895834952592850E-001;-4.118081927299500E-002;-4.415972158312798E-003;-2.123876707628369E-003;
2.420166666666667E+009;1.878637224435806E-001;-4.191400110721588E-002;-4.597554448992014E-003;-1.940748421475291E-003;
2.420333333333334E+009;1.860195547342300E-001;-4.304902628064156E-002;-4.401228856295347E-003;-1.642885385081172E-003;
2.420500000000000E+009;1.841936856508255E-001;-4.413601383566856E-002;-4.553256090730429E-003;-1.560857286676765E-003;
2.420666666666667E+009;1.825108677148819E-001;-4.535815492272377E-002;-4.572198726236820E-003;-1.336759887635708E-003;
2.420833333333334E+009;1.807262450456619E-001;-4.662665724754334E-002;-4.465905949473381E-003;-1.249909400939941E-003;
2.421000000000000E+009;1.789855957031250E-001;-4.814225807785988E-002;-4.457734990864992E-003;-9.788101306185126E-004;
2.421166666666667E+009;1.774804592132568E-001;-4.972793906927109E-002;-4.426555708050728E-003;-1.046257908456028E-003;
2.421333333333334E+009;1.755523383617401E-001;-5.137204751372337E-002;-4.467805847525597E-003;-8.413087343797088E-004;
2.421500000000000E+009;1.739194244146347E-001;-5.320779234170914E-002;-4.516493529081345E-003;-7.007068488746882E-004;
2.421666666666667E+009;1.724680513143539E-001;-5.505661293864250E-002;-4.408685024827719E-003;-5.599703872576356E-004;
2.421833333333334E+009;1.710962802171707E-001;-5.710373818874359E-002;-4.408207722008228E-003;-4.733238602057099E-004;
2.422000000000000E+009;1.699146926403046E-001;-5.903143063187599E-002;-4.422988742589951E-003;-1.351656392216682E-004;
2.422166666666667E+009;1.687872856855393E-001;-6.140397116541863E-002;-4.278035368770361E-003;-1.337081048404798E-004;
2.422333333333334E+009;1.675314605236054E-001;-6.331020593643189E-002;-4.398393444716930E-003;-1.151022570411442E-005;
2.422500000000000E+009;1.666336357593536E-001;-6.555227935314179E-002;-4.247120115906000E-003;2.455150824971497E-004;
2.422666666666667E+009;1.656982451677322E-001;-6.779757142066956E-002;-4.169431049376726E-003;3.185859532095492E-004;
2.422833333333334E+009;1.651172935962677E-001;-7.020610570907593E-002;-3.964405506849289E-003;4.360002640169114E-004;
2.423000000000000E+009;1.643468290567398E-001;-7.234019041061401E-002;-4.074355121701956E-003;3.551575064193457E-004;
2.423166666666667E+009;1.640044301748276E-001;-7.442481815814972E-002;-3.976316656917334E-003;4.840716719627380E-004;
2.423333333333334E+009;1.636776030063629E-001;-7.669025659561157E-002;-3.833436174318194E-003;6.738907541148365E-004;
2.423500000000000E+009;1.634585708379746E-001;-7.887051999568939E-002;-3.749559400603175E-003;7.175893406383693E-004;
2.423666666666667E+009;1.634053140878677E-001;-8.092403411865234E-002;-3.791935974732041E-003;8.000574307516217E-004;
2.423833333333334E+009;1.633078306913376E-001;-8.288516849279404E-002;-3.698562504723668E-003;8.496613590978086E-004;
2.424000000000000E+009;1.633722633123398E-001;-8.494387567043304E-002;-3.736668964847922E-003;7.493938901461661E-004;
2.424166666666667E+009;1.637030541896820E-001;-8.673262596130371E-002;-3.723151516169310E-003;9.176033199764788E-004;
2.424333333333334E+009;1.638356000185013E-001;-8.854577690362930E-002;-3.624250646680594E-003;1.002151402644813E-003;
2.424500000000000E+009;1.643255203962326E-001;-9.051255881786346E-002;-3.553346963599324E-003;9.568462846800685E-004;
2.424666666666667E+009;1.645486801862717E-001;-9.208883345127106E-002;-3.561121411621571E-003;9.867264889180660E-004;
2.424833333333334E+009;1.652890890836716E-001;-9.361293911933899E-002;-3.670425619930029E-003;1.149323536083102E-003;
2.425000000000000E+009;1.657555401325226E-001;-9.501639753580093E-002;-3.719130763784051E-003;1.184187829494476E-003;
2.425166666666667E+009;1.662505418062210E-001;-9.641778469085693E-002;-3.640070557594299E-003;1.249527907930315E-003;
2.425333333333334E+009;1.668074876070023E-001;-9.755289554595947E-002;-3.646124852821231E-003;1.305042882449925E-003;
2.425500000000000E+009;1.675399541854858E-001;-9.873933345079422E-002;-3.678103443235159E-003;1.455325633287430E-003;
2.425666666666667E+009;1.680748611688614E-001;-9.960899502038956E-002;-3.582183271646500E-003;1.544938655570149E-003;
2.425833333333334E+009;1.684906631708145E-001;-1.006675288081169E-001;-3.688247641548514E-003;1.735533936880529E-003;
2.426000000000000E+009;1.693008989095688E-001;-1.010846495628357E-001;-3.596637630835176E-003;1.757833408191800E-003;
2.426166666666667E+009;1.698508262634277E-001;-1.017756909132004E-001;-3.598902840167284E-003;1.985213020816445E-003;
2.426333333333334E+009;1.703106313943863E-001;-1.023760586977005E-001;-3.515389980748296E-003;1.934337778948247E-003;
2.426500000000000E+009;1.709321737289429E-001;-1.027031615376473E-001;-3.536140779033303E-003;2.085592597723007E-003;
2.426666666666667E+009;1.715729683637619E-001;-1.030341833829880E-001;-3.448636969551444E-003;2.313547534868121E-003;
2.426833333333334E+009;1.719575971364975E-001;-1.033589094877243E-001;-3.537054639309645E-003;2.384299412369728E-003;
2.427000000000000E+009;1.722632944583893E-001;-1.035267636179924E-001;-3.384112613275647E-003;2.487674355506897E-003;
2.427166666666667E+009;1.725409626960754E-001;-1.036174371838570E-001;-3.323628334328532E-003;2.623042557388544E-003;
2.427333333333334E+009;1.728126406669617E-001;-1.038721129298210E-001;-3.341637086123228E-003;2.821186790242791E-003;
2.427500000000000E+009;1.727889627218247E-001;-1.040138155221939E-001;-3.224672051146627E-003;2.840403700247407E-003;
2.427666666666667E+009;1.726680248975754E-001;-1.039671599864960E-001;-3.120738780125976E-003;2.962912200018764E-003;
