# Version 1.00
#
freq[Hz];re:Trc1_S11;im:Trc1_S11;re:Trc2_S21;im:Trc2_S21;
2.400000000000000E+009;1.559513807296753E-001;1.108971759676933E-001;1.697764266282320E-003;5.462775006890297E-003;
2.400166666666667E+009;1.554051190614700E-001;1.085846722126007E-001;1.881020260043442E-003;5.438675172626972E-003;
2.400333333333334E+009;1.552987098693848E-001;1.064358204603195E-001;2.186842961236835E-003;5.259272642433643E-003;
2.400500000000000E+009;1.547608822584152E-001;1.035457327961922E-001;2.629997208714485E-003;5.122623872011900E-003;
2.400666666666667E+009;1.545690745115280E-001;1.011882573366165E-001;2.724452875554562E-003;4.824152216315270E-003;
2.400833333333334E+009;1.541837155818939E-001;9.836331009864807E-002;2.990214386954904E-003;4.544010851532221E-003;
2.401000000000000E+009;1.542707681655884E-001;9.539712965488434E-002;3.267117775976658E-003;4.303057212382555E-003;
2.401166666666667E+009;1.540730148553848E-001;9.261663258075714E-002;3.358574584126473E-003;4.337070044130087E-003;
2.401333333333334E+009;1.541048586368561E-001;8.977020531892777E-002;3.514884272590280E-003;3.991438075900078E-003;
2.401500000000000E+009;1.541767567396164E-001;8.680164068937302E-002;3.544045612215996E-003;3.605615347623825E-003;
2.401666666666667E+009;1.543262004852295E-001;8.385995030403137E-002;3.618859685957432E-003;3.657288849353790E-003;
2.401833333333334E+009;1.547226756811142E-001;8.089544624090195E-002;3.879029070958495E-003;3.429099684581161E-003;
2.402000000000000E+009;1.551959514617920E-001;7.790791988372803E-002;3.857487346976996E-003;3.239303128793836E-003;
2.402166666666667E+009;1.559780240058899E-001;7.529784739017487E-002;3.862967947497964E-003;3.207091009244323E-003;
2.402333333333334E+009;1.568600833415985E-001;7.246016710996628E-002;3.966313321143389E-003;3.117247018963099E-003;
2.402500000000000E+009;1.578476279973984E-001;6.956460326910019E-002;4.054943565279245E-003;2.787037054076791E-003;
2.402666666666667E+009;1.588439494371414E-001;6.664957106113434E-002;4.222959745675325E-003;2.739849034696817E-003;
2.402833333333334E+009;1.600496023893356E-001;6.429102271795273E-002;4.371826071292162E-003;2.524506300687790E-003;
2.403000000000000E+009;1.614258289337158E-001;6.163519620895386E-002;4.458410665392876E-003;2.267866162583232E-003;
2.403166666666667E+009;1.633997261524200E-001;5.911469087004662E-002;4.584499169141054E-003;2.178604714572430E-003;
2.403333333333334E+009;1.646302342414856E-001;5.667690187692642E-002;4.750163760036230E-003;1.810174784623087E-003;
2.403500000000000E+009;1.662445366382599E-001;5.432926490902901E-002;4.694968927651644E-003;1.709714066237211E-003;
2.403666666666667E+009;1.680728048086166E-001;5.215752869844437E-002;4.707775544375181E-003;1.477890764363110E-003;
2.403833333333334E+009;1.700158864259720E-001;5.000654980540276E-002;4.674143157899380E-003;1.011809334158897E-003;
2.404000000000000E+009;1.714604049921036E-001;4.790451377630234E-002;4.720886703580618E-003;8.519803523086011E-004;
2.404166666666667E+009;1.731949895620346E-001;4.630219191312790E-002;4.615393001586199E-003;4.314130928833038E-004;
2.404333333333334E+009;1.750583350658417E-001;4.462047666311264E-002;4.622848704457283E-003;3.667523851618171E-004;
2.404500000000000E+009;1.770957559347153E-001;4.300464317202568E-002;4.512048792093992E-003;8.026658906601369E-005;
2.404666666666667E+009;1.788758486509323E-001;4.179421812295914E-002;4.434130620211363E-003;-1.059529022313654E-004;
2.404833333333334E+009;1.807838529348373E-001;4.045922681689262E-002;4.362071398645639E-003;-2.503206778783351E-004;
2.405000000000000E+009;1.822944283485413E-001;3.956999629735947E-002;4.162644036114216E-003;-4.756247508339584E-004;
2.405166666666667E+009;1.837663203477860E-001;3.891523182392120E-002;4.164912272244692E-003;-8.393551688641310E-004;
2.405333333333334E+009;1.856125444173813E-001;3.836402669548988E-002;4.057266749441624E-003;-7.829173118807375E-004;
2.405500000000000E+009;1.872434616088867E-001;3.765991330146790E-002;3.873597597703338E-003;-1.062796916812658E-003;
2.405666666666667E+009;1.886451095342636E-001;3.736619651317596E-002;3.649217309430242E-003;-9.320164681412280E-004;
2.405833333333334E+009;1.902082115411758E-001;3.712155669927597E-002;3.665196010842919E-003;-1.137405633926392E-003;
2.406000000000000E+009;1.915460675954819E-001;3.701684623956680E-002;3.358648391440511E-003;-1.168153015896678E-003;
2.406166666666667E+009;1.927912682294846E-001;3.678102791309357E-002;3.343274584040046E-003;-1.260411110706627E-003;
2.406333333333334E+009;1.939281970262528E-001;3.709611296653748E-002;3.147070994600654E-003;-1.238785451278091E-003;
2.406500000000000E+009;1.950448751449585E-001;3.738019615411758E-002;2.988378051668406E-003;-1.584929530508816E-003;
2.406666666666667E+009;1.957468390464783E-001;3.738643229007721E-002;2.903240732848644E-003;-1.421939930878580E-003;
2.406833333333334E+009;1.965477019548416E-001;3.753066062927246E-002;2.901906380429864E-003;-1.455510384403169E-003;
2.407000000000000E+009;1.970564126968384E-001;3.809997439384460E-002;2.599141560494900E-003;-1.531863701529801E-003;
2.407166666666667E+009;1.976554691791534E-001;3.810385242104530E-002;2.430357038974762E-003;-1.271088025532663E-003;
2.407333333333334E+009;1.977342665195465E-001;3.858726471662521E-002;2.418615622445941E-003;-1.428126357495785E-003;
2.407500000000000E+009;1.979711055755615E-001;3.894961625337601E-002;2.241133712232113E-003;-1.240548212081194E-003;
2.407666666666667E+009;1.980146020650864E-001;3.915506601333618E-002;2.140975091606379E-003;-1.195392687804997E-003;
2.407833333333334E+009;1.977047175168991E-001;3.940881416201592E-002;2.103292150422931E-003;-1.180530292913318E-003;
2.408000000000000E+009;1.978039592504501E-001;3.952391445636749E-002;2.240273635834456E-003;-1.159479725174606E-003;
2.408166666666667E+009;1.972558200359345E-001;3.959076479077339E-002;2.088344423100352E-003;-1.026963698677719E-003;
2.408333333333334E+009;1.968333423137665E-001;3.949642926454544E-002;2.041020430624485E-003;-1.076329499483109E-003;
2.408500000000000E+009;1.962072551250458E-001;3.947018459439278E-002;2.048449125140905E-003;-1.035701599903405E-003;
2.408666666666667E+009;1.955161988735199E-001;3.929858282208443E-002;2.073166426271200E-003;-7.952094892971218E-004;
2.408833333333334E+009;1.947826147079468E-001;3.883931040763855E-002;2.182752126827836E-003;-7.591120665892959E-004;
2.409000000000000E+009;1.939795613288879E-001;3.832433372735977E-002;2.157066483050585E-003;-6.976269651204348E-004;
2.409166666666667E+009;1.929972022771835E-001;3.760545700788498E-002;2.262404654175043E-003;-8.139880956150591E-004;
2.409333333333334E+009;1.919117569923401E-001;3.708322346210480E-002;2.377345692366362E-003;-7.392978877760470E-004;
2.409500000000000E+009;1.905642002820969E-001;3.608053550124168E-002;2.407899592071772E-003;-7.260018028318882E-004;
2.409666666666667E+009;1.895084232091904E-001;3.481093794107437E-002;2.417860087007284E-003;-7.732315571047366E-004;
2.409833333333334E+009;1.882865130901337E-001;3.370384871959686E-002;2.573686186224222E-003;-7.870800909586251E-004;
2.410000000000000E+009;1.871554702520371E-001;3.231975063681603E-002;2.629544585943222E-003;-8.331700810231268E-004;
2.410166666666667E+009;1.858040392398834E-001;3.068477474153042E-002;2.768881851807237E-003;-9.271865710616112E-004;
2.410333333333334E+009;1.848280876874924E-001;2.918035723268986E-002;2.903362270444632E-003;-1.121260691434145E-003;
2.410500000000000E+009;1.834148019552231E-001;2.720276080071926E-002;2.890065312385559E-003;-1.210746937431395E-003;
2.410666666666667E+009;1.824593544006348E-001;2.513150498270989E-002;3.044075565412641E-003;-1.331247505731881E-003;
2.410833333333334E+009;1.814949959516525E-001;2.303135581314564E-002;2.919226652011275E-003;-1.465312205255032E-003;
2.411000000000000E+009;1.805803924798966E-001;2.096410840749741E-002;3.037339309230447E-003;-1.506416592746973E-003;
2.411166666666667E+009;1.796997785568237E-001;1.880598627030850E-002;2.951510250568390E-003;-1.701872562989593E-003;
2.411333333333334E+009;1.789251118898392E-001;1.633287221193314E-002;2.993735484778881E-003;-1.758656697347760E-003;
2.411500000000000E+009;1.783339977264404E-001;1.389605831354857E-002;2.854555612429977E-003;-1.779929734766483E-003;
2.411666666666667E+009;1.778873354196549E-001;1.148352492600679E-002;3.057824214920402E-003;-2.089066663756967E-003;
2.411833333333334E+009;1.773241609334946E-001;8.915839716792107E-003;3.019676078110933E-003;-2.091954462230206E-003;
2.412000000000000E+009;1.772717088460922E-001;6.297230720520020E-003;2.876083832234144E-003;-2.323783235624433E-003;
2.412166666666667E+009;1.770110875368118E-001;3.914085682481527E-003;3.128355136141181E-003;-2.192054176703095E-003;
2.412333333333334E+009;1.770856827497482E-001;1.155796227976680E-003;2.992978086695075E-003;-2.503388794139028E-003;
2.412500000000000E+009;1.774291545152664E-001;-1.515097217634320E-003;3.115730127319694E-003;-2.429088111966848E-003;
2.412666666666667E+009;1.779505014419556E-001;-4.259950481355190E-003;3.142200177535415E-003;-2.733556088060141E-003;
2.412833333333334E+009;1.784915924072266E-001;-7.076838985085487E-003;3.027235157787800E-003;-3.015691414475441E-003;
2.413000000000000E+009;1.791016608476639E-001;-9.461168199777603E-003;3.070192411541939E-003;-3.075613407418132E-003;
2.413166666666667E+009;1.797805726528168E-001;-1.185741927474737E-002;3.078252542763948E-003;-3.298833966255188E-003;
2.413333333333334E+009;1.807568669319153E-001;-1.440889202058315E-002;3.107085591182113E-003;-3.465563524514437E-003;
2.413500000000000E+009;1.816945821046829E-001;-1.692969724535942E-002;2.923424355685711E-003;-3.842282574623823E-003;
2.413666666666667E+009;1.829355061054230E-001;-1.923828572034836E-002;2.843583934009075E-003;-3.964724950492382E-003;
2.413833333333334E+009;1.841386407613754E-001;-2.156344614923000E-002;2.580399392172694E-003;-4.147945903241634E-003;
2.414000000000000E+009;1.852744221687317E-001;-2.383100986480713E-002;2.715674694627523E-003;-4.421884194016457E-003;
2.414166666666667E+009;1.865386217832565E-001;-2.593012712895870E-002;2.466671168804169E-003;-4.643646068871021E-003;
2.414333333333334E+009;1.879357248544693E-001;-2.804203890264034E-002;2.258658874779940E-003;-4.751951899379492E-003;
2.414500000000000E+009;1.892704367637634E-001;-2.976009994745255E-002;1.971686258912087E-003;-4.906766116619110E-003;
2.414666666666667E+009;1.905633211135864E-001;-3.150027245283127E-002;1.856570364907384E-003;-5.303333513438702E-003;
2.414833333333334E+009;1.918988078832626E-001;-3.313100337982178E-002;1.497332472354174E-003;-5.305903963744640E-003;
2.415000000000000E+009;1.934294253587723E-001;-3.447247296571732E-002;1.115733291953802E-003;-5.482462234795094E-003;
2.415166666666667E+009;1.948215812444687E-001;-3.610634058713913E-002;8.249661768786609E-004;-5.570164881646633E-003;
2.415333333333334E+009;1.961963325738907E-001;-3.699321299791336E-002;6.106903892941773E-004;-5.545089952647686E-003;
2.415500000000000E+009;1.974912881851196E-001;-3.788078203797340E-002;2.254943537991494E-004;-5.647484213113785E-003;
2.415666666666667E+009;1.988348215818405E-001;-3.892098367214203E-002;-3.424754368097638E-006;-5.617049522697926E-003;
2.415833333333334E+009;1.999118924140930E-001;-3.971114382147789E-002;-3.253934846725315E-004;-5.882684607058764E-003;
2.416000000000000E+009;2.009357511997223E-001;-4.037854820489883E-002;-6.262575625441968E-004;-5.846505053341389E-003;
2.416166666666667E+009;2.019536346197128E-001;-4.098826274275780E-002;-9.078221046365798E-004;-5.637089256197214E-003;
2.416333333333334E+009;2.029121220111847E-001;-4.122819378972054E-002;-1.168443355709314E-003;-5.616881884634495E-003;
2.416500000000000E+009;2.036702185869217E-001;-4.153669252991676E-002;-1.488217036239803E-003;-5.605874117463827E-003;
2.416666666666667E+009;2.042448669672012E-001;-4.182143881917000E-002;-1.734245568513870E-003;-5.381743889302015E-003;
2.416833333333334E+009;2.047066986560822E-001;-4.187104851007462E-002;-2.095415489748120E-003;-5.366296041756868E-003;
2.417000000000000E+009;2.050732523202896E-001;-4.196001961827278E-002;-2.350125694647431E-003;-5.324408877640963E-003;
2.417166666666667E+009;2.051109820604324E-001;-4.184942692518234E-002;-2.579792635515332E-003;-5.075238645076752E-003;
2.417333333333334E+009;2.052136659622192E-001;-4.150155559182167E-002;-2.756134141236544E-003;-4.782651551067829E-003;
2.417500000000000E+009;2.051293998956680E-001;-4.139485210180283E-002;-3.063723677769303E-003;-4.786780104041100E-003;
2.417666666666667E+009;2.048615515232086E-001;-4.104126244783402E-002;-2.998202806338668E-003;-4.551478661596775E-003;
2.417833333333334E+009;2.045409679412842E-001;-4.063069075345993E-002;-3.317827591672540E-003;-4.367975052446127E-003;
2.418000000000000E+009;2.042120844125748E-001;-4.018608853220940E-002;-3.310006577521563E-003;-4.172341432422400E-003;
2.418166666666667E+009;2.034074962139130E-001;-4.003346338868141E-002;-3.677638247609139E-003;-4.085882566869259E-003;
2.418333333333334E+009;2.027395516633987E-001;-3.947010263800621E-002;-3.598107257857919E-003;-3.880135947838426E-003;
2.418500000000000E+009;2.019416391849518E-001;-3.932319581508637E-002;-3.658318892121315E-003;-3.559906501322985E-003;
2.418666666666667E+009;2.010325789451599E-001;-3.903925418853760E-002;-3.806696739047766E-003;-3.359022783115506E-003;
2.418833333333334E+009;1.997340917587280E-001;-3.892791271209717E-002;-3.963250666856766E-003;-3.269157605245709E-003;
2.419000000000000E+009;1.986182630062103E-001;-3.885483741760254E-002;-4.185053054243326E-003;-3.110418561846018E-003;
2.419166666666667E+009;1.973807513713837E-001;-3.904637694358826E-002;-4.145778249949217E-003;-2.863388741388917E-003;
2.419333333333334E+009;1.960226297378540E-001;-3.924740478396416E-002;-4.203630611300468E-003;-2.587027149274945E-003;
2.419500000000000E+009;1.944778412580490E-001;-3.955107927322388E-002;-4.307326395064592E-003;-2.537346212193370E-003;
2.419666666666667E+009;1.928743422031403E-001;-3.997485339641571E-002;-4.377356730401516E-003;-2.354577416554093E-003;
2.419833333333334E+009;1.910998076200485E-001;-4.050965607166290E-002;-4.338519182056189E-003;-2.169721294194460E-003;
2.420000000000000E+009;1.894824504852295E-001;-4.107947275042534E-002;-4.347445443272591E-003;-1.935939770191908E-003;
2.420166666666667E+009;1.878766268491745E-001;-4.187189787626267E-002;-4.335362464189529E-003;-1.874435576610267E-003;
2.420333333333334E+009;1.860569864511490E-001;-4.299495741724968E-002;-4.422934725880623E-003;-1.657108659856021E-003;
2.420500000000000E+009;1.843014061450958E-001;-4.427985846996307E-002;-4.328106530010700E-003;-1.487798988819122E-003;
2.420666666666667E+009;1.823784559965134E-001;-4.510906711220741E-002;-4.398861434310675E-003;-1.369376783259213E-003;
2.420833333333334E+009;1.804670244455338E-001;-4.662919044494629E-002;-4.312280565500259E-003;-1.131540630012751E-003;
2.421000000000000E+009;1.790184378623962E-001;-4.798853397369385E-002;-4.349651746451855E-003;-1.042558928020299E-003;
2.421166666666667E+009;1.772517114877701E-001;-4.974721372127533E-002;-4.409799817949534E-003;-9.031215449795127E-004;
2.421333333333334E+009;1.755459606647492E-001;-5.120591074228287E-002;-4.290335811674595E-003;-7.344844634644687E-004;
2.421500000000000E+009;1.740697324275971E-001;-5.332058668136597E-002;-4.114607349038124E-003;-6.834188243374229E-004;
2.421666666666667E+009;1.725762188434601E-001;-5.503314733505249E-002;-4.234698135405779E-003;-5.881295655854046E-004;
2.421833333333334E+009;1.712583005428314E-001;-5.701059848070145E-002;-4.186184611171484E-003;-4.590424941852689E-004;
2.422000000000000E+009;1.697073876857758E-001;-5.905580893158913E-002;-4.033392760902643E-003;-2.642308245413005E-004;
2.422166666666667E+009;1.686062365770340E-001;-6.141988560557365E-002;-3.978698048740625E-003;-4.164957499597222E-005;
2.422333333333334E+009;1.676138937473297E-001;-6.338549405336380E-002;-4.059744998812676E-003;-3.751835902221501E-005;
2.422500000000000E+009;1.666122823953629E-001;-6.547767668962479E-002;-4.045665729790926E-003;1.260980207007378E-004;
2.422666666666667E+009;1.657794564962387E-001;-6.769306957721710E-002;-4.064735956490040E-003;1.026039171847515E-004;
2.422833333333334E+009;1.651174873113632E-001;-7.001061737537384E-002;-3.875105176120997E-003;1.868150866357610E-004;
2.423000000000000E+009;1.645102500915527E-001;-7.221531122922897E-002;-3.753039054572582E-003;3.703604452311993E-004;
2.423166666666667E+009;1.639626175165176E-001;-7.457811385393143E-002;-3.890383057296276E-003;3.784537257160991E-004;
2.423333333333334E+009;1.636104434728622E-001;-7.671660184860230E-002;-3.702385351061821E-003;4.962527891620994E-004;
2.423500000000000E+009;1.634643673896790E-001;-7.874920964241028E-002;-3.626106306910515E-003;5.858382210135460E-004;
2.423666666666667E+009;1.634507477283478E-001;-8.077574521303177E-002;-3.507575951516628E-003;6.424825405701995E-004;
2.423833333333334E+009;1.632727086544037E-001;-8.289527893066406E-002;-3.595980117097497E-003;5.578496493399143E-004;
2.424000000000000E+009;1.636090576648712E-001;-8.501613140106201E-002;-3.454973455518484E-003;7.937821210362017E-004;
2.424166666666667E+009;1.636172086000443E-001;-8.675768971443176E-002;-3.398793283849955E-003;7.377218571491540E-004;
2.424333333333334E+009;1.639131903648377E-001;-8.861558884382248E-002;-3.545674262568355E-003;8.260020404122770E-004;
2.424500000000000E+009;1.643259376287460E-001;-9.062061458826065E-002;-3.458200721070170E-003;7.041830103844404E-004;
2.424666666666667E+009;1.647673845291138E-001;-9.211879968643189E-002;-3.554198192432523E-003;1.052595442160964E-003;
2.424833333333334E+009;1.652762889862061E-001;-9.365087002515793E-002;-3.557520452886820E-003;9.299579542130232E-004;
2.425000000000000E+009;1.659469157457352E-001;-9.507793933153153E-002;-3.623848315328360E-003;9.524368215352297E-004;
2.425166666666667E+009;1.663817018270493E-001;-9.639302641153336E-002;-3.591754240915179E-003;1.078749774023891E-003;
2.425333333333334E+009;1.668016165494919E-001;-9.759308397769928E-002;-3.381623420864344E-003;1.125488313846290E-003;
2.425500000000000E+009;1.674985885620117E-001;-9.871760755777359E-002;-3.460495965555310E-003;1.133530982770026E-003;
2.425666666666667E+009;1.682033538818359E-001;-9.953486174345017E-002;-3.605979960411787E-003;1.361246802844107E-003;
2.425833333333334E+009;1.686595380306244E-001;-1.005714833736420E-001;-3.550511319190264E-003;1.482944586314261E-003;
2.426000000000000E+009;1.693671494722366E-001;-1.011120676994324E-001;-3.532723058015108E-003;1.565954065881670E-003;
2.426166666666667E+009;1.699442416429520E-001;-1.018233746290207E-001;-3.460115753114224E-003;1.648194971494377E-003;
2.426333333333334E+009;1.703282147645950E-001;-1.024361178278923E-001;-3.610980696976185E-003;1.859242911450565E-003;
2.426500000000000E+009;1.710012853145599E-001;-1.027625203132629E-001;-3.644809126853943E-003;1.936417771503329E-003;
2.426666666666667E+009;1.715653687715530E-001;-1.030926629900932E-001;-3.400366986170411E-003;2.007088856771588E-003;
2.426833333333334E+009;1.720063239336014E-001;-1.033097729086876E-001;-3.395378356799483E-003;2.229105914011598E-003;
2.427000000000000E+009;1.722509264945984E-001;-1.036314740777016E-001;-3.310742555186153E-003;2.246256917715073E-003;
2.427166666666667E+009;1.725062727928162E-001;-1.036367490887642E-001;-3.395379753783345E-003;2.452832181006670E-003;
2.427333333333334E+009;1.727357208728790E-001;-1.040020883083344E-001;-3.313745837658644E-003;2.665901323780417E-003;
2.427500000000000E+009;1.726773232221603E-001;-1.039368808269501E-001;-3.268811386078596E-003;2.777921035885811E-003;
2.427666666666667E+009;1.726592630147934E-001;-1.039476543664932E-001;-3.152938093990088E-003;2.875140635296702E-003;
