# Version 1.00
#
freq[Hz];re:Trc1_S11;im:Trc1_S11;re:Trc2_S21;im:Trc2_S21;
2.400000000000000E+009;1.606916338205338E-001;5.690713971853256E-002;1.325891469605267E-003;3.111915197223425E-003;
2.400166666666667E+009;1.608897447586060E-001;5.544822663068771E-002;1.609908300451934E-003;3.129313699901104E-003;
2.400333333333334E+009;1.608601808547974E-001;5.350063741207123E-002;1.570557127706707E-003;3.040142590180039E-003;
2.400500000000000E+009;1.610583513975143E-001;5.166102573275566E-002;1.667760778218508E-003;3.418529639020562E-003;
2.400666666666667E+009;1.610833555459976E-001;4.979246482253075E-002;1.933363848365843E-003;3.348265541717410E-003;
2.400833333333334E+009;1.614294350147247E-001;4.812304303050041E-002;2.004139823839068E-003;3.349509555846453E-003;
2.401000000000000E+009;1.615030765533447E-001;4.633447155356407E-002;2.209597965702415E-003;3.427739022299647E-003;
2.401166666666667E+009;1.617056876420975E-001;4.429758712649345E-002;2.481038682162762E-003;3.480769693851471E-003;
2.401333333333334E+009;1.618935465812683E-001;4.219109192490578E-002;2.815486164763570E-003;3.465655492618680E-003;
2.401500000000000E+009;1.624768227338791E-001;4.055744409561157E-002;2.991614863276482E-003;3.597985720261931E-003;
2.401666666666667E+009;1.626421064138413E-001;3.878290206193924E-002;2.962362254038453E-003;3.558609168976545E-003;
2.401833333333334E+009;1.631906181573868E-001;3.678576275706291E-002;3.410557284951210E-003;3.394473344087601E-003;
2.402000000000000E+009;1.633733212947846E-001;3.498542681336403E-002;3.658863948658109E-003;3.429538803175092E-003;
2.402166666666667E+009;1.639148443937302E-001;3.320962190628052E-002;3.763603512197733E-003;3.202592954039574E-003;
2.402333333333334E+009;1.643467247486115E-001;3.154630586504936E-002;4.011435899883509E-003;3.176926868036389E-003;
2.402500000000000E+009;1.651882976293564E-001;3.003595955669880E-002;4.305966664105654E-003;2.881455235183239E-003;
2.402666666666667E+009;1.656156480312347E-001;2.840620465576649E-002;4.541690926998854E-003;2.997021423652768E-003;
2.402833333333334E+009;1.662821918725967E-001;2.690697275102139E-002;4.927191883325577E-003;2.725500613451004E-003;
2.403000000000000E+009;1.670861840248108E-001;2.547928132116795E-002;5.021418444812298E-003;2.570742974057794E-003;
2.403166666666667E+009;1.678472310304642E-001;2.397400140762329E-002;5.377665162086487E-003;2.302410081028938E-003;
2.403333333333334E+009;1.685759574174881E-001;2.286069467663765E-002;5.562006030231714E-003;2.091595903038979E-003;
2.403500000000000E+009;1.692618578672409E-001;2.160808444023132E-002;5.571749992668629E-003;1.684571965597570E-003;
2.403666666666667E+009;1.699075847864151E-001;2.017516642808914E-002;5.705417133867741E-003;1.482874853536487E-003;
2.403833333333334E+009;1.707826107740402E-001;1.910256408154964E-002;5.888823885470629E-003;1.176990568637848E-003;
2.404000000000000E+009;1.714599728584290E-001;1.793053746223450E-002;6.066338624805212E-003;1.017042202875018E-003;
2.404166666666667E+009;1.720907390117645E-001;1.709064655005932E-002;6.108344532549381E-003;6.306759896688163E-004;
2.404333333333334E+009;1.728064715862274E-001;1.633825711905956E-002;6.157426629215479E-003;2.883262641262263E-004;
2.404500000000000E+009;1.733757108449936E-001;1.520874630659819E-002;6.171755492687225E-003;-2.792650775518268E-005;
2.404666666666667E+009;1.741961538791657E-001;1.446007471531630E-002;6.298089865595102E-003;-4.303751338738948E-004;
2.404833333333334E+009;1.748541146516800E-001;1.363503001630306E-002;6.074131000787020E-003;-7.509191636927426E-004;
2.405000000000000E+009;1.755128055810928E-001;1.301533635705710E-002;5.990098696202040E-003;-9.465280454605818E-004;
2.405166666666667E+009;1.760562211275101E-001;1.234141923487186E-002;5.940399132668972E-003;-1.390649238601327E-003;
2.405333333333334E+009;1.765435934066773E-001;1.168742962181568E-002;5.916799418628216E-003;-1.664387527853251E-003;
2.405500000000000E+009;1.770090460777283E-001;1.140549033880234E-002;5.944955628365278E-003;-1.936200773343444E-003;
2.405666666666667E+009;1.774495840072632E-001;1.099718827754259E-002;5.861815996468067E-003;-2.229921054095030E-003;
2.405833333333334E+009;1.776707470417023E-001;1.050747279077768E-002;5.489692091941834E-003;-2.413278212770820E-003;
2.406000000000000E+009;1.780614703893662E-001;9.873703122138977E-003;5.364357959479094E-003;-2.697226358577609E-003;
2.406166666666667E+009;1.781525611877441E-001;9.677716530859470E-003;5.342060234397650E-003;-2.906368579715490E-003;
2.406333333333334E+009;1.785659790039063E-001;9.402961470186710E-003;5.001416429877281E-003;-2.994341077283025E-003;
2.406500000000000E+009;1.785778403282166E-001;8.866379968822002E-003;4.863970447331667E-003;-3.218371886759996E-003;
2.406666666666667E+009;1.783805191516876E-001;8.486270904541016E-003;4.673446994274855E-003;-3.550212830305100E-003;
2.406833333333334E+009;1.786578595638275E-001;8.019919507205486E-003;4.528328776359558E-003;-3.565539140254259E-003;
2.407000000000000E+009;1.784655451774597E-001;7.577161304652691E-003;4.333721473813057E-003;-3.751681186258793E-003;
2.407166666666667E+009;1.785452663898468E-001;7.163965608924627E-003;4.160726908594370E-003;-3.869200590997934E-003;
2.407333333333334E+009;1.781360208988190E-001;6.538360379636288E-003;4.226438701152802E-003;-3.909575287252665E-003;
2.407500000000000E+009;1.779506951570511E-001;5.940959788858891E-003;3.822444938123226E-003;-4.060243722051382E-003;
2.407666666666667E+009;1.776522397994995E-001;5.568997003138065E-003;3.698650980368257E-003;-4.196326714009047E-003;
2.407833333333334E+009;1.773210912942886E-001;4.664209671318531E-003;3.486911300569773E-003;-4.343493841588497E-003;
2.408000000000000E+009;1.769481152296066E-001;3.871050430461764E-003;3.142622299492359E-003;-4.371746443212032E-003;
2.408166666666667E+009;1.764447540044785E-001;3.267745487391949E-003;3.065544413402677E-003;-4.372197203338146E-003;
2.408333333333334E+009;1.761192679405212E-001;2.351405331864953E-003;2.861003857105970E-003;-4.649707581847906E-003;
2.408500000000000E+009;1.755789071321487E-001;1.385234994813800E-003;2.753556706011295E-003;-4.639309830963612E-003;
2.408666666666667E+009;1.748724579811096E-001;4.433169087860733E-004;2.423120429739356E-003;-4.702595528215170E-003;
2.408833333333334E+009;1.743489205837250E-001;-7.037738105282188E-004;2.254718681797385E-003;-4.646795336157084E-003;
2.409000000000000E+009;1.736879348754883E-001;-1.682576257735491E-003;2.063588006421924E-003;-4.732842091470957E-003;
2.409166666666667E+009;1.731293797492981E-001;-3.144691698253155E-003;1.996598206460476E-003;-4.740084055811167E-003;
2.409333333333334E+009;1.726718693971634E-001;-4.462298471480608E-003;1.741633284837008E-003;-4.737972281873226E-003;
2.409500000000000E+009;1.719529479742050E-001;-5.928886123001576E-003;1.665785559453070E-003;-4.632967058569193E-003;
2.409666666666667E+009;1.713556051254273E-001;-7.307233288884163E-003;1.474815304391086E-003;-4.606254864484072E-003;
2.409833333333334E+009;1.707875132560730E-001;-8.729554712772369E-003;1.375788706354797E-003;-4.489112645387650E-003;
2.410000000000000E+009;1.704138368368149E-001;-1.030881423503161E-002;1.174635486677289E-003;-4.701001569628716E-003;
2.410166666666667E+009;1.699681431055069E-001;-1.190561056137085E-002;1.066856901161373E-003;-4.554054699838162E-003;
2.410333333333334E+009;1.693495959043503E-001;-1.369277108460665E-002;9.353571222163737E-004;-4.533881787210703E-003;
2.410500000000000E+009;1.690138578414917E-001;-1.528655737638474E-002;8.307150565087795E-004;-4.547720775008202E-003;
2.410666666666667E+009;1.685772538185120E-001;-1.714298874139786E-002;9.129583486355841E-004;-4.480058327317238E-003;
2.410833333333334E+009;1.684997230768204E-001;-1.888451911509037E-002;6.217069458216429E-004;-4.583348520100117E-003;
2.411000000000000E+009;1.680182516574860E-001;-2.071346156299114E-002;5.101148854009807E-004;-4.447598010301590E-003;
2.411166666666667E+009;1.679869592189789E-001;-2.261744439601898E-002;5.756920436397195E-004;-4.504426382482052E-003;
2.411333333333334E+009;1.677596420049667E-001;-2.444156631827354E-002;4.258148255757988E-004;-4.603264387696981E-003;
2.411500000000000E+009;1.677551716566086E-001;-2.643737569451332E-002;4.391185939311981E-004;-4.622050561010838E-003;
2.411666666666667E+009;1.678594797849655E-001;-2.823982946574688E-002;3.378400579094887E-004;-4.536952823400497E-003;
2.411833333333334E+009;1.679326742887497E-001;-3.005366958677769E-002;2.284757065353915E-004;-4.619197454303503E-003;
2.412000000000000E+009;1.680418848991394E-001;-3.202211484313011E-002;2.926700981333852E-004;-4.659867845475674E-003;
2.412166666666667E+009;1.681225299835205E-001;-3.392249718308449E-002;4.515502951107919E-005;-4.791501909494400E-003;
2.412333333333334E+009;1.685220450162888E-001;-3.557593747973442E-002;-1.996034261537716E-004;-4.689913708716631E-003;
2.412500000000000E+009;1.686202287673950E-001;-3.741585090756416E-002;-2.286496892338619E-004;-4.820509813725948E-003;
2.412666666666667E+009;1.690358221530914E-001;-3.932239487767220E-002;-3.208178095519543E-004;-4.834574181586504E-003;
2.412833333333334E+009;1.694584637880325E-001;-4.106550663709641E-002;-5.160126020200551E-004;-4.800483118742704E-003;
2.413000000000000E+009;1.700644642114639E-001;-4.283511638641357E-002;-7.513714954257011E-004;-4.862271249294281E-003;
2.413166666666667E+009;1.702603697776794E-001;-4.438500478863716E-002;-1.082244329154491E-003;-4.926957190036774E-003;
2.413333333333334E+009;1.707190573215485E-001;-4.583498463034630E-002;-1.180207240395248E-003;-4.864033311605454E-003;
2.413500000000000E+009;1.712492406368256E-001;-4.738153889775276E-002;-1.466779271140695E-003;-4.875258076936007E-003;
2.413666666666667E+009;1.718712747097015E-001;-4.883782565593720E-002;-1.442114589735866E-003;-4.831613507121801E-003;
2.413833333333334E+009;1.721951961517334E-001;-5.005701631307602E-002;-1.856022747233510E-003;-4.907518625259399E-003;
2.414000000000000E+009;1.724911183118820E-001;-5.155527219176292E-002;-1.939636887982488E-003;-4.764400422573090E-003;
2.414166666666667E+009;1.733036637306213E-001;-5.257061868906021E-002;-2.088633831590414E-003;-4.768488463014364E-003;
2.414333333333334E+009;1.736446321010590E-001;-5.372109264135361E-002;-2.291457029059529E-003;-4.790354520082474E-003;
2.414500000000000E+009;1.743189841508865E-001;-5.479527637362480E-002;-2.504982054233551E-003;-4.712453112006187E-003;
2.414666666666667E+009;1.746544539928436E-001;-5.562491342425346E-002;-2.821156056597829E-003;-4.547575488686562E-003;
2.414833333333334E+009;1.751252263784409E-001;-5.664888024330139E-002;-2.959386212751269E-003;-4.554020706564188E-003;
2.415000000000000E+009;1.754544824361801E-001;-5.730303004384041E-002;-3.097143955528736E-003;-4.209850449115038E-003;
2.415166666666667E+009;1.758887022733688E-001;-5.806331336498261E-002;-3.363925497978926E-003;-4.230053629726172E-003;
2.415333333333334E+009;1.761451661586762E-001;-5.881769582629204E-002;-3.439481602981687E-003;-3.976316191256046E-003;
2.415500000000000E+009;1.763043999671936E-001;-5.924664065241814E-002;-3.372331848368049E-003;-3.861680161207914E-003;
2.415666666666667E+009;1.765814721584320E-001;-5.962812155485153E-002;-3.678716486319900E-003;-3.713242476806045E-003;
2.415833333333334E+009;1.766676306724548E-001;-6.016599759459496E-002;-4.038164392113686E-003;-3.677915781736374E-003;
2.416000000000000E+009;1.766548454761505E-001;-6.045257672667503E-002;-4.028829280287027E-003;-3.460240783169866E-003;
2.416166666666667E+009;1.767764538526535E-001;-6.074432656168938E-002;-4.265414550900459E-003;-3.199112601578236E-003;
2.416333333333334E+009;1.766610741615295E-001;-6.104920059442520E-002;-4.364728461951017E-003;-3.107277210801840E-003;
2.416500000000000E+009;1.763389110565186E-001;-6.137222424149513E-002;-4.365513101220131E-003;-2.760822884738445E-003;
2.416666666666667E+009;1.760298758745194E-001;-6.156562641263008E-002;-4.687229637056589E-003;-2.635632175952196E-003;
2.416833333333334E+009;1.758337318897247E-001;-6.190780177712441E-002;-4.608292132616043E-003;-2.417828189209104E-003;
2.417000000000000E+009;1.752457767724991E-001;-6.206251308321953E-002;-4.804122261703014E-003;-2.132056048139930E-003;
2.417166666666667E+009;1.747062206268311E-001;-6.215729191899300E-002;-4.722077399492264E-003;-1.886268029920757E-003;
2.417333333333334E+009;1.741021573543549E-001;-6.232260540127754E-002;-4.841004498302937E-003;-1.770418602973223E-003;
2.417500000000000E+009;1.735142320394516E-001;-6.277909129858017E-002;-4.880924243479967E-003;-1.440655789338052E-003;
2.417666666666667E+009;1.727689057588577E-001;-6.284488737583160E-002;-4.963579587638378E-003;-1.439464394934475E-003;
2.417833333333334E+009;1.719518452882767E-001;-6.315759569406509E-002;-4.879440180957317E-003;-1.135005615651608E-003;
2.418000000000000E+009;1.707976758480072E-001;-6.357846409082413E-002;-4.979383666068316E-003;-9.575467556715012E-004;
2.418166666666667E+009;1.699133515357971E-001;-6.378467381000519E-002;-4.892406519502401E-003;-7.101091905497015E-004;
2.418333333333334E+009;1.691764146089554E-001;-6.430239975452423E-002;-5.069077946245670E-003;-4.857209278270602E-004;
2.418500000000000E+009;1.680654436349869E-001;-6.479788571596146E-002;-4.795372951775789E-003;-1.739531144266948E-004;
2.418666666666667E+009;1.670845299959183E-001;-6.526630371809006E-002;-4.880174994468689E-003;-5.618841169052757E-005;
2.418833333333334E+009;1.655474603176117E-001;-6.579915434122086E-002;-5.023284349590540E-003;3.306464714114554E-005;
2.419000000000000E+009;1.643958389759064E-001;-6.642033159732819E-002;-4.697815049439669E-003;1.968060532817617E-004;
2.419166666666667E+009;1.631843745708466E-001;-6.703058630228043E-002;-4.715109709650278E-003;3.234859032090753E-004;
2.419333333333334E+009;1.619661599397659E-001;-6.767890602350235E-002;-4.545717034488916E-003;4.709443601313978E-004;
2.419500000000000E+009;1.607476919889450E-001;-6.877731531858444E-002;-4.606871400028467E-003;6.716920761391521E-004;
2.419666666666667E+009;1.597376912832260E-001;-6.963548064231873E-002;-4.434676840901375E-003;8.875779458321631E-004;
2.419833333333334E+009;1.583593934774399E-001;-7.044728100299835E-002;-4.491753410547972E-003;1.183329499326646E-003;
2.420000000000000E+009;1.572746336460114E-001;-7.156993448734283E-002;-4.449218045920134E-003;1.322760013863444E-003;
2.420166666666667E+009;1.559917479753494E-001;-7.262405753135681E-002;-4.187807906419039E-003;1.368040568195283E-003;
2.420333333333334E+009;1.551141291856766E-001;-7.392494380474091E-002;-4.236616659909487E-003;1.526059932075441E-003;
2.420500000000000E+009;1.542101204395294E-001;-7.502344995737076E-002;-4.095837939530611E-003;1.671820180490613E-003;
2.420666666666667E+009;1.529943943023682E-001;-7.638580352067947E-002;-3.997511696070433E-003;1.741199754178524E-003;
2.420833333333334E+009;1.522135585546494E-001;-7.783941179513931E-002;-3.865300212055445E-003;1.995072932913899E-003;
2.421000000000000E+009;1.510375589132309E-001;-7.942374050617218E-002;-3.670315491035581E-003;2.237661276012659E-003;
2.421166666666667E+009;1.504646241664887E-001;-8.087231218814850E-002;-3.675076877698302E-003;2.306634327396751E-003;
2.421333333333334E+009;1.497051268815994E-001;-8.233024924993515E-002;-3.512501483783126E-003;2.473399974405766E-003;
2.421500000000000E+009;1.491364240646362E-001;-8.402489125728607E-002;-3.380508162081242E-003;2.580388216301799E-003;
2.421666666666667E+009;1.485703736543655E-001;-8.562218397855759E-002;-3.247268265113235E-003;2.590490737929940E-003;
2.421833333333334E+009;1.480964869260788E-001;-8.728016167879105E-002;-3.081009723246098E-003;2.683025784790516E-003;
2.422000000000000E+009;1.476145088672638E-001;-8.895056694746018E-002;-2.873335732147098E-003;2.834706101566553E-003;
2.422166666666667E+009;1.472236812114716E-001;-9.085934609174728E-002;-2.744903555139899E-003;2.767965896055102E-003;
2.422333333333334E+009;1.472226232290268E-001;-9.237568825483322E-002;-2.424191916361451E-003;3.039925359189510E-003;
2.422500000000000E+009;1.469238698482513E-001;-9.410563111305237E-002;-2.428669715300202E-003;3.076515858992934E-003;
2.422666666666667E+009;1.466495841741562E-001;-9.576998651027679E-002;-2.271923003718257E-003;2.968801185488701E-003;
2.422833333333334E+009;1.467250287532806E-001;-9.759756177663803E-002;-2.043805085122585E-003;3.143434412777424E-003;
2.423000000000000E+009;1.464782953262329E-001;-9.905696660280228E-002;-1.970365410670638E-003;3.083738498389721E-003;
2.423166666666667E+009;1.469818651676178E-001;-1.008358299732208E-001;-1.663776696659625E-003;3.050506580621004E-003;
2.423333333333334E+009;1.472927331924439E-001;-1.021937280893326E-001;-1.496722921729088E-003;3.030714113265276E-003;
2.423500000000000E+009;1.472502052783966E-001;-1.039841771125794E-001;-1.208608038723469E-003;2.942641032859683E-003;
2.423666666666667E+009;1.474088728427887E-001;-1.055172011256218E-001;-1.307004131376743E-003;2.989840228110552E-003;
2.423833333333334E+009;1.477895379066467E-001;-1.070050448179245E-001;-1.167151262052357E-003;3.101518377661705E-003;
2.424000000000000E+009;1.482036262750626E-001;-1.081412211060524E-001;-1.017612870782614E-003;3.040731418877840E-003;
2.424166666666667E+009;1.483692973852158E-001;-1.096845790743828E-001;-7.094771717675030E-004;2.922082087025046E-003;
2.424333333333334E+009;1.487927585840225E-001;-1.107764616608620E-001;-5.874245543964207E-004;2.831766614690423E-003;
2.424500000000000E+009;1.493829488754273E-001;-1.119295731186867E-001;-5.757507169619203E-004;2.883484121412039E-003;
2.424666666666667E+009;1.496976763010025E-001;-1.130611523985863E-001;-4.845013318117708E-004;2.739851130172610E-003;
2.424833333333334E+009;1.499945372343063E-001;-1.141056343913078E-001;-2.623899781610817E-004;2.761831972748041E-003;
2.425000000000000E+009;1.504263132810593E-001;-1.150484383106232E-001;-3.538763266988099E-004;2.654210431501269E-003;
2.425166666666667E+009;1.506778150796890E-001;-1.158968284726143E-001;-2.487271267455071E-004;2.570745768025518E-003;
2.425333333333334E+009;1.509395539760590E-001;-1.167287454009056E-001;-7.854071009205654E-005;2.456885529682040E-003;
2.425500000000000E+009;1.513152122497559E-001;-1.175484731793404E-001;2.178238646592945E-004;2.494116080924869E-003;
2.425666666666667E+009;1.514121443033218E-001;-1.181335300207138E-001;1.707352057565004E-004;2.428066451102495E-003;
2.425833333333334E+009;1.516712158918381E-001;-1.186633929610252E-001;1.431674027116969E-004;2.342118648812175E-003;
2.426000000000000E+009;1.518511027097702E-001;-1.192392781376839E-001;2.812205348163843E-004;2.248911187052727E-003;
2.426166666666667E+009;1.520053595304489E-001;-1.196850910782814E-001;2.318876358913258E-004;2.205480122938752E-003;
2.426333333333334E+009;1.518380641937256E-001;-1.200917959213257E-001;4.405865911394358E-004;2.142003271728754E-003;
2.426500000000000E+009;1.518289446830750E-001;-1.204098910093308E-001;3.949605161324143E-004;2.059321384876967E-003;
2.426666666666667E+009;1.519099026918411E-001;-1.205010861158371E-001;4.366288485471159E-004;1.910184626467526E-003;
2.426833333333334E+009;1.514883041381836E-001;-1.207014545798302E-001;5.324190715327859E-004;1.778154633939266E-003;
2.427000000000000E+009;1.512682735919952E-001;-1.209622249007225E-001;4.344853223301470E-004;1.873331260867417E-003;
2.427166666666667E+009;1.508135348558426E-001;-1.210521087050438E-001;5.148372729308903E-004;1.555947354063392E-003;
2.427333333333334E+009;1.502808481454849E-001;-1.211990937590599E-001;5.822529783472419E-004;1.736525446176529E-003;
2.427500000000000E+009;1.499792784452438E-001;-1.213310062885284E-001;6.229827995412052E-004;1.533516915515065E-003;
2.427666666666667E+009;1.491120755672455E-001;-1.213528811931610E-001;5.936208181083202E-004;1.591385342180729E-003;
