# Version 1.00
#
freq[Hz];re:Trc1_S11;im:Trc1_S11;re:Trc2_S21;im:Trc2_S21;
2.400000000000000E+009;1.607534885406494E-001;5.685416236519814E-002;1.453004544600844E-003;3.153399098664522E-003;
2.400166666666667E+009;1.607632339000702E-001;5.523062124848366E-002;1.543456572107971E-003;3.169518429785967E-003;
2.400333333333334E+009;1.607118993997574E-001;5.349113419651985E-002;1.625555916689336E-003;3.208738053217530E-003;
2.400500000000000E+009;1.608051806688309E-001;5.164691060781479E-002;1.783624989911914E-003;3.246876178309321E-003;
2.400666666666667E+009;1.609422415494919E-001;4.978981614112854E-002;2.126698382198811E-003;3.312264336273074E-003;
2.400833333333334E+009;1.611570864915848E-001;4.803177341818810E-002;2.194159897044301E-003;3.335275920107961E-003;
2.401000000000000E+009;1.616124510765076E-001;4.612925648689270E-002;2.389536472037435E-003;3.450163872912526E-003;
2.401166666666667E+009;1.615915149450302E-001;4.422891139984131E-002;2.522602444514632E-003;3.373866667971015E-003;
2.401333333333334E+009;1.618005335330963E-001;4.238484054803848E-002;2.756419591605663E-003;3.528181929141283E-003;
2.401500000000000E+009;1.622490882873535E-001;4.043985530734062E-002;2.921764506027103E-003;3.371880389750004E-003;
2.401666666666667E+009;1.626405417919159E-001;3.863582387566567E-002;3.195240627974272E-003;3.355689579620957E-003;
2.401833333333334E+009;1.631764918565750E-001;3.673224151134491E-002;3.362145973369479E-003;3.428113646805286E-003;
2.402000000000000E+009;1.633488982915878E-001;3.505074977874756E-002;3.565113525837660E-003;3.418180858716369E-003;
2.402166666666667E+009;1.640267372131348E-001;3.298681601881981E-002;3.766143694519997E-003;3.228613873943687E-003;
2.402333333333334E+009;1.643653213977814E-001;3.152009099721909E-002;4.129542503505945E-003;3.312150947749615E-003;
2.402500000000000E+009;1.651798635721207E-001;2.989999204874039E-002;4.554848186671734E-003;3.002316225320101E-003;
2.402666666666667E+009;1.656690686941147E-001;2.833972685039043E-002;4.615675192326307E-003;2.850061748176813E-003;
2.402833333333334E+009;1.664190292358398E-001;2.695100009441376E-002;4.825491458177567E-003;2.723835175856948E-003;
2.403000000000000E+009;1.670410186052322E-001;2.544967271387577E-002;5.291305016726255E-003;2.426602877676487E-003;
2.403166666666667E+009;1.677074879407883E-001;2.400728873908520E-002;5.148076452314854E-003;2.212007995694876E-003;
2.403333333333334E+009;1.684686839580536E-001;2.268378250300884E-002;5.464479792863131E-003;1.923457835800946E-003;
2.403500000000000E+009;1.691415458917618E-001;2.157018706202507E-002;5.711093544960022E-003;1.684248098172247E-003;
2.403666666666667E+009;1.699154525995255E-001;2.029135078191757E-002;5.811834707856178E-003;1.465918729081750E-003;
2.403833333333334E+009;1.706711351871491E-001;1.908357068896294E-002;5.931241437792778E-003;9.342222474515438E-004;
2.404000000000000E+009;1.713837683200836E-001;1.803599484264851E-002;6.176892668008804E-003;7.403730414807797E-004;
2.404166666666667E+009;1.722560375928879E-001;1.716944016516209E-002;6.162504665553570E-003;5.120569840073586E-004;
2.404333333333334E+009;1.727532446384430E-001;1.616253517568111E-002;6.234509870409966E-003;2.589965006336570E-004;
2.404500000000000E+009;1.733249276876450E-001;1.523843593895435E-002;6.170104257762432E-003;-2.328360715182498E-004;
2.404666666666667E+009;1.741871535778046E-001;1.446390897035599E-002;6.188283674418926E-003;-5.427073338069022E-004;
2.404833333333334E+009;1.748147159814835E-001;1.363321114331484E-002;6.127080414444208E-003;-8.292392594739795E-004;
2.405000000000000E+009;1.752559095621109E-001;1.299919467419386E-002;6.070628296583891E-003;-1.104049617424607E-003;
2.405166666666667E+009;1.759534478187561E-001;1.249125972390175E-002;6.136640906333923E-003;-1.510030822828412E-003;
2.405333333333334E+009;1.765751689672470E-001;1.185515616089106E-002;6.035200785845518E-003;-1.721007633022964E-003;
2.405500000000000E+009;1.768147349357605E-001;1.133351679891348E-002;5.891606677323580E-003;-2.154103014618158E-003;
2.405666666666667E+009;1.773435473442078E-001;1.083947159349918E-002;5.544890183955431E-003;-2.304793801158667E-003;
2.405833333333334E+009;1.775731891393662E-001;1.050627231597900E-002;5.610411055386066E-003;-2.595812547951937E-003;
2.406000000000000E+009;1.780239939689636E-001;1.000644546002150E-002;5.311340093612671E-003;-2.859792439267039E-003;
2.406166666666667E+009;1.781042963266373E-001;9.704590775072575E-003;5.311580374836922E-003;-3.040273906663060E-003;
2.406333333333334E+009;1.785118579864502E-001;9.080115705728531E-003;5.017262417823076E-003;-3.213675227016211E-003;
2.406500000000000E+009;1.785035133361816E-001;8.779114112257958E-003;4.946030210703611E-003;-3.352157771587372E-003;
2.406666666666667E+009;1.783951520919800E-001;8.492240682244301E-003;4.663493949919939E-003;-3.509123111143708E-003;
2.406833333333334E+009;1.785459518432617E-001;8.068359456956387E-003;4.480671603232622E-003;-3.521110164001584E-003;
2.407000000000000E+009;1.784524619579315E-001;7.521908730268478E-003;4.360647406429052E-003;-3.725302172824740E-003;
2.407166666666667E+009;1.785254925489426E-001;7.251771632581949E-003;4.169111605733633E-003;-3.987945616245270E-003;
2.407333333333334E+009;1.781577020883560E-001;6.510610226541758E-003;4.041081760078669E-003;-4.048468545079231E-003;
2.407500000000000E+009;1.779145896434784E-001;6.076747551560402E-003;3.787100547924638E-003;-4.227028694003820E-003;
2.407666666666667E+009;1.776230931282044E-001;5.471910815685988E-003;3.753655822947621E-003;-4.400761332362890E-003;
2.407833333333334E+009;1.771137416362763E-001;4.696450661867857E-003;3.438692307099700E-003;-4.359236918389797E-003;
2.408000000000000E+009;1.767276525497437E-001;4.017331171780825E-003;3.365270560607314E-003;-4.425257910043001E-003;
2.408166666666667E+009;1.763498485088348E-001;3.361969254910946E-003;3.061139490455389E-003;-4.458917304873467E-003;
2.408333333333334E+009;1.761345714330673E-001;2.346935449168086E-003;2.808281220495701E-003;-4.529577679932118E-003;
2.408500000000000E+009;1.754722148180008E-001;1.403028145432472E-003;2.642850391566753E-003;-4.684266634285450E-003;
2.408666666666667E+009;1.748029887676239E-001;4.847691452596337E-004;2.451207023113966E-003;-4.873721394687891E-003;
2.408833333333334E+009;1.742250621318817E-001;-6.601851782761514E-004;2.280781045556068E-003;-4.655597731471062E-003;
2.409000000000000E+009;1.736844033002853E-001;-1.749049290083349E-003;1.875982619822025E-003;-4.889641422778368E-003;
2.409166666666667E+009;1.731560975313187E-001;-3.042072290554643E-003;1.978948945179582E-003;-4.858324769884348E-003;
2.409333333333334E+009;1.725976467132568E-001;-4.487169440835714E-003;1.887258840724826E-003;-4.891141317784786E-003;
2.409500000000000E+009;1.719913631677628E-001;-5.911414977163076E-003;1.604908960871398E-003;-4.643313586711884E-003;
2.409666666666667E+009;1.713210642337799E-001;-7.254641968756914E-003;1.524824649095535E-003;-4.654005169868469E-003;
2.409833333333334E+009;1.707473844289780E-001;-8.687585592269898E-003;1.251654117368162E-003;-4.734002985060215E-003;
2.410000000000000E+009;1.703827232122421E-001;-1.016147341579199E-002;1.075833803042769E-003;-4.792184103280306E-003;
2.410166666666667E+009;1.699174344539642E-001;-1.180165167897940E-002;1.066489727236331E-003;-4.821222741156817E-003;
2.410333333333334E+009;1.693641692399979E-001;-1.339507941156626E-002;9.220615029335022E-004;-4.535807762295008E-003;
2.410500000000000E+009;1.689939647912979E-001;-1.518120057880878E-002;8.688758243806660E-004;-4.713326692581177E-003;
2.410666666666667E+009;1.685318648815155E-001;-1.705312356352806E-002;5.869547603651881E-004;-4.664315842092037E-003;
2.410833333333334E+009;1.684515774250031E-001;-1.889914087951183E-002;8.107998291961849E-004;-4.598262719810009E-003;
2.411000000000000E+009;1.681106239557266E-001;-2.062016911804676E-002;5.940617411397398E-004;-4.501022398471832E-003;
2.411166666666667E+009;1.680746078491211E-001;-2.240734547376633E-002;5.348157137632370E-004;-4.555708263069391E-003;
2.411333333333334E+009;1.679293811321259E-001;-2.443883940577507E-002;4.082461819052696E-004;-4.643713124096394E-003;
2.411500000000000E+009;1.676165610551834E-001;-2.626778744161129E-002;2.344052481930703E-004;-4.717054311186075E-003;
2.411666666666667E+009;1.676864922046661E-001;-2.813379094004631E-002;1.269715139642358E-004;-4.656688775867224E-003;
2.411833333333334E+009;1.678123176097870E-001;-3.006431646645069E-002;2.868529008992482E-005;-4.743309691548348E-003;
2.412000000000000E+009;1.680629104375839E-001;-3.193391114473343E-002;-1.599054485268425E-005;-4.632826894521713E-003;
2.412166666666667E+009;1.681736558675766E-001;-3.381425142288208E-002;-6.350441981339827E-005;-4.757735878229141E-003;
2.412333333333334E+009;1.685741692781448E-001;-3.555478900671005E-002;-2.155709516955540E-004;-4.679753445088863E-003;
2.412500000000000E+009;1.685637831687927E-001;-3.729625046253204E-002;-4.088093992322683E-004;-4.791243001818657E-003;
2.412666666666667E+009;1.690700054168701E-001;-3.919965773820877E-002;-6.430486100725830E-004;-4.793122410774231E-003;
2.412833333333334E+009;1.693398952484131E-001;-4.108353331685066E-002;-5.387923447415233E-004;-4.918465856462717E-003;
2.413000000000000E+009;1.698724329471588E-001;-4.257947951555252E-002;-6.347301532514393E-004;-4.981324076652527E-003;
2.413166666666667E+009;1.702443361282349E-001;-4.428481683135033E-002;-9.174524457193911E-004;-4.918608348816633E-003;
2.413333333333334E+009;1.706084311008453E-001;-4.581838473677635E-002;-1.161041902378202E-003;-4.920398350805044E-003;
2.413500000000000E+009;1.712323874235153E-001;-4.729665815830231E-002;-1.364876865409315E-003;-5.010731518268585E-003;
2.413666666666667E+009;1.717024594545364E-001;-4.887781292200089E-002;-1.639557885937393E-003;-4.919609054923058E-003;
2.413833333333334E+009;1.722215265035629E-001;-5.008824169635773E-002;-1.627407968044281E-003;-4.976563621312380E-003;
2.414000000000000E+009;1.726566106081009E-001;-5.129398405551910E-002;-2.087172586470842E-003;-4.965968430042267E-003;
2.414166666666667E+009;1.733264625072479E-001;-5.240536481142044E-002;-2.088217297568917E-003;-4.804086871445179E-003;
2.414333333333334E+009;1.737141609191895E-001;-5.378476157784462E-002;-2.399383345618844E-003;-4.775559995323420E-003;
2.414500000000000E+009;1.743803620338440E-001;-5.479084327816963E-002;-2.864033682271838E-003;-4.758230876177549E-003;
2.414666666666667E+009;1.747211962938309E-001;-5.559658259153366E-002;-2.793659456074238E-003;-4.603357985615730E-003;
2.414833333333334E+009;1.749703139066696E-001;-5.653034150600433E-002;-2.930003451183438E-003;-4.462839104235172E-003;
2.415000000000000E+009;1.753619164228439E-001;-5.722426250576973E-002;-3.155376063659787E-003;-4.304874222725630E-003;
2.415166666666667E+009;1.758480668067932E-001;-5.793491005897522E-002;-3.264427185058594E-003;-4.322907887399197E-003;
2.415333333333334E+009;1.762267649173737E-001;-5.863280594348908E-002;-3.548332722857595E-003;-4.018961451947689E-003;
2.415500000000000E+009;1.764217019081116E-001;-5.913983285427094E-002;-3.679972607642412E-003;-3.971853759139776E-003;
2.415666666666667E+009;1.765504181385040E-001;-5.949570238590241E-002;-3.763750428333879E-003;-3.936694469302893E-003;
2.415833333333334E+009;1.767533272504807E-001;-6.010482832789421E-002;-4.140578210353851E-003;-3.552047070115805E-003;
2.416000000000000E+009;1.766117513179779E-001;-6.049500778317452E-002;-4.239457193762064E-003;-3.281155135482550E-003;
2.416166666666667E+009;1.768482774496079E-001;-6.073840335011482E-002;-4.262813366949558E-003;-3.184332046657801E-003;
2.416333333333334E+009;1.767010688781738E-001;-6.103295087814331E-002;-4.439587704837322E-003;-3.053851425647736E-003;
2.416500000000000E+009;1.764201074838638E-001;-6.140062585473061E-002;-4.629563540220261E-003;-2.890866482630372E-003;
2.416666666666667E+009;1.761714667081833E-001;-6.150957942008972E-002;-4.700937774032354E-003;-2.710078610107303E-003;
2.416833333333334E+009;1.758253723382950E-001;-6.184589862823486E-002;-4.740578588098288E-003;-2.492014551535249E-003;
2.417000000000000E+009;1.752783209085465E-001;-6.210810318589211E-002;-4.709905944764614E-003;-2.247598720714450E-003;
2.417166666666667E+009;1.746534258127213E-001;-6.213172897696495E-002;-4.864769987761974E-003;-1.978197600692511E-003;
2.417333333333334E+009;1.740848869085312E-001;-6.241706758737564E-002;-4.913287702947855E-003;-1.809446606785059E-003;
2.417500000000000E+009;1.734138429164887E-001;-6.270413100719452E-002;-4.876196850091219E-003;-1.538659213110805E-003;
2.417666666666667E+009;1.727437376976013E-001;-6.286012381315231E-002;-4.983014892786741E-003;-1.536280033178628E-003;
2.417833333333334E+009;1.718728542327881E-001;-6.310960650444031E-002;-5.014515016227961E-003;-1.101643079891801E-003;
2.418000000000000E+009;1.708281040191650E-001;-6.365264207124710E-002;-4.907841794192791E-003;-8.435468771494925E-004;
2.418166666666667E+009;1.699204891920090E-001;-6.372723728418350E-002;-5.045082885771990E-003;-7.111316663213074E-004;
2.418333333333334E+009;1.691728681325913E-001;-6.431514769792557E-002;-4.924412816762924E-003;-4.177543742116541E-004;
2.418500000000000E+009;1.679831445217133E-001;-6.465578079223633E-002;-4.960790742188692E-003;-2.782159135676920E-004;
2.418666666666667E+009;1.669853478670120E-001;-6.515654921531677E-002;-5.001620855182409E-003;-2.348194102523848E-004;
2.418833333333334E+009;1.655860990285873E-001;-6.589037925004959E-002;-4.735676106065512E-003;6.498940638266504E-005;
2.419000000000000E+009;1.643701195716858E-001;-6.639233976602554E-002;-4.780832678079605E-003;2.684745995793492E-004;
2.419166666666667E+009;1.632702350616455E-001;-6.709034740924835E-002;-4.825915675610304E-003;4.857460444327444E-004;
2.419333333333334E+009;1.619349271059036E-001;-6.767890602350235E-002;-4.709559492766857E-003;5.730594275519252E-004;
2.419500000000000E+009;1.607745289802551E-001;-6.867066770792007E-002;-4.699497018009424E-003;6.902955356054008E-004;
2.419666666666667E+009;1.596222072839737E-001;-6.961318105459213E-002;-4.439062904566526E-003;8.559405105188489E-004;
2.419833333333334E+009;1.583848893642426E-001;-7.047286629676819E-002;-4.484910983592272E-003;1.028498169034720E-003;
2.420000000000000E+009;1.572793722152710E-001;-7.158638536930084E-002;-4.413143731653690E-003;1.157426508143544E-003;
2.420166666666667E+009;1.563057005405426E-001;-7.268087565898895E-002;-4.410788416862488E-003;1.322629977948964E-003;
2.420333333333334E+009;1.551566272974014E-001;-7.393711805343628E-002;-4.199638031423092E-003;1.485520508140326E-003;
2.420500000000000E+009;1.541037708520889E-001;-7.501142472028732E-002;-4.272329621016979E-003;1.728250994347036E-003;
2.420666666666667E+009;1.530833542346954E-001;-7.634759694337845E-002;-4.018747247755528E-003;1.925291493535042E-003;
2.420833333333334E+009;1.521625071763992E-001;-7.782690972089768E-002;-3.839566372334957E-003;2.064758446067572E-003;
2.421000000000000E+009;1.511690616607666E-001;-7.933738827705383E-002;-3.857478266581893E-003;2.184328623116016E-003;
2.421166666666667E+009;1.505192220211029E-001;-8.077546209096909E-002;-3.744627116248012E-003;2.269404707476497E-003;
2.421333333333334E+009;1.498550921678543E-001;-8.254694193601608E-002;-3.581718541681767E-003;2.439701464027166E-003;
2.421500000000000E+009;1.491062641143799E-001;-8.402240276336670E-002;-3.487026784569025E-003;2.443311037495732E-003;
2.421666666666667E+009;1.486667543649674E-001;-8.566148579120636E-002;-3.323389682918787E-003;2.594393678009510E-003;
2.421833333333334E+009;1.479837000370026E-001;-8.731523156166077E-002;-3.099508816376329E-003;2.842068439349532E-003;
2.422000000000000E+009;1.477428972721100E-001;-8.898286521434784E-002;-2.976680640131235E-003;2.738544484600425E-003;
2.422166666666667E+009;1.472844332456589E-001;-9.082113206386566E-002;-2.568559022620320E-003;2.989812055602670E-003;
2.422333333333334E+009;1.470296233892441E-001;-9.217230230569840E-002;-2.636723453179002E-003;2.840221859514713E-003;
2.422500000000000E+009;1.468117535114288E-001;-9.402682632207871E-002;-2.402440644800663E-003;2.962439786642790E-003;
2.422666666666667E+009;1.465483158826828E-001;-9.573984146118164E-002;-2.127718180418015E-003;3.058788832277060E-003;
2.422833333333334E+009;1.466810107231140E-001;-9.752361476421356E-002;-2.056060358881950E-003;2.989955246448517E-003;
2.423000000000000E+009;1.466473191976547E-001;-9.897945821285248E-002;-1.865853089839220E-003;3.233161754906178E-003;
2.423166666666667E+009;1.469506174325943E-001;-1.007581055164337E-001;-1.484433887526393E-003;3.119339933618903E-003;
2.423333333333334E+009;1.470535844564438E-001;-1.024042963981628E-001;-1.443356624804437E-003;3.181940643116832E-003;
2.423500000000000E+009;1.474101543426514E-001;-1.040252074599266E-001;-1.341823022812605E-003;3.138476517051458E-003;
2.423666666666667E+009;1.474003642797470E-001;-1.054699420928955E-001;-1.215010881423950E-003;3.088360186666250E-003;
2.423833333333334E+009;1.480277627706528E-001;-1.069761812686920E-001;-1.108291209675372E-003;2.960454439744353E-003;
2.424000000000000E+009;1.481503695249558E-001;-1.082713678479195E-001;-9.695294429548085E-004;2.911503659561276E-003;
2.424166666666667E+009;1.483370512723923E-001;-1.095008999109268E-001;-7.948810816742480E-004;3.022001823410392E-003;
2.424333333333334E+009;1.488154381513596E-001;-1.107212677598000E-001;-5.790634895674884E-004;2.766230609267950E-003;
2.424500000000000E+009;1.491498351097107E-001;-1.120301038026810E-001;-5.787080153822899E-004;2.972933696582913E-003;
2.424666666666667E+009;1.499011218547821E-001;-1.129639595746994E-001;-5.193963297642767E-004;2.800431335344911E-003;
2.424833333333334E+009;1.499997973442078E-001;-1.141619980335236E-001;-3.657659108284861E-004;2.671127906069160E-003;
2.425000000000000E+009;1.503725349903107E-001;-1.151993647217751E-001;-4.054467135574669E-004;2.729773521423340E-003;
2.425166666666667E+009;1.505317687988281E-001;-1.159360706806183E-001;-1.311506639467552E-004;2.691220259293914E-003;
2.425333333333334E+009;1.509714871644974E-001;-1.167689859867096E-001;-3.697165448102169E-005;2.478917594999075E-003;
2.425500000000000E+009;1.513470113277435E-001;-1.174432560801506E-001;3.353323165811162E-007;2.526612486690283E-003;
2.425666666666667E+009;1.513416171073914E-001;-1.181380972266197E-001;1.872592401923612E-004;2.305203350260854E-003;
2.425833333333334E+009;1.516040414571762E-001;-1.186691597104073E-001;2.119099081028253E-004;2.096478361636400E-003;
2.426000000000000E+009;1.517368853092194E-001;-1.192308887839317E-001;2.508457109797746E-004;2.284486778080463E-003;
2.426166666666667E+009;1.520044952630997E-001;-1.195571646094322E-001;3.671428130473942E-004;2.347588073462248E-003;
2.426333333333334E+009;1.518975645303726E-001;-1.199790164828301E-001;4.503226082306355E-004;2.065458102151752E-003;
2.426500000000000E+009;1.518196314573288E-001;-1.202943548560143E-001;4.082884406670928E-004;1.964236143976450E-003;
2.426666666666667E+009;1.518537104129791E-001;-1.204677596688271E-001;4.485280660446733E-004;1.877072383649647E-003;
2.426833333333334E+009;1.515642255544663E-001;-1.206132024526596E-001;4.706803301814944E-004;1.767965150065720E-003;
2.427000000000000E+009;1.512594372034073E-001;-1.210005804896355E-001;5.103450384922326E-004;1.692400663159788E-003;
2.427166666666667E+009;1.509274691343308E-001;-1.209352537989616E-001;5.050519830547273E-004;1.714142505079508E-003;
2.427333333333334E+009;1.503897905349731E-001;-1.211320608854294E-001;5.107565084472299E-004;1.818683696910739E-003;
2.427500000000000E+009;1.499539762735367E-001;-1.213527917861939E-001;5.595672992058098E-004;1.699558575637639E-003;
2.427666666666667E+009;1.492034494876862E-001;-1.214037537574768E-001;5.024998681619763E-004;1.551746972836554E-003;
