# Version 1.00
#
freq[Hz];re:Trc1_S11;im:Trc1_S11;re:Trc2_S21;im:Trc2_S21;
2.400000000000000E+009;1.606944799423218E-001;5.696690455079079E-002;1.346983364783227E-003;3.105846233665943E-003;
2.400166666666667E+009;1.608744561672211E-001;5.534383282065392E-002;1.298778573982418E-003;3.122758120298386E-003;
2.400333333333334E+009;1.609177887439728E-001;5.350246652960777E-002;1.574392197653651E-003;3.018162446096540E-003;
2.400500000000000E+009;1.609759181737900E-001;5.177010595798492E-002;1.770557719282806E-003;3.352984786033630E-003;
2.400666666666667E+009;1.609177440404892E-001;4.988637194037437E-002;1.786316046491265E-003;3.423880320042372E-003;
2.400833333333334E+009;1.613371372222900E-001;4.821887984871864E-002;1.925243181176484E-003;3.420569002628326E-003;
2.401000000000000E+009;1.615417599678040E-001;4.608307033777237E-002;2.138631884008646E-003;3.564502345398068E-003;
2.401166666666667E+009;1.616759449243546E-001;4.419521242380142E-002;2.441320335492492E-003;3.365013049915433E-003;
2.401333333333334E+009;1.618767678737640E-001;4.223012924194336E-002;2.666809130460024E-003;3.569788066670299E-003;
2.401500000000000E+009;1.622101515531540E-001;4.061061516404152E-002;3.078266978263855E-003;3.560928162187338E-003;
2.401666666666667E+009;1.625554263591766E-001;3.879611566662788E-002;3.198766382411122E-003;3.394483122974634E-003;
2.401833333333334E+009;1.629609167575836E-001;3.686637431383133E-002;3.373182611539960E-003;3.383364994078875E-003;
2.402000000000000E+009;1.633809357881546E-001;3.508856147527695E-002;3.654260188341141E-003;3.304663114249706E-003;
2.402166666666667E+009;1.639304459095001E-001;3.326051309704781E-002;3.881868440657854E-003;3.315979382023215E-003;
2.402333333333334E+009;1.645506024360657E-001;3.152794390916824E-002;4.306104965507984E-003;3.114120801910758E-003;
2.402500000000000E+009;1.651043891906738E-001;3.004317358136177E-002;4.382454324513674E-003;2.968419808894396E-003;
2.402666666666667E+009;1.657076179981232E-001;2.862414158880711E-002;4.507521633058786E-003;2.819478744640946E-003;
2.402833333333334E+009;1.662244200706482E-001;2.701012603938580E-002;4.812447819858789E-003;2.645927481353283E-003;
2.403000000000000E+009;1.669500470161438E-001;2.556223049759865E-002;5.009219516068697E-003;2.407253719866276E-003;
2.403166666666667E+009;1.678019016981125E-001;2.398557774722576E-002;5.278118420392275E-003;2.125926082953811E-003;
2.403333333333334E+009;1.685030907392502E-001;2.279767580330372E-002;5.454763304442167E-003;1.979240449145436E-003;
2.403500000000000E+009;1.689642965793610E-001;2.150097489356995E-002;5.588666070252657E-003;1.711573917418718E-003;
2.403666666666667E+009;1.698530018329620E-001;2.027495764195919E-002;5.604349542409182E-003;1.313164131715894E-003;
2.403833333333334E+009;1.707836687564850E-001;1.915428228676319E-002;5.865745246410370E-003;1.136140432208777E-003;
2.404000000000000E+009;1.714785695075989E-001;1.814669370651245E-002;5.947000347077847E-003;7.840701146051288E-004;
2.404166666666667E+009;1.721892505884171E-001;1.713898405432701E-002;5.945462733507156E-003;4.714175593107939E-004;
2.404333333333334E+009;1.728755980730057E-001;1.620554551482201E-002;6.105305161327124E-003;1.699373679002747E-004;
2.404500000000000E+009;1.735226958990097E-001;1.534418761730194E-002;6.132585462182760E-003;-9.012177906697616E-005;
2.404666666666667E+009;1.741232573986054E-001;1.459947694092989E-002;6.066984497010708E-003;-5.161096341907978E-004;
2.404833333333334E+009;1.748627573251724E-001;1.377937570214272E-002;6.048143841326237E-003;-7.368828519247472E-004;
2.405000000000000E+009;1.755071580410004E-001;1.304520107805729E-002;6.024755537509918E-003;-1.003672601655126E-003;
2.405166666666667E+009;1.760640740394592E-001;1.253075804561377E-002;6.004051305353642E-003;-1.370784244500101E-003;
2.405333333333334E+009;1.765790730714798E-001;1.175507716834545E-002;6.011269055306912E-003;-1.705219969153404E-003;
2.405500000000000E+009;1.771327704191208E-001;1.133013796061277E-002;5.823848303407431E-003;-2.017995109781623E-003;
2.405666666666667E+009;1.774220466613770E-001;1.092720404267311E-002;5.747728515416384E-003;-2.316466532647610E-003;
2.405833333333334E+009;1.777488738298416E-001;1.053648442029953E-002;5.459965206682682E-003;-2.466674428433180E-003;
2.406000000000000E+009;1.780636906623840E-001;1.001123338937759E-002;5.423494148999453E-003;-2.618103986606002E-003;
2.406166666666667E+009;1.781964451074600E-001;9.778579697012901E-003;5.330976098775864E-003;-2.848891541361809E-003;
2.406333333333334E+009;1.784984022378922E-001;9.258667938411236E-003;4.946156404912472E-003;-3.148555057123303E-003;
2.406500000000000E+009;1.785333603620529E-001;8.908849209547043E-003;5.033491179347038E-003;-3.392353188246489E-003;
2.406666666666667E+009;1.784623414278030E-001;8.540089242160320E-003;4.725823644548655E-003;-3.369742305949330E-003;
2.406833333333334E+009;1.785433739423752E-001;7.990474812686443E-003;4.562668502330780E-003;-3.444756148383021E-003;
2.407000000000000E+009;1.785583496093750E-001;7.609766907989979E-003;4.481148440390825E-003;-3.875261871144176E-003;
2.407166666666667E+009;1.785055249929428E-001;7.124247960746288E-003;4.098642151802778E-003;-3.898229682818055E-003;
2.407333333333334E+009;1.781698018312454E-001;6.567077711224556E-003;3.957813605666161E-003;-4.024796653538942E-003;
2.407500000000000E+009;1.778672933578491E-001;5.946404766291380E-003;3.723752452060580E-003;-4.116800148040056E-003;
2.407666666666667E+009;1.777315288782120E-001;5.511311814188957E-003;3.811184782534838E-003;-4.230854567140341E-003;
2.407833333333334E+009;1.771942526102066E-001;4.647044464945793E-003;3.317446680739522E-003;-4.376622382551432E-003;
2.408000000000000E+009;1.768512427806854E-001;3.834040835499764E-003;3.163765184581280E-003;-4.477301612496376E-003;
2.408166666666667E+009;1.763574630022049E-001;3.338949522003532E-003;3.073712345212698E-003;-4.442160483449698E-003;
2.408333333333334E+009;1.761512756347656E-001;2.404079306870699E-003;2.818586537614465E-003;-4.604276269674301E-003;
2.408500000000000E+009;1.755190640687943E-001;1.351574086584151E-003;2.660942263901234E-003;-4.748465958982706E-003;
2.408666666666667E+009;1.749065071344376E-001;3.223522508051246E-004;2.461339579895139E-003;-4.569380544126034E-003;
2.408833333333334E+009;1.743423342704773E-001;-6.710116867907345E-004;2.408296568319202E-003;-4.731245338916779E-003;
2.409000000000000E+009;1.736302673816681E-001;-1.785932108759880E-003;2.035755896940827E-003;-4.694061819463968E-003;
2.409166666666667E+009;1.730593740940094E-001;-3.004209604114294E-003;1.985557144507766E-003;-4.728596657514572E-003;
2.409333333333334E+009;1.726827025413513E-001;-4.392591305077076E-003;1.770959002897143E-003;-4.707310814410448E-003;
2.409500000000000E+009;1.719072461128235E-001;-5.936613306403160E-003;1.708798110485077E-003;-4.719289019703865E-003;
2.409666666666667E+009;1.714911460876465E-001;-7.226899266242981E-003;1.483966945670545E-003;-4.753201268613339E-003;
2.409833333333334E+009;1.708000898361206E-001;-8.736990392208099E-003;1.301339361816645E-003;-4.713830538094044E-003;
2.410000000000000E+009;1.704890131950378E-001;-1.027364190667868E-002;1.198354759253562E-003;-4.669432528316975E-003;
2.410166666666667E+009;1.699450761079788E-001;-1.179308444261551E-002;1.155133126303554E-003;-4.531552549451590E-003;
2.410333333333334E+009;1.694232523441315E-001;-1.349676586687565E-002;9.695809567347169E-004;-4.637803882360458E-003;
2.410500000000000E+009;1.690750122070313E-001;-1.526362542062998E-002;8.207164355553687E-004;-4.609719850122929E-003;
2.410666666666667E+009;1.687218993902206E-001;-1.714843511581421E-002;7.746887858957052E-004;-4.564825911074877E-003;
2.410833333333334E+009;1.684039831161499E-001;-1.878819614648819E-002;6.991588161326945E-004;-4.531293641775847E-003;
2.411000000000000E+009;1.682134121656418E-001;-2.051558531820774E-002;5.108625045977533E-004;-4.408018197864294E-003;
2.411166666666667E+009;1.680725812911987E-001;-2.254235185682774E-002;4.439218610059470E-004;-4.614254459738731E-003;
2.411333333333334E+009;1.679701954126358E-001;-2.440007776021957E-002;4.928077105432749E-004;-4.687290173023939E-003;
2.411500000000000E+009;1.676360815763474E-001;-2.644687145948410E-002;3.694763581734151E-004;-4.643569700419903E-003;
2.411666666666667E+009;1.678594797849655E-001;-2.833869308233261E-002;5.410339508671314E-005;-4.584467504173517E-003;
2.411833333333334E+009;1.678581833839417E-001;-3.010818734765053E-002;9.591634443495423E-005;-4.672089125961065E-003;
2.412000000000000E+009;1.680500060319901E-001;-3.209529072046280E-002;9.526281246508006E-006;-4.748051520437002E-003;
2.412166666666667E+009;1.682937890291214E-001;-3.377360478043556E-002;-1.313471002504230E-004;-4.764696583151817E-003;
2.412333333333334E+009;1.686253249645233E-001;-3.555104881525040E-002;-3.501295577734709E-004;-4.903378430753946E-003;
2.412500000000000E+009;1.686263829469681E-001;-3.742039203643799E-002;-4.846803494729102E-004;-4.842482972890139E-003;
2.412666666666667E+009;1.691818684339523E-001;-3.918634727597237E-002;-5.055428482592106E-004;-4.835797473788261E-003;
2.412833333333334E+009;1.694697886705399E-001;-4.111174866557121E-002;-6.327049341052771E-004;-4.803027957677841E-003;
2.413000000000000E+009;1.698522120714188E-001;-4.260307177901268E-002;-7.864646613597870E-004;-4.739794880151749E-003;
2.413166666666667E+009;1.705185770988464E-001;-4.424710571765900E-002;-1.067494740709662E-003;-4.940283484756947E-003;
2.413333333333334E+009;1.706912517547607E-001;-4.590896889567375E-002;-1.224955194629729E-003;-4.888830706477165E-003;
2.413500000000000E+009;1.712828278541565E-001;-4.729410260915756E-002;-1.478404155932367E-003;-4.865523893386126E-003;
2.413666666666667E+009;1.717878133058548E-001;-4.884310439229012E-002;-1.598250470124185E-003;-4.860180895775557E-003;
2.413833333333334E+009;1.722516715526581E-001;-5.014860630035400E-002;-1.757721067406237E-003;-4.777338355779648E-003;
2.414000000000000E+009;1.725263446569443E-001;-5.138251185417175E-002;-2.078167162835598E-003;-4.706200212240219E-003;
2.414166666666667E+009;1.733594387769699E-001;-5.252690613269806E-002;-2.249532612040639E-003;-4.929562099277973E-003;
2.414333333333334E+009;1.736702322959900E-001;-5.391279980540276E-002;-2.571576042100787E-003;-4.732210654765368E-003;
2.414500000000000E+009;1.744920313358307E-001;-5.462019890546799E-002;-2.535801613703370E-003;-4.406422376632690E-003;
2.414666666666667E+009;1.747357845306397E-001;-5.565485358238220E-002;-2.846433315426111E-003;-4.524678923189640E-003;
2.414833333333334E+009;1.750427484512329E-001;-5.658372864127159E-002;-3.033588873222470E-003;-4.281001631170511E-003;
2.415000000000000E+009;1.754523664712906E-001;-5.730142071843147E-002;-3.235097276046872E-003;-4.245425108820200E-003;
2.415166666666667E+009;1.758803576231003E-001;-5.800927802920342E-002;-3.444181056693196E-003;-4.042859654873610E-003;
2.415333333333334E+009;1.762921512126923E-001;-5.870415642857552E-002;-3.502452047541738E-003;-4.007271025329828E-003;
2.415500000000000E+009;1.764599382877350E-001;-5.913935601711273E-002;-3.741221269592643E-003;-3.870539600029588E-003;
2.415666666666667E+009;1.766031235456467E-001;-5.962185189127922E-002;-4.033690784126520E-003;-3.529537701979280E-003;
2.415833333333334E+009;1.768140196800232E-001;-6.005777791142464E-002;-3.955927677452564E-003;-3.547232830896974E-003;
2.416000000000000E+009;1.765905171632767E-001;-6.053053215146065E-002;-4.134187474846840E-003;-3.347209887579083E-003;
2.416166666666667E+009;1.767062544822693E-001;-6.094625964760780E-002;-4.226109012961388E-003;-3.082558047026396E-003;
2.416333333333334E+009;1.766445338726044E-001;-6.103627383708954E-002;-4.247440956532955E-003;-2.932830248028040E-003;
2.416500000000000E+009;1.764771938323975E-001;-6.132243946194649E-002;-4.312926903367043E-003;-2.730867126956582E-003;
2.416666666666667E+009;1.760054826736450E-001;-6.153159588575363E-002;-4.671030212193728E-003;-2.591528929769993E-003;
2.416833333333334E+009;1.758223772048950E-001;-6.194423511624336E-002;-4.724497441202402E-003;-2.383775776252151E-003;
2.417000000000000E+009;1.751668453216553E-001;-6.206183880567551E-002;-4.690110217779875E-003;-2.177602145820856E-003;
2.417166666666667E+009;1.747145205736160E-001;-6.217158213257790E-002;-4.964143969118595E-003;-1.768903923220933E-003;
2.417333333333334E+009;1.741298288106918E-001;-6.251223385334015E-002;-4.818196408450604E-003;-1.673222403042018E-003;
2.417500000000000E+009;1.733842194080353E-001;-6.282529979944229E-002;-4.883521236479282E-003;-1.583768986165524E-003;
2.417666666666667E+009;1.727543622255325E-001;-6.292460858821869E-002;-5.046121310442686E-003;-1.343503943644464E-003;
2.417833333333334E+009;1.718204915523529E-001;-6.316542625427246E-002;-4.994211718440056E-003;-1.147501636296511E-003;
2.418000000000000E+009;1.708303093910217E-001;-6.352099031209946E-002;-4.980420693755150E-003;-8.980213315226138E-004;
2.418166666666667E+009;1.699300557374954E-001;-6.376271694898605E-002;-4.971806891262531E-003;-6.819730624556541E-004;
2.418333333333334E+009;1.691011041402817E-001;-6.414812058210373E-002;-4.844080191105604E-003;-5.579908029176295E-004;
2.418500000000000E+009;1.678762733936310E-001;-6.465028226375580E-002;-5.076078232377768E-003;-4.414228606037796E-004;
2.418666666666667E+009;1.670096069574356E-001;-6.515235453844070E-002;-5.001395940780640E-003;-2.040211402345449E-004;
2.418833333333334E+009;1.656239479780197E-001;-6.583441048860550E-002;-4.891259595751762E-003;-9.229791612597182E-005;
2.419000000000000E+009;1.644373834133148E-001;-6.622815877199173E-002;-4.873521160334349E-003;1.576136710355058E-004;
2.419166666666667E+009;1.633192151784897E-001;-6.696303933858872E-002;-4.874694626778364E-003;2.970678033307195E-004;
2.419333333333334E+009;1.619455665349960E-001;-6.752941012382507E-002;-4.688496701419354E-003;5.907132290303707E-004;
2.419500000000000E+009;1.608350425958633E-001;-6.859575957059860E-002;-4.838508553802967E-003;5.869276938028634E-004;
2.419666666666667E+009;1.597777754068375E-001;-6.960982084274292E-002;-4.686143249273300E-003;8.365936810150743E-004;
2.419833333333334E+009;1.585039496421814E-001;-7.032193988561630E-002;-4.763201810419560E-003;1.002153498120606E-003;
2.420000000000000E+009;1.573927253484726E-001;-7.149080187082291E-002;-4.577540326863527E-003;1.102050184272230E-003;
2.420166666666667E+009;1.561725139617920E-001;-7.265396416187286E-002;-4.610544070601463E-003;1.542381010949612E-003;
2.420333333333334E+009;1.551556736230850E-001;-7.391865551471710E-002;-4.527755547314882E-003;1.609635772183538E-003;
2.420500000000000E+009;1.541873216629028E-001;-7.491608709096909E-002;-4.289126954972744E-003;1.719484804198146E-003;
2.420666666666667E+009;1.529700458049774E-001;-7.645754516124725E-002;-4.132899455726147E-003;1.921075512655079E-003;
2.420833333333334E+009;1.522324681282044E-001;-7.783788442611694E-002;-4.162672907114029E-003;2.062852727249265E-003;
2.421000000000000E+009;1.512950211763382E-001;-7.934652268886566E-002;-3.809966612607241E-003;2.164592500776053E-003;
2.421166666666667E+009;1.505746692419052E-001;-8.083824813365936E-002;-3.818417666479945E-003;2.185038989409804E-003;
2.421333333333334E+009;1.499138176441193E-001;-8.243343979120255E-002;-3.602313576266170E-003;2.467482816427946E-003;
2.421500000000000E+009;1.491551101207733E-001;-8.396749943494797E-002;-3.576607210561633E-003;2.605993067845702E-003;
2.421666666666667E+009;1.486068665981293E-001;-8.564124256372452E-002;-3.238409059122205E-003;2.627812093123794E-003;
2.421833333333334E+009;1.482308655977249E-001;-8.730352669954300E-002;-3.069267375394702E-003;2.697980031371117E-003;
2.422000000000000E+009;1.477060616016388E-001;-8.890570700168610E-002;-3.058208618313074E-003;2.835059305652976E-003;
2.422166666666667E+009;1.473656743764877E-001;-9.087493270635605E-002;-2.784323878586292E-003;2.987859072163701E-003;
2.422333333333334E+009;1.472221165895462E-001;-9.246091544628143E-002;-2.493042731657624E-003;3.106957767158747E-003;
2.422500000000000E+009;1.468646526336670E-001;-9.394230693578720E-002;-2.568486379459500E-003;3.034524386748672E-003;
2.422666666666667E+009;1.466350853443146E-001;-9.576489031314850E-002;-2.306963782757521E-003;3.097565844655037E-003;
2.422833333333334E+009;1.468463540077210E-001;-9.756362438201904E-002;-2.135141054168344E-003;3.117869840934873E-003;
2.423000000000000E+009;1.468382626771927E-001;-9.924611449241638E-002;-1.895933295600116E-003;3.261429723352194E-003;
2.423166666666667E+009;1.469728946685791E-001;-1.007791310548782E-001;-1.816948410123587E-003;2.985477913171053E-003;
2.423333333333334E+009;1.471788734197617E-001;-1.022707596421242E-001;-1.546780578792095E-003;2.999880583956838E-003;
2.423500000000000E+009;1.472416222095490E-001;-1.038110405206680E-001;-1.503220642916858E-003;3.323412733152509E-003;
2.423666666666667E+009;1.473917216062546E-001;-1.055435761809349E-001;-1.211572205647826E-003;3.015039023011923E-003;
2.423833333333334E+009;1.479444950819016E-001;-1.070566102862358E-001;-1.119289780035615E-003;3.053705906495452E-003;
2.424000000000000E+009;1.479763239622116E-001;-1.083082407712936E-001;-8.999779820442200E-004;3.030913881957531E-003;
2.424166666666667E+009;1.483688503503799E-001;-1.096190065145493E-001;-9.025273611769080E-004;3.024740843102336E-003;
2.424333333333334E+009;1.487710177898407E-001;-1.108661666512489E-001;-7.168653537519276E-004;2.817782806232572E-003;
2.424500000000000E+009;1.492128223180771E-001;-1.119975224137306E-001;-5.751726566813886E-004;2.768524689599872E-003;
2.424666666666667E+009;1.497559398412705E-001;-1.129351928830147E-001;-4.681924474425614E-004;2.812366234138608E-003;
2.424833333333334E+009;1.499977260828018E-001;-1.140729337930679E-001;-3.750235191546381E-004;2.738691167905927E-003;
2.425000000000000E+009;1.503179073333740E-001;-1.150251775979996E-001;-2.569564094301313E-004;2.554345643147826E-003;
2.425166666666667E+009;1.505218297243118E-001;-1.157771572470665E-001;-2.276353916386142E-004;2.532366430386901E-003;
2.425333333333334E+009;1.511242240667343E-001;-1.166507676243782E-001;-1.222613500431180E-004;2.579956082627177E-003;
2.425500000000000E+009;1.513667255640030E-001;-1.175484657287598E-001;2.561219480412547E-005;2.548861550167203E-003;
2.425666666666667E+009;1.513085961341858E-001;-1.179571449756622E-001;1.034719171002507E-004;2.312607597559691E-003;
2.425833333333334E+009;1.516616493463516E-001;-1.186695247888565E-001;5.893895286135376E-005;2.344326581805944E-003;
2.426000000000000E+009;1.518387794494629E-001;-1.192089989781380E-001;3.412559453863651E-004;2.199875889346004E-003;
2.426166666666667E+009;1.519166678190231E-001;-1.196980848908424E-001;3.787650493904948E-004;2.178212627768517E-003;
2.426333333333334E+009;1.519073098897934E-001;-1.199037879705429E-001;2.664779312908649E-004;2.100157784298062E-003;
2.426500000000000E+009;1.518451720476151E-001;-1.202599853277206E-001;3.032753302250058E-004;2.043659333139658E-003;
2.426666666666667E+009;1.518437564373016E-001;-1.204145848751068E-001;5.539521807804704E-004;1.925190445035696E-003;
2.426833333333334E+009;1.515554189682007E-001;-1.207192242145538E-001;4.407569358590990E-004;1.995301106944680E-003;
2.427000000000000E+009;1.511878222227097E-001;-1.209776476025581E-001;5.936475936323404E-004;1.875632326118648E-003;
2.427166666666667E+009;1.508193314075470E-001;-1.209266781806946E-001;4.595572536345571E-004;1.718558487482369E-003;
2.427333333333334E+009;1.503353267908096E-001;-1.210581138730049E-001;5.095649394206703E-004;1.581687713041902E-003;
2.427500000000000E+009;1.499199569225311E-001;-1.212923675775528E-001;5.845907144248486E-004;1.681705238297582E-003;
2.427666666666667E+009;1.492547541856766E-001;-1.214076653122902E-001;4.115545307286084E-004;1.527542830444872E-003;
