# Version 1.00
#
freq[Hz];re:Trc1_S11;im:Trc1_S11;re:Trc2_S21;im:Trc2_S21;
2.400000000000000E+009;1.549556404352188E-001;1.064228489995003E-001;1.202416140586138E-003;-5.112666171044111E-003;
2.400166666666667E+009;1.546708792448044E-001;1.040506735444069E-001;9.783667046576738E-004;-4.889170639216900E-003;
2.400333333333334E+009;1.547120362520218E-001;1.018715575337410E-001;9.275911143049598E-004;-5.063996184617281E-003;
2.400500000000000E+009;1.547090262174606E-001;9.923344105482101E-002;1.099559594877064E-003;-4.946802742779255E-003;
2.400666666666667E+009;1.549107879400253E-001;9.658172726631165E-002;9.943392360582948E-004;-4.821461159735918E-003;
2.400833333333334E+009;1.549876034259796E-001;9.380287677049637E-002;8.847525459714234E-004;-4.798209760338068E-003;
2.401000000000000E+009;1.553130447864533E-001;9.095866978168488E-002;1.068143872544169E-003;-4.727629944682121E-003;
2.401166666666667E+009;1.552664786577225E-001;8.824897557497025E-002;1.020675990730524E-003;-4.875308834016323E-003;
2.401333333333334E+009;1.557612717151642E-001;8.553161472082138E-002;9.957208530977368E-004;-4.882440436631441E-003;
2.401500000000000E+009;1.560713201761246E-001;8.265097439289093E-002;1.110079581849277E-003;-4.984976723790169E-003;
2.401666666666667E+009;1.564635187387466E-001;7.983950525522232E-002;9.705258999019861E-004;-5.096807144582272E-003;
2.401833333333334E+009;1.571212559938431E-001;7.699443399906158E-002;8.704364299774170E-004;-5.041280761361122E-003;
2.402000000000000E+009;1.578485965728760E-001;7.425932586193085E-002;7.582981488667429E-004;-5.164784844964743E-003;
2.402166666666667E+009;1.587755382061005E-001;7.194168120622635E-002;6.246332195587456E-004;-5.354466382414103E-003;
2.402333333333334E+009;1.598707586526871E-001;6.915991753339768E-002;6.260078516788781E-004;-5.259037949144840E-003;
2.402500000000000E+009;1.610457003116608E-001;6.671413034200668E-002;4.333141550887376E-004;-5.505637265741825E-003;
2.402666666666667E+009;1.622039377689362E-001;6.448822468519211E-002;2.888912567868829E-004;-5.542879924178124E-003;
2.402833333333334E+009;1.636440455913544E-001;6.200999021530151E-002;1.260581339010969E-004;-5.683850962668657E-003;
2.403000000000000E+009;1.649373620748520E-001;5.973172560334206E-002;-1.095553234335966E-004;-5.426494404673576E-003;
2.403166666666667E+009;1.667922586202622E-001;5.743904039263725E-002;-3.957911685574800E-004;-5.640186835080385E-003;
2.403333333333334E+009;1.682277023792267E-001;5.535679310560226E-002;-5.385422846302390E-004;-5.457350518554449E-003;
2.403500000000000E+009;1.698363721370697E-001;5.327009782195091E-002;-8.264465141110122E-004;-5.517560523003340E-003;
2.403666666666667E+009;1.718015074729919E-001;5.153272300958633E-002;-9.894174290820956E-004;-5.279149394482374E-003;
2.403833333333334E+009;1.733373850584030E-001;4.957629367709160E-002;-1.013174653053284E-003;-5.189375020563602E-003;
2.404000000000000E+009;1.748120486736298E-001;4.777552932500839E-002;-1.196183846332133E-003;-5.045348778367043E-003;
2.404166666666667E+009;1.766222864389420E-001;4.650653526186943E-002;-1.171163166873157E-003;-4.859047476202250E-003;
2.404333333333334E+009;1.780826598405838E-001;4.493989422917366E-002;-1.161993481218815E-003;-5.021489225327969E-003;
2.404500000000000E+009;1.797101795673370E-001;4.360673576593399E-002;-1.209667418152094E-003;-4.693591501563788E-003;
2.404666666666667E+009;1.815175861120224E-001;4.258539900183678E-002;-1.335447886958718E-003;-4.789431579411030E-003;
2.404833333333334E+009;1.830456852912903E-001;4.149032384157181E-002;-1.218506600707769E-003;-4.911587573587894E-003;
2.405000000000000E+009;1.844378858804703E-001;4.081043973565102E-002;-1.449794392101467E-003;-4.848425276577473E-003;
2.405166666666667E+009;1.858915686607361E-001;4.015434905886650E-002;-1.555622671730816E-003;-4.964127670973539E-003;
2.405333333333334E+009;1.872315257787705E-001;3.951332345604897E-002;-1.587750623002648E-003;-4.818900953978300E-003;
2.405500000000000E+009;1.884739696979523E-001;3.910373151302338E-002;-1.742722583003342E-003;-4.933706019073725E-003;
2.405666666666667E+009;1.898188740015030E-001;3.875009343028069E-002;-1.800189842469990E-003;-4.916504025459290E-003;
2.405833333333334E+009;1.910160332918167E-001;3.857873752713203E-002;-2.170366700738668E-003;-4.729480016976595E-003;
2.406000000000000E+009;1.920534968376160E-001;3.827047720551491E-002;-2.369568916037679E-003;-4.771184641867876E-003;
2.406166666666667E+009;1.929505765438080E-001;3.811780363321304E-002;-2.429160522297025E-003;-4.754384513944387E-003;
2.406333333333334E+009;1.938456743955612E-001;3.812633454799652E-002;-2.614629454910755E-003;-4.706677049398422E-003;
2.406500000000000E+009;1.945191770792007E-001;3.817406669259071E-002;-2.855374943464994E-003;-4.517911467701197E-003;
2.406666666666667E+009;1.951035261154175E-001;3.808585926890373E-002;-3.032657317817211E-003;-4.484580829739571E-003;
2.406833333333334E+009;1.957298666238785E-001;3.816096857190132E-002;-3.085001371800900E-003;-4.121446050703526E-003;
2.407000000000000E+009;1.959478706121445E-001;3.822496533393860E-002;-3.161353524774313E-003;-4.156776238232851E-003;
2.407166666666667E+009;1.962339878082275E-001;3.811729326844215E-002;-3.066394012421370E-003;-4.259904380887747E-003;
2.407333333333334E+009;1.962588429450989E-001;3.819939866662026E-002;-3.118332242593169E-003;-3.964109811931849E-003;
2.407500000000000E+009;1.962064653635025E-001;3.824871405959129E-002;-3.253048751503229E-003;-3.910497296601534E-003;
2.407666666666667E+009;1.961144059896469E-001;3.813820332288742E-002;-3.277188632637262E-003;-3.823411650955677E-003;
2.407833333333334E+009;1.956268697977066E-001;3.787269070744515E-002;-3.223085775971413E-003;-3.734530182555318E-003;
2.408000000000000E+009;1.955030858516693E-001;3.767257928848267E-002;-3.473372431471944E-003;-3.708358388394117E-003;
2.408166666666667E+009;1.949245631694794E-001;3.739927336573601E-002;-3.456378821283579E-003;-3.557544900104404E-003;
2.408333333333334E+009;1.945020705461502E-001;3.681575134396553E-002;-3.398916916921735E-003;-3.540937323123217E-003;
2.408500000000000E+009;1.937784105539322E-001;3.636778891086578E-002;-3.506234381347895E-003;-3.592807566747069E-003;
2.408666666666667E+009;1.932354122400284E-001;3.578401729464531E-002;-3.630911000072956E-003;-3.323383163660765E-003;
2.408833333333334E+009;1.924906969070435E-001;3.490579128265381E-002;-3.838488133624196E-003;-3.490053815767169E-003;
2.409000000000000E+009;1.915211081504822E-001;3.396618738770485E-002;-3.800759557634592E-003;-3.422136651352048E-003;
2.409166666666667E+009;1.904682219028473E-001;3.300009667873383E-002;-3.766777692362666E-003;-3.332708496600390E-003;
2.409333333333334E+009;1.895230263471603E-001;3.193639591336250E-002;-3.914854023605585E-003;-3.259338438510895E-003;
2.409500000000000E+009;1.885822564363480E-001;3.058728761970997E-002;-3.969146404415369E-003;-3.359907073900104E-003;
2.409666666666667E+009;1.875042617321014E-001;2.910059317946434E-002;-4.127669613808394E-003;-3.410123055800796E-003;
2.409833333333334E+009;1.864347308874130E-001;2.761024422943592E-002;-4.175228066742420E-003;-3.286998718976975E-003;
2.410000000000000E+009;1.855476200580597E-001;2.588335424661636E-002;-4.392663482576609E-003;-3.178040962666273E-003;
2.410166666666667E+009;1.845623701810837E-001;2.394379489123821E-002;-4.575271159410477E-003;-3.115681931376457E-003;
2.410333333333334E+009;1.833860427141190E-001;2.226977236568928E-002;-4.606647416949272E-003;-3.196527250111103E-003;
2.410500000000000E+009;1.826056092977524E-001;2.033192291855812E-002;-4.773430991917849E-003;-2.932099392637610E-003;
2.410666666666667E+009;1.817371398210526E-001;1.804900728166103E-002;-4.905933514237404E-003;-2.713812747970223E-003;
2.410833333333334E+009;1.811498105525971E-001;1.581245101988316E-002;-5.065974313765764E-003;-2.798296278342605E-003;
2.411000000000000E+009;1.802650988101959E-001;1.373772509396076E-002;-5.184313748031855E-003;-2.559461398050189E-003;
2.411166666666667E+009;1.797679066658020E-001;1.136851776391268E-002;-5.235239397734404E-003;-2.520238980650902E-003;
2.411333333333334E+009;1.791356503963471E-001;9.021800011396408E-003;-5.401485599577427E-003;-2.329978859052062E-003;
2.411500000000000E+009;1.786738187074661E-001;6.556519307196140E-003;-5.545473191887140E-003;-2.242381451651454E-003;
2.411666666666667E+009;1.785666197538376E-001;4.264674615114927E-003;-5.686699878424406E-003;-2.129910979419947E-003;
2.411833333333334E+009;1.782147586345673E-001;1.789062749594450E-003;-5.617804359644651E-003;-1.862188335508108E-003;
2.412000000000000E+009;1.784373372793198E-001;-7.146066054701805E-004;-5.755912046879530E-003;-1.746539492160082E-003;
2.412166666666667E+009;1.784557998180389E-001;-2.965370193123817E-003;-5.841594189405441E-003;-1.606133533641696E-003;
2.412333333333334E+009;1.787876039743424E-001;-5.409616045653820E-003;-5.867098458111286E-003;-1.438945415429771E-003;
2.412500000000000E+009;1.793021410703659E-001;-7.828447036445141E-003;-6.084284745156765E-003;-1.417169696651399E-003;
2.412666666666667E+009;1.797451078891754E-001;-1.026261877268553E-002;-6.230345927178860E-003;-1.184081775136292E-003;
2.412833333333334E+009;1.805292814970017E-001;-1.265546493232250E-002;-6.146004423499107E-003;-7.869208930060267E-004;
2.413000000000000E+009;1.812587380409241E-001;-1.481617521494627E-002;-6.452956236898899E-003;-7.393345003947616E-004;
2.413166666666667E+009;1.819616556167603E-001;-1.685840450227261E-002;-6.484054028987885E-003;-5.612839595414698E-004;
2.413333333333334E+009;1.829219907522202E-001;-1.934618689119816E-002;-6.589042488485575E-003;-2.857919025700539E-004;
2.413500000000000E+009;1.838694959878922E-001;-2.138462103903294E-002;-6.630886346101761E-003;-2.059728576568887E-004;
2.413666666666667E+009;1.850651949644089E-001;-2.361327596008778E-002;-6.686431821435690E-003;2.084748994093388E-004;
2.413833333333334E+009;1.861088722944260E-001;-2.555416524410248E-002;-6.734902504831553E-003;6.731332978233695E-004;
2.414000000000000E+009;1.871540099382401E-001;-2.740351669490337E-002;-6.766146514564753E-003;8.373419404961169E-004;
2.414166666666667E+009;1.884238123893738E-001;-2.924284152686596E-002;-6.665086373686791E-003;1.226295367814601E-003;
2.414333333333334E+009;1.896348744630814E-001;-3.104488737881184E-002;-6.595561280846596E-003;1.564530190080404E-003;
2.414500000000000E+009;1.907330453395844E-001;-3.252158313989639E-002;-6.467768922448158E-003;1.912415493279696E-003;
2.414666666666667E+009;1.918997019529343E-001;-3.411180526018143E-002;-6.359309889376164E-003;2.016131533309817E-003;
2.414833333333334E+009;1.930807977914810E-001;-3.535226359963417E-002;-6.075412966310978E-003;2.279406646266580E-003;
2.415000000000000E+009;1.941807568073273E-001;-3.649013489484787E-002;-6.089353468269110E-003;2.360107610002160E-003;
2.415166666666667E+009;1.954365521669388E-001;-3.770375624299049E-002;-5.941320210695267E-003;2.656091004610062E-003;
2.415333333333334E+009;1.965216547250748E-001;-3.868495300412178E-002;-5.606176331639290E-003;2.977229189127684E-003;
2.415500000000000E+009;1.976646929979324E-001;-3.928125649690628E-002;-5.552667193114758E-003;3.134505590423942E-003;
2.415666666666667E+009;1.985358297824860E-001;-4.001970589160919E-002;-5.296196322888136E-003;3.474602941423655E-003;
2.415833333333334E+009;1.993859708309174E-001;-4.070734232664108E-002;-5.151605699211359E-003;3.612832166254520E-003;
2.416000000000000E+009;2.002643048763275E-001;-4.110460355877876E-002;-4.974526353180409E-003;3.673465922474861E-003;
2.416166666666667E+009;2.009020894765854E-001;-4.177458584308624E-002;-4.738071002066135E-003;3.899134695529938E-003;
2.416333333333334E+009;2.015031576156616E-001;-4.211909696459770E-002;-4.632981494069099E-003;4.076795652508736E-003;
2.416500000000000E+009;2.020560055971146E-001;-4.222340881824493E-002;-4.374928306788206E-003;4.209624137729406E-003;
2.416666666666667E+009;2.021635025739670E-001;-4.266886040568352E-002;-4.056116100400686E-003;4.305596463382244E-003;
2.416833333333334E+009;2.024451643228531E-001;-4.272467643022537E-002;-3.765556029975414E-003;4.371036775410175E-003;
2.417000000000000E+009;2.024054080247879E-001;-4.287888109683991E-002;-3.665634198114276E-003;4.567801021039486E-003;
2.417166666666667E+009;2.021744698286057E-001;-4.271949082612991E-002;-3.382570110261440E-003;4.472754895687103E-003;
2.417333333333334E+009;2.018903940916061E-001;-4.257835820317268E-002;-3.074516309425235E-003;4.362122155725956E-003;
2.417500000000000E+009;2.015518099069595E-001;-4.273591190576553E-002;-2.982441801577807E-003;4.440892487764359E-003;
2.417666666666667E+009;2.009492516517639E-001;-4.236740618944168E-002;-2.866256516426802E-003;4.297969862818718E-003;
2.417833333333334E+009;2.004922628402710E-001;-4.232738539576531E-002;-2.680398756638169E-003;4.274156410247088E-003;
2.418000000000000E+009;1.997681260108948E-001;-4.208564013242722E-002;-2.640041057020426E-003;4.228955134749413E-003;
2.418166666666667E+009;1.989556849002838E-001;-4.212693125009537E-002;-2.460869029164314E-003;4.106632433831692E-003;
2.418333333333334E+009;1.979863643646240E-001;-4.199289157986641E-002;-2.463063923642039E-003;4.033786710351706E-003;
2.418500000000000E+009;1.969919949769974E-001;-4.195373505353928E-002;-2.167130820453167E-003;4.051227588206530E-003;
2.418666666666667E+009;1.960532665252686E-001;-4.193996638059616E-002;-2.217111410573125E-003;4.052835516631603E-003;
2.418833333333334E+009;1.947706639766693E-001;-4.220740124583244E-002;-2.040704246610403E-003;3.940766211599112E-003;
2.419000000000000E+009;1.933911144733429E-001;-4.241120070219040E-002;-2.010426251217723E-003;3.888678038492799E-003;
2.419166666666667E+009;1.922669261693955E-001;-4.279910773038864E-002;-1.929474296048284E-003;3.793552517890930E-003;
2.419333333333334E+009;1.907591223716736E-001;-4.328519105911255E-002;-2.083638217300177E-003;3.719794796779752E-003;
2.419500000000000E+009;1.892722994089127E-001;-4.369392246007919E-002;-1.882908050902188E-003;3.767729969695211E-003;
2.419666666666667E+009;1.875803917646408E-001;-4.449100419878960E-002;-1.890714280307293E-003;3.826510393992066E-003;
2.419833333333334E+009;1.859393119812012E-001;-4.495237767696381E-002;-1.987743191421032E-003;3.603996243327856E-003;
2.420000000000000E+009;1.844760626554489E-001;-4.599985480308533E-002;-2.067073946818709E-003;3.614467103034258E-003;
2.420166666666667E+009;1.828664094209671E-001;-4.711624607443810E-002;-2.061243867501617E-003;3.584014717489481E-003;
2.420333333333334E+009;1.813426017761231E-001;-4.825211688876152E-002;-1.961561618372798E-003;3.740115556865931E-003;
2.420500000000000E+009;1.796704530715942E-001;-4.962222650647163E-002;-2.243034308776259E-003;3.683871123939753E-003;
2.420666666666667E+009;1.781872361898422E-001;-5.055142194032669E-002;-2.232081256806850E-003;3.836409654468298E-003;
2.420833333333334E+009;1.766841709613800E-001;-5.221747234463692E-002;-2.172231441363692E-003;4.018294159322977E-003;
2.421000000000000E+009;1.750031113624573E-001;-5.370831489562988E-002;-2.500388538464904E-003;4.143768921494484E-003;
2.421166666666667E+009;1.738392412662506E-001;-5.535054951906204E-002;-2.378046279773116E-003;4.129166714847088E-003;
2.421333333333334E+009;1.720851063728333E-001;-5.682215094566345E-002;-2.216950524598360E-003;4.420147743076086E-003;
2.421500000000000E+009;1.709925830364227E-001;-5.880984291434288E-002;-2.148948842659593E-003;4.566477611660957E-003;
2.421666666666667E+009;1.696185022592545E-001;-6.074117124080658E-002;-2.262707799673080E-003;4.808085504919291E-003;
2.421833333333334E+009;1.685851365327835E-001;-6.242543831467629E-002;-2.189116552472115E-003;5.095784552395344E-003;
2.422000000000000E+009;1.673711836338043E-001;-6.431077420711517E-002;-1.870836480520666E-003;5.121278576552868E-003;
2.422166666666667E+009;1.668212711811066E-001;-6.643344461917877E-002;-1.831412664614618E-003;5.371346138417721E-003;
2.422333333333334E+009;1.658767014741898E-001;-6.846699118614197E-002;-1.736906939186156E-003;5.412797443568707E-003;
2.422500000000000E+009;1.651520133018494E-001;-7.019646465778351E-002;-1.582856988534331E-003;5.541046615689993E-003;
2.422666666666667E+009;1.643534898757935E-001;-7.229565829038620E-002;-1.249627443030477E-003;5.669251084327698E-003;
2.422833333333334E+009;1.639728248119354E-001;-7.416182011365891E-002;-1.235304633155465E-003;5.883342586457729E-003;
2.423000000000000E+009;1.635578721761704E-001;-7.638747245073319E-002;-9.695812477730215E-004;5.981648340821266E-003;
2.423166666666667E+009;1.632466614246368E-001;-7.822095602750778E-002;-5.995348910801113E-004;6.178248673677445E-003;
2.423333333333334E+009;1.629838794469833E-001;-8.028365671634674E-002;-4.354758420959115E-004;5.994237028062344E-003;
2.423500000000000E+009;1.629821062088013E-001;-8.182825893163681E-002;-4.098264907952398E-004;6.148981861770153E-003;
2.423666666666667E+009;1.629300862550736E-001;-8.377028256654739E-002;-9.068983490578830E-005;6.081075407564640E-003;
2.423833333333334E+009;1.629247516393662E-001;-8.554252982139587E-002;3.517036748235114E-005;6.324372254312038E-003;
2.424000000000000E+009;1.629946380853653E-001;-8.721169084310532E-002;2.454248315189034E-004;6.318936590105295E-003;
2.424166666666667E+009;1.631925702095032E-001;-8.875054121017456E-002;4.403385100886226E-004;6.541130132973194E-003;
2.424333333333334E+009;1.633833497762680E-001;-9.032133966684341E-002;8.780182688497007E-004;6.611538119614124E-003;
2.424500000000000E+009;1.637751460075378E-001;-9.196495264768601E-002;1.030266517773271E-003;6.721413228660822E-003;
2.424666666666667E+009;1.639201641082764E-001;-9.316963702440262E-002;1.359282876364887E-003;6.666574627161026E-003;
2.424833333333334E+009;1.644773185253143E-001;-9.457749128341675E-002;1.612539403140545E-003;6.453822366893292E-003;
2.425000000000000E+009;1.648376733064652E-001;-9.575892984867096E-002;2.114912960678339E-003;6.670696660876274E-003;
2.425166666666667E+009;1.651750206947327E-001;-9.682047367095947E-002;2.322329906746745E-003;6.411433219909668E-003;
2.425333333333334E+009;1.653940081596375E-001;-9.773284196853638E-002;2.708540530875325E-003;6.418984383344650E-003;
2.425500000000000E+009;1.658432781696320E-001;-9.871976077556610E-002;2.993464237079024E-003;6.260389927774668E-003;
2.425666666666667E+009;1.662937700748444E-001;-9.938472509384155E-002;3.191360272467136E-003;6.179419811815023E-003;
2.425833333333334E+009;1.664457619190216E-001;-1.001829132437706E-001;3.479480044916272E-003;6.045871414244175E-003;
2.426000000000000E+009;1.668800115585327E-001;-1.004547104239464E-001;3.830608911812306E-003;5.741951987147331E-003;
2.426166666666667E+009;1.671985536813736E-001;-1.011052504181862E-001;4.059134051203728E-003;5.560650490224361E-003;
2.426333333333334E+009;1.673605740070343E-001;-1.016132086515427E-001;4.295600112527609E-003;5.183564499020577E-003;
2.426500000000000E+009;1.677460223436356E-001;-1.017925143241882E-001;4.466346465051174E-003;5.065588280558586E-003;
2.426666666666667E+009;1.679592132568359E-001;-1.021138802170754E-001;4.627762362360954E-003;4.631344228982925E-003;
2.426833333333334E+009;1.680620610713959E-001;-1.024394705891609E-001;4.730493295937777E-003;4.540857393294573E-003;
2.427000000000000E+009;1.680985093116760E-001;-1.026333868503571E-001;4.862863570451737E-003;4.507930018007755E-003;
2.427166666666667E+009;1.680797487497330E-001;-1.026625111699104E-001;4.905574955046177E-003;4.107933025807142E-003;
2.427333333333334E+009;1.679557561874390E-001;-1.029639318585396E-001;4.985698964446783E-003;3.826312487944961E-003;
2.427500000000000E+009;1.677063107490540E-001;-1.030403003096581E-001;5.025665275752544E-003;3.652303945273161E-003;
2.427666666666667E+009;1.673244088888168E-001;-1.030973568558693E-001;5.153047386556864E-003;3.308711573481560E-003;
