# Version 1.00
#
freq[Hz];re:Trc1_S11;im:Trc1_S11;re:Trc2_S21;im:Trc2_S21;
2.400000000000000E+009;1.549841016530991E-001;1.064981296658516E-001;1.090174308046699E-003;-5.398400593549013E-003;
2.400166666666667E+009;1.546788513660431E-001;1.042325049638748E-001;1.008984516374767E-003;-5.069941747933626E-003;
2.400333333333334E+009;1.547628194093704E-001;1.017996892333031E-001;1.064322190359235E-003;-4.901546984910965E-003;
2.400500000000000E+009;1.549100130796433E-001;9.917326271533966E-002;9.910414228215814E-004;-5.021274089813232E-003;
2.400666666666667E+009;1.549667865037918E-001;9.655293822288513E-002;8.985492750070989E-004;-4.845631774514914E-003;
2.400833333333334E+009;1.548921167850494E-001;9.376804530620575E-002;1.076735090464354E-003;-4.815896973013878E-003;
2.401000000000000E+009;1.551299840211868E-001;9.094344079494476E-002;9.302750113420188E-004;-4.614988341927528E-003;
2.401166666666667E+009;1.552111655473709E-001;8.828815817832947E-002;1.043512485921383E-003;-4.767163190990686E-003;
2.401333333333334E+009;1.557250320911408E-001;8.548217266798019E-002;9.108413942158222E-004;-4.692095331847668E-003;
2.401500000000000E+009;1.559422612190247E-001;8.259052038192749E-002;9.044032776728272E-004;-4.887266084551811E-003;
2.401666666666667E+009;1.564167141914368E-001;7.983180880546570E-002;8.838396752253175E-004;-5.040679126977921E-003;
2.401833333333334E+009;1.570445001125336E-001;7.731464505195618E-002;9.449394419789314E-004;-4.908608738332987E-003;
2.402000000000000E+009;1.578754931688309E-001;7.439211010932922E-002;8.073376375250518E-004;-5.005042068660259E-003;
2.402166666666667E+009;1.587320864200592E-001;7.198727130889893E-002;6.440287688747048E-004;-5.303842481225729E-003;
2.402333333333334E+009;1.598034650087357E-001;6.908466666936874E-002;5.777054466307163E-004;-5.115971434861422E-003;
2.402500000000000E+009;1.609843671321869E-001;6.677486747503281E-002;3.146397939417511E-004;-5.503308027982712E-003;
2.402666666666667E+009;1.619609594345093E-001;6.455259770154953E-002;1.327368809143081E-004;-5.484567023813725E-003;
2.402833333333334E+009;1.634987741708756E-001;6.207966431975365E-002;-9.052956011146307E-005;-5.608933512121439E-003;
2.403000000000000E+009;1.648841947317123E-001;5.972835421562195E-002;-2.330964634893462E-004;-5.596030503511429E-003;
2.403166666666667E+009;1.665003597736359E-001;5.761893838644028E-002;-3.946679935324937E-004;-5.506951827555895E-003;
2.403333333333334E+009;1.680302321910858E-001;5.545928701758385E-002;-5.831600865349174E-004;-5.341620650142431E-003;
2.403500000000000E+009;1.698529571294785E-001;5.354939028620720E-002;-8.664025226607919E-004;-5.280397832393646E-003;
2.403666666666667E+009;1.715049296617508E-001;5.166080966591835E-002;-9.619132615625858E-004;-5.264136940240860E-003;
2.403833333333334E+009;1.731287539005280E-001;4.973007366061211E-002;-1.131440396420658E-003;-5.116656888276339E-003;
2.404000000000000E+009;1.748033910989761E-001;4.815797135233879E-002;-1.207541557960212E-003;-4.942944739013910E-003;
2.404166666666667E+009;1.764534711837769E-001;4.638613015413284E-002;-1.284444588236511E-003;-4.858559463173151E-003;
2.404333333333334E+009;1.782302260398865E-001;4.506855458021164E-002;-1.396252890117466E-003;-4.878461360931397E-003;
2.404500000000000E+009;1.797732710838318E-001;4.360123723745346E-002;-1.181035884656012E-003;-4.791075363755226E-003;
2.404666666666667E+009;1.812823563814163E-001;4.268369823694229E-002;-1.421048305928707E-003;-4.601175431162119E-003;
2.404833333333334E+009;1.830013096332550E-001;4.156156629323959E-002;-1.431960612535477E-003;-4.817070905119181E-003;
2.405000000000000E+009;1.843236088752747E-001;4.103220626711845E-002;-1.470671035349369E-003;-4.642559215426445E-003;
2.405166666666667E+009;1.858094930648804E-001;4.031520336866379E-002;-1.520810998044908E-003;-4.777405876666307E-003;
2.405333333333334E+009;1.872099936008453E-001;3.974677622318268E-002;-1.717288163490593E-003;-4.871979821473360E-003;
2.405500000000000E+009;1.885121464729309E-001;3.919524326920509E-002;-1.863994053564966E-003;-4.947635345160961E-003;
2.405666666666667E+009;1.898147910833359E-001;3.895892947912216E-002;-2.159390132874250E-003;-4.726930521428585E-003;
2.405833333333334E+009;1.911004334688187E-001;3.865082934498787E-002;-2.029087394475937E-003;-4.891567863523960E-003;
2.406000000000000E+009;1.920053809881210E-001;3.841136023402214E-002;-2.245855983346701E-003;-4.878221545368433E-003;
2.406166666666667E+009;1.930742114782333E-001;3.829809278249741E-002;-2.559053013101220E-003;-4.812096711248159E-003;
2.406333333333334E+009;1.937663257122040E-001;3.827800601720810E-002;-2.720761112868786E-003;-4.464579280465841E-003;
2.406500000000000E+009;1.945911347866058E-001;3.825135529041290E-002;-2.702832687646151E-003;-4.582310561090708E-003;
2.406666666666667E+009;1.950745284557343E-001;3.819325193762779E-002;-2.923711901530623E-003;-4.338043276220560E-003;
2.406833333333334E+009;1.957888454198837E-001;3.823067247867584E-002;-3.033023327589035E-003;-4.343308508396149E-003;
2.407000000000000E+009;1.960342824459076E-001;3.842231258749962E-002;-3.022242337465286E-003;-4.027876537293196E-003;
2.407166666666667E+009;1.964024603366852E-001;3.802314400672913E-002;-3.185263834893704E-003;-3.981960937380791E-003;
2.407333333333334E+009;1.962778568267822E-001;3.831333294510841E-002;-3.207597881555557E-003;-3.893905784934759E-003;
2.407500000000000E+009;1.962128430604935E-001;3.832987695932388E-002;-3.401299705728889E-003;-3.916512243449688E-003;
2.407666666666667E+009;1.960959136486054E-001;3.816744685173035E-002;-3.443860914558172E-003;-3.932778257876635E-003;
2.407833333333334E+009;1.956234127283096E-001;3.784526512026787E-002;-3.367577912285924E-003;-3.795339958742261E-003;
2.408000000000000E+009;1.954766809940338E-001;3.757733851671219E-002;-3.389225807040930E-003;-3.639442846179009E-003;
2.408166666666667E+009;1.949729770421982E-001;3.730008751153946E-002;-3.452911041676998E-003;-3.708961885422468E-003;
2.408333333333334E+009;1.945640891790390E-001;3.673708438873291E-002;-3.453583922237158E-003;-3.591615706682205E-003;
2.408500000000000E+009;1.938878297805786E-001;3.632682561874390E-002;-3.523125080391765E-003;-3.594579640775919E-003;
2.408666666666667E+009;1.931502372026444E-001;3.579279780387878E-002;-3.558357013389468E-003;-3.470354946330190E-003;
2.408833333333334E+009;1.924637109041214E-001;3.495591506361961E-002;-3.666873089969158E-003;-3.506138222292066E-003;
2.409000000000000E+009;1.914722770452499E-001;3.402015194296837E-002;-3.675237996503711E-003;-3.454089164733887E-003;
2.409166666666667E+009;1.905625015497208E-001;3.300622105598450E-002;-3.851809073239565E-003;-3.238685429096222E-003;
2.409333333333334E+009;1.897019743919373E-001;3.192036226391792E-002;-4.016762599349022E-003;-3.299660515040159E-003;
2.409500000000000E+009;1.884648799896240E-001;3.059813939034939E-002;-4.031527321785688E-003;-3.356621367856860E-003;
2.409666666666667E+009;1.875413507223129E-001;2.910595946013928E-002;-4.242164082825184E-003;-3.206720808520913E-003;
2.409833333333334E+009;1.865234971046448E-001;2.770157903432846E-002;-4.245222080498934E-003;-3.220106707885861E-003;
2.410000000000000E+009;1.853923499584198E-001;2.595856413245201E-002;-4.399540368467569E-003;-3.229572670534253E-003;
2.410166666666667E+009;1.845880001783371E-001;2.413057722151279E-002;-4.436876624822617E-003;-3.079593880102038E-003;
2.410333333333334E+009;1.834804564714432E-001;2.231519296765328E-002;-4.640885628759861E-003;-2.970268717035651E-003;
2.410500000000000E+009;1.826199740171433E-001;2.048152312636375E-002;-4.723007790744305E-003;-2.906350651755929E-003;
2.410666666666667E+009;1.817460060119629E-001;1.809020712971687E-002;-4.814865533262491E-003;-2.793463878333569E-003;
2.410833333333334E+009;1.811128109693527E-001;1.611325331032276E-002;-4.970343783497810E-003;-2.722291508689523E-003;
2.411000000000000E+009;1.803341060876846E-001;1.375336013734341E-002;-5.021606571972370E-003;-2.645895350724459E-003;
2.411166666666667E+009;1.796644330024719E-001;1.167949009686709E-002;-5.270699504762888E-003;-2.455498324707151E-003;
2.411333333333334E+009;1.792178750038147E-001;9.138632565736771E-003;-5.354915279895067E-003;-2.424719976261258E-003;
2.411500000000000E+009;1.788968145847321E-001;6.745574530214071E-003;-5.425785668194294E-003;-2.195085864514113E-003;
2.411666666666667E+009;1.785404533147812E-001;4.399800207465887E-003;-5.503277759999037E-003;-2.045789267867804E-003;
2.411833333333334E+009;1.782750487327576E-001;2.125692088156939E-003;-5.580247845500708E-003;-1.832321519032121E-003;
2.412000000000000E+009;1.785275340080261E-001;-5.288906977511942E-004;-5.700812675058842E-003;-1.874329638667405E-003;
2.412166666666667E+009;1.785756200551987E-001;-2.733070636168122E-003;-5.757084116339684E-003;-1.538434415124357E-003;
2.412333333333334E+009;1.787538081407547E-001;-5.121340975165367E-003;-6.009449250996113E-003;-1.419694977812469E-003;
2.412500000000000E+009;1.793665438890457E-001;-7.579449098557234E-003;-5.989731289446354E-003;-1.296338159590960E-003;
2.412666666666667E+009;1.799435466527939E-001;-1.013150066137314E-002;-6.066122557967901E-003;-1.159994513727725E-003;
2.412833333333334E+009;1.804933995008469E-001;-1.254616957157850E-002;-6.191928870975971E-003;-9.872149676084518E-004;
2.413000000000000E+009;1.812373995780945E-001;-1.480144262313843E-002;-6.462478544563055E-003;-6.753645138815045E-004;
2.413166666666667E+009;1.820039302110672E-001;-1.698304153978825E-002;-6.468251813203096E-003;-4.297614505048841E-004;
2.413333333333334E+009;1.831535398960114E-001;-1.917035132646561E-002;-6.705989129841328E-003;-3.110700636170805E-004;
2.413500000000000E+009;1.839601397514343E-001;-2.131742052733898E-002;-6.654462311416864E-003;6.415379175450653E-005;
2.413666666666667E+009;1.851693242788315E-001;-2.343145571649075E-002;-6.749701220542193E-003;3.683572576846927E-004;
2.413833333333334E+009;1.861668229103088E-001;-2.545779757201672E-002;-6.522577255964279E-003;7.697541150264442E-004;
2.414000000000000E+009;1.873381286859512E-001;-2.740274742245674E-002;-6.682698614895344E-003;7.598421652801335E-004;
2.414166666666667E+009;1.885381788015366E-001;-2.914213016629219E-002;-6.686793174594641E-003;1.277870265766978E-003;
2.414333333333334E+009;1.895497739315033E-001;-3.098119981586933E-002;-6.569344084709883E-003;1.546088489703834E-003;
2.414500000000000E+009;1.908947080373764E-001;-3.244779631495476E-002;-6.462589837610722E-003;1.981980400159955E-003;
2.414666666666667E+009;1.920485347509384E-001;-3.381362929940224E-002;-6.313433870673180E-003;2.193569438531995E-003;
2.414833333333334E+009;1.931187808513641E-001;-3.523636236786842E-002;-6.095315329730511E-003;2.543186536058784E-003;
2.415000000000000E+009;1.942377686500549E-001;-3.646987676620483E-002;-6.041524931788445E-003;2.580218249931932E-003;
2.415166666666667E+009;1.955678761005402E-001;-3.754384815692902E-002;-5.936645902693272E-003;2.893843688070774E-003;
2.415333333333334E+009;1.965908110141754E-001;-3.850857168436050E-002;-5.791193805634975E-003;3.139262320473790E-003;
2.415500000000000E+009;1.977133452892304E-001;-3.910558670759201E-002;-5.401052068918943E-003;3.368370700627565E-003;
2.415666666666667E+009;1.986800730228424E-001;-4.000560939311981E-002;-5.330914631485939E-003;3.501618513837457E-003;
2.415833333333334E+009;1.994849890470505E-001;-4.060146212577820E-002;-5.190370138734579E-003;3.578828880563378E-003;
2.416000000000000E+009;2.003080695867539E-001;-4.107715561985970E-002;-5.096835084259510E-003;3.896461334079504E-003;
2.416166666666667E+009;2.009546607732773E-001;-4.165703430771828E-002;-4.844248294830322E-003;4.073382820934057E-003;
2.416333333333334E+009;2.017202675342560E-001;-4.193283244967461E-002;-4.547420423477888E-003;4.228764213621616E-003;
2.416500000000000E+009;2.021093219518662E-001;-4.221480339765549E-002;-4.390122368931770E-003;4.221201874315739E-003;
2.416666666666667E+009;2.023669779300690E-001;-4.254968091845512E-002;-4.137633368372917E-003;4.268296528607607E-003;
2.416833333333334E+009;2.024457752704620E-001;-4.265201836824417E-002;-3.935820888727903E-003;4.467158578336239E-003;
2.417000000000000E+009;2.026564329862595E-001;-4.272230342030525E-002;-3.607599064707756E-003;4.446394741535187E-003;
2.417166666666667E+009;2.022479623556137E-001;-4.272283986210823E-002;-3.375667380169034E-003;4.410645924508572E-003;
2.417333333333334E+009;2.020849138498306E-001;-4.259822890162468E-002;-3.119513858109713E-003;4.404190927743912E-003;
2.417500000000000E+009;2.017570286989212E-001;-4.265125840902329E-002;-2.943226834759116E-003;4.300529602915049E-003;
2.417666666666667E+009;2.011317312717438E-001;-4.238623380661011E-002;-2.763747936114669E-003;4.289227537810803E-003;
2.417833333333334E+009;2.006292492151260E-001;-4.237103089690208E-002;-2.617937279865146E-003;4.159675911068916E-003;
2.418000000000000E+009;2.001842558383942E-001;-4.216391593217850E-002;-2.592950360849500E-003;4.135956056416035E-003;
2.418166666666667E+009;1.991200596094132E-001;-4.216689243912697E-002;-2.446771366521716E-003;4.065574612468481E-003;
2.418333333333334E+009;1.982335299253464E-001;-4.190852120518684E-002;-2.398516517132521E-003;4.088772460818291E-003;
2.418500000000000E+009;1.970876008272171E-001;-4.209104180335999E-002;-2.182369120419025E-003;4.010074771940708E-003;
2.418666666666667E+009;1.962130814790726E-001;-4.210925102233887E-002;-2.122945152223110E-003;4.014627076685429E-003;
2.418833333333334E+009;1.948030591011047E-001;-4.220585525035858E-002;-2.126789651811123E-003;3.858401440083981E-003;
2.419000000000000E+009;1.935545057058334E-001;-4.242929443717003E-002;-2.075305441394448E-003;3.901273477822542E-003;
2.419166666666667E+009;1.922997981309891E-001;-4.280664399266243E-002;-2.037592697888613E-003;3.881686134263873E-003;
2.419333333333334E+009;1.908839195966721E-001;-4.333391040563583E-002;-2.007225761190057E-003;3.687058808282018E-003;
2.419500000000000E+009;1.894423365592957E-001;-4.372900724411011E-002;-1.968720927834511E-003;3.790201852098107E-003;
2.419666666666667E+009;1.877229362726212E-001;-4.461539909243584E-002;-1.934145926497877E-003;3.626019461080432E-003;
2.419833333333334E+009;1.862078458070755E-001;-4.530527815222740E-002;-2.157652983441949E-003;3.715793602168560E-003;
2.420000000000000E+009;1.847039312124252E-001;-4.602420702576637E-002;-2.004607813432813E-003;3.671980462968350E-003;
2.420166666666667E+009;1.830712556838989E-001;-4.703269153833389E-002;-2.080839127302170E-003;3.684014780446887E-003;
2.420333333333334E+009;1.814091056585312E-001;-4.820744320750237E-002;-2.254652092233300E-003;3.691009245812893E-003;
2.420500000000000E+009;1.799471676349640E-001;-4.960893839597702E-002;-2.138382289558649E-003;3.800124395638704E-003;
2.420666666666667E+009;1.781940907239914E-001;-5.065318942070007E-002;-2.183675067499280E-003;3.946352284401655E-003;
2.420833333333334E+009;1.766513735055924E-001;-5.228359624743462E-002;-2.309197792783380E-003;3.938722424209118E-003;
2.421000000000000E+009;1.753297895193100E-001;-5.365059152245522E-002;-2.361394930630922E-003;4.302717279642820E-003;
2.421166666666667E+009;1.738532483577728E-001;-5.532305315136910E-002;-2.377019496634603E-003;4.351385869085789E-003;
2.421333333333334E+009;1.720980107784271E-001;-5.685073509812355E-002;-2.237480366602540E-003;4.474691115319729E-003;
2.421500000000000E+009;1.709637492895126E-001;-5.897750332951546E-002;-2.284536371007562E-003;4.591799806803465E-003;
2.421666666666667E+009;1.698567718267441E-001;-6.056543067097664E-002;-2.183794509619474E-003;4.864307586103678E-003;
2.421833333333334E+009;1.688869893550873E-001;-6.253311783075333E-002;-2.037412952631712E-003;5.060630384832621E-003;
2.422000000000000E+009;1.677455902099609E-001;-6.433671712875366E-002;-2.035000128671527E-003;5.279682110995054E-003;
2.422166666666667E+009;1.670013666152954E-001;-6.651694327592850E-002;-1.801679725758731E-003;5.315490067005158E-003;
2.422333333333334E+009;1.658875793218613E-001;-6.843110173940659E-002;-1.655484666116536E-003;5.561387166380882E-003;
2.422500000000000E+009;1.652652770280838E-001;-7.037381827831268E-002;-1.474246382713318E-003;5.712551530450583E-003;
2.422666666666667E+009;1.644575297832489E-001;-7.243553549051285E-002;-1.271896995604038E-003;5.740633700042963E-003;
2.422833333333334E+009;1.639435142278671E-001;-7.442223280668259E-002;-9.308431763201952E-004;5.858771037310362E-003;
2.423000000000000E+009;1.636442691087723E-001;-7.637791335582733E-002;-8.747585234232247E-004;5.990984849631786E-003;
2.423166666666667E+009;1.631639897823334E-001;-7.823594659566879E-002;-5.595083348453045E-004;5.908394232392311E-003;
2.423333333333334E+009;1.630315035581589E-001;-8.027540892362595E-002;-4.548950528260320E-004;6.233531516045332E-003;
2.423500000000000E+009;1.630425900220871E-001;-8.210093528032303E-002;-2.672015398275107E-004;6.147280801087618E-003;
2.423666666666667E+009;1.631168425083160E-001;-8.404276520013809E-002;-8.231679385062307E-005;6.047450471669436E-003;
2.423833333333334E+009;1.628834456205368E-001;-8.561664074659348E-002;5.338290793588385E-005;6.228790618479252E-003;
2.424000000000000E+009;1.631656289100647E-001;-8.738338947296143E-002;3.242992388550192E-004;6.385170854628086E-003;
2.424166666666667E+009;1.632152646780014E-001;-8.892311155796051E-002;6.642782245762646E-004;6.444680504500866E-003;
2.424333333333334E+009;1.635124087333679E-001;-9.037980437278748E-002;8.667090442031622E-004;6.468385457992554E-003;
2.424500000000000E+009;1.638684719800949E-001;-9.205434471368790E-002;1.038873102515936E-003;6.393949501216412E-003;
2.424666666666667E+009;1.639749258756638E-001;-9.339895844459534E-002;1.483811065554619E-003;6.360513158142567E-003;
2.424833333333334E+009;1.645981818437576E-001;-9.470576047897339E-002;1.562060555443168E-003;6.453288719058037E-003;
2.425000000000000E+009;1.649877876043320E-001;-9.586115181446075E-002;1.943874522112310E-003;6.541667506098747E-003;
2.425166666666667E+009;1.651451736688614E-001;-9.688605368137360E-002;2.318000886589289E-003;6.467856001108885E-003;
2.425333333333334E+009;1.655334979295731E-001;-9.792006015777588E-002;2.560008550062776E-003;6.423394195735455E-003;
2.425500000000000E+009;1.659511476755142E-001;-9.882323443889618E-002;2.931526396423578E-003;6.296416744589806E-003;
2.425666666666667E+009;1.663075983524323E-001;-9.947666525840759E-002;3.252383787184954E-003;6.006693467497826E-003;
2.425833333333334E+009;1.665358692407608E-001;-1.003242433071137E-001;3.544471226632595E-003;5.936020053923130E-003;
2.426000000000000E+009;1.670896559953690E-001;-1.006208732724190E-001;3.677976084873080E-003;5.794922821223736E-003;
2.426166666666667E+009;1.674001216888428E-001;-1.012408509850502E-001;4.092858638614416E-003;5.535002797842026E-003;
2.426333333333334E+009;1.673930883407593E-001;-1.016964316368103E-001;4.239537753164768E-003;5.267266184091568E-003;
2.426500000000000E+009;1.677731573581696E-001;-1.019207462668419E-001;4.564248956739903E-003;5.124450195580721E-003;
2.426666666666667E+009;1.679752767086029E-001;-1.022731885313988E-001;4.718691110610962E-003;4.791404586285353E-003;
2.426833333333334E+009;1.681933254003525E-001;-1.025263443589211E-001;4.798018839210272E-003;4.476941656321287E-003;
2.427000000000000E+009;1.681205183267593E-001;-1.026417091488838E-001;4.859322216361761E-003;4.273554775863886E-003;
2.427166666666667E+009;1.680233329534531E-001;-1.027802303433418E-001;5.059765186160803E-003;3.977214917540550E-003;
2.427333333333334E+009;1.679982244968414E-001;-1.031363457441330E-001;4.991600755602121E-003;3.658803645521402E-003;
2.427500000000000E+009;1.675826907157898E-001;-1.032371222972870E-001;4.967474378645420E-003;3.398805623874068E-003;
2.427666666666667E+009;1.674025058746338E-001;-1.032600626349449E-001;4.969520960003138E-003;3.293873975053430E-003;
