# Version 1.00
#
freq[Hz];re:Trc1_S11;im:Trc1_S11;re:Trc2_S21;im:Trc2_S21;
2.400000000000000E+009;1.548344790935516E-001;1.065670251846314E-001;9.847602341324091E-004;-5.041531287133694E-003;
2.400166666666667E+009;1.546226739883423E-001;1.040410175919533E-001;1.148403156548739E-003;-5.082135088741779E-003;
2.400333333333334E+009;1.548115015029907E-001;1.018466874957085E-001;9.717634529806674E-004;-4.802704323083162E-003;
2.400500000000000E+009;1.548234224319458E-001;9.930767118930817E-002;9.390038903802633E-004;-4.850057419389486E-003;
2.400666666666667E+009;1.547508984804153E-001;9.656222909688950E-002;9.349883766844869E-004;-4.897308070212603E-003;
2.400833333333334E+009;1.548828929662705E-001;9.372710436582565E-002;9.496186976321042E-004;-4.757444839924574E-003;
2.401000000000000E+009;1.550778448581696E-001;9.100171923637390E-002;1.009770785458386E-003;-4.788061603903770E-003;
2.401166666666667E+009;1.552176773548126E-001;8.826721459627152E-002;9.370719199068844E-004;-4.820423666387796E-003;
2.401333333333334E+009;1.556190103292465E-001;8.529966324567795E-002;8.423368562944233E-004;-4.812199156731367E-003;
2.401500000000000E+009;1.560607403516769E-001;8.267498016357422E-002;1.057408982887864E-003;-4.922310821712017E-003;
2.401666666666667E+009;1.565924286842346E-001;7.984382659196854E-002;8.693055133335292E-004;-4.996861796826124E-003;
2.401833333333334E+009;1.570511162281036E-001;7.715082168579102E-002;9.142475901171565E-004;-4.928270354866982E-003;
2.402000000000000E+009;1.579720079898834E-001;7.446502149105072E-002;8.323045331053436E-004;-5.150080192834139E-003;
2.402166666666667E+009;1.588487029075623E-001;7.202420383691788E-002;7.811654359102249E-004;-5.175232421606779E-003;
2.402333333333334E+009;1.597439944744110E-001;6.921857595443726E-002;6.720204837620258E-004;-5.264888983219862E-003;
2.402500000000000E+009;1.609853059053421E-001;6.663874536752701E-002;5.305705708451569E-004;-5.379504989832640E-003;
2.402666666666667E+009;1.623105704784393E-001;6.450743228197098E-002;3.525422362145037E-004;-5.407171789556742E-003;
2.402833333333334E+009;1.636588424444199E-001;6.203983351588249E-002;8.222420728998259E-005;-5.620914511382580E-003;
2.403000000000000E+009;1.650188863277435E-001;5.983118712902069E-002;2.365855652897153E-005;-5.505731794983149E-003;
2.403166666666667E+009;1.667432039976120E-001;5.765684694051743E-002;-2.402325335424393E-004;-5.504563916474581E-003;
2.403333333333334E+009;1.682904660701752E-001;5.531149357557297E-002;-3.183265507686883E-004;-5.367000121623278E-003;
2.403500000000000E+009;1.698660552501679E-001;5.339831486344338E-002;-8.010764722712338E-004;-5.385622847825289E-003;
2.403666666666667E+009;1.717240661382675E-001;5.157469585537911E-002;-9.227349073626101E-004;-5.265555810183287E-003;
2.403833333333334E+009;1.733758002519608E-001;4.974444955587387E-002;-1.104651717469096E-003;-5.142652429640293E-003;
2.404000000000000E+009;1.749691069126129E-001;4.805834591388702E-002;-1.142794149927795E-003;-4.978803452104330E-003;
2.404166666666667E+009;1.766394525766373E-001;4.666678607463837E-002;-1.144649577327073E-003;-4.970858339220285E-003;
2.404333333333334E+009;1.781912744045258E-001;4.505331069231033E-002;-1.095685758627951E-003;-4.870057571679354E-003;
2.404500000000000E+009;1.797137707471848E-001;4.360928758978844E-002;-1.206089393235743E-003;-4.705484490841627E-003;
2.404666666666667E+009;1.814389377832413E-001;4.262555763125420E-002;-1.182376523502171E-003;-4.712878260761499E-003;
2.404833333333334E+009;1.831233948469162E-001;4.153901711106300E-002;-1.221610116772354E-003;-4.709987901151180E-003;
2.405000000000000E+009;1.844844073057175E-001;4.079010337591171E-002;-1.341433846391738E-003;-4.745448008179665E-003;
2.405166666666667E+009;1.859231889247894E-001;4.024567455053330E-002;-1.557004870846868E-003;-4.792631138116121E-003;
2.405333333333334E+009;1.873641312122345E-001;3.974169120192528E-002;-1.589904190041125E-003;-4.895404446870089E-003;
2.405500000000000E+009;1.887022107839584E-001;3.925660252571106E-002;-1.562030403874815E-003;-4.869305994361639E-003;
2.405666666666667E+009;1.898421347141266E-001;3.896602988243103E-002;-2.008543582633138E-003;-4.902267362922430E-003;
2.405833333333334E+009;1.910670995712280E-001;3.865574300289154E-002;-2.023138804361224E-003;-4.844749812036753E-003;
2.406000000000000E+009;1.920723319053650E-001;3.841444477438927E-002;-2.258952707052231E-003;-4.819080699235201E-003;
2.406166666666667E+009;1.929816603660584E-001;3.815214708447456E-002;-2.417357405647636E-003;-4.597730934619904E-003;
2.406333333333334E+009;1.938979327678680E-001;3.818921744823456E-002;-2.561404835432768E-003;-4.659919068217278E-003;
2.406500000000000E+009;1.946008503437042E-001;3.824399039149284E-002;-2.650771755725145E-003;-4.584548994898796E-003;
2.406666666666667E+009;1.952450573444367E-001;3.823361173272133E-002;-2.971688518300653E-003;-4.472269676625729E-003;
2.406833333333334E+009;1.958092004060745E-001;3.808638453483582E-002;-2.944246400147677E-003;-4.438217729330063E-003;
2.407000000000000E+009;1.959372311830521E-001;3.843664750456810E-002;-2.911192830651999E-003;-4.177952650934458E-003;
2.407166666666667E+009;1.963643431663513E-001;3.816214576363564E-002;-3.069664351642132E-003;-3.930166363716126E-003;
2.407333333333334E+009;1.962102204561234E-001;3.826424479484558E-002;-3.138600848615170E-003;-3.929206635802984E-003;
2.407500000000000E+009;1.961329579353333E-001;3.816147521138191E-002;-3.229238558560610E-003;-4.022675566375256E-003;
2.407666666666667E+009;1.960851699113846E-001;3.823208063840866E-002;-3.356570145115256E-003;-3.861798206344247E-003;
2.407833333333334E+009;1.957055628299713E-001;3.791335597634316E-002;-3.277873154729605E-003;-3.835142124444246E-003;
2.408000000000000E+009;1.955557167530060E-001;3.777479007840157E-002;-3.332369495183229E-003;-3.532050643116236E-003;
2.408166666666667E+009;1.950965970754623E-001;3.734990581870079E-002;-3.355984110385180E-003;-3.673519473522902E-003;
2.408333333333334E+009;1.945440769195557E-001;3.673181310296059E-002;-3.469164948910475E-003;-3.447274211794138E-003;
2.408500000000000E+009;1.939293295145035E-001;3.651312366127968E-002;-3.572222543880343E-003;-3.670759033411741E-003;
2.408666666666667E+009;1.931584030389786E-001;3.565301746129990E-002;-3.610187442973256E-003;-3.512328723445535E-003;
2.408833333333334E+009;1.924685239791870E-001;3.502889722585678E-002;-3.580742282792926E-003;-3.356625791639090E-003;
2.409000000000000E+009;1.914701759815216E-001;3.403338417410851E-002;-3.727874252945185E-003;-3.358756657689810E-003;
2.409166666666667E+009;1.905935108661652E-001;3.310408443212509E-002;-3.692539874464274E-003;-3.422969952225685E-003;
2.409333333333334E+009;1.896045356988907E-001;3.196214884519577E-002;-3.976661246269941E-003;-3.328642807900906E-003;
2.409500000000000E+009;1.886125504970551E-001;3.059078566730022E-002;-3.937218803912401E-003;-3.412493970245123E-003;
2.409666666666667E+009;1.874679923057556E-001;2.915716916322708E-002;-4.187128972262144E-003;-3.260595025494695E-003;
2.409833333333334E+009;1.864782422780991E-001;2.761019952595234E-002;-4.182304255664349E-003;-3.306599333882332E-003;
2.410000000000000E+009;1.855093687772751E-001;2.595892921090126E-002;-4.299859516322613E-003;-3.197205252945423E-003;
2.410166666666667E+009;1.844031959772110E-001;2.406457066535950E-002;-4.328258801251650E-003;-3.165398025885224E-003;
2.410333333333334E+009;1.835625469684601E-001;2.228252775967121E-002;-4.686732776463032E-003;-3.078190842643380E-003;
2.410500000000000E+009;1.825803220272064E-001;2.036582678556442E-002;-4.711276385933161E-003;-3.021984593942761E-003;
2.410666666666667E+009;1.817525178194046E-001;1.809133216738701E-002;-4.857533611357212E-003;-2.885125111788511E-003;
2.410833333333334E+009;1.810384839773178E-001;1.597116142511368E-002;-4.993076436221600E-003;-2.900833031162620E-003;
2.411000000000000E+009;1.803514957427979E-001;1.376852672547102E-002;-5.074269603937864E-003;-2.692198147997260E-003;
2.411166666666667E+009;1.796880513429642E-001;1.164849381893873E-002;-5.246570333838463E-003;-2.562048844993115E-003;
2.411333333333334E+009;1.792169660329819E-001;9.034098125994206E-003;-5.428954493254423E-003;-2.477176720276475E-003;
2.411500000000000E+009;1.786978393793106E-001;6.622845772653818E-003;-5.542965605854988E-003;-2.276361454278231E-003;
2.411666666666667E+009;1.786164939403534E-001;4.311315249651671E-003;-5.547293461859226E-003;-2.058748155832291E-003;
2.411833333333334E+009;1.783525198698044E-001;1.979950116947293E-003;-5.738116335123777E-003;-1.882708515040577E-003;
2.412000000000000E+009;1.785631179809570E-001;-5.650045350193977E-004;-5.778304301202297E-003;-1.731545547954738E-003;
2.412166666666667E+009;1.786352246999741E-001;-2.757063833996654E-003;-5.892046261578798E-003;-1.693999860435724E-003;
2.412333333333334E+009;1.787674725055695E-001;-5.292890593409538E-003;-6.035866681486368E-003;-1.503921230323613E-003;
2.412500000000000E+009;1.793974488973618E-001;-7.722487207502127E-003;-6.198827177286148E-003;-1.381848123855889E-003;
2.412666666666667E+009;1.795936971902847E-001;-1.028085127472878E-002;-6.127750035375357E-003;-1.232862356118858E-003;
2.412833333333334E+009;1.804160773754120E-001;-1.245329063385725E-002;-6.337128113955259E-003;-1.068665529601276E-003;
2.413000000000000E+009;1.811992973089218E-001;-1.468256302177906E-002;-6.391019560396671E-003;-7.800086750648916E-004;
2.413166666666667E+009;1.820170581340790E-001;-1.692341268062592E-002;-6.638200022280216E-003;-5.097941029816866E-004;
2.413333333333334E+009;1.829479187726975E-001;-1.924233697354794E-002;-6.547951605170965E-003;-2.058944955933839E-004;
2.413500000000000E+009;1.837960034608841E-001;-2.133260108530521E-002;-6.657331716269255E-003;-7.789245864842087E-005;
2.413666666666667E+009;1.851425021886826E-001;-2.352701686322689E-002;-6.835328880697489E-003;3.267965221311897E-004;
2.413833333333334E+009;1.860174983739853E-001;-2.557241357862949E-002;-6.734834983944893E-003;4.683209117501974E-004;
2.414000000000000E+009;1.872535347938538E-001;-2.737609669566155E-002;-6.691088899970055E-003;6.583581562153995E-004;
2.414166666666667E+009;1.884856820106506E-001;-2.915214933454990E-002;-6.509351078420878E-003;1.105283387005329E-003;
2.414333333333334E+009;1.896480321884155E-001;-3.108518943190575E-002;-6.581924390047789E-003;1.696875202469528E-003;
2.414500000000000E+009;1.908969581127167E-001;-3.248005360364914E-002;-6.468310952186585E-003;1.797570497728884E-003;
2.414666666666667E+009;1.920649707317352E-001;-3.390972316265106E-002;-6.338859442621470E-003;1.958024222403765E-003;
2.414833333333334E+009;1.933523118495941E-001;-3.525857254862785E-002;-6.255261600017548E-003;2.349779242649674E-003;
2.415000000000000E+009;1.944169551134110E-001;-3.655311465263367E-002;-6.072266027331352E-003;2.502782037481666E-003;
2.415166666666667E+009;1.956230551004410E-001;-3.756912797689438E-002;-5.978650879114866E-003;2.723044948652387E-003;
2.415333333333334E+009;1.966432631015778E-001;-3.846557065844536E-002;-5.828551948070526E-003;2.883565379306674E-003;
2.415500000000000E+009;1.977494210004807E-001;-3.927477076649666E-002;-5.490533541887999E-003;3.196501638740301E-003;
2.415666666666667E+009;1.986231803894043E-001;-4.000595957040787E-002;-5.432128906250000E-003;3.372501116245985E-003;
2.415833333333334E+009;1.995717436075211E-001;-4.057829827070236E-002;-5.250758491456509E-003;3.452160162851214E-003;
2.416000000000000E+009;2.003340721130371E-001;-4.117298126220703E-002;-5.072549451142550E-003;3.702413057908416E-003;
2.416166666666667E+009;2.008607238531113E-001;-4.171100258827210E-002;-4.886995535343885E-003;3.955962136387825E-003;
2.416333333333334E+009;2.015548050403595E-001;-4.200984165072441E-002;-4.590383265167475E-003;4.135330673307180E-003;
2.416500000000000E+009;2.019993364810944E-001;-4.219580814242363E-002;-4.388012923300266E-003;4.160785581916571E-003;
2.416666666666667E+009;2.023358941078186E-001;-4.251912981271744E-002;-4.200945608317852E-003;4.334392957389355E-003;
2.416833333333334E+009;2.024806737899780E-001;-4.264718294143677E-002;-3.857526462525129E-003;4.240619949996471E-003;
2.417000000000000E+009;2.025534659624100E-001;-4.277834668755531E-002;-3.742316504940391E-003;4.377897363156080E-003;
2.417166666666667E+009;2.022719979286194E-001;-4.268813878297806E-002;-3.412613412365317E-003;4.478940274566412E-003;
2.417333333333334E+009;2.019425630569458E-001;-4.259061813354492E-002;-3.240528516471386E-003;4.390647634863854E-003;
2.417500000000000E+009;2.016862183809280E-001;-4.257537424564362E-002;-3.080743597820401E-003;4.446809180080891E-003;
2.417666666666667E+009;2.011755704879761E-001;-4.256791248917580E-002;-2.741308650001884E-003;4.331667907536030E-003;
2.417833333333334E+009;2.006366550922394E-001;-4.219845682382584E-002;-2.705127932131290E-003;4.216316621750593E-003;
2.418000000000000E+009;1.998481154441834E-001;-4.211311787366867E-002;-2.626129426062107E-003;4.125979728996754E-003;
2.418166666666667E+009;1.991162300109863E-001;-4.213511943817139E-002;-2.411829773336649E-003;4.103721585124731E-003;
2.418333333333334E+009;1.981002837419510E-001;-4.194017127156258E-002;-2.395572140812874E-003;4.023877438157797E-003;
2.418500000000000E+009;1.970489919185638E-001;-4.209356382489204E-002;-2.248876029625535E-003;4.095828626304865E-003;
2.418666666666667E+009;1.960065513849258E-001;-4.195260629057884E-002;-2.210629638284445E-003;4.130904562771320E-003;
2.418833333333334E+009;1.948513239622116E-001;-4.232665523886681E-002;-2.278515370562673E-003;3.950310405343771E-003;
2.419000000000000E+009;1.934997439384460E-001;-4.232640936970711E-002;-2.105113817378879E-003;3.824037034064531E-003;
2.419166666666667E+009;1.921799331903458E-001;-4.276718199253082E-002;-2.146613551303744E-003;3.822077298536897E-003;
2.419333333333334E+009;1.908597052097321E-001;-4.323621839284897E-002;-1.988828647881746E-003;3.691543359309435E-003;
2.419500000000000E+009;1.894354671239853E-001;-4.363860562443733E-002;-2.039700746536255E-003;3.762024454772472E-003;
2.419666666666667E+009;1.878188550472260E-001;-4.459234699606895E-002;-1.889399602077901E-003;3.811671165749431E-003;
2.419833333333334E+009;1.861706972122192E-001;-4.528223350644112E-002;-1.911613275296986E-003;3.671590005978942E-003;
2.420000000000000E+009;1.846722960472107E-001;-4.599509760737419E-002;-2.022532979026437E-003;3.726431168615818E-003;
2.420166666666667E+009;1.830904930830002E-001;-4.702536016702652E-002;-2.179538132622838E-003;3.750835312530398E-003;
2.420333333333334E+009;1.814688444137573E-001;-4.812104254961014E-002;-2.209591679275036E-003;3.684918163344264E-003;
2.420500000000000E+009;1.797233372926712E-001;-4.943918064236641E-002;-2.245476702228189E-003;3.892301348969340E-003;
2.420666666666667E+009;1.781132519245148E-001;-5.070524662733078E-002;-2.324683358892798E-003;3.934093285351992E-003;
2.420833333333334E+009;1.766898632049561E-001;-5.212533846497536E-002;-2.341183135285974E-003;4.055223427712917E-003;
2.421000000000000E+009;1.752276718616486E-001;-5.357386916875839E-002;-2.318851882591844E-003;4.156752489507198E-003;
2.421166666666667E+009;1.738708466291428E-001;-5.535858497023583E-002;-2.356015611439943E-003;4.265203606337309E-003;
2.421333333333334E+009;1.723457872867584E-001;-5.679089948534966E-002;-2.278536325320602E-003;4.389382433146238E-003;
2.421500000000000E+009;1.710923612117767E-001;-5.875659361481667E-002;-2.202518749982119E-003;4.611280746757984E-003;
2.421666666666667E+009;1.698631197214127E-001;-6.051426380872726E-002;-2.328304573893547E-003;4.921304993331432E-003;
2.421833333333334E+009;1.687696725130081E-001;-6.240501999855042E-002;-2.070051152259111E-003;5.024345591664314E-003;
2.422000000000000E+009;1.676774024963379E-001;-6.423449516296387E-002;-1.982890069484711E-003;5.238560959696770E-003;
2.422166666666667E+009;1.668839305639267E-001;-6.637884676456451E-002;-1.906733145006001E-003;5.410486366599798E-003;
2.422333333333334E+009;1.658397465944290E-001;-6.836275756359100E-002;-1.628956175409257E-003;5.486712791025639E-003;
2.422500000000000E+009;1.653243601322174E-001;-7.012987136840820E-002;-1.481233863160014E-003;5.731737706810236E-003;
2.422666666666667E+009;1.646717488765717E-001;-7.229831814765930E-002;-1.313708839006722E-003;5.887452978640795E-003;
2.422833333333334E+009;1.641934216022492E-001;-7.449463009834290E-002;-9.706239216029644E-004;5.939626134932041E-003;
2.423000000000000E+009;1.636036485433579E-001;-7.636210322380066E-002;-1.038269023410976E-003;5.994236562401056E-003;
2.423166666666667E+009;1.633093357086182E-001;-7.837121188640595E-002;-7.787120994180441E-004;6.066886242479086E-003;
2.423333333333334E+009;1.631010174751282E-001;-8.024818450212479E-002;-5.673452396877110E-004;6.055497564375401E-003;
2.423500000000000E+009;1.630705744028091E-001;-8.197330683469772E-002;-3.085140779148787E-004;6.171577610075474E-003;
2.423666666666667E+009;1.630640774965286E-001;-8.385309576988220E-002;-4.507958146859892E-005;6.158235948532820E-003;
2.423833333333334E+009;1.631043702363968E-001;-8.555252104997635E-002;1.601711992407218E-004;6.166699808090925E-003;
2.424000000000000E+009;1.630744934082031E-001;-8.738822489976883E-002;2.867021248675883E-004;6.357863545417786E-003;
2.424166666666667E+009;1.632737070322037E-001;-8.892717957496643E-002;6.593749276362360E-004;6.477607414126396E-003;
2.424333333333334E+009;1.634125113487244E-001;-9.027330577373505E-002;7.571696187369525E-004;6.571409292519093E-003;
2.424500000000000E+009;1.638527214527130E-001;-9.213104099035263E-002;1.042844378389418E-003;6.613035686314106E-003;
2.424666666666667E+009;1.641015112400055E-001;-9.355426579713821E-002;1.315932837314904E-003;6.493633147329092E-003;
2.424833333333334E+009;1.646122038364410E-001;-9.467530250549316E-002;1.717168022878468E-003;6.508223712444305E-003;
2.425000000000000E+009;1.648448407649994E-001;-9.583322703838348E-002;2.036538207903504E-003;6.362504791468382E-003;
2.425166666666667E+009;1.652332246303558E-001;-9.694497287273407E-002;2.376247430220246E-003;6.328688003122807E-003;
2.425333333333334E+009;1.655557155609131E-001;-9.778339415788651E-002;2.669924870133400E-003;6.415381096303463E-003;
2.425500000000000E+009;1.659553647041321E-001;-9.880525618791580E-002;2.988757332786918E-003;6.285078823566437E-003;
2.425666666666667E+009;1.663407981395721E-001;-9.942549467086792E-002;3.276700619608164E-003;6.061412859708071E-003;
2.425833333333334E+009;1.664868742227554E-001;-1.002912223339081E-001;3.639832371845841E-003;5.896349437534809E-003;
2.426000000000000E+009;1.670238971710205E-001;-1.008008942008019E-001;3.714096033945680E-003;5.742787849158049E-003;
2.426166666666667E+009;1.673398911952972E-001;-1.011038869619370E-001;3.896413603797555E-003;5.566968582570553E-003;
2.426333333333334E+009;1.673884391784668E-001;-1.016044318675995E-001;4.214190412312746E-003;5.320076365023851E-003;
2.426500000000000E+009;1.677519381046295E-001;-1.019781455397606E-001;4.395212978124619E-003;5.132615100592375E-003;
2.426666666666667E+009;1.680207252502441E-001;-1.022207960486412E-001;4.676165059208870E-003;4.747251048684120E-003;
2.426833333333334E+009;1.681777238845825E-001;-1.024708524346352E-001;4.659791942685843E-003;4.543488379567862E-003;
2.427000000000000E+009;1.681201308965683E-001;-1.026307567954063E-001;4.954948090016842E-003;4.262180998921394E-003;
2.427166666666667E+009;1.681850254535675E-001;-1.027847006917000E-001;4.997556097805500E-003;3.966553136706352E-003;
2.427333333333334E+009;1.679858863353729E-001;-1.029961109161377E-001;4.934071097522974E-003;3.883024910464883E-003;
2.427500000000000E+009;1.677146703004837E-001;-1.032066643238068E-001;5.054890643805265E-003;3.642126917839050E-003;
2.427666666666667E+009;1.673581004142761E-001;-1.032755076885223E-001;5.043214187026024E-003;3.339422633871436E-003;
