# Version 1.00
#
freq[Hz];re:Trc1_S11;im:Trc1_S11;re:Trc2_S21;im:Trc2_S21;
2.400000000000000E+009;1.551384478807449E-001;1.070757731795311E-001;-5.929158534854651E-003;-1.391959958709776E-003;
2.400166666666667E+009;1.548800021409988E-001;1.047862991690636E-001;-6.085877772420645E-003;-1.380359637551010E-003;
2.400333333333334E+009;1.549839228391647E-001;1.025716885924339E-001;-6.239079404622316E-003;-1.224132021889091E-003;
2.400500000000000E+009;1.547600775957108E-001;9.991227835416794E-002;-6.451831664890051E-003;-1.127441762946546E-003;
2.400666666666667E+009;1.549540758132935E-001;9.728762507438660E-002;-6.527560763061047E-003;-1.008517225272954E-003;
2.400833333333334E+009;1.549222916364670E-001;9.451491385698319E-002;-6.681917235255241E-003;-8.056963561102748E-004;
2.401000000000000E+009;1.554678231477737E-001;9.168718010187149E-002;-6.939014885574579E-003;-6.676318007521331E-004;
2.401166666666667E+009;1.550873070955277E-001;8.882811665534973E-002;-6.929678376764059E-003;-4.080694052390754E-004;
2.401333333333334E+009;1.554309129714966E-001;8.583069592714310E-002;-7.288051303476095E-003;-2.071796770906076E-004;
2.401500000000000E+009;1.559353768825531E-001;8.326651901006699E-002;-7.162210997194052E-003;-1.232046197401360E-004;
2.401666666666667E+009;1.563910096883774E-001;8.022821694612503E-002;-7.386833429336548E-003;1.643707655603066E-004;
2.401833333333334E+009;1.569414287805557E-001;7.753016799688339E-002;-7.599244359880686E-003;3.430845099501312E-004;
2.402000000000000E+009;1.577638685703278E-001;7.476557046175003E-002;-7.710657548159361E-003;6.170538836158812E-004;
2.402166666666667E+009;1.585986912250519E-001;7.208472490310669E-002;-7.943306118249893E-003;1.029465696774423E-003;
2.402333333333334E+009;1.597183048725128E-001;6.939016282558441E-002;-8.009400218725205E-003;1.410959172062576E-003;
2.402500000000000E+009;1.607553511857987E-001;6.689485162496567E-002;-8.203516714274883E-003;1.576290931552649E-003;
2.402666666666667E+009;1.618605703115463E-001;6.440617889165878E-002;-8.216304704546928E-003;1.915435306727886E-003;
2.402833333333334E+009;1.631169319152832E-001;6.201153621077538E-002;-8.245202712714672E-003;2.454938599839807E-003;
2.403000000000000E+009;1.647113263607025E-001;5.964674055576325E-002;-8.403418585658073E-003;2.736354013904929E-003;
2.403166666666667E+009;1.663866341114044E-001;5.742996186017990E-002;-8.360336534678936E-003;3.305309684947133E-003;
2.403333333333334E+009;1.678769886493683E-001;5.532247573137283E-002;-8.412856608629227E-003;3.760284278541803E-003;
2.403500000000000E+009;1.697814166545868E-001;5.312664434313774E-002;-8.356976322829723E-003;4.247268661856651E-003;
2.403666666666667E+009;1.714622378349304E-001;5.115455389022827E-002;-8.165953680872917E-003;4.723603371530771E-003;
2.403833333333334E+009;1.731611639261246E-001;4.934529215097427E-002;-7.740000262856484E-003;5.240106955170631E-003;
2.404000000000000E+009;1.747534722089768E-001;4.749173671007156E-002;-7.630625274032354E-003;5.649624858051539E-003;
2.404166666666667E+009;1.766183376312256E-001;4.581406340003014E-002;-7.317207287997007E-003;6.127276457846165E-003;
2.404333333333334E+009;1.780792027711868E-001;4.438276216387749E-002;-6.974373478442431E-003;6.489242892712355E-003;
2.404500000000000E+009;1.798265725374222E-001;4.298574849963188E-002;-6.458526477217674E-003;6.900222506374121E-003;
2.404666666666667E+009;1.816400289535523E-001;4.193149134516716E-002;-6.181487813591957E-003;7.209664210677147E-003;
2.404833333333334E+009;1.832194775342941E-001;4.074573144316673E-002;-5.798073019832373E-003;7.210658397525549E-003;
2.405000000000000E+009;1.845822483301163E-001;3.994966670870781E-002;-5.308716092258692E-003;7.455062586814165E-003;
2.405166666666667E+009;1.860942691564560E-001;3.923904150724411E-002;-4.965429194271565E-003;7.657017558813095E-003;
2.405333333333334E+009;1.874267756938934E-001;3.872646391391754E-002;-4.561447072774172E-003;7.810261100530624E-003;
2.405500000000000E+009;1.888715922832489E-001;3.802146762609482E-002;-4.218358080834150E-003;8.057187311351299E-003;
2.405666666666667E+009;1.899564862251282E-001;3.777411952614784E-002;-3.754370380192995E-003;8.235033601522446E-003;
2.405833333333334E+009;1.913912743330002E-001;3.746522590517998E-002;-3.487419104203582E-003;8.077096194028854E-003;
2.406000000000000E+009;1.922382712364197E-001;3.727786615490913E-002;-2.954012248665094E-003;8.035482838749886E-003;
2.406166666666667E+009;1.932260692119598E-001;3.696232661604881E-002;-2.660100115463138E-003;8.171788416802883E-003;
2.406333333333334E+009;1.941910833120346E-001;3.710982576012611E-002;-2.317332895472646E-003;8.174348622560501E-003;
2.406500000000000E+009;1.948572844266892E-001;3.715947270393372E-002;-1.928758574649692E-003;8.077875711023808E-003;
2.406666666666667E+009;1.954134702682495E-001;3.716672584414482E-002;-1.597452443093061E-003;7.974809035658836E-003;
2.406833333333334E+009;1.960054039955139E-001;3.723609447479248E-002;-1.322909374721348E-003;8.006404154002667E-003;
2.407000000000000E+009;1.962414681911469E-001;3.749667108058929E-002;-9.297880460508168E-004;7.923017255961895E-003;
2.407166666666667E+009;1.965047568082809E-001;3.728243708610535E-002;-6.261901580728591E-004;7.913967594504356E-003;
2.407333333333334E+009;1.965008527040482E-001;3.755263984203339E-002;-2.317595499334857E-004;7.921313866972923E-003;
2.407500000000000E+009;1.963330954313278E-001;3.757201507687569E-002;-1.132944889832288E-004;7.637806236743927E-003;
2.407666666666667E+009;1.962626129388809E-001;3.762838616967201E-002;1.930711296154186E-004;7.550694979727268E-003;
2.407833333333334E+009;1.958932578563690E-001;3.746131435036659E-002;4.585557035170496E-004;7.364272139966488E-003;
2.408000000000000E+009;1.958310157060623E-001;3.740796819329262E-002;7.267825421877205E-004;7.294542156159878E-003;
2.408166666666667E+009;1.951357126235962E-001;3.703032061457634E-002;9.382854332216084E-004;7.112472783774138E-003;
2.408333333333334E+009;1.947441399097443E-001;3.666840121150017E-002;1.152508775703609E-003;6.892742123454809E-003;
2.408500000000000E+009;1.940020769834518E-001;3.639787808060646E-002;1.123607391491532E-003;6.650517228990793E-003;
2.408666666666667E+009;1.933968812227249E-001;3.586776927113533E-002;1.483945059590042E-003;6.612692028284073E-003;
2.408833333333334E+009;1.925716698169708E-001;3.514140471816063E-002;1.552903559058905E-003;6.459645926952362E-003;
2.409000000000000E+009;1.916924417018890E-001;3.414050489664078E-002;1.737422076985240E-003;6.188589148223400E-003;
2.409166666666667E+009;1.907475590705872E-001;3.325170651078224E-002;1.654512248933315E-003;5.943741649389267E-003;
2.409333333333334E+009;1.898040175437927E-001;3.219132870435715E-002;1.661998103372753E-003;5.889337975531817E-003;
2.409500000000000E+009;1.887420713901520E-001;3.100748360157013E-002;1.638666377402842E-003;5.827175453305244E-003;
2.409666666666667E+009;1.877580881118774E-001;2.957160770893097E-002;1.787301851436496E-003;5.730250384658575E-003;
2.409833333333334E+009;1.865923553705216E-001;2.807961031794548E-002;1.785487867891789E-003;5.608960520476103E-003;
2.410000000000000E+009;1.857139766216278E-001;2.636276185512543E-002;1.839414355345070E-003;5.668880417943001E-003;
2.410166666666667E+009;1.846901625394821E-001;2.466690912842751E-002;1.746815862134099E-003;5.598723888397217E-003;
2.410333333333334E+009;1.836962252855301E-001;2.280596643686295E-002;1.791980466805399E-003;5.570258013904095E-003;
2.410500000000000E+009;1.826082468032837E-001;2.101047150790691E-002;2.057907404378057E-003;5.612181965261698E-003;
2.410666666666667E+009;1.818468719720841E-001;1.872289180755615E-002;2.066577319055796E-003;5.312296561896801E-003;
2.410833333333334E+009;1.810506731271744E-001;1.658064313232899E-002;2.238373272120953E-003;5.371985491365194E-003;
2.411000000000000E+009;1.803880035877228E-001;1.428683474659920E-002;2.498854184523225E-003;5.459778476506472E-003;
2.411166666666667E+009;1.796207278966904E-001;1.213185489177704E-002;2.495171036571264E-003;5.348946433514357E-003;
2.411333333333334E+009;1.791509538888931E-001;9.719844907522202E-003;2.562105422839522E-003;5.437018349766731E-003;
2.411500000000000E+009;1.786639541387558E-001;7.266543805599213E-003;2.563049085438252E-003;5.199803039431572E-003;
2.411666666666667E+009;1.784994751214981E-001;4.869971424341202E-003;2.806829754263163E-003;5.169562995433807E-003;
2.411833333333334E+009;1.781112551689148E-001;2.398196374997497E-003;2.876557642593980E-003;5.074020940810442E-003;
2.412000000000000E+009;1.782963126897812E-001;-1.145569476648234E-004;2.843589987605810E-003;5.053157452493906E-003;
2.412166666666667E+009;1.783897876739502E-001;-2.404517959803343E-003;2.886226866394281E-003;4.848725628107786E-003;
2.412333333333334E+009;1.785573661327362E-001;-4.837617743760347E-003;2.976597752422094E-003;4.847409669309855E-003;
2.412500000000000E+009;1.789362877607346E-001;-7.490467280149460E-003;3.041589865460992E-003;4.696722608059645E-003;
2.412666666666667E+009;1.796760708093643E-001;-9.856016375124455E-003;3.157757921144366E-003;4.838643129914999E-003;
2.412833333333334E+009;1.801288276910782E-001;-1.237521227449179E-002;3.085267031565309E-003;4.634270444512367E-003;
2.413000000000000E+009;1.809860616922379E-001;-1.465985365211964E-002;3.046545898541808E-003;4.811053629964590E-003;
2.413166666666667E+009;1.818332821130753E-001;-1.693648099899292E-002;3.334768349304795E-003;4.761810414493084E-003;
2.413333333333334E+009;1.827481389045715E-001;-1.935162581503391E-002;3.399164183065295E-003;4.726865794509649E-003;
2.413500000000000E+009;1.837529689073563E-001;-2.167717553675175E-002;3.711398458108306E-003;4.963912069797516E-003;
2.413666666666667E+009;1.847879439592362E-001;-2.386460267007351E-002;3.654130501672626E-003;4.755080211907625E-003;
2.413833333333334E+009;1.859812140464783E-001;-2.590578608214855E-002;3.851859597489238E-003;4.932371899485588E-003;
2.414000000000000E+009;1.869484335184097E-001;-2.778835780918598E-002;4.046751651912928E-003;4.955299664288759E-003;
2.414166666666667E+009;1.884586662054062E-001;-2.952340058982372E-002;4.192293155938387E-003;4.806585144251585E-003;
2.414333333333334E+009;1.894196718931198E-001;-3.152447193861008E-002;4.418630618602037E-003;4.684534855186939E-003;
2.414500000000000E+009;1.906681954860687E-001;-3.304854780435562E-002;4.837151151150465E-003;4.694333299994469E-003;
2.414666666666667E+009;1.917845755815506E-001;-3.451225906610489E-002;5.060802213847637E-003;4.403585102409124E-003;
2.414833333333334E+009;1.928551942110062E-001;-3.599251806735992E-002;5.299421958625317E-003;4.366745240986347E-003;
2.415000000000000E+009;1.940988600254059E-001;-3.713591769337654E-002;5.423443391919136E-003;4.093474708497524E-003;
2.415166666666667E+009;1.953709572553635E-001;-3.829052299261093E-002;5.574780050665140E-003;3.878440475091338E-003;
2.415333333333334E+009;1.963565200567246E-001;-3.915356844663620E-002;5.767115857452154E-003;3.707118099555373E-003;
2.415500000000000E+009;1.975076496601105E-001;-3.983811289072037E-002;5.875481758266687E-003;3.466224297881126E-003;
2.415666666666667E+009;1.985934674739838E-001;-4.066803306341171E-002;5.935494322329760E-003;3.276685951277614E-003;
2.415833333333334E+009;1.994399428367615E-001;-4.124697670340538E-002;5.993528757244349E-003;3.034246386960149E-003;
2.416000000000000E+009;2.002340108156204E-001;-4.186559095978737E-002;6.128709763288498E-003;2.711318433284760E-003;
2.416166666666667E+009;2.009122818708420E-001;-4.228036105632782E-002;6.188172381371260E-003;2.525253687053919E-003;
2.416333333333334E+009;2.015976458787918E-001;-4.251004382967949E-002;6.248093675822020E-003;2.463967073708773E-003;
2.416500000000000E+009;2.019696235656738E-001;-4.282100126147270E-002;6.215276662260294E-003;2.317287726327777E-003;
2.416666666666667E+009;2.024975717067719E-001;-4.313062503933907E-002;6.367812864482403E-003;2.198272850364447E-003;
2.416833333333334E+009;2.025973647832871E-001;-4.307306557893753E-002;6.364331580698490E-003;1.910153776407242E-003;
2.417000000000000E+009;2.027958035469055E-001;-4.316999763250351E-002;6.372796837240458E-003;1.621704432182014E-003;
2.417166666666667E+009;2.025032788515091E-001;-4.311249405145645E-002;6.500776391476393E-003;1.612328458577395E-003;
2.417333333333334E+009;2.022124975919724E-001;-4.276451840996742E-002;6.560735404491425E-003;1.362156006507576E-003;
2.417500000000000E+009;2.020893096923828E-001;-4.289436712861061E-002;6.490236148238182E-003;1.204056083224714E-003;
2.417666666666667E+009;2.015729546546936E-001;-4.261215403676033E-002;6.695343181490898E-003;1.152764423750341E-003;
2.417833333333334E+009;2.011282593011856E-001;-4.247952997684479E-002;6.688656751066446E-003;9.276653872802854E-004;
2.418000000000000E+009;2.004589587450028E-001;-4.216615855693817E-002;6.922707892954350E-003;6.194277666509152E-004;
2.418166666666667E+009;1.997239291667938E-001;-4.209952801465988E-002;6.850561127066612E-003;6.634595338255167E-004;
2.418333333333334E+009;1.988168507814407E-001;-4.193657636642456E-002;7.072012405842543E-003;3.201041254214943E-004;
2.418500000000000E+009;1.978284865617752E-001;-4.192681238055229E-002;7.044006604701281E-003;1.774304291757289E-005;
2.418666666666667E+009;1.969069987535477E-001;-4.190073534846306E-002;7.134866435080767E-003;-1.740951993269846E-004;
2.418833333333334E+009;1.955486983060837E-001;-4.207145050168037E-002;7.168120704591274E-003;-4.873068246524781E-004;
2.419000000000000E+009;1.942955255508423E-001;-4.217259213328362E-002;7.206325884908438E-003;-7.689017802476883E-004;
2.419166666666667E+009;1.928725242614746E-001;-4.251607507467270E-002;7.058982737362385E-003;-8.018603548407555E-004;
2.419333333333334E+009;1.915996670722961E-001;-4.308278858661652E-002;6.953551433980465E-003;-1.167230890132487E-003;
2.419500000000000E+009;1.901153177022934E-001;-4.342445358633995E-002;7.031297776848078E-003;-1.344498246908188E-003;
2.419666666666667E+009;1.885308921337128E-001;-4.427755996584892E-002;6.779555231332779E-003;-1.564105041325092E-003;
2.419833333333334E+009;1.868259161710739E-001;-4.507412761449814E-002;6.919597275555134E-003;-1.831975067034364E-003;
2.420000000000000E+009;1.855017244815826E-001;-4.582121968269348E-002;6.882633082568646E-003;-2.030833391472697E-003;
2.420166666666667E+009;1.837555468082428E-001;-4.683580249547958E-002;6.782765034586191E-003;-2.272885292768478E-003;
2.420333333333334E+009;1.820417791604996E-001;-4.794396832585335E-002;6.723614409565926E-003;-2.530529629439116E-003;
2.420500000000000E+009;1.804614812135696E-001;-4.929665476083756E-002;6.581096909940243E-003;-2.727106446400285E-003;
2.420666666666667E+009;1.787707209587097E-001;-5.057575926184654E-002;6.545294076204300E-003;-2.805913565680385E-003;
2.420833333333334E+009;1.772649139165878E-001;-5.193483829498291E-002;6.480595562607050E-003;-2.974361646920443E-003;
2.421000000000000E+009;1.756754815578461E-001;-5.361502617597580E-002;6.427491083741188E-003;-3.048275830224156E-003;
2.421166666666667E+009;1.741640120744705E-001;-5.541192367672920E-002;6.407552864402533E-003;-3.481736406683922E-003;
2.421333333333334E+009;1.725160032510757E-001;-5.687149614095688E-002;6.421801168471575E-003;-3.735163249075413E-003;
2.421500000000000E+009;1.711889803409576E-001;-5.886804312467575E-002;6.315746810287237E-003;-3.926549106836319E-003;
2.421666666666667E+009;1.699806302785873E-001;-6.066083535552025E-002;6.227748002856970E-003;-4.194554872810841E-003;
2.421833333333334E+009;1.689583808183670E-001;-6.246506422758102E-002;5.975697189569473E-003;-4.266648553311825E-003;
2.422000000000000E+009;1.677290499210358E-001;-6.434382498264313E-002;5.779116414487362E-003;-4.689286928623915E-003;
2.422166666666667E+009;1.668255925178528E-001;-6.659347563982010E-002;5.653569009155035E-003;-4.819812718778849E-003;
2.422333333333334E+009;1.657776385545731E-001;-6.857234984636307E-002;5.459153093397617E-003;-5.240145139396191E-003;
2.422500000000000E+009;1.650143712759018E-001;-7.059964537620544E-002;5.269134882837534E-003;-5.255129188299179E-003;
2.422666666666667E+009;1.644816845655441E-001;-7.256873697042465E-002;5.067852791398764E-003;-5.621724296361208E-003;
2.422833333333334E+009;1.639718264341354E-001;-7.484187930822372E-002;4.837216343730688E-003;-5.852843169122934E-003;
2.423000000000000E+009;1.634974628686905E-001;-7.688596844673157E-002;4.433429334312677E-003;-6.123582366853952E-003;
2.423166666666667E+009;1.631859093904495E-001;-7.883413136005402E-002;4.031137097626925E-003;-6.105683743953705E-003;
2.423333333333334E+009;1.629001349210739E-001;-8.077706396579742E-002;3.754699835553765E-003;-6.352951750159264E-003;
2.423500000000000E+009;1.627277135848999E-001;-8.263491094112396E-002;3.351752180606127E-003;-6.453259382396936E-003;
2.423666666666667E+009;1.628322452306747E-001;-8.459619432687759E-002;3.045595716685057E-003;-6.510027218610048E-003;
2.423833333333334E+009;1.628192365169525E-001;-8.636072278022766E-002;2.779851900413632E-003;-6.549379322677851E-003;
2.424000000000000E+009;1.629198938608170E-001;-8.826146274805069E-002;2.471429063007236E-003;-6.620719563215971E-003;
2.424166666666667E+009;1.630242168903351E-001;-8.987043797969818E-002;2.012242563068867E-003;-6.503453012555838E-003;
2.424333333333334E+009;1.631955504417419E-001;-9.144646674394608E-002;1.723024412058294E-003;-6.645503453910351E-003;
2.424500000000000E+009;1.635628789663315E-001;-9.318205714225769E-002;1.407506875693798E-003;-6.292170379310846E-003;
2.424666666666667E+009;1.638092249631882E-001;-9.452266246080399E-002;1.072725048288703E-003;-6.519939284771681E-003;
2.424833333333334E+009;1.643304228782654E-001;-9.584788233041763E-002;8.396413759328425E-004;-6.351327523589134E-003;
2.425000000000000E+009;1.647423058748245E-001;-9.697828441858292E-002;6.560238543897867E-004;-6.205218844115734E-003;
2.425166666666667E+009;1.651085019111633E-001;-9.807819873094559E-002;3.972221165895462E-004;-6.263542920351028E-003;
2.425333333333334E+009;1.652729064226151E-001;-9.908950328826904E-002;1.272988010896370E-004;-5.858977325260639E-003;
2.425500000000000E+009;1.658228933811188E-001;-1.001565009355545E-001;-1.713254168862477E-004;-5.716664716601372E-003;
2.425666666666667E+009;1.661933809518814E-001;-1.007028743624687E-001;-4.414381983224303E-004;-5.703189410269260E-003;
2.425833333333334E+009;1.665158271789551E-001;-1.016937643289566E-001;-5.245761130936444E-004;-5.397182889282703E-003;
2.426000000000000E+009;1.669280976057053E-001;-1.020044311881065E-001;-6.354146753437817E-004;-5.261966492980719E-003;
2.426166666666667E+009;1.673016250133514E-001;-1.025563850998879E-001;-7.899533375166357E-004;-5.118879955261946E-003;
2.426333333333334E+009;1.673659086227417E-001;-1.029204204678536E-001;-8.107778849080205E-004;-5.048251710832119E-003;
2.426500000000000E+009;1.677406579256058E-001;-1.032093688845635E-001;-1.126701361499727E-003;-4.826370161026716E-003;
2.426666666666667E+009;1.679309904575348E-001;-1.035213172435761E-001;-1.124358153901994E-003;-4.562611225992441E-003;
2.426833333333334E+009;1.682489812374115E-001;-1.037850454449654E-001;-1.153297955170274E-003;-4.495215602219105E-003;
2.427000000000000E+009;1.682221293449402E-001;-1.039349809288979E-001;-1.377352629788220E-003;-4.204890690743923E-003;
2.427166666666667E+009;1.682371050119400E-001;-1.039929911494255E-001;-1.264414400793612E-003;-4.256535787135363E-003;
2.427333333333334E+009;1.680736541748047E-001;-1.041640266776085E-001;-1.348495134152472E-003;-4.067988134920597E-003;
2.427500000000000E+009;1.677651703357697E-001;-1.044951006770134E-001;-1.418303581885994E-003;-3.831886453554034E-003;
2.427666666666667E+009;1.675217747688294E-001;-1.044170036911964E-001;-1.349088037386537E-003;-3.750247880816460E-003;
2.427833333333334E+009;1.671320348978043E-001;-1.045069471001625E-001;-1.355000538751483E-003;-3.509809961542487E-003;
