# Version 1.00
#
freq[Hz];re:Trc1_S11;im:Trc1_S11;re:Trc2_S21;im:Trc2_S21;
2.400000000000000E+009;1.552726626396179E-001;1.068807691335678E-001;-6.071159150451422E-003;-1.310977851971984E-003;
2.400166666666667E+009;1.548111438751221E-001;1.046956330537796E-001;-6.039835046976805E-003;-1.153264311142266E-003;
2.400333333333334E+009;1.549833267927170E-001;1.024039462208748E-001;-6.344166118651629E-003;-1.126014161854982E-003;
2.400500000000000E+009;1.548962444067001E-001;9.965555369853973E-002;-6.374442018568516E-003;-9.158952743746340E-004;
2.400666666666667E+009;1.550909429788590E-001;9.727095812559128E-002;-6.495012901723385E-003;-8.835603366605938E-004;
2.400833333333334E+009;1.550069451332092E-001;9.429335594177246E-002;-6.622453220188618E-003;-7.177935331128538E-004;
2.401000000000000E+009;1.553104817867279E-001;9.150966256856918E-002;-6.671668030321598E-003;-4.856026498600841E-004;
2.401166666666667E+009;1.551979333162308E-001;8.869717270135880E-002;-6.915225647389889E-003;-3.770698967855424E-004;
2.401333333333334E+009;1.555855572223663E-001;8.588282763957977E-002;-7.112806197255850E-003;-3.579712065402418E-004;
2.401500000000000E+009;1.562069952487946E-001;8.300891518592835E-002;-7.254041731357575E-003;-7.400813774438575E-005;
2.401666666666667E+009;1.564294844865799E-001;7.990977913141251E-002;-7.273049559444189E-003;1.712093653623015E-004;
2.401833333333334E+009;1.569076180458069E-001;7.725679874420166E-002;-7.530075497925282E-003;4.283436574041843E-004;
2.402000000000000E+009;1.577940285205841E-001;7.463771104812622E-002;-7.756674662232399E-003;6.602803478017449E-004;
2.402166666666667E+009;1.587362736463547E-001;7.207425683736801E-002;-7.900564000010490E-003;8.769141859374940E-004;
2.402333333333334E+009;1.596653759479523E-001;6.925202906131744E-002;-7.987063378095627E-003;1.269628875888884E-003;
2.402500000000000E+009;1.607836186885834E-001;6.658134609460831E-002;-8.078610524535179E-003;1.658822409808636E-003;
2.402666666666667E+009;1.620203852653503E-001;6.442639976739883E-002;-8.172533474862576E-003;2.057953039184213E-003;
2.402833333333334E+009;1.632689088582993E-001;6.189546361565590E-002;-8.304744958877564E-003;2.332303905859590E-003;
2.403000000000000E+009;1.646176874637604E-001;5.951903760433197E-002;-8.223393000662327E-003;2.777766901999712E-003;
2.403166666666667E+009;1.665730029344559E-001;5.728357657790184E-002;-8.155455812811852E-003;3.472071606665850E-003;
2.403333333333334E+009;1.677438020706177E-001;5.512448772788048E-002;-8.171431720256805E-003;3.781531937420368E-003;
2.403500000000000E+009;1.696438640356064E-001;5.298504605889320E-002;-8.143866434693337E-003;4.373880568891764E-003;
2.403666666666667E+009;1.714603900909424E-001;5.108530074357987E-002;-7.943725213408470E-003;4.687240812927485E-003;
2.403833333333334E+009;1.730836927890778E-001;4.923995584249497E-002;-7.634913083165884E-003;5.195745732635260E-003;
2.404000000000000E+009;1.747123897075653E-001;4.742843285202980E-002;-7.456717081367970E-003;5.560555495321751E-003;
2.404166666666667E+009;1.765507012605667E-001;4.596685990691185E-002;-7.213651202619076E-003;6.212653592228890E-003;
2.404333333333334E+009;1.781962662935257E-001;4.434297233819962E-002;-6.816624663770199E-003;6.518127862364054E-003;
2.404500000000000E+009;1.797735244035721E-001;4.284342378377914E-002;-6.453995592892170E-003;6.685160566121340E-003;
2.404666666666667E+009;1.815435588359833E-001;4.181562364101410E-002;-5.946711171418428E-003;7.144922390580177E-003;
2.404833333333334E+009;1.831861883401871E-001;4.071526974439621E-002;-5.577275995165110E-003;7.250905036926270E-003;
2.405000000000000E+009;1.844760924577713E-001;3.990008309483528E-002;-5.177642684429884E-003;7.515456993132830E-003;
2.405166666666667E+009;1.859545260667801E-001;3.911095485091209E-002;-4.836555104702711E-003;7.823584601283073E-003;
2.405333333333334E+009;1.874769926071167E-001;3.853065520524979E-002;-4.378365352749825E-003;8.036471903324127E-003;
2.405500000000000E+009;1.888316422700882E-001;3.796799853444099E-002;-4.008993972092867E-003;7.963132113218308E-003;
2.405666666666667E+009;1.900464743375778E-001;3.767839446663857E-002;-3.606417914852500E-003;8.027901872992516E-003;
2.405833333333334E+009;1.913740187883377E-001;3.745518624782562E-002;-3.329404862597585E-003;8.086300455033779E-003;
2.406000000000000E+009;1.921663135290146E-001;3.715503960847855E-002;-2.882028231397271E-003;8.146441541612148E-003;
2.406166666666667E+009;1.931918263435364E-001;3.704940900206566E-002;-2.456652699038386E-003;8.116889744997025E-003;
2.406333333333334E+009;1.941532343626022E-001;3.707415238022804E-002;-2.085689222440124E-003;8.076873607933521E-003;
2.406500000000000E+009;1.947302073240280E-001;3.714771568775177E-002;-1.833434100262821E-003;8.156483992934227E-003;
2.406666666666667E+009;1.953711360692978E-001;3.712482377886772E-002;-1.361526199616492E-003;8.120357058942318E-003;
2.406833333333334E+009;1.959229260683060E-001;3.714814409613609E-002;-1.265926985070109E-003;8.177514187991619E-003;
2.407000000000000E+009;1.962371319532394E-001;3.739034757018089E-002;-7.174732163548470E-004;7.802139036357403E-003;
2.407166666666667E+009;1.965297311544418E-001;3.711187839508057E-002;-5.528349429368973E-004;7.760942447930574E-003;
2.407333333333334E+009;1.965053826570511E-001;3.742707520723343E-002;-2.704912330955267E-004;7.652907632291317E-003;
2.407500000000000E+009;1.964313387870789E-001;3.753176331520081E-002;8.272515697171912E-005;7.591494824737310E-003;
2.407666666666667E+009;1.963240653276444E-001;3.739410638809204E-002;3.031727974303067E-004;7.444052956998348E-003;
2.407833333333334E+009;1.958745121955872E-001;3.730586171150208E-002;5.847910069860518E-004;7.306729909032583E-003;
2.408000000000000E+009;1.957085728645325E-001;3.718393296003342E-002;8.762307697907090E-004;7.073480170220137E-003;
2.408166666666667E+009;1.952711492776871E-001;3.696294501423836E-002;9.464572067372501E-004;7.223885506391525E-003;
2.408333333333334E+009;1.947329193353653E-001;3.647256642580032E-002;1.288845669478178E-003;6.919780280441046E-003;
2.408500000000000E+009;1.939103752374649E-001;3.631779551506043E-002;1.268335618078709E-003;6.568672135472298E-003;
2.408666666666667E+009;1.933536529541016E-001;3.564658388495445E-002;1.388749456964433E-003;6.395012605935335E-003;
2.408833333333334E+009;1.925379186868668E-001;3.497293964028359E-002;1.392187085002661E-003;6.268386263400316E-003;
2.409000000000000E+009;1.916524469852448E-001;3.412722796201706E-002;1.676471554674208E-003;6.099525839090347E-003;
2.409166666666667E+009;1.906532198190689E-001;3.302659466862679E-002;1.621418748982251E-003;5.953324958682060E-003;
2.409333333333334E+009;1.897975802421570E-001;3.222147002816200E-002;1.657594228163362E-003;5.830126348882914E-003;
2.409500000000000E+009;1.886542141437531E-001;3.087170608341694E-002;1.722069457173348E-003;5.756542552262545E-003;
2.409666666666667E+009;1.875382363796234E-001;2.941906452178955E-002;1.702809822745621E-003;5.707317963242531E-003;
2.409833333333334E+009;1.866493076086044E-001;2.794498577713966E-002;1.718463841825724E-003;5.535897333174944E-003;
2.410000000000000E+009;1.854857504367828E-001;2.634150534868240E-002;1.890009734779596E-003;5.683447699993849E-003;
2.410166666666667E+009;1.845416724681854E-001;2.440654672682285E-002;1.790718873962760E-003;5.502969492226839E-003;
2.410333333333334E+009;1.833438873291016E-001;2.280508540570736E-002;1.890562358312309E-003;5.539849400520325E-003;
2.410500000000000E+009;1.826398521661758E-001;2.071755193173885E-002;2.050031442195177E-003;5.416196770966053E-003;
2.410666666666667E+009;1.816728711128235E-001;1.855370774865151E-002;2.024699002504349E-003;5.443627014756203E-003;
2.410833333333334E+009;1.810650229454041E-001;1.645575836300850E-002;2.087809145450592E-003;5.237728822976351E-003;
2.411000000000000E+009;1.802385896444321E-001;1.414293516427279E-002;2.292709192261100E-003;5.359383765608072E-003;
2.411166666666667E+009;1.795819699764252E-001;1.208597235381603E-002;2.421052660793066E-003;5.405936390161514E-003;
2.411333333333334E+009;1.789256930351257E-001;9.345791302621365E-003;2.592970849946141E-003;5.257025826722384E-003;
2.411500000000000E+009;1.785313040018082E-001;7.121244911104441E-003;2.661733189597726E-003;5.087587516754866E-003;
2.411666666666667E+009;1.784266382455826E-001;4.732999950647354E-003;2.720555756241083E-003;5.045004189014435E-003;
2.411833333333334E+009;1.781412959098816E-001;2.338497433811426E-003;2.667340217158198E-003;4.906869959086180E-003;
2.412000000000000E+009;1.782227307558060E-001;-3.130500263068825E-004;2.961524762213230E-003;4.989376291632652E-003;
2.412166666666667E+009;1.781208217144013E-001;-2.540763001888990E-003;2.963788341730833E-003;4.760819952934980E-003;
2.412333333333334E+009;1.785395890474320E-001;-5.113195162266493E-003;2.916793804615736E-003;4.638460464775562E-003;
2.412500000000000E+009;1.789636164903641E-001;-7.624850142747164E-003;3.076562192291021E-003;4.627686925232410E-003;
2.412666666666667E+009;1.795302629470825E-001;-1.000755652785301E-002;3.125499933958054E-003;4.689960740506649E-003;
2.412833333333334E+009;1.802104115486145E-001;-1.241291593760252E-002;3.109405748546124E-003;4.682170692831278E-003;
2.413000000000000E+009;1.808465719223023E-001;-1.475755590945482E-002;3.187706228345633E-003;4.519027192145586E-003;
2.413166666666667E+009;1.816710233688355E-001;-1.702928729355335E-002;3.191048512235284E-003;4.494830034673214E-003;
2.413333333333334E+009;1.827877163887024E-001;-1.943677663803101E-002;3.362898016348481E-003;4.569175653159618E-003;
2.413500000000000E+009;1.836288720369339E-001;-2.163601294159889E-002;3.353806445375085E-003;4.734175279736519E-003;
2.413666666666667E+009;1.847201585769653E-001;-2.393768168985844E-002;3.581295721232891E-003;4.668103996664286E-003;
2.413833333333334E+009;1.858701407909393E-001;-2.582755126059055E-002;3.696659812703729E-003;4.734851419925690E-003;
2.414000000000000E+009;1.869736164808273E-001;-2.791268192231655E-002;3.957182634621859E-003;4.644038155674934E-003;
2.414166666666667E+009;1.882034987211227E-001;-2.984667941927910E-002;4.276811145246029E-003;4.594586323946714E-003;
2.414333333333334E+009;1.892855614423752E-001;-3.171481564640999E-002;4.395465366542339E-003;4.560886882245541E-003;
2.414500000000000E+009;1.904809623956680E-001;-3.312754631042481E-002;4.655288998037577E-003;4.432051908224821E-003;
2.414666666666667E+009;1.916254311800003E-001;-3.454769402742386E-002;4.825328942388296E-003;4.183658864349127E-003;
2.414833333333334E+009;1.928362101316452E-001;-3.600940480828285E-002;5.099023692309856E-003;4.151289351284504E-003;
2.415000000000000E+009;1.939869374036789E-001;-3.730106353759766E-002;5.258562508970499E-003;3.990899305790663E-003;
2.415166666666667E+009;1.949933767318726E-001;-3.836414217948914E-002;5.564375780522823E-003;3.772387979552150E-003;
2.415333333333334E+009;1.962742954492569E-001;-3.930367901921272E-002;5.630830302834511E-003;3.543747821822763E-003;
2.415500000000000E+009;1.973459422588348E-001;-3.985936567187309E-002;5.684635601937771E-003;3.412172431126237E-003;
2.415666666666667E+009;1.984596848487854E-001;-4.078549891710281E-002;5.914709996432066E-003;3.076921449974179E-003;
2.415833333333334E+009;1.992840021848679E-001;-4.133186861872673E-002;5.890154279768467E-003;3.060124348849058E-003;
2.416000000000000E+009;2.000606805086136E-001;-4.183611273765564E-002;6.018837913870812E-003;2.688221400603652E-003;
2.416166666666667E+009;2.008959800004959E-001;-4.235809668898583E-002;6.043846718966961E-003;2.563456771895289E-003;
2.416333333333334E+009;2.013360410928726E-001;-4.256935417652130E-002;5.951008759438992E-003;2.407856518402696E-003;
2.416500000000000E+009;2.018828690052033E-001;-4.274820163846016E-002;6.145198363810778E-003;2.224760828539729E-003;
2.416666666666667E+009;2.021311670541763E-001;-4.305325821042061E-002;6.286164745688438E-003;2.084649866446853E-003;
2.416833333333334E+009;2.023762613534927E-001;-4.307838901877403E-002;6.277289241552353E-003;1.899555674754083E-003;
2.417000000000000E+009;2.025549560785294E-001;-4.322689399123192E-002;6.299370434135199E-003;1.697896979749203E-003;
2.417166666666667E+009;2.023840993642807E-001;-4.304886236786842E-002;6.453510839492083E-003;1.609549508430064E-003;
2.417333333333334E+009;2.020476609468460E-001;-4.285008460283279E-002;6.595192942768335E-003;1.456985250115395E-003;
2.417500000000000E+009;2.018260657787323E-001;-4.288087785243988E-002;6.732018198817968E-003;1.284630270674825E-003;
2.417666666666667E+009;2.012856602668762E-001;-4.249421134591103E-002;6.698555313050747E-003;1.021171687170863E-003;
2.417833333333334E+009;2.008634209632874E-001;-4.225354641675949E-002;6.764071527868509E-003;9.176339954137802E-004;
2.418000000000000E+009;2.003717869520187E-001;-4.213455691933632E-002;6.866170093417168E-003;8.192350505851209E-004;
2.418166666666667E+009;1.995038390159607E-001;-4.201847687363625E-002;6.899961270391941E-003;5.383663228712976E-004;
2.418333333333334E+009;1.984548419713974E-001;-4.185557365417481E-002;6.973096169531345E-003;3.534827555995435E-004;
2.418500000000000E+009;1.975920051336289E-001;-4.188878461718559E-002;7.023586425930262E-003;3.494242628221400E-005;
2.418666666666667E+009;1.966598480939865E-001;-4.171790927648544E-002;7.002199068665505E-003;-1.366826036246494E-004;
2.418833333333334E+009;1.952807307243347E-001;-4.180502146482468E-002;7.131778635084629E-003;-2.600539592094719E-004;
2.419000000000000E+009;1.941231787204742E-001;-4.210183396935463E-002;7.094267290085554E-003;-6.100242026150227E-004;
2.419166666666667E+009;1.928920894861221E-001;-4.226429015398026E-002;7.090865634381771E-003;-7.294775568880141E-004;
2.419333333333334E+009;1.914196014404297E-001;-4.294674098491669E-002;7.046042475849390E-003;-1.014163601212204E-003;
2.419500000000000E+009;1.898949444293976E-001;-4.336953908205032E-002;6.887206807732582E-003;-1.253100112080574E-003;
2.419666666666667E+009;1.883250027894974E-001;-4.414676129817963E-002;6.893970072269440E-003;-1.560815959237516E-003;
2.419833333333334E+009;1.867935806512833E-001;-4.475060850381851E-002;6.737867370247841E-003;-1.720260363072157E-003;
2.420000000000000E+009;1.850913614034653E-001;-4.562548547983170E-002;6.804089061915875E-003;-1.876790891401470E-003;
2.420166666666667E+009;1.836252659559250E-001;-4.675273597240448E-002;6.534280721098185E-003;-2.127154963091016E-003;
2.420333333333334E+009;1.818802207708359E-001;-4.787530750036240E-002;6.493477150797844E-003;-2.258979715406895E-003;
2.420500000000000E+009;1.802182048559189E-001;-4.920707270503044E-002;6.484397221356630E-003;-2.454894129186869E-003;
2.420666666666667E+009;1.786614656448364E-001;-5.028887838125229E-002;6.368498783558607E-003;-2.686434891074896E-003;
2.420833333333334E+009;1.769583225250244E-001;-5.183331295847893E-002;6.351322866976261E-003;-2.863604808226228E-003;
2.421000000000000E+009;1.755717694759369E-001;-5.332094058394432E-002;6.242998875677586E-003;-3.082782728597522E-003;
2.421166666666667E+009;1.741477698087692E-001;-5.517293140292168E-002;6.317285820841789E-003;-3.301144111901522E-003;
2.421333333333334E+009;1.724640280008316E-001;-5.666910111904144E-002;6.184218917042017E-003;-3.577469382435083E-003;
2.421500000000000E+009;1.713055968284607E-001;-5.853611975908279E-002;6.120557431131601E-003;-3.848588326945901E-003;
2.421666666666667E+009;1.698475629091263E-001;-6.044952198863030E-002;6.014585960656405E-003;-3.918481990695000E-003;
2.421833333333334E+009;1.688190996646881E-001;-6.230514496564865E-002;5.960582755506039E-003;-4.107342101633549E-003;
2.422000000000000E+009;1.676142662763596E-001;-6.428094953298569E-002;5.573863163590431E-003;-4.434225615113974E-003;
2.422166666666667E+009;1.668186783790588E-001;-6.649383157491684E-002;5.573535803705454E-003;-4.745850339531899E-003;
2.422333333333334E+009;1.658932715654373E-001;-6.830249726772308E-002;5.415066611021757E-003;-4.943142645061016E-003;
2.422500000000000E+009;1.652033030986786E-001;-7.038282603025436E-002;5.100590176880360E-003;-5.254470277577639E-003;
2.422666666666667E+009;1.643341034650803E-001;-7.245445996522903E-002;4.912709817290306E-003;-5.389206111431122E-003;
2.422833333333334E+009;1.638533771038055E-001;-7.460577785968781E-002;4.673892632126808E-003;-5.781311076134443E-003;
2.423000000000000E+009;1.634452342987061E-001;-7.659017294645309E-002;4.404797218739986E-003;-5.939425900578499E-003;
2.423166666666667E+009;1.631534993648529E-001;-7.870940864086151E-002;4.123598337173462E-003;-6.112419068813324E-003;
2.423333333333334E+009;1.629193872213364E-001;-8.062197268009186E-002;3.734656143933535E-003;-6.177027709782124E-003;
2.423500000000000E+009;1.627750545740128E-001;-8.239305019378662E-002;3.462933236733079E-003;-6.250377278774977E-003;
2.423666666666667E+009;1.628700643777847E-001;-8.431591093540192E-002;3.033383749425411E-003;-6.445239298045635E-003;
2.423833333333334E+009;1.626856923103333E-001;-8.610377460718155E-002;2.682502847164869E-003;-6.404933985322714E-003;
2.424000000000000E+009;1.629979312419891E-001;-8.801154047250748E-002;2.340459264814854E-003;-6.309346761554480E-003;
2.424166666666667E+009;1.630701571702957E-001;-8.976155519485474E-002;1.986708259209991E-003;-6.596199702471495E-003;
2.424333333333334E+009;1.632315516471863E-001;-9.127227216959000E-002;1.759044826030731E-003;-6.411848124116659E-003;
2.424500000000000E+009;1.635163575410843E-001;-9.303488582372665E-002;1.411575241945684E-003;-6.436104420572519E-003;
2.424666666666667E+009;1.639270037412643E-001;-9.432000666856766E-002;1.056631444953382E-003;-6.181552074849606E-003;
2.424833333333334E+009;1.643548607826233E-001;-9.559856355190277E-002;9.951046667993069E-004;-6.250826176255941E-003;
2.425000000000000E+009;1.647634804248810E-001;-9.679071605205536E-002;5.868436419405043E-004;-6.060480605810881E-003;
2.425166666666667E+009;1.651089638471603E-001;-9.800045192241669E-002;3.890536318067461E-004;-6.008476950228214E-003;
2.425333333333334E+009;1.654279083013535E-001;-9.892484545707703E-002;1.868794061010703E-004;-6.044601555913687E-003;
2.425500000000000E+009;1.659273058176041E-001;-9.987773001194000E-002;-2.495437802281231E-004;-5.785278044641018E-003;
2.425666666666667E+009;1.663015633821487E-001;-1.005215421319008E-001;-2.902989799622446E-004;-5.683815106749535E-003;
2.425833333333334E+009;1.665830165147781E-001;-1.013697981834412E-001;-4.742779710795730E-004;-5.509148817509413E-003;
2.426000000000000E+009;1.670032441616058E-001;-1.018517389893532E-001;-4.772059619426727E-004;-5.180243868380785E-003;
2.426166666666667E+009;1.673707216978073E-001;-1.023275256156921E-001;-8.050873875617981E-004;-5.069497507065535E-003;
2.426333333333334E+009;1.674448251724243E-001;-1.028503924608231E-001;-7.501016953028739E-004;-4.967845976352692E-003;
2.426500000000000E+009;1.678726822137833E-001;-1.031243354082108E-001;-1.140731270425022E-003;-4.736170638352633E-003;
2.426666666666667E+009;1.680571138858795E-001;-1.034515574574471E-001;-1.118957879953086E-003;-4.529671277850866E-003;
2.426833333333334E+009;1.683517992496491E-001;-1.036629676818848E-001;-1.239200122654438E-003;-4.350974690169096E-003;
2.427000000000000E+009;1.683638691902161E-001;-1.038146317005158E-001;-1.173327211290598E-003;-4.209920763969421E-003;
2.427166666666667E+009;1.683611422777176E-001;-1.038873121142387E-001;-1.215462340041995E-003;-3.993582446128130E-003;
2.427333333333334E+009;1.681748926639557E-001;-1.042007133364677E-001;-1.192086027003825E-003;-3.706074086949229E-003;
2.427500000000000E+009;1.679768860340118E-001;-1.042192280292511E-001;-1.266886247321963E-003;-3.697545966133475E-003;
2.427666666666667E+009;1.677231937646866E-001;-1.042820811271668E-001;-1.156194950453937E-003;-3.653591964393854E-003;
2.427833333333334E+009;1.672001332044601E-001;-1.043528169393539E-001;-1.350444159470499E-003;-3.512761555612087E-003;
