# Version 1.00
#
freq[Hz];re:Trc1_S11;im:Trc1_S11;re:Trc2_S21;im:Trc2_S21;
2.400000000000000E+009;1.550092399120331E-001;1.072746217250824E-001;-6.066874135285616E-003;-1.463430002331734E-003;
2.400166666666667E+009;1.548868268728256E-001;1.049179211258888E-001;-6.216644775122404E-003;-1.435967278666794E-003;
2.400333333333334E+009;1.548548787832260E-001;1.025261804461479E-001;-6.233749445527792E-003;-1.331836683675647E-003;
2.400500000000000E+009;1.548353880643845E-001;9.996615350246429E-002;-6.464621052145958E-003;-9.580664918757975E-004;
2.400666666666667E+009;1.550144404172897E-001;9.728823602199554E-002;-6.561357062309980E-003;-8.584766183048487E-004;
2.400833333333334E+009;1.549946069717407E-001;9.444362670183182E-002;-6.758873350918293E-003;-8.412309107370675E-004;
2.401000000000000E+009;1.552616655826569E-001;9.165653586387634E-002;-6.874583661556244E-003;-6.584878428839147E-004;
2.401166666666667E+009;1.551833599805832E-001;8.880136907100678E-002;-7.067782338708639E-003;-5.172243108972907E-004;
2.401333333333334E+009;1.556521952152252E-001;8.581457287073135E-002;-7.146028801798821E-003;-3.809868067037314E-004;
2.401500000000000E+009;1.561065614223480E-001;8.320749551057816E-002;-7.405642420053482E-003;-1.478684280300513E-004;
2.401666666666667E+009;1.564713120460510E-001;8.016213029623032E-002;-7.604403421282768E-003;1.383848575642332E-004;
2.401833333333334E+009;1.570069789886475E-001;7.754353433847427E-002;-7.611947599798441E-003;3.368844627402723E-004;
2.402000000000000E+009;1.579193174839020E-001;7.496247440576553E-002;-7.679647766053677E-003;5.308417021296918E-004;
2.402166666666667E+009;1.585756242275238E-001;7.225275784730911E-002;-8.016415871679783E-003;8.225287310779095E-004;
2.402333333333334E+009;1.596205383539200E-001;6.934317201375961E-002;-8.004846982657909E-003;1.197914360091090E-003;
2.402500000000000E+009;1.608642041683197E-001;6.690567731857300E-002;-8.152889087796211E-003;1.472587347961962E-003;
2.402666666666667E+009;1.620104610919952E-001;6.447733938694000E-002;-8.483017794787884E-003;1.906756660901010E-003;
2.402833333333334E+009;1.633904427289963E-001;6.202479451894760E-002;-8.513533510267735E-003;2.449864055961371E-003;
2.403000000000000E+009;1.646897494792938E-001;5.965747311711311E-002;-8.428845554590225E-003;2.945449668914080E-003;
2.403166666666667E+009;1.666834652423859E-001;5.747617408633232E-002;-8.455955423414707E-003;3.271539695560932E-003;
2.403333333333334E+009;1.679943054914475E-001;5.524943396449089E-002;-8.406606502830982E-003;3.581621916964650E-003;
2.403500000000000E+009;1.697644591331482E-001;5.320201441645622E-002;-8.423189632594585E-003;4.280597437173128E-003;
2.403666666666667E+009;1.714457124471664E-001;5.120586231350899E-002;-7.999361492693424E-003;4.740425385534763E-003;
2.403833333333334E+009;1.732656657695770E-001;4.919383674860001E-002;-7.852756418287754E-003;5.196102429181337E-003;
2.404000000000000E+009;1.748805344104767E-001;4.743975028395653E-002;-7.704303134232760E-003;5.699212662875652E-003;
2.404166666666667E+009;1.766123771667481E-001;4.589059948921204E-002;-7.346102502197027E-003;6.174177397042513E-003;
2.404333333333334E+009;1.784308254718781E-001;4.437718540430069E-002;-6.960855331271887E-003;6.421999540179968E-003;
2.404500000000000E+009;1.799321919679642E-001;4.283788427710533E-002;-6.485248915851116E-003;6.735158618539572E-003;
2.404666666666667E+009;1.815152615308762E-001;4.179462045431137E-002;-6.219117902219296E-003;7.112187799066305E-003;
2.404833333333334E+009;1.831924617290497E-001;4.057516902685165E-002;-5.740569438785315E-003;7.455367594957352E-003;
2.405000000000000E+009;1.844897419214249E-001;4.001012071967125E-002;-5.461348686367273E-003;7.494951132684946E-003;
2.405166666666667E+009;1.861190646886826E-001;3.926432877779007E-002;-4.946102853864431E-003;7.783660665154457E-003;
2.405333333333334E+009;1.873779743909836E-001;3.861066326498985E-002;-4.489835817366839E-003;7.838011719286442E-003;
2.405500000000000E+009;1.888429075479507E-001;3.808070346713066E-002;-4.057986196130514E-003;8.005505427718163E-003;
2.405666666666667E+009;1.900790035724640E-001;3.770611807703972E-002;-3.658428555354476E-003;8.246864192187786E-003;
2.405833333333334E+009;1.913584768772125E-001;3.740914911031723E-002;-3.223335137590766E-003;7.986253127455711E-003;
2.406000000000000E+009;1.924089342355728E-001;3.741612285375595E-002;-2.911001909524202E-003;8.066938258707523E-003;
2.406166666666667E+009;1.932076364755631E-001;3.715712949633598E-002;-2.585459034889936E-003;8.146098814904690E-003;
2.406333333333334E+009;1.940925568342209E-001;3.713105246424675E-002;-2.179583068937063E-003;8.449187502264977E-003;
2.406500000000000E+009;1.949409693479538E-001;3.711673989892006E-002;-1.782706589438021E-003;8.077790960669518E-003;
2.406666666666667E+009;1.954980790615082E-001;3.723623231053352E-002;-1.508836168795824E-003;8.183382451534271E-003;
2.406833333333334E+009;1.959923654794693E-001;3.717756271362305E-002;-1.200779224745929E-003;7.971853017807007E-003;
2.407000000000000E+009;1.961683779954910E-001;3.748541325330734E-002;-8.962015854194760E-004;8.136008866131306E-003;
2.407166666666667E+009;1.965716183185577E-001;3.725831583142281E-002;-6.373463547788560E-004;7.987281307578087E-003;
2.407333333333334E+009;1.965155303478241E-001;3.751059621572495E-002;-2.879069070331752E-004;7.838685065507889E-003;
2.407500000000000E+009;1.963732093572617E-001;3.758504614233971E-002;-9.218599188898224E-006;7.644036784768105E-003;
2.407666666666667E+009;1.963627189397812E-001;3.742215037345886E-002;4.100156656932086E-004;7.537519559264183E-003;
2.407833333333334E+009;1.959241777658463E-001;3.741861134767532E-002;6.369487964548171E-004;7.520867045968771E-003;
2.408000000000000E+009;1.957993060350418E-001;3.732013329863548E-002;6.597511819563806E-004;7.515969220548868E-003;
2.408166666666667E+009;1.952754259109497E-001;3.706619143486023E-002;1.001540105789900E-003;7.094248663634062E-003;
2.408333333333334E+009;1.948636472225189E-001;3.656566143035889E-002;1.172442920506001E-003;6.942484062165022E-003;
2.408500000000000E+009;1.940985321998596E-001;3.641930222511292E-002;1.193685107864440E-003;6.765314377844334E-003;
2.408666666666667E+009;1.934482008218765E-001;3.586833178997040E-002;1.464830478653312E-003;6.635718978941441E-003;
2.408833333333334E+009;1.927061676979065E-001;3.498094528913498E-002;1.530215493403375E-003;6.400297395884991E-003;
2.409000000000000E+009;1.918526440858841E-001;3.422793745994568E-002;1.629010890610516E-003;6.211456377059221E-003;
2.409166666666667E+009;1.907748579978943E-001;3.311040997505188E-002;1.689465600065887E-003;6.111206952482462E-003;
2.409333333333334E+009;1.898590177297592E-001;3.230186924338341E-002;1.735700876452029E-003;5.976600572466850E-003;
2.409500000000000E+009;1.886929869651794E-001;3.084025904536247E-002;1.760220387950540E-003;5.868822801858187E-003;
2.409666666666667E+009;1.876545697450638E-001;2.943553589284420E-002;1.773592201061547E-003;5.630886182188988E-003;
2.409833333333334E+009;1.866560280323029E-001;2.804373949766159E-002;1.627379679121077E-003;5.685162730515003E-003;
2.410000000000000E+009;1.856248229742050E-001;2.643567696213722E-002;1.660045003518462E-003;5.678035318851471E-003;
2.410166666666667E+009;1.846222728490830E-001;2.452572621405125E-002;1.872621127404273E-003;5.631861276924610E-003;
2.410333333333334E+009;1.837155818939209E-001;2.266488224267960E-002;1.904841512441635E-003;5.512208677828312E-003;
2.410500000000000E+009;1.825280636548996E-001;2.077200822532177E-002;1.953426748514175E-003;5.652902647852898E-003;
2.410666666666667E+009;1.816117018461227E-001;1.850418746471405E-002;2.138797892257571E-003;5.646903999149799E-003;
2.410833333333334E+009;1.809691190719605E-001;1.639989204704762E-002;2.178467111662030E-003;5.623682867735624E-003;
2.411000000000000E+009;1.801937520503998E-001;1.419836375862360E-002;2.186377067118883E-003;5.560242570936680E-003;
2.411166666666667E+009;1.793506592512131E-001;1.186383515596390E-002;2.403166610747576E-003;5.454219412058592E-003;
2.411333333333334E+009;1.790234297513962E-001;9.612566791474819E-003;2.556391526013613E-003;5.329826846718788E-003;
2.411500000000000E+009;1.785289198160172E-001;7.008809130638838E-003;2.613755175843835E-003;5.196181591600180E-003;
2.411666666666667E+009;1.783567965030670E-001;4.908144008368254E-003;2.756957430392504E-003;5.120200105011463E-003;
2.411833333333334E+009;1.782278567552567E-001;2.464672084897757E-003;2.842065645381808E-003;5.076464265584946E-003;
2.412000000000000E+009;1.780912429094315E-001;-1.900035713333637E-004;2.880690852180123E-003;5.085404030978680E-003;
2.412166666666667E+009;1.784167140722275E-001;-2.498402958735824E-003;3.019550116732717E-003;4.986086860299110E-003;
2.412333333333334E+009;1.784340590238571E-001;-4.943776875734329E-003;3.129777265712619E-003;4.913379438221455E-003;
2.412500000000000E+009;1.790561676025391E-001;-7.519067730754614E-003;3.108536591753364E-003;4.818898625671864E-003;
2.412666666666667E+009;1.795534640550613E-001;-9.914268739521503E-003;3.194052958860993E-003;4.720710217952728E-003;
2.412833333333334E+009;1.802765727043152E-001;-1.236402895301580E-002;3.227128414437175E-003;4.703064914792776E-003;
2.413000000000000E+009;1.809387654066086E-001;-1.472998969256878E-002;3.175798337906599E-003;4.704431165009737E-003;
2.413166666666667E+009;1.816554218530655E-001;-1.701618544757366E-002;3.150779753923416E-003;4.768725484609604E-003;
2.413333333333334E+009;1.827387064695358E-001;-1.946975849568844E-002;3.317850409075618E-003;4.683041945099831E-003;
2.413500000000000E+009;1.836970150470734E-001;-2.164592966437340E-002;3.353592939674854E-003;4.832373466342688E-003;
2.413666666666667E+009;1.848478615283966E-001;-2.396360412240028E-002;3.720459993928671E-003;4.753423854708672E-003;
2.413833333333334E+009;1.859727650880814E-001;-2.595942094922066E-002;3.935920074582100E-003;4.793197382241488E-003;
2.414000000000000E+009;1.870527118444443E-001;-2.792616933584213E-002;4.002271220088005E-003;4.763542208820581E-003;
2.414166666666667E+009;1.883142888545990E-001;-2.957288920879364E-002;4.259628243744373E-003;4.743187222629786E-003;
2.414333333333334E+009;1.891991943120956E-001;-3.172945976257324E-002;4.498839378356934E-003;4.601867403835058E-003;
2.414500000000000E+009;1.906068921089172E-001;-3.297529369592667E-002;4.745334852486849E-003;4.621334373950958E-003;
2.414666666666667E+009;1.917254477739334E-001;-3.460680320858955E-002;5.062234122306109E-003;4.412509966641665E-003;
2.414833333333334E+009;1.929149627685547E-001;-3.595467656850815E-002;5.221757106482983E-003;4.267026670277119E-003;
2.415000000000000E+009;1.940689980983734E-001;-3.731335327029228E-002;5.388001911342144E-003;4.033906850963831E-003;
2.415166666666667E+009;1.952444612979889E-001;-3.829818964004517E-002;5.569940898567438E-003;3.857950214296579E-003;
2.415333333333334E+009;1.965231895446777E-001;-3.915626555681229E-002;5.661273375153542E-003;3.712481120601296E-003;
2.415500000000000E+009;1.975226104259491E-001;-3.989772871136665E-002;5.861198995262384E-003;3.527221968397498E-003;
2.415666666666667E+009;1.985336542129517E-001;-4.079313203692436E-002;5.887253675609827E-003;3.212955780327320E-003;
2.415833333333334E+009;1.994228810071945E-001;-4.127208888530731E-002;5.978757981210947E-003;3.006657585501671E-003;
2.416000000000000E+009;2.001964747905731E-001;-4.192243888974190E-002;6.118052173405886E-003;2.904449356719852E-003;
2.416166666666667E+009;2.009415179491043E-001;-4.246345534920692E-002;6.102752871811390E-003;2.674617571756244E-003;
2.416333333333334E+009;2.015805393457413E-001;-4.256273806095123E-002;6.222426425665617E-003;2.548287855461240E-003;
2.416500000000000E+009;2.021223157644272E-001;-4.278066009283066E-002;6.232132669538260E-003;2.272448735311627E-003;
2.416666666666667E+009;2.023395746946335E-001;-4.311500489711762E-002;6.268623284995556E-003;2.013356192037463E-003;
2.416833333333334E+009;2.025056183338165E-001;-4.313584789633751E-002;6.434631999582052E-003;1.953454222530127E-003;
2.417000000000000E+009;2.027199119329453E-001;-4.320035129785538E-002;6.515395361930132E-003;1.813524751923978E-003;
2.417166666666667E+009;2.023866474628449E-001;-4.307651147246361E-002;6.607926450669766E-003;1.645918935537338E-003;
2.417333333333334E+009;2.021583318710327E-001;-4.288935288786888E-002;6.641469430178404E-003;1.478470279835165E-003;
2.417500000000000E+009;2.019958049058914E-001;-4.285448789596558E-002;6.636224221438170E-003;1.432886230759323E-003;
2.417666666666667E+009;2.015451490879059E-001;-4.270041733980179E-002;6.695995107293129E-003;1.156740123406053E-003;
2.417833333333334E+009;2.010338455438614E-001;-4.245014861226082E-002;6.795338355004787E-003;1.010398729704320E-003;
2.418000000000000E+009;2.004473507404327E-001;-4.221614450216293E-002;6.895632948726416E-003;7.230830378830433E-004;
2.418166666666667E+009;1.995717287063599E-001;-4.214293509721756E-002;7.044300436973572E-003;6.391151109710336E-004;
2.418333333333334E+009;1.987372934818268E-001;-4.196401312947273E-002;7.086480502039194E-003;3.774616052396596E-004;
2.418500000000000E+009;1.977171897888184E-001;-4.197217524051666E-002;7.160515990108252E-003;1.081240334315226E-004;
2.418666666666667E+009;1.966701894998550E-001;-4.194125533103943E-002;7.169432006776333E-003;-1.134714475483634E-004;
2.418833333333334E+009;1.955008506774902E-001;-4.204260185360909E-002;7.011196576058865E-003;-3.367138560861349E-004;
2.419000000000000E+009;1.941785067319870E-001;-4.218554124236107E-002;7.167255505919457E-003;-5.387315759435296E-004;
2.419166666666667E+009;1.929811388254166E-001;-4.243496805429459E-002;7.177710998803377E-003;-7.644290453754365E-004;
2.419333333333334E+009;1.914421916007996E-001;-4.301854223012924E-002;7.207198534160852E-003;-1.111136632971466E-003;
2.419500000000000E+009;1.900705248117447E-001;-4.336664825677872E-002;7.055669557303190E-003;-1.346741453744471E-003;
2.419666666666667E+009;1.884016543626785E-001;-4.434307664632797E-002;7.052924018353224E-003;-1.561482553370297E-003;
2.419833333333334E+009;1.868032217025757E-001;-4.486700147390366E-002;6.817472632974386E-003;-1.751894829794765E-003;
2.420000000000000E+009;1.853211522102356E-001;-4.579950124025345E-002;6.879107095301151E-003;-2.108607674017549E-003;
2.420166666666667E+009;1.835941374301910E-001;-4.665424674749374E-002;6.782940588891506E-003;-2.258307067677379E-003;
2.420333333333334E+009;1.821367889642716E-001;-4.796118289232254E-002;6.679726764559746E-003;-2.377211116254330E-003;
2.420500000000000E+009;1.803583502769470E-001;-4.916151985526085E-002;6.637088488787413E-003;-2.603442640975118E-003;
2.420666666666667E+009;1.786641180515289E-001;-5.034376680850983E-002;6.577554624527693E-003;-2.735322108492255E-003;
2.420833333333334E+009;1.769692599773407E-001;-5.190335214138031E-002;6.504799239337444E-003;-3.032599110156298E-003;
2.421000000000000E+009;1.755275875329971E-001;-5.358769744634628E-002;6.497704889625311E-003;-3.187471535056830E-003;
2.421166666666667E+009;1.742425858974457E-001;-5.526342615485191E-002;6.412336602807045E-003;-3.323078388348222E-003;
2.421333333333334E+009;1.724688410758972E-001;-5.664472281932831E-002;6.382012739777565E-003;-3.682391019538045E-003;
2.421500000000000E+009;1.712272465229034E-001;-5.871631577610970E-002;6.338952574878931E-003;-3.835093928501010E-003;
2.421666666666667E+009;1.700827032327652E-001;-6.050286069512367E-002;6.095021497458220E-003;-4.051365889608860E-003;
2.421833333333334E+009;1.687656939029694E-001;-6.237430125474930E-002;5.943849682807922E-003;-4.329706542193890E-003;
2.422000000000000E+009;1.676511317491531E-001;-6.425768136978149E-002;5.909708328545094E-003;-4.525434225797653E-003;
2.422166666666667E+009;1.668523550033569E-001;-6.651372462511063E-002;5.625522229820490E-003;-4.937378223985434E-003;
2.422333333333334E+009;1.658947765827179E-001;-6.841032952070236E-002;5.514869932085276E-003;-5.204877816140652E-003;
2.422500000000000E+009;1.649605482816696E-001;-7.052646577358246E-002;5.130995996296406E-003;-5.408765282481909E-003;
2.422666666666667E+009;1.643417924642563E-001;-7.251648604869843E-002;5.055860150605440E-003;-5.584438331425190E-003;
2.422833333333334E+009;1.639833897352219E-001;-7.465747743844986E-002;4.759738687425852E-003;-5.680940579622984E-003;
2.423000000000000E+009;1.633271127939224E-001;-7.667410373687744E-002;4.428849555552006E-003;-6.132771261036396E-003;
2.423166666666667E+009;1.630249172449112E-001;-7.852526009082794E-002;4.107788670808077E-003;-6.195920053869486E-003;
2.423333333333334E+009;1.627855449914932E-001;-8.077619224786758E-002;3.890314372256398E-003;-6.269109435379505E-003;
2.423500000000000E+009;1.627422422170639E-001;-8.255219459533691E-002;3.478583646938205E-003;-6.331122945994139E-003;
2.423666666666667E+009;1.626926362514496E-001;-8.445069193840027E-002;3.175269812345505E-003;-6.448820233345032E-003;
2.423833333333334E+009;1.626185029745102E-001;-8.631644397974014E-002;2.873958786949515E-003;-6.663910113275051E-003;
2.424000000000000E+009;1.629201769828796E-001;-8.820637315511704E-002;2.493626670911908E-003;-6.604601163417101E-003;
2.424166666666667E+009;1.628614366054535E-001;-8.972834795713425E-002;2.092331880703569E-003;-6.570699624717236E-003;
2.424333333333334E+009;1.631491035223007E-001;-9.126730263233185E-002;1.734249526634812E-003;-6.505656987428665E-003;
2.424500000000000E+009;1.636025011539459E-001;-9.305246174335480E-002;1.354685053229332E-003;-6.459394004195929E-003;
2.424666666666667E+009;1.637296527624130E-001;-9.436323493719101E-002;1.139849773608148E-003;-6.526215933263302E-003;
2.424833333333334E+009;1.643909960985184E-001;-9.587586671113968E-002;1.135836821049452E-003;-6.206786725670099E-003;
2.425000000000000E+009;1.645973622798920E-001;-9.695678204298019E-002;7.616515504196286E-004;-6.176617927849293E-003;
2.425166666666667E+009;1.650242060422897E-001;-9.793395549058914E-002;4.929392598569393E-004;-5.943653639405966E-003;
2.425333333333334E+009;1.654110401868820E-001;-9.893105924129486E-002;1.205271619255655E-004;-5.992989987134934E-003;
2.425500000000000E+009;1.657621115446091E-001;-9.994522482156754E-002;-1.016559981508181E-004;-5.849460139870644E-003;
2.425666666666667E+009;1.661904752254486E-001;-1.006540805101395E-001;-2.939290425274521E-004;-5.790806375443935E-003;
2.425833333333334E+009;1.665372401475906E-001;-1.014413461089134E-001;-3.130990953650326E-004;-5.554723087698221E-003;
2.426000000000000E+009;1.668986380100250E-001;-1.018800511956215E-001;-5.602685851044953E-004;-5.433997604995966E-003;
2.426166666666667E+009;1.673279702663422E-001;-1.024151444435120E-001;-8.415456977672875E-004;-5.296447779983282E-003;
2.426333333333334E+009;1.674416661262512E-001;-1.028763577342033E-001;-8.098529069684446E-004;-5.106200929731131E-003;
2.426500000000000E+009;1.677660793066025E-001;-1.031271517276764E-001;-1.125254668295384E-003;-4.992510657757521E-003;
2.426666666666667E+009;1.680239289999008E-001;-1.034009531140328E-001;-1.175934448838234E-003;-4.794762935489416E-003;
2.426833333333334E+009;1.682306826114655E-001;-1.036722883582115E-001;-1.286254497244954E-003;-4.600272513926029E-003;
2.427000000000000E+009;1.682512313127518E-001;-1.038759574294090E-001;-1.362064853310585E-003;-4.367733374238014E-003;
2.427166666666667E+009;1.682298630475998E-001;-1.039503589272499E-001;-1.421316759660840E-003;-4.122221376746893E-003;
2.427333333333334E+009;1.680162847042084E-001;-1.042012423276901E-001;-1.380236935801804E-003;-4.076137207448483E-003;
2.427500000000000E+009;1.677766442298889E-001;-1.042565330862999E-001;-1.262677717022598E-003;-3.964005038142204E-003;
2.427666666666667E+009;1.675031483173370E-001;-1.043701767921448E-001;-1.365516684018076E-003;-3.710220102220774E-003;
2.427833333333334E+009;1.671470701694489E-001;-1.043850108981133E-001;-1.279325922951102E-003;-3.514742944389582E-003;
