# Version 1.00
#
freq[Hz];re:Trc1_S11;im:Trc1_S11;re:Trc2_S21;im:Trc2_S21;
2.400000000000000E+009;1.552115976810455E-001;1.073137372732163E-001;-6.063534878194332E-003;-1.429104595445097E-003;
2.400166666666667E+009;1.549223363399506E-001;1.049430593848229E-001;-6.102170795202255E-003;-1.322724972851574E-003;
2.400333333333334E+009;1.550430655479431E-001;1.024348288774490E-001;-6.343644578009844E-003;-1.324559096246958E-003;
2.400500000000000E+009;1.549164354801178E-001;9.968601167201996E-002;-6.408497691154480E-003;-1.042478485032916E-003;
2.400666666666667E+009;1.550312489271164E-001;9.734924137592316E-002;-6.640167441219091E-003;-9.468800853937864E-004;
2.400833333333334E+009;1.551004052162170E-001;9.451723843812943E-002;-6.776161957532167E-003;-8.047806913964450E-004;
2.401000000000000E+009;1.550648361444473E-001;9.165106713771820E-002;-6.805050186812878E-003;-6.713684415444732E-004;
2.401166666666667E+009;1.553011387586594E-001;8.892757445573807E-002;-7.177537307143211E-003;-4.647030145861208E-004;
2.401333333333334E+009;1.557378172874451E-001;8.594163507223129E-002;-7.287907879799604E-003;-3.087264194618911E-004;
2.401500000000000E+009;1.561825722455978E-001;8.301412314176559E-002;-7.340134121477604E-003;-6.352580385282636E-005;
2.401666666666667E+009;1.564376354217529E-001;8.030422776937485E-002;-7.429649122059345E-003;1.239985140273348E-004;
2.401833333333334E+009;1.570391058921814E-001;7.767679542303085E-002;-7.694676052778959E-003;4.055273311678320E-004;
2.402000000000000E+009;1.578829437494278E-001;7.483080029487610E-002;-7.833172567188740E-003;6.979368044994772E-004;
2.402166666666667E+009;1.585212945938110E-001;7.206029444932938E-002;-8.034842088818550E-003;9.697437053546310E-004;
2.402333333333334E+009;1.596225351095200E-001;6.939715147018433E-002;-8.125470019876957E-003;1.351943123154342E-003;
2.402500000000000E+009;1.608076393604279E-001;6.684087216854096E-002;-8.177177049219608E-003;1.528184278868139E-003;
2.402666666666667E+009;1.618921160697937E-001;6.458811461925507E-002;-8.236484602093697E-003;2.066086046397686E-003;
2.402833333333334E+009;1.631281673908234E-001;6.206598505377770E-002;-8.315537124872208E-003;2.614967757835984E-003;
2.403000000000000E+009;1.646828055381775E-001;5.957353115081787E-002;-8.452905341982842E-003;2.866548020392656E-003;
2.403166666666667E+009;1.664060056209564E-001;5.742966756224632E-002;-8.340463042259216E-003;3.287094878032804E-003;
2.403333333333334E+009;1.678894758224487E-001;5.524208769202232E-002;-8.405953645706177E-003;3.892657812684774E-003;
2.403500000000000E+009;1.697707623243332E-001;5.305401608347893E-002;-8.234005421400070E-003;4.221567418426275E-003;
2.403666666666667E+009;1.714656800031662E-001;5.100131407380104E-002;-8.078812621533871E-003;4.902229644358158E-003;
2.403833333333334E+009;1.731742322444916E-001;4.915254190564156E-002;-7.746031973510981E-003;5.200702697038651E-003;
2.404000000000000E+009;1.746934652328491E-001;4.745290800929070E-002;-7.683773990720511E-003;5.747867748141289E-003;
2.404166666666667E+009;1.765556782484055E-001;4.587535187602043E-002;-7.284604478627443E-003;6.205015350133181E-003;
2.404333333333334E+009;1.781538277864456E-001;4.443778842687607E-002;-6.911833304911852E-003;6.572814658284187E-003;
2.404500000000000E+009;1.797453910112381E-001;4.283297061920166E-002;-6.550875026732683E-003;7.013093680143356E-003;
2.404666666666667E+009;1.814744174480438E-001;4.170941188931465E-002;-6.106344517320395E-003;7.169637363404036E-003;
2.404833333333334E+009;1.830345541238785E-001;4.052804410457611E-002;-5.730215925723314E-003;7.407968863844872E-003;
2.405000000000000E+009;1.846097558736801E-001;3.996516019105911E-002;-5.363609641790390E-003;7.654432673007250E-003;
2.405166666666667E+009;1.860798448324204E-001;3.915226832032204E-002;-5.019238218665123E-003;7.650364190340042E-003;
2.405333333333334E+009;1.873623579740524E-001;3.858890384435654E-002;-4.513992927968502E-003;7.868348620831966E-003;
2.405500000000000E+009;1.886927783489227E-001;3.807630389928818E-002;-4.176273941993713E-003;8.081499487161636E-003;
2.405666666666667E+009;1.900029927492142E-001;3.764991089701653E-002;-3.715240396559238E-003;8.129061199724674E-003;
2.405833333333334E+009;1.913018524646759E-001;3.735578805208206E-002;-3.336281282827258E-003;8.310678415000439E-003;
2.406000000000000E+009;1.922969520092011E-001;3.726511448621750E-002;-2.986728912219405E-003;8.095388300716877E-003;
2.406166666666667E+009;1.931302547454834E-001;3.701284527778626E-002;-2.602911554276943E-003;8.231754414737225E-003;
2.406333333333334E+009;1.941271722316742E-001;3.697976097464562E-002;-2.200108021497726E-003;8.319051004946232E-003;
2.406500000000000E+009;1.948384195566177E-001;3.720708936452866E-002;-1.988120377063751E-003;8.283313363790512E-003;
2.406666666666667E+009;1.954840719699860E-001;3.720271587371826E-002;-1.544993021525443E-003;8.233921602368355E-003;
2.406833333333334E+009;1.960136890411377E-001;3.726068884134293E-002;-1.339193317107856E-003;8.174554444849491E-003;
2.407000000000000E+009;1.961013078689575E-001;3.749483451247215E-002;-9.155816514976323E-004;8.021409623324871E-003;
2.407166666666667E+009;1.965866982936859E-001;3.720416128635407E-002;-5.452600307762623E-004;8.054534904658794E-003;
2.407333333333334E+009;1.964125037193298E-001;3.746667504310608E-002;-3.092361730523408E-004;7.887473329901695E-003;
2.407500000000000E+009;1.963374167680740E-001;3.759009018540382E-002;-4.848160824622028E-005;7.655017077922821E-003;
2.407666666666667E+009;1.964091956615448E-001;3.758003190159798E-002;3.064905176870525E-004;7.703609298914671E-003;
2.407833333333334E+009;1.958378255367279E-001;3.744422271847725E-002;5.271421396173537E-004;7.447330746799707E-003;
2.408000000000000E+009;1.957609951496124E-001;3.719396516680718E-002;6.210604333318770E-004;7.296383846551180E-003;
2.408166666666667E+009;1.952285319566727E-001;3.708191588521004E-002;1.044541364535689E-003;7.262422237545252E-003;
2.408333333333334E+009;1.947056651115418E-001;3.657015040516853E-002;1.041111885569990E-003;6.983690429478884E-003;
2.408500000000000E+009;1.939827203750610E-001;3.626120463013649E-002;1.358258072286844E-003;6.829597055912018E-003;
2.408666666666667E+009;1.933320909738541E-001;3.582650050520897E-002;1.479435246437788E-003;6.626390386372805E-003;
2.408833333333334E+009;1.926271021366119E-001;3.511313721537590E-002;1.429511350579560E-003;6.351927760988474E-003;
2.409000000000000E+009;1.917539238929749E-001;3.408621996641159E-002;1.559749478474259E-003;6.238723173737526E-003;
2.409166666666667E+009;1.907054930925369E-001;3.325196355581284E-002;1.850227941758931E-003;6.153007969260216E-003;
2.409333333333334E+009;1.899139583110809E-001;3.229521214962006E-002;1.767291803844273E-003;5.942304618656635E-003;
2.409500000000000E+009;1.887582242488861E-001;3.102923184633255E-002;1.808155560865998E-003;5.943064112216234E-003;
2.409666666666667E+009;1.876204311847687E-001;2.956970222294331E-002;1.841757562942803E-003;5.748786963522434E-003;
2.409833333333334E+009;1.866920143365860E-001;2.803616598248482E-002;1.704285736195743E-003;5.679726600646973E-003;
2.410000000000000E+009;1.856823563575745E-001;2.639299631118774E-002;1.942908857017756E-003;5.629719700664282E-003;
2.410166666666667E+009;1.846023648977280E-001;2.476231008768082E-002;1.949585508555174E-003;5.405419971793890E-003;
2.410333333333334E+009;1.834378838539124E-001;2.282143011689186E-002;1.861723489128053E-003;5.730723962187767E-003;
2.410500000000000E+009;1.825547218322754E-001;2.084525860846043E-002;2.065339358523488E-003;5.584894679486752E-003;
2.410666666666667E+009;1.815259605646133E-001;1.862181350588799E-002;2.138743409886956E-003;5.523597821593285E-003;
2.410833333333334E+009;1.810576617717743E-001;1.649955473840237E-002;2.328273840248585E-003;5.436862353235483E-003;
2.411000000000000E+009;1.802389323711395E-001;1.426349766552448E-002;2.292042598128319E-003;5.392336286604404E-003;
2.411166666666667E+009;1.796897500753403E-001;1.211850810796022E-002;2.586213871836662E-003;5.338756367564201E-003;
2.411333333333334E+009;1.791851371526718E-001;9.511371143162251E-003;2.637577010318637E-003;5.157823208719492E-003;
2.411500000000000E+009;1.785124838352203E-001;7.178354077041149E-003;2.722732024267316E-003;5.265913903713226E-003;
2.411666666666667E+009;1.784248501062393E-001;4.763341043144465E-003;2.866667462512851E-003;5.094158463180065E-003;
2.411833333333334E+009;1.782014369964600E-001;2.544275717809796E-003;2.844393951818347E-003;5.037310998886824E-003;
2.412000000000000E+009;1.781947165727615E-001;-9.728466829983518E-005;2.848668489605188E-003;5.142688751220703E-003;
2.412166666666667E+009;1.783599555492401E-001;-2.390698296949267E-003;3.026928752660751E-003;4.838848952203989E-003;
2.412333333333334E+009;1.784227937459946E-001;-4.993109032511711E-003;2.962277270853519E-003;5.034741479903460E-003;
2.412500000000000E+009;1.790779978036881E-001;-7.309136912226677E-003;3.144944319501519E-003;4.803478252142668E-003;
2.412666666666667E+009;1.794514954090118E-001;-9.907572530210018E-003;3.119384637102485E-003;4.718710668385029E-003;
2.412833333333334E+009;1.802686303853989E-001;-1.234559621661902E-002;3.115306841209531E-003;4.869108088314533E-003;
2.413000000000000E+009;1.809140890836716E-001;-1.476388610899448E-002;3.325548488646746E-003;4.824678413569927E-003;
2.413166666666667E+009;1.815353631973267E-001;-1.705105602741242E-002;3.255404066294432E-003;4.826585762202740E-003;
2.413333333333334E+009;1.828494518995285E-001;-1.922991499304771E-002;3.424780210480094E-003;4.763832315802574E-003;
2.413500000000000E+009;1.836504787206650E-001;-2.164867334067822E-002;3.492739982903004E-003;4.869301803410053E-003;
2.413666666666667E+009;1.848043054342270E-001;-2.384413965046406E-002;3.803560743108392E-003;4.743074998259544E-003;
2.413833333333334E+009;1.858663707971573E-001;-2.582171931862831E-002;3.899468109011650E-003;4.870972130447626E-003;
2.414000000000000E+009;1.869900971651077E-001;-2.790282107889652E-002;4.076536279171705E-003;4.940998740494251E-003;
2.414166666666667E+009;1.883046925067902E-001;-2.959389798343182E-002;4.355942364782095E-003;4.903158638626337E-003;
2.414333333333334E+009;1.894265413284302E-001;-3.147430345416069E-002;4.429474472999573E-003;4.717585165053606E-003;
2.414500000000000E+009;1.906124502420425E-001;-3.297015279531479E-002;4.918664228171110E-003;4.575946368277073E-003;
2.414666666666667E+009;1.917890608310700E-001;-3.460485860705376E-002;5.074139684438705E-003;4.483551252633333E-003;
2.414833333333334E+009;1.928657144308090E-001;-3.579860180616379E-002;5.244048312306404E-003;4.212325438857079E-003;
2.415000000000000E+009;1.938992440700531E-001;-3.721035271883011E-002;5.386608652770519E-003;4.181130789220333E-003;
2.415166666666667E+009;1.953163444995880E-001;-3.834611549973488E-002;5.708244163542986E-003;3.921391442418098E-003;
2.415333333333334E+009;1.963595449924469E-001;-3.916931152343750E-002;5.813269875943661E-003;3.623626660555601E-003;
2.415500000000000E+009;1.975523382425308E-001;-3.990578278899193E-002;5.877055227756500E-003;3.414943581447005E-003;
2.415666666666667E+009;1.985342502593994E-001;-4.061339050531387E-002;5.818495992571116E-003;3.227366134524345E-003;
2.415833333333334E+009;1.993899345397949E-001;-4.114241153001785E-002;6.121065933257341E-003;2.990597859025002E-003;
2.416000000000000E+009;2.001497149467468E-001;-4.177959263324738E-002;6.023714784532785E-003;2.854140708222985E-003;
2.416166666666667E+009;2.009948343038559E-001;-4.221986606717110E-002;6.153342779725790E-003;2.582711167633534E-003;
2.416333333333334E+009;2.016565054655075E-001;-4.262294247746468E-002;6.198206916451454E-003;2.460325602442026E-003;
2.416500000000000E+009;2.021883279085159E-001;-4.273199290037155E-002;6.421381141990423E-003;2.203296637162566E-003;
2.416666666666667E+009;2.024610489606857E-001;-4.303560033440590E-002;6.389941088855267E-003;1.919383532367647E-003;
2.416833333333334E+009;2.025646120309830E-001;-4.308889433741570E-002;6.512426771223545E-003;1.912131789140403E-003;
2.417000000000000E+009;2.026917636394501E-001;-4.320199787616730E-002;6.483522243797779E-003;1.708669471554458E-003;
2.417166666666667E+009;2.024601101875305E-001;-4.295998811721802E-002;6.490288302302361E-003;1.541460980661213E-003;
2.417333333333334E+009;2.022967040538788E-001;-4.289446771144867E-002;6.675182376056910E-003;1.535500283353031E-003;
2.417500000000000E+009;2.020363807678223E-001;-4.290255531668663E-002;6.606117822229862E-003;1.339758280664682E-003;
2.417666666666667E+009;2.015276104211807E-001;-4.266064986586571E-002;6.708776578307152E-003;1.012905384413898E-003;
2.417833333333334E+009;2.012166529893875E-001;-4.248099029064179E-002;6.764319259673357E-003;9.047390776686370E-004;
2.418000000000000E+009;2.004774063825607E-001;-4.215877130627632E-002;6.834451574832201E-003;7.725171162746847E-004;
2.418166666666667E+009;1.996300220489502E-001;-4.205557703971863E-002;6.946715991944075E-003;6.134372670203447E-004;
2.418333333333334E+009;1.987134367227554E-001;-4.201552271842957E-002;7.053164299577475E-003;2.631997631397098E-004;
2.418500000000000E+009;1.976772844791412E-001;-4.197112470865250E-002;6.953039206564426E-003;3.805865708272904E-005;
2.418666666666667E+009;1.967991739511490E-001;-4.185540974140167E-002;7.137632463127375E-003;-2.690356923267245E-004;
2.418833333333334E+009;1.955955922603607E-001;-4.208358749747276E-002;7.065484300255776E-003;-3.892288659699261E-004;
2.419000000000000E+009;1.943152546882629E-001;-4.225207865238190E-002;7.114232517778873E-003;-6.663553649559617E-004;
2.419166666666667E+009;1.929941773414612E-001;-4.254123568534851E-002;7.234958000481129E-003;-8.048709132708609E-004;
2.419333333333334E+009;1.914843767881393E-001;-4.299324750900269E-002;7.046922110021114E-003;-1.229946152307093E-003;
2.419500000000000E+009;1.900063902139664E-001;-4.342527315020561E-002;7.119975984096527E-003;-1.477027661167085E-003;
2.419666666666667E+009;1.884096413850784E-001;-4.428078606724739E-002;7.022346369922161E-003;-1.667295931838453E-003;
2.419833333333334E+009;1.869262009859085E-001;-4.487783834338188E-002;6.969628855586052E-003;-1.903466880321503E-003;
2.420000000000000E+009;1.852195113897324E-001;-4.579398781061173E-002;6.849942263215780E-003;-2.070311456918716E-003;
2.420166666666667E+009;1.838022023439407E-001;-4.684673994779587E-002;6.763950921595097E-003;-2.277771709486842E-003;
2.420333333333334E+009;1.821533441543579E-001;-4.795013368129730E-002;6.710709072649479E-003;-2.355059375986457E-003;
2.420500000000000E+009;1.803880929946899E-001;-4.920293018221855E-002;6.551644299179316E-003;-2.677086275070906E-003;
2.420666666666667E+009;1.786695271730423E-001;-5.029833316802979E-002;6.560555659234524E-003;-2.832971978932619E-003;
2.420833333333334E+009;1.771179586648941E-001;-5.190918594598770E-002;6.482795346528292E-003;-2.942307619377971E-003;
2.421000000000000E+009;1.755950599908829E-001;-5.371538549661636E-002;6.487577222287655E-003;-3.209500340744853E-003;
2.421166666666667E+009;1.741862297058106E-001;-5.529236420989037E-002;6.518469657748938E-003;-3.307274542748928E-003;
2.421333333333334E+009;1.725674420595169E-001;-5.675389617681503E-002;6.453717593103647E-003;-3.593709086999297E-003;
2.421500000000000E+009;1.712658405303955E-001;-5.881943181157112E-002;6.336052436381578E-003;-3.866401733830571E-003;
2.421666666666667E+009;1.699471622705460E-001;-6.068113818764687E-002;6.181907374411821E-003;-4.161859862506390E-003;
2.421833333333334E+009;1.688620001077652E-001;-6.258244812488556E-002;5.969260819256306E-003;-4.469268489629030E-003;
2.422000000000000E+009;1.677799671888351E-001;-6.436345726251602E-002;5.873971153050661E-003;-4.657670389860869E-003;
2.422166666666667E+009;1.668389290571213E-001;-6.655544787645340E-002;5.743145477026701E-003;-4.938958678394556E-003;
2.422333333333334E+009;1.658020019531250E-001;-6.872204691171646E-002;5.608533509075642E-003;-5.031791981309652E-003;
2.422500000000000E+009;1.650417596101761E-001;-7.057017087936401E-002;5.430218297988176E-003;-5.467784591019154E-003;
2.422666666666667E+009;1.642689555883408E-001;-7.265383750200272E-002;5.062505137175322E-003;-5.550768692046404E-003;
2.422833333333334E+009;1.640172749757767E-001;-7.464787364006043E-002;4.819838795810938E-003;-6.031783297657967E-003;
2.423000000000000E+009;1.633819341659546E-001;-7.682484388351440E-002;4.563353024423122E-003;-6.117704324424267E-003;
2.423166666666667E+009;1.631658673286438E-001;-7.859116792678833E-002;4.183513578027487E-003;-6.307031493633986E-003;
2.423333333333334E+009;1.628357172012329E-001;-8.080953359603882E-002;3.753212746232748E-003;-6.346339825540781E-003;
2.423500000000000E+009;1.627999395132065E-001;-8.258990943431854E-002;3.557606134563685E-003;-6.356023252010346E-003;
2.423666666666667E+009;1.627774834632874E-001;-8.465262502431870E-002;3.193062730133534E-003;-6.656783167272806E-003;
2.423833333333334E+009;1.628427207469940E-001;-8.637771010398865E-002;2.827421296387911E-003;-6.696905475109816E-003;
2.424000000000000E+009;1.628523916006088E-001;-8.822528272867203E-002;2.294819802045822E-003;-6.534081883728504E-003;
2.424166666666667E+009;1.630424410104752E-001;-8.984805643558502E-002;2.111759036779404E-003;-6.515580229461193E-003;
2.424333333333334E+009;1.631743311882019E-001;-9.130930155515671E-002;1.848274725489318E-003;-6.494482047855854E-003;
2.424500000000000E+009;1.636397093534470E-001;-9.289416670799255E-002;1.559629337862134E-003;-6.472772918641567E-003;
2.424666666666667E+009;1.637631803750992E-001;-9.444668889045715E-002;1.149252988398075E-003;-6.421169731765986E-003;
2.424833333333334E+009;1.644099950790405E-001;-9.573021531105042E-002;8.172198431566358E-004;-6.357202306389809E-003;
2.425000000000000E+009;1.646841317415237E-001;-9.698770195245743E-002;5.723062786273658E-004;-6.346456240862608E-003;
2.425166666666667E+009;1.650108695030212E-001;-9.811553359031677E-002;3.673750616144389E-004;-6.042235065251589E-003;
2.425333333333334E+009;1.652959883213043E-001;-9.907986223697662E-002;2.491136838216335E-004;-5.909119732677937E-003;
2.425500000000000E+009;1.658632606267929E-001;-1.000480875372887E-001;-9.910047810990363E-005;-5.799556616693735E-003;
2.425666666666667E+009;1.661920696496964E-001;-1.006582602858543E-001;-3.000645374413580E-004;-5.549781490117312E-003;
2.425833333333334E+009;1.665679514408112E-001;-1.014998778700829E-001;-4.386113141663373E-004;-5.644090473651886E-003;
2.426000000000000E+009;1.669413149356842E-001;-1.019215732812882E-001;-7.674428634345532E-004;-5.447924137115479E-003;
2.426166666666667E+009;1.672944426536560E-001;-1.024156883358955E-001;-7.451300043612719E-004;-5.148866213858128E-003;
2.426333333333334E+009;1.674461066722870E-001;-1.030359491705895E-001;-9.116114233620465E-004;-5.086833611130714E-003;
2.426500000000000E+009;1.678153127431870E-001;-1.031045839190483E-001;-1.041722134687007E-003;-4.782326053828001E-003;
2.426666666666667E+009;1.680239886045456E-001;-1.033892333507538E-001;-1.064753509126604E-003;-4.711461253464222E-003;
2.426833333333334E+009;1.682574450969696E-001;-1.037169694900513E-001;-1.177909900434315E-003;-4.592515062540770E-003;
2.427000000000000E+009;1.682423502206802E-001;-1.039530411362648E-001;-1.269629923626781E-003;-4.429857712239027E-003;
2.427166666666667E+009;1.682983487844467E-001;-1.040357574820519E-001;-1.367687713354826E-003;-4.152695182710886E-003;
2.427333333333334E+009;1.680709421634674E-001;-1.042899936437607E-001;-1.322017167694867E-003;-4.055539146065712E-003;
2.427500000000000E+009;1.678525507450104E-001;-1.043906733393669E-001;-1.377690816298127E-003;-3.843296086415649E-003;
2.427666666666667E+009;1.674940139055252E-001;-1.044274568557739E-001;-1.442110398784280E-003;-3.791720140725374E-003;
2.427833333333334E+009;1.671819388866425E-001;-1.044684499502182E-001;-1.353238825686276E-003;-3.555262694135308E-003;
