# Version 1.00
#
freq[Hz];re:Trc1_S11;im:Trc1_S11;re:Trc2_S21;im:Trc2_S21;
2.400000000000000E+009;1.553214788436890E-001;1.112216785550118E-001;-2.743000164628029E-003;9.569657850079238E-004;
2.400166666666667E+009;1.549013406038284E-001;1.090287715196610E-001;-2.640275284647942E-003;1.169804134406149E-003;
2.400333333333334E+009;1.545255780220032E-001;1.068650633096695E-001;-2.391498303040862E-003;1.304408186115325E-003;
2.400500000000000E+009;1.543711870908737E-001;1.042748540639877E-001;-2.236851723864675E-003;1.425042748451233E-003;
2.400666666666667E+009;1.541446596384049E-001;1.016167476773262E-001;-2.112555550411344E-003;1.579534029588103E-003;
2.400833333333334E+009;1.539375036954880E-001;9.883265197277069E-002;-1.845859806053340E-003;1.538305077701807E-003;
2.401000000000000E+009;1.538919806480408E-001;9.584201872348785E-002;-1.645121024921536E-003;1.606597914360464E-003;
2.401166666666667E+009;1.536301970481873E-001;9.322328865528107E-002;-1.718887011520565E-003;1.612817170098424E-003;
2.401333333333334E+009;1.538252681493759E-001;9.010934829711914E-002;-1.678045373409987E-003;1.610226463526487E-003;
2.401500000000000E+009;1.539206951856613E-001;8.721780776977539E-002;-1.457242527976632E-003;1.636862871237099E-003;
2.401666666666667E+009;1.543604582548142E-001;8.424279838800430E-002;-1.551124965772033E-003;1.745120389387012E-003;
2.401833333333334E+009;1.546946614980698E-001;8.121132850646973E-002;-1.476773759350181E-003;1.807907945476472E-003;
2.402000000000000E+009;1.551982015371323E-001;7.836633920669556E-002;-1.287118648178875E-003;1.866584643721581E-003;
2.402166666666667E+009;1.560379266738892E-001;7.538809627294540E-002;-1.235430012457073E-003;2.049019793048501E-003;
2.402333333333334E+009;1.568889766931534E-001;7.241790741682053E-002;-1.226891181431711E-003;2.134683774784207E-003;
2.402500000000000E+009;1.577496230602264E-001;6.962095201015472E-002;-9.672656306065619E-004;2.097476040944457E-003;
2.402666666666667E+009;1.589004993438721E-001;6.697861850261688E-002;-7.906971732154489E-004;2.270995173603296E-003;
2.402833333333334E+009;1.602520495653153E-001;6.436684727668762E-002;-6.306997966021299E-004;2.308205701410770E-003;
2.403000000000000E+009;1.617037057876587E-001;6.160699948668480E-002;-3.224679676350206E-004;2.359736012294889E-003;
2.403166666666667E+009;1.633601039648056E-001;5.906250700354576E-002;-1.590651663718745E-004;2.459243405610323E-003;
2.403333333333334E+009;1.647201031446457E-001;5.668444558978081E-002;-3.073326979574631E-007;2.296919235959649E-003;
2.403500000000000E+009;1.664649099111557E-001;5.434240773320198E-002;2.879170642700046E-004;2.313508884981275E-003;
2.403666666666667E+009;1.681681573390961E-001;5.219375714659691E-002;6.205991958267987E-004;2.211550250649452E-003;
2.403833333333334E+009;1.698988974094391E-001;5.016630887985230E-002;7.294618990272284E-004;1.968053169548512E-003;
2.404000000000000E+009;1.715353876352310E-001;4.799793288111687E-002;1.109163509681821E-003;1.843410078436136E-003;
2.404166666666667E+009;1.734443455934525E-001;4.636888951063156E-002;1.125993207097054E-003;1.547595486044884E-003;
2.404333333333334E+009;1.754062771797180E-001;4.464294388890266E-002;1.143955625593662E-003;1.265193452127278E-003;
2.404500000000000E+009;1.769578158855438E-001;4.295634105801582E-002;1.029058126732707E-003;9.914101101458073E-004;
2.404666666666667E+009;1.790138334035873E-001;4.184778407216072E-002;1.164869638159871E-003;7.523659151047468E-004;
2.404833333333334E+009;1.808350980281830E-001;4.031132534146309E-002;1.212550210766494E-003;5.088595207780600E-004;
2.405000000000000E+009;1.823551356792450E-001;3.968922421336174E-002;1.042165327817202E-003;-7.133176550269127E-004;
2.405166666666667E+009;1.842812746763229E-001;3.881979361176491E-002;9.327127481810749E-004;1.102366601116955E-003;
2.405333333333334E+009;1.856452822685242E-001;3.831604868173599E-002;1.589593477547169E-003;-3.303175035398454E-004;
2.405500000000000E+009;1.873496323823929E-001;3.769334405660629E-002;1.681832363829017E-003;7.162058027461171E-004;
2.405666666666667E+009;1.889943331480026E-001;3.747583925724030E-002;-6.054880796000361E-004;9.965903591364622E-004;
2.405833333333334E+009;1.902065575122833E-001;3.708884119987488E-002;1.661212882027030E-003;-7.970247534103692E-004;
2.406000000000000E+009;1.913980692625046E-001;3.714966028928757E-002;1.249664695933461E-003;-1.944235758855939E-003;
2.406166666666667E+009;1.928341686725617E-001;3.707458078861237E-002;-4.654757794924080E-004;-1.193708856590092E-003;
2.406333333333334E+009;1.938706189393997E-001;3.704251348972321E-002;9.843654697760940E-004;-4.723457968793809E-004;
2.406500000000000E+009;1.949554383754730E-001;3.730901703238487E-002;-6.050918600521982E-004;-1.170365838333964E-003;
2.406666666666667E+009;1.959250718355179E-001;3.743605688214302E-002;-3.849480708595365E-004;-1.214005169458687E-004;
2.406833333333334E+009;1.966787129640579E-001;3.761572018265724E-002;-5.358788184821606E-004;-9.121432958636433E-005;
2.407000000000000E+009;1.971892863512039E-001;3.808429092168808E-002;-7.263193256221712E-004;4.344358603702858E-005;
2.407166666666667E+009;1.977594494819641E-001;3.819674998521805E-002;-8.352051954716444E-004;1.959518267540261E-004;
2.407333333333334E+009;1.978378444910049E-001;3.855263441801071E-002;-8.036109502427280E-004;3.335818473715335E-004;
2.407500000000000E+009;1.980377584695816E-001;3.893263265490532E-002;-9.910813532769680E-004;3.669394063763320E-004;
2.407666666666667E+009;1.981873512268066E-001;3.918836265802383E-002;-1.170167815871537E-003;5.906664300709963E-004;
2.407833333333334E+009;1.978364586830139E-001;3.931045159697533E-002;-1.143197645433247E-003;7.304050959646702E-004;
2.408000000000000E+009;1.979118287563324E-001;3.964298963546753E-002;-1.066388911567628E-003;7.584678241983056E-004;
2.408166666666667E+009;1.972449421882629E-001;3.954044356942177E-002;-1.133399782702327E-003;9.933261899277568E-004;
2.408333333333334E+009;1.969066113233566E-001;3.949221968650818E-002;-1.005596946924925E-003;1.133522135205567E-003;
2.408500000000000E+009;1.963057816028595E-001;3.951442986726761E-002;-9.666139958426356E-004;1.141523942351341E-003;
2.408666666666667E+009;1.956571489572525E-001;3.926987946033478E-002;-9.534774580970407E-004;1.392194884829223E-003;
2.408833333333334E+009;1.949579119682312E-001;3.890451043844223E-002;-8.167091873474419E-004;1.392365200445056E-003;
2.409000000000000E+009;1.938607841730118E-001;3.832853212952614E-002;-8.321586064994335E-004;1.402972615323961E-003;
2.409166666666667E+009;1.928662210702896E-001;3.774702176451683E-002;-7.549852598458529E-004;1.680406858213246E-003;
2.409333333333334E+009;1.919473856687546E-001;3.709915652871132E-002;-9.069474181160331E-004;1.546355779282749E-003;
2.409500000000000E+009;1.905280053615570E-001;3.622110560536385E-002;-8.168078493326902E-004;1.697012921795249E-003;
2.409666666666667E+009;1.895235180854797E-001;3.493928909301758E-002;-6.306947907432914E-004;1.778725883923471E-003;
2.409833333333334E+009;1.883937865495682E-001;3.365034610033035E-002;-6.402609287761152E-004;2.019749255850911E-003;
2.410000000000000E+009;1.871709078550339E-001;3.239947929978371E-002;-6.576609448529780E-004;1.820503035560250E-003;
2.410166666666667E+009;1.860343515872955E-001;3.078505210578442E-002;-5.832323222421110E-004;2.158520044758916E-003;
2.410333333333334E+009;1.847473084926605E-001;2.911941520869732E-002;-5.445553106255829E-004;2.286445815116167E-003;
2.410500000000000E+009;1.835790276527405E-001;2.721842564642429E-002;-4.221626440994442E-004;2.455780748277903E-003;
2.410666666666667E+009;1.826713085174561E-001;2.510676532983780E-002;-2.584673347882927E-004;2.368743298575282E-003;
2.410833333333334E+009;1.816619038581848E-001;2.305289916694164E-002;-2.226844808319584E-004;2.376975724473596E-003;
2.411000000000000E+009;1.805329918861389E-001;2.094840630888939E-002;-9.438512643100694E-005;2.628882881253958E-003;
2.411166666666667E+009;1.798294931650162E-001;1.853479072451592E-002;1.677320688031614E-004;2.670941874384880E-003;
2.411333333333334E+009;1.789038628339768E-001;1.625675894320011E-002;5.475603757076897E-005;2.595686586573720E-003;
2.411500000000000E+009;1.781979054212570E-001;1.364679634571075E-002;3.108878736384213E-004;2.919168677181006E-003;
2.411666666666667E+009;1.777096986770630E-001;1.137956324964762E-002;4.715117684099823E-004;2.712540561333299E-003;
2.411833333333334E+009;1.773741096258164E-001;8.851150982081890E-003;7.506631081923842E-004;2.952271373942494E-003;
2.412000000000000E+009;1.772345453500748E-001;6.181492004543543E-003;8.960210252553225E-004;2.845608163625002E-003;
2.412166666666667E+009;1.771429926156998E-001;3.778446465730667E-003;1.113721285946667E-003;3.004473401233554E-003;
2.412333333333334E+009;1.772107183933258E-001;1.078119152225554E-003;1.197468256577849E-003;3.083869116380811E-003;
2.412500000000000E+009;1.775346100330353E-001;-1.632454805076122E-003;1.477043610066176E-003;3.013324923813343E-003;
2.412666666666667E+009;1.779247075319290E-001;-4.225983284413815E-003;1.718136132694781E-003;3.027907805517316E-003;
2.412833333333334E+009;1.784027218818665E-001;-6.879691034555435E-003;1.889656530693173E-003;3.024077974259853E-003;
2.413000000000000E+009;1.792216747999191E-001;-9.664290584623814E-003;2.214371226727963E-003;2.949249697849155E-003;
2.413166666666667E+009;1.797862648963928E-001;-1.209686882793903E-002;2.411013701930642E-003;2.887187292799354E-003;
2.413333333333334E+009;1.809055209159851E-001;-1.469079591333866E-002;2.813557162880898E-003;2.574907150119543E-003;
2.413500000000000E+009;1.819521635770798E-001;-1.703886687755585E-002;3.084312193095684E-003;2.621874446049333E-003;
2.413666666666667E+009;1.828920543193817E-001;-1.955871842801571E-002;3.314817557111383E-003;2.375120064243674E-003;
2.413833333333334E+009;1.841534227132797E-001;-2.178814262151718E-002;3.452594392001629E-003;2.162351273000240E-003;
2.414000000000000E+009;1.852540671825409E-001;-2.417256683111191E-002;3.645293880254030E-003;1.806764979846776E-003;
2.414166666666667E+009;1.866118609905243E-001;-2.607519552111626E-002;3.727211151272059E-003;1.493770629167557E-003;
2.414333333333334E+009;1.879571080207825E-001;-2.831793949007988E-002;3.889240790158510E-003;1.195312943309546E-003;
2.414500000000000E+009;1.893411129713059E-001;-2.993307448923588E-002;3.860553493723273E-003;8.433570619672537E-004;
2.414666666666667E+009;1.905723810195923E-001;-3.174236416816711E-002;3.917336929589510E-003;6.828174227848649E-004;
2.414833333333334E+009;1.921489387750626E-001;-3.328833729028702E-002;3.959563095122576E-003;2.393122267676517E-004;
2.415000000000000E+009;1.933273524045944E-001;-3.472011536359787E-002;3.944217693060637E-003;5.884094207431190E-005;
2.415166666666667E+009;1.948343217372894E-001;-3.606559336185455E-002;3.815100528299809E-003;-1.915508182719350E-004;
2.415333333333334E+009;1.962434649467468E-001;-3.708504885435104E-002;3.607678227126598E-003;-3.856517432723194E-004;
2.415500000000000E+009;1.975826770067215E-001;-3.797376900911331E-002;3.554433817043901E-003;-4.822258779313415E-004;
2.415666666666667E+009;1.991326063871384E-001;-3.896612301468849E-002;3.554236842319369E-003;-7.449109107255936E-004;
2.415833333333334E+009;2.001169621944428E-001;-3.970893099904060E-002;3.380701877176762E-003;-8.578008855693042E-004;
2.416000000000000E+009;2.011217623949051E-001;-4.034652188420296E-002;3.321888623759151E-003;-9.829046903178096E-004;
2.416166666666667E+009;2.022733837366104E-001;-4.101344943046570E-002;3.236403921619058E-003;-1.216676202602685E-003;
2.416333333333334E+009;2.032655030488968E-001;-4.123992472887039E-002;3.137732157483697E-003;-1.216381555423141E-003;
2.416500000000000E+009;2.040645629167557E-001;-4.160933569073677E-002;3.095592604950070E-003;-1.396472915075719E-003;
2.416666666666667E+009;2.045912295579910E-001;-4.196053743362427E-002;2.736316761001945E-003;-1.691102050244808E-003;
2.416833333333334E+009;2.050679177045822E-001;-4.186856374144554E-002;2.899408806115389E-003;-1.691158395260572E-003;
2.417000000000000E+009;2.054615765810013E-001;-4.194420948624611E-002;2.639909274876118E-003;-1.744257868267596E-003;
2.417166666666667E+009;2.055640071630478E-001;-4.185933247208595E-002;2.549775643274188E-003;-1.850047148764134E-003;
2.417333333333334E+009;2.055931836366653E-001;-4.151048138737679E-002;2.530565718188882E-003;-1.767911715433002E-003;
2.417500000000000E+009;2.055657804012299E-001;-4.142189770936966E-002;2.168984385207295E-003;-1.999423839151859E-003;
2.417666666666667E+009;2.052723318338394E-001;-4.104687646031380E-002;2.248806413263083E-003;-1.970131648704410E-003;
2.417833333333334E+009;2.050604224205017E-001;-4.080672934651375E-002;2.168748294934630E-003;-2.039527287706733E-003;
2.418000000000000E+009;2.045411765575409E-001;-4.036796838045120E-002;2.047361573204398E-003;-2.061677165329456E-003;
2.418166666666667E+009;2.039713412523270E-001;-4.008626192808151E-002;2.020256826654077E-003;-2.027156064286828E-003;
2.418333333333334E+009;2.030841410160065E-001;-3.978529945015907E-002;1.837606076151133E-003;-2.330206101760268E-003;
2.418500000000000E+009;2.023355513811112E-001;-3.952104225754738E-002;1.802357845008373E-003;-2.385477768257260E-003;
2.418666666666667E+009;2.014773190021515E-001;-3.926458954811096E-002;1.810709363780916E-003;-2.539776032790542E-003;
2.418833333333334E+009;2.003080695867539E-001;-3.926802799105644E-002;1.670178608037531E-003;-2.495151245966554E-003;
2.419000000000000E+009;1.990826129913330E-001;-3.925073519349098E-002;1.303025754168630E-003;-2.621330553665757E-003;
2.419166666666667E+009;1.978601068258286E-001;-3.930400684475899E-002;1.148391747847199E-003;-2.590383635833859E-003;
2.419333333333334E+009;1.963844001293182E-001;-3.959049656987190E-002;9.613799047656357E-004;-2.554811537265778E-003;
2.419500000000000E+009;1.948627084493637E-001;-3.983919695019722E-002;7.941941730678082E-004;-2.767532132565975E-003;
2.419666666666667E+009;1.932258009910584E-001;-4.037841036915779E-002;7.142603863030672E-004;-2.578749787062407E-003;
2.419833333333334E+009;1.915370225906372E-001;-4.088956117630005E-002;4.403782077133656E-004;-2.625962952151895E-003;
2.420000000000000E+009;1.898849755525589E-001;-4.177865758538246E-002;2.781530201900750E-004;-2.611249452456832E-003;
2.420166666666667E+009;1.880746483802795E-001;-4.255972430109978E-002;7.900037599029020E-005;-2.376009710133076E-003;
2.420333333333334E+009;1.863830387592316E-001;-4.363500699400902E-002;-5.122911534272134E-005;-2.389887580648065E-003;
2.420500000000000E+009;1.844877302646637E-001;-4.480378702282906E-002;-1.716272381599993E-004;-2.132907509803772E-003;
2.420666666666667E+009;1.824964433908463E-001;-4.580409452319145E-002;-2.727876126300544E-004;-2.092089969664812E-003;
2.420833333333334E+009;1.807901710271835E-001;-4.730451852083206E-002;-4.178048111498356E-004;-1.894644577987492E-003;
2.421000000000000E+009;1.790174841880798E-001;-4.888236150145531E-002;-1.756516139721498E-004;-1.722271903418005E-003;
2.421166666666667E+009;1.773063838481903E-001;-5.045133456587791E-002;-1.221653219545260E-004;-1.635902095586062E-003;
2.421333333333334E+009;1.755061447620392E-001;-5.215603858232498E-002;-2.622860483825207E-004;-1.364089082926512E-003;
2.421500000000000E+009;1.739477068185806E-001;-5.408984050154686E-002;-1.876589376479387E-004;-1.280130003578961E-003;
2.421666666666667E+009;1.723485887050629E-001;-5.589788407087326E-002;-1.274722453672439E-004;-1.302595017477870E-003;
2.421833333333334E+009;1.710056364536285E-001;-5.784167349338532E-002;1.832440830185078E-005;-1.198776299133897E-003;
2.422000000000000E+009;1.696770787239075E-001;-5.980192497372627E-002;1.026424506562762E-004;-1.023760414682329E-003;
2.422166666666667E+009;1.686213910579681E-001;-6.208791956305504E-002;2.437469374854118E-004;-1.109785865992308E-003;
2.422333333333334E+009;1.671958267688751E-001;-6.435413658618927E-002;1.482491061324254E-004;-1.198656274937093E-003;
2.422500000000000E+009;1.664607524871826E-001;-6.637969613075256E-002;3.701073874253780E-004;-1.173724536783993E-003;
2.422666666666667E+009;1.655979305505753E-001;-6.842111796140671E-002;4.438416217453778E-004;-1.006743172183633E-003;
2.422833333333334E+009;1.649666577577591E-001;-7.087437063455582E-002;3.050282248295844E-004;-1.303724246099591E-003;
2.423000000000000E+009;1.642002761363983E-001;-7.293946295976639E-002;4.172649350948632E-004;-1.166416332125664E-003;
2.423166666666667E+009;1.637558341026306E-001;-7.535733282566071E-002;6.296621286310256E-004;-1.242555794306099E-003;
2.423333333333334E+009;1.634329706430435E-001;-7.745879143476486E-002;4.713655507657677E-004;-1.254304661415517E-003;
2.423500000000000E+009;1.632189899682999E-001;-7.949160784482956E-002;5.386343691498041E-004;-1.277593895792961E-003;
2.423666666666667E+009;1.631786972284317E-001;-8.162514120340347E-002;5.072125932201743E-004;-1.544365193694830E-003;
2.423833333333334E+009;1.630574911832809E-001;-8.353812247514725E-002;4.545853007584810E-004;-1.556733273901045E-003;
2.424000000000000E+009;1.631640195846558E-001;-8.581369370222092E-002;5.373631720431149E-004;-1.664342358708382E-003;
2.424166666666667E+009;1.633556634187698E-001;-8.754204213619232E-002;4.409460234455764E-004;-1.649990212172270E-003;
2.424333333333334E+009;1.634989827871323E-001;-8.943659812211990E-002;5.018371739424765E-004;-1.641408773139119E-003;
2.424500000000000E+009;1.639610528945923E-001;-9.136890619993210E-002;4.314499674364924E-004;-1.711759832687676E-003;
2.424666666666667E+009;1.643305718898773E-001;-9.296956658363342E-002;4.254768136888742E-004;-1.874745008535683E-003;
2.424833333333334E+009;1.649911403656006E-001;-9.438914805650711E-002;3.329269820824266E-004;-1.765431487001479E-003;
2.425000000000000E+009;1.653861701488495E-001;-9.581945091485977E-002;2.695945731829852E-004;-2.017119899392128E-003;
2.425166666666667E+009;1.659180968999863E-001;-9.712430089712143E-002;4.139105731155723E-004;-2.017531543970108E-003;
2.425333333333334E+009;1.663842499256134E-001;-9.831000864505768E-002;2.389388537267223E-004;-2.120126504451037E-003;
2.425500000000000E+009;1.670873761177063E-001;-9.950937330722809E-002;1.235441304743290E-004;-2.151592401787639E-003;
2.425666666666667E+009;1.676429063081741E-001;-1.004055663943291E-001;1.778166188159958E-004;-2.320710802450776E-003;
2.425833333333334E+009;1.682868450880051E-001;-1.012468412518501E-001;7.260969141498208E-006;-2.410196466371417E-003;
2.426000000000000E+009;1.687378287315369E-001;-1.017770990729332E-001;-1.070327343768440E-004;-2.319553401321173E-003;
2.426166666666667E+009;1.694702357053757E-001;-1.023865416646004E-001;5.942828920524335E-006;-2.456498332321644E-003;
2.426333333333334E+009;1.697914749383926E-001;-1.029004678130150E-001;-1.152468976215459E-004;-2.611008239910007E-003;
2.426500000000000E+009;1.704980731010437E-001;-1.033625528216362E-001;-1.600999676156789E-004;-2.547812648117542E-003;
2.426666666666667E+009;1.709675192832947E-001;-1.037117838859558E-001;-3.462484455667436E-004;-2.692852169275284E-003;
2.426833333333334E+009;1.714667677879334E-001;-1.040478646755219E-001;-5.630636005662382E-004;-2.797946799546480E-003;
2.427000000000000E+009;1.716648936271668E-001;-1.041347533464432E-001;-5.235164426267147E-004;-2.801072550937533E-003;
2.427166666666667E+009;1.718976795673370E-001;-1.041853278875351E-001;-6.441962323151529E-004;-2.837121952325106E-003;
2.427333333333334E+009;1.720352172851563E-001;-1.044149920344353E-001;-8.722596685402095E-004;-2.922134241089225E-003;
2.427500000000000E+009;1.720888316631317E-001;-1.045700982213020E-001;-1.208686269819737E-003;-3.023655619472265E-003;
2.427666666666667E+009;1.720529198646545E-001;-1.044308543205261E-001;-1.347827492281795E-003;-3.072237828746438E-003;
2.427833333333334E+009;1.718628704547882E-001;-1.044545248150826E-001;-1.498114666901529E-003;-2.980317920446396E-003;
