# Version 1.00
#
freq[Hz];re:Trc1_S11;im:Trc1_S11;re:Trc2_S21;im:Trc2_S21;
2.400000000000000E+009;1.553458124399185E-001;1.113076061010361E-001;-2.806280041113496E-003;1.092833932489157E-003;
2.400166666666667E+009;1.547748893499374E-001;1.091829091310501E-001;-2.511804457753897E-003;1.394186983816326E-003;
2.400333333333334E+009;1.546334028244019E-001;1.068480536341667E-001;-2.440169453620911E-003;1.449917908757925E-003;
2.400500000000000E+009;1.544867008924484E-001;1.042731553316116E-001;-2.126159379258752E-003;1.531468704342842E-003;
2.400666666666667E+009;1.541693210601807E-001;1.017357483506203E-001;-1.968645257875323E-003;1.575845992192626E-003;
2.400833333333334E+009;1.538582593202591E-001;9.890458732843399E-002;-1.760096754878759E-003;1.670575467869639E-003;
2.401000000000000E+009;1.540082991123200E-001;9.606235474348068E-002;-1.805818057619035E-003;1.584902172908187E-003;
2.401166666666667E+009;1.537373214960098E-001;9.331025183200836E-002;-1.595028676092625E-003;1.633924664929509E-003;
2.401333333333334E+009;1.538309752941132E-001;9.030330181121826E-002;-1.410446013323963E-003;1.602967036888003E-003;
2.401500000000000E+009;1.541684120893478E-001;8.724062889814377E-002;-1.629703445360065E-003;1.823411206714809E-003;
2.401666666666667E+009;1.541222184896469E-001;8.434522897005081E-002;-1.352968276478350E-003;1.911138999275863E-003;
2.401833333333334E+009;1.547397822141647E-001;8.133737742900848E-002;-1.393317477777600E-003;1.854040194302797E-003;
2.402000000000000E+009;1.552218645811081E-001;7.851283252239227E-002;-1.394145307131112E-003;1.839488861151040E-003;
2.402166666666667E+009;1.558267921209335E-001;7.545289397239685E-002;-1.107828109525144E-003;1.954264007508755E-003;
2.402333333333334E+009;1.566948592662811E-001;7.250825315713882E-002;-1.115918625146151E-003;2.091655042022467E-003;
2.402500000000000E+009;1.578379124403000E-001;6.988517940044403E-002;-1.104693976230919E-003;2.096327953040600E-003;
2.402666666666667E+009;1.589069962501526E-001;6.713033467531204E-002;-7.415024447254837E-004;2.192289801314473E-003;
2.402833333333334E+009;1.602190136909485E-001;6.439787149429321E-002;-7.649434264749289E-004;2.410022309049964E-003;
2.403000000000000E+009;1.615194529294968E-001;6.179902702569962E-002;-4.671906353905797E-004;2.480031456798315E-003;
2.403166666666667E+009;1.632584184408188E-001;5.952994897961617E-002;-1.491911389166489E-004;2.409285167232156E-003;
2.403333333333334E+009;1.645971983671188E-001;5.681575089693070E-002;-9.051160304807127E-006;2.366854576393962E-003;
2.403500000000000E+009;1.664253026247025E-001;5.468890815973282E-002;3.067183133680373E-004;2.334422664716840E-003;
2.403666666666667E+009;1.684499830007553E-001;5.231934785842896E-002;4.526564152911305E-004;2.243034308776259E-003;
2.403833333333334E+009;1.699611395597458E-001;5.033085122704506E-002;7.229764596559107E-004;1.995824743062258E-003;
2.404000000000000E+009;1.715321391820908E-001;4.828856885433197E-002;7.611592882312834E-004;1.811975031159818E-003;
2.404166666666667E+009;1.735444366931915E-001;4.659136757254601E-002;9.774559875950217E-004;1.643761526793242E-003;
2.404333333333334E+009;1.754172891378403E-001;4.469020292162895E-002;1.299579860642552E-003;1.378940767608583E-003;
2.404500000000000E+009;1.770897954702377E-001;4.322807490825653E-002;1.065935939550400E-003;1.064601470716298E-003;
2.404666666666667E+009;1.790129244327545E-001;4.194887354969978E-002;1.217510900460184E-003;9.426762699149549E-004;
2.404833333333334E+009;1.808260381221771E-001;4.066532850265503E-002;1.156164449639618E-003;7.228603935800493E-004;
2.405000000000000E+009;1.823487132787705E-001;3.977335989475250E-002;1.032706815749407E-003;4.277589614503086E-004;
2.405166666666667E+009;1.842451095581055E-001;3.895272687077522E-002;8.201230666600168E-004;1.581395044922829E-004;
2.405333333333334E+009;1.858871877193451E-001;3.839055076241493E-002;8.205127669498324E-004;2.304499794263393E-004;
2.405500000000000E+009;1.874733120203018E-001;3.778350725769997E-002;7.418902241624892E-004;3.584008709367481E-006;
2.405666666666667E+009;1.889619976282120E-001;3.748740628361702E-002;3.680320223793387E-004;-7.149854468480044E-007;
2.405833333333334E+009;1.904454529285431E-001;3.728270158171654E-002;3.102833288721740E-004;2.027810296567623E-005;
2.406000000000000E+009;1.918148547410965E-001;3.705942258238792E-002;-8.793337474344298E-005;-1.239100092789158E-004;
2.406166666666667E+009;1.931915879249573E-001;3.708072379231453E-002;4.388409797684290E-005;-6.818905239924789E-005;
2.406333333333334E+009;1.942121386528015E-001;3.713008016347885E-002;-1.825330255087465E-004;-1.548115542391315E-004;
2.406500000000000E+009;1.951033174991608E-001;3.731308504939079E-002;-3.319129755254835E-004;-1.118671934818849E-004;
2.406666666666667E+009;1.958979517221451E-001;3.753706067800522E-002;-4.458030161913484E-004;-1.297057133342605E-005;
2.406833333333334E+009;1.968326419591904E-001;3.766114637255669E-002;-5.534637020900846E-004;8.401136437896639E-005;
2.407000000000000E+009;1.971827894449234E-001;3.804927691817284E-002;-7.412935956381261E-004;1.553547626826912E-004;
2.407166666666667E+009;1.978997886180878E-001;3.812660649418831E-002;-8.322209469042718E-004;2.397662028670311E-004;
2.407333333333334E+009;1.979393959045410E-001;3.856485337018967E-002;-1.029994920827448E-003;3.532501286827028E-004;
2.407500000000000E+009;1.982306689023972E-001;3.892941027879715E-002;-9.605097584426403E-004;3.405686293262988E-004;
2.407666666666667E+009;1.982810944318771E-001;3.915910795331001E-002;-1.036491943523288E-003;4.301978333387524E-004;
2.407833333333334E+009;1.979460716247559E-001;3.931367769837380E-002;-1.083515817299485E-003;6.247633136808872E-004;
2.408000000000000E+009;1.980264335870743E-001;3.951838240027428E-002;-9.778909152373672E-004;9.105284116230905E-004;
2.408166666666667E+009;1.974402070045471E-001;3.961354121565819E-002;-1.008575898595154E-003;9.595924057066441E-004;
2.408333333333334E+009;1.970532983541489E-001;3.943905234336853E-002;-1.006364356726408E-003;9.757083607837558E-004;
2.408500000000000E+009;1.963037401437759E-001;3.946846723556519E-002;-1.098931184969842E-003;1.234495779499412E-003;
2.408666666666667E+009;1.956937313079834E-001;3.925617411732674E-002;-8.652616525068879E-004;1.214421703480184E-003;
2.408833333333334E+009;1.950634419918060E-001;3.888258710503578E-002;-9.309292654506862E-004;1.489418093115091E-003;
2.409000000000000E+009;1.940103173255920E-001;3.826061636209488E-002;-8.608590578660369E-004;1.410281867720187E-003;
2.409166666666667E+009;1.930271685123444E-001;3.770540282130241E-002;-8.044563583098352E-004;1.491743838414550E-003;
2.409333333333334E+009;1.920145004987717E-001;3.710597008466721E-002;-7.734227110631764E-004;1.714104786515236E-003;
2.409500000000000E+009;1.908612102270126E-001;3.606170043349266E-002;-7.419934845529497E-004;1.816428150050342E-003;
2.409666666666667E+009;1.896853595972061E-001;3.502647206187248E-002;-8.336569881066680E-004;1.693004509434104E-003;
2.409833333333334E+009;1.883127242326737E-001;3.368474543094635E-002;-7.714612293057144E-004;2.004483947530389E-003;
2.410000000000000E+009;1.874369680881500E-001;3.222596272826195E-002;-7.356978603638709E-004;2.124269725754857E-003;
2.410166666666667E+009;1.860990971326828E-001;3.074673749506474E-002;-5.105129675939679E-004;2.149280393496156E-003;
2.410333333333334E+009;1.849523186683655E-001;2.916173636913300E-002;-5.101698916405439E-004;2.293274272233248E-003;
2.410500000000000E+009;1.837325096130371E-001;2.723206393420696E-002;-3.394195518922061E-004;2.403087681159377E-003;
2.410666666666667E+009;1.825520396232605E-001;2.519459649920464E-002;-2.019169623963535E-004;2.448088955134153E-003;
2.410833333333334E+009;1.816788762807846E-001;2.298523671925068E-002;-1.570359745528549E-004;2.542337868362665E-003;
2.411000000000000E+009;1.807501763105393E-001;2.098500914871693E-002;-5.374898319132626E-005;2.572347410023212E-003;
2.411166666666667E+009;1.799063086509705E-001;1.870518922805786E-002;1.208731628139503E-004;2.633715746924281E-003;
2.411333333333334E+009;1.789848357439041E-001;1.609990559518337E-002;2.012886106967926E-004;2.716879593208432E-003;
2.411500000000000E+009;1.785605996847153E-001;1.358959916979075E-002;4.098925564903766E-004;2.793526975437999E-003;
2.411666666666667E+009;1.779556721448898E-001;1.123348716646433E-002;5.312093999236822E-004;2.917573787271977E-003;
2.411833333333334E+009;1.776437908411026E-001;8.718129247426987E-003;6.222171359695494E-004;2.980749355629087E-003;
2.412000000000000E+009;1.774730235338211E-001;6.041656713932753E-003;8.561435388401151E-004;3.072489751502872E-003;
2.412166666666667E+009;1.773754209280014E-001;3.706214250996709E-003;1.143435481935740E-003;3.113748040050268E-003;
2.412333333333334E+009;1.773451864719391E-001;7.677112007513642E-004;1.235292758792639E-003;2.966435393318534E-003;
2.412500000000000E+009;1.776977032423019E-001;-1.641638227738440E-003;1.543734688311815E-003;3.127352567389607E-003;
2.412666666666667E+009;1.782017797231674E-001;-4.556611645966768E-003;1.740934792906046E-003;3.147369949147105E-003;
2.412833333333334E+009;1.786276698112488E-001;-7.012644782662392E-003;2.045558532699943E-003;3.068306716158986E-003;
2.413000000000000E+009;1.792781651020050E-001;-9.663064032793045E-003;2.301139524206519E-003;3.042778931558132E-003;
2.413166666666667E+009;1.800374090671539E-001;-1.206154283136129E-002;2.511280123144388E-003;2.864791313186288E-003;
2.413333333333334E+009;1.810113191604614E-001;-1.471049431711435E-002;2.898477250710130E-003;2.682855352759361E-003;
2.413500000000000E+009;1.819069385528565E-001;-1.714760065078735E-002;3.032726934179664E-003;2.598023973405361E-003;
2.413666666666667E+009;1.830320209264755E-001;-1.955586113035679E-002;3.287338884547353E-003;2.368220826610923E-003;
2.413833333333334E+009;1.843702346086502E-001;-2.202989161014557E-002;3.448882605880499E-003;2.059845952317119E-003;
2.414000000000000E+009;1.853327006101608E-001;-2.413046360015869E-002;3.780147060751915E-003;1.760703744366765E-003;
2.414166666666667E+009;1.868146657943726E-001;-2.624940499663353E-002;3.867932828143239E-003;1.629924867302179E-003;
2.414333333333334E+009;1.880258321762085E-001;-2.841090783476830E-002;4.011464305222035E-003;1.201466424390674E-003;
2.414500000000000E+009;1.893802136182785E-001;-3.005653247237206E-002;3.806792432442308E-003;1.053998246788979E-003;
2.414666666666667E+009;1.907629668712616E-001;-3.185708448290825E-002;3.965249750763178E-003;6.438809214159846E-004;
2.414833333333334E+009;1.922110319137573E-001;-3.338489308953285E-002;3.831779351457954E-003;3.487613284960389E-004;
2.415000000000000E+009;1.933901160955429E-001;-3.487139567732811E-002;3.977182786911726E-003;2.116676041623578E-004;
2.415166666666667E+009;1.949681490659714E-001;-3.619325906038284E-002;3.654359141364694E-003;-1.624722935957834E-004;
2.415333333333334E+009;1.963776201009750E-001;-3.724554553627968E-002;3.730323864147067E-003;-4.509891150519252E-004;
2.415500000000000E+009;1.976863443851471E-001;-3.817529231309891E-002;3.594399662688375E-003;-4.156173381488770E-004;
2.415666666666667E+009;1.991175562143326E-001;-3.910798206925392E-002;3.504780353978276E-003;-8.094965596683323E-004;
2.415833333333334E+009;2.001061886548996E-001;-3.983973711729050E-002;3.425242612138391E-003;-8.664771448820829E-004;
2.416000000000000E+009;2.012784034013748E-001;-4.045693203806877E-002;3.290675813332200E-003;-1.110324868932366E-003;
2.416166666666667E+009;2.023312151432037E-001;-4.109942167997360E-002;3.191986586898565E-003;-1.236491953022778E-003;
2.416333333333334E+009;2.032999545335770E-001;-4.141308367252350E-002;2.991452347487211E-003;-1.321422867476940E-003;
2.416500000000000E+009;2.040946334600449E-001;-4.169977828860283E-002;3.006142796948552E-003;-1.416733954101801E-003;
2.416666666666667E+009;2.046266943216324E-001;-4.204548150300980E-002;2.874953439459205E-003;-1.549929729662836E-003;
2.416833333333334E+009;2.051266431808472E-001;-4.208102077245712E-002;2.885997528210282E-003;-1.699331798590720E-003;
2.417000000000000E+009;2.054904252290726E-001;-4.210765659809113E-002;2.652170602232218E-003;-1.796670374460518E-003;
2.417166666666667E+009;2.055725157260895E-001;-4.199327155947685E-002;2.588368020951748E-003;-1.763178152032197E-003;
2.417333333333334E+009;2.055405229330063E-001;-4.170805960893631E-002;2.224858151748776E-003;-1.784331281669438E-003;
2.417500000000000E+009;2.055809497833252E-001;-4.158634319901466E-002;2.431073924526572E-003;-2.075842581689358E-003;
2.417666666666667E+009;2.051983624696732E-001;-4.131733626127243E-002;2.277131658047438E-003;-2.052108757197857E-003;
2.417833333333334E+009;2.050883173942566E-001;-4.081863164901733E-002;2.144303172826767E-003;-1.977449283003807E-003;
2.418000000000000E+009;2.046217471361160E-001;-4.044833779335022E-002;1.938422559760511E-003;-2.036976628005505E-003;
2.418166666666667E+009;2.038813233375549E-001;-4.028110578656197E-002;1.819497672840953E-003;-2.274035010486841E-003;
2.418333333333334E+009;2.031610012054443E-001;-3.991468995809555E-002;1.966329989954829E-003;-2.310409443452954E-003;
2.418500000000000E+009;2.022516280412674E-001;-3.978721424937248E-002;1.724504865705967E-003;-2.418995834887028E-003;
2.418666666666667E+009;2.013678699731827E-001;-3.934783861041069E-002;1.756869838573039E-003;-2.388028893619776E-003;
2.418833333333334E+009;2.001633048057556E-001;-3.944623470306397E-002;1.399222528561950E-003;-2.524760784581304E-003;
2.419000000000000E+009;1.990487575531006E-001;-3.943571820855141E-002;1.419688225723803E-003;-2.673593582585454E-003;
2.419166666666667E+009;1.978762298822403E-001;-3.949328884482384E-002;1.158073777332902E-003;-2.644025953486562E-003;
2.419333333333334E+009;1.962956935167313E-001;-3.976000100374222E-002;1.083036186173558E-003;-2.642937470227480E-003;
2.419500000000000E+009;1.948428750038147E-001;-4.000724479556084E-002;7.392257102765143E-004;-2.636868739500642E-003;
2.419666666666667E+009;1.932492107152939E-001;-4.062612354755402E-002;5.524061853066087E-004;-2.621495397761464E-003;
2.419833333333334E+009;1.914317309856415E-001;-4.117325320839882E-002;4.292123194318265E-004;-2.501386450603604E-003;
2.420000000000000E+009;1.897179186344147E-001;-4.185570031404495E-002;1.560384844196960E-004;-2.423905534669757E-003;
2.420166666666667E+009;1.879796534776688E-001;-4.280310124158859E-002;-3.255414412706159E-005;-2.514112275093794E-003;
2.420333333333334E+009;1.862655431032181E-001;-4.370036721229553E-002;-9.899924771161750E-005;-2.271162578836083E-003;
2.420500000000000E+009;1.842672079801559E-001;-4.485581070184708E-002;-2.042164269369096E-004;-2.172383712604642E-003;
2.420666666666667E+009;1.825060844421387E-001;-4.594101011753082E-002;-3.448994539212436E-004;-2.102737547829747E-003;
2.420833333333334E+009;1.806215345859528E-001;-4.744217917323113E-002;-3.684381954371929E-004;-1.772581599652767E-003;
2.421000000000000E+009;1.789824962615967E-001;-4.899679496884346E-002;-2.000745007535443E-004;-1.619261805899441E-003;
2.421166666666667E+009;1.773400604724884E-001;-5.082398280501366E-002;-1.987185096368194E-004;-1.421771477907896E-003;
2.421333333333334E+009;1.752558350563049E-001;-5.233594402670860E-002;-2.527545439079404E-004;-1.359027810394764E-003;
2.421500000000000E+009;1.738183200359345E-001;-5.430985614657402E-002;-1.615692308405414E-004;-1.350936014205217E-003;
2.421666666666667E+009;1.724355518817902E-001;-5.606738477945328E-002;-1.109670338337310E-004;-1.320212963037193E-003;
2.421833333333334E+009;1.709731072187424E-001;-5.806151777505875E-002;-5.257424709270708E-005;-1.345683122053742E-003;
2.422000000000000E+009;1.695794016122818E-001;-5.999949574470520E-002;1.245628664037213E-004;-1.096309279091656E-003;
2.422166666666667E+009;1.684730499982834E-001;-6.227590888738632E-002;-5.246403088676743E-005;-1.153992256149650E-003;
2.422333333333334E+009;1.672707200050354E-001;-6.443648785352707E-002;5.847502688993700E-005;-1.147159375250340E-003;
2.422500000000000E+009;1.662425249814987E-001;-6.656025350093842E-002;1.650793274166063E-004;-9.932395769283176E-004;
2.422666666666667E+009;1.653136610984802E-001;-6.869171559810638E-002;3.489459631964564E-004;-1.148509443737567E-003;
2.422833333333334E+009;1.647007167339325E-001;-7.084798067808151E-002;3.353825595695525E-004;-1.001554424874485E-003;
2.423000000000000E+009;1.639455258846283E-001;-7.317841798067093E-002;4.441509954631329E-004;-1.223916187882423E-003;
2.423166666666667E+009;1.636400073766708E-001;-7.541677355766296E-002;5.183241446502507E-004;-1.201469451189041E-003;
2.423333333333334E+009;1.633187383413315E-001;-7.773637026548386E-002;4.475433961488307E-004;-1.307585276663303E-003;
2.423500000000000E+009;1.628920584917069E-001;-7.969313859939575E-002;5.060828989371657E-004;-1.435753889381886E-003;
2.423666666666667E+009;1.629138141870499E-001;-8.180983364582062E-002;6.007869378663600E-004;-1.271174638532102E-003;
2.423833333333334E+009;1.627185344696045E-001;-8.375518769025803E-002;5.931620253250003E-004;-1.455203862860799E-003;
2.424000000000000E+009;1.630256175994873E-001;-8.580369502305985E-002;4.617017402779311E-004;-1.527950167655945E-003;
2.424166666666667E+009;1.630733758211136E-001;-8.756102621555328E-002;5.266175139695406E-004;-1.495591015554965E-003;
2.424333333333334E+009;1.634179204702377E-001;-8.941453695297241E-002;5.781214567832649E-004;-1.701328554190695E-003;
2.424500000000000E+009;1.638693660497665E-001;-9.134246408939362E-002;4.110072623007000E-004;-1.780344406142831E-003;
2.424666666666667E+009;1.640728265047073E-001;-9.302709251642227E-002;4.498305497691035E-004;-1.836575567722321E-003;
2.424833333333334E+009;1.646623313426971E-001;-9.446126222610474E-002;4.592834739014506E-004;-1.881784875877202E-003;
2.425000000000000E+009;1.652556955814362E-001;-9.590820968151093E-002;3.974622522946447E-004;-1.992479432374239E-003;
2.425166666666667E+009;1.657860279083252E-001;-9.711596369743347E-002;2.545480674598366E-004;-2.033392200246453E-003;
2.425333333333334E+009;1.662464439868927E-001;-9.838715195655823E-002;2.767434634733945E-004;-2.101848600432277E-003;
2.425500000000000E+009;1.667889803647995E-001;-9.939234703779221E-002;1.495646429248154E-004;-2.262012101709843E-003;
2.425666666666667E+009;1.675617098808289E-001;-1.003231927752495E-001;9.216832404490560E-005;-2.233647508546710E-003;
2.425833333333334E+009;1.680533587932587E-001;-1.013264581561089E-001;4.630837793229148E-005;-2.381967846304178E-003;
2.426000000000000E+009;1.685217022895813E-001;-1.018372923135757E-001;-6.952429430384655E-006;-2.325574634596705E-003;
2.426166666666667E+009;1.692184656858444E-001;-1.024572029709816E-001;-1.453028526157141E-004;-2.533836057409644E-003;
2.426333333333334E+009;1.696569174528122E-001;-1.029396206140518E-001;-1.967339630937204E-004;-2.626958070322871E-003;
2.426500000000000E+009;1.702043265104294E-001;-1.032447889447212E-001;-2.047236339421943E-004;-2.620488405227661E-003;
2.426666666666667E+009;1.707569807767868E-001;-1.037263795733452E-001;-3.190842107869685E-004;-2.750367159023881E-003;
2.426833333333334E+009;1.712193340063095E-001;-1.040366142988205E-001;-4.955304320901632E-004;-2.801517024636269E-003;
2.427000000000000E+009;1.715360134840012E-001;-1.041907668113709E-001;-7.257888792082667E-004;-2.777803456410766E-003;
2.427166666666667E+009;1.718447655439377E-001;-1.041139662265778E-001;-9.396041277796030E-004;-2.984962193295360E-003;
2.427333333333334E+009;1.718967407941818E-001;-1.043641939759255E-001;-1.074390602298081E-003;-2.845167648047209E-003;
2.427500000000000E+009;1.719098091125488E-001;-1.044501066207886E-001;-1.292621251195669E-003;-2.938569989055395E-003;
2.427666666666667E+009;1.718221604824066E-001;-1.043759733438492E-001;-1.380088157020509E-003;-3.122136928141117E-003;
2.427833333333334E+009;1.717066615819931E-001;-1.043580695986748E-001;-1.636602217331529E-003;-3.042760305106640E-003;
