# Version 1.00
#
freq[Hz];re:Trc1_S11;im:Trc1_S11;re:Trc2_S21;im:Trc2_S21;
2.400000000000000E+009;1.551512181758881E-001;1.110986396670342E-001;-2.682608552277088E-003;1.046482007950544E-003;
2.400166666666667E+009;1.546620130538940E-001;1.088394150137901E-001;-2.415839815512300E-003;1.206672401167452E-003;
2.400333333333334E+009;1.544249057769775E-001;1.067604050040245E-001;-2.413769718259573E-003;1.294986228458583E-003;
2.400500000000000E+009;1.540600061416626E-001;1.041363999247551E-001;-2.104111947119236E-003;1.418367377482355E-003;
2.400666666666667E+009;1.540399342775345E-001;1.016489565372467E-001;-2.006002236157656E-003;1.572408829815686E-003;
2.400833333333334E+009;1.535659581422806E-001;9.874521195888519E-002;-1.883622724562883E-003;1.578507130034268E-003;
2.401000000000000E+009;1.536299884319305E-001;9.574712067842484E-002;-1.846421859227121E-003;1.466652727685869E-003;
2.401166666666667E+009;1.534222811460495E-001;9.302302449941635E-002;-1.803872757591307E-003;1.732480712234974E-003;
2.401333333333334E+009;1.536878645420075E-001;9.013843536376953E-002;-1.718347426503897E-003;1.764126936905086E-003;
2.401500000000000E+009;1.538498103618622E-001;8.719955384731293E-002;-1.496057142503560E-003;1.695906161330640E-003;
2.401666666666667E+009;1.540273427963257E-001;8.404723554849625E-002;-1.687685842625797E-003;1.821848214603961E-003;
2.401833333333334E+009;1.545789986848831E-001;8.120389282703400E-002;-1.468381960876286E-003;1.912904554046691E-003;
2.402000000000000E+009;1.550458818674088E-001;7.803285121917725E-002;-1.278514973819256E-003;1.872676075436175E-003;
2.402166666666667E+009;1.556991338729858E-001;7.537118345499039E-002;-1.312171458266676E-003;2.198016736656427E-003;
2.402333333333334E+009;1.567990183830261E-001;7.232768088579178E-002;-1.101480098441243E-003;2.101989230141044E-003;
2.402500000000000E+009;1.576309055089951E-001;6.964204460382462E-002;-1.200911006890237E-003;2.069810638204217E-003;
2.402666666666667E+009;1.586447358131409E-001;6.683982163667679E-002;-9.496878483332694E-004;2.245094394311309E-003;
2.402833333333334E+009;1.600501686334610E-001;6.415751576423645E-002;-8.566036121919751E-004;2.215993124991655E-003;
2.403000000000000E+009;1.615331321954727E-001;6.168341264128685E-002;-5.157834966666997E-004;2.380522666499019E-003;
2.403166666666667E+009;1.630353033542633E-001;5.928529798984528E-002;-3.432521189097315E-004;2.463317243382335E-003;
2.403333333333334E+009;1.643756031990051E-001;5.660937353968620E-002;5.067051461082883E-005;2.281097462400794E-003;
2.403500000000000E+009;1.662371605634689E-001;5.443894118070602E-002;3.281657409388572E-004;2.352012554183602E-003;
2.403666666666667E+009;1.681514382362366E-001;5.202966928482056E-002;6.196300382725895E-004;2.065268578007817E-003;
2.403833333333334E+009;1.698812693357468E-001;5.006365850567818E-002;7.827851804904640E-004;2.074915217235684E-003;
2.404000000000000E+009;1.713034212589264E-001;4.806906729936600E-002;9.052365203388035E-004;1.732249511405826E-003;
2.404166666666667E+009;1.733954399824143E-001;4.634245857596397E-002;9.286704007536173E-004;1.534034032374620E-003;
2.404333333333334E+009;1.750603318214417E-001;4.481173306703568E-002;1.131653436459601E-003;1.292835571803153E-003;
2.404500000000000E+009;1.769024729728699E-001;4.321037977933884E-002;1.005841651931405E-003;1.030887127853930E-003;
2.404666666666667E+009;1.787782907485962E-001;4.184228926897049E-002;1.082799630239606E-003;9.869965724647045E-004;
2.404833333333334E+009;1.806178092956543E-001;4.058576002717018E-002;9.817227255553007E-004;7.346282945945859E-004;
2.405000000000000E+009;1.822697073221207E-001;3.989599645137787E-002;9.950320236384869E-004;3.539048193488270E-004;
2.405166666666667E+009;1.840372681617737E-001;3.903979435563088E-002;8.415630436502397E-004;3.046819765586406E-004;
2.405333333333334E+009;1.856124997138977E-001;3.837785124778748E-002;7.982022361829877E-004;1.289920328417793E-004;
2.405500000000000E+009;1.873486638069153E-001;3.782809898257256E-002;5.911468178965151E-004;3.840128920273855E-005;
2.405666666666667E+009;1.887966096401215E-001;3.750687465071678E-002;3.530598769430071E-004;6.633022167079616E-006;
2.405833333333334E+009;1.903790384531021E-001;3.731271624565125E-002;2.684448263607919E-004;-5.741191489505582E-005;
2.406000000000000E+009;1.915848404169083E-001;3.710765019059181E-002;1.459463237551972E-004;-2.009429736062884E-004;
2.406166666666667E+009;1.926895976066589E-001;3.701621666550636E-002;-7.087320409482345E-005;-9.151508129434660E-005;
2.406333333333334E+009;1.939719468355179E-001;3.715333342552185E-002;-2.325656678294763E-004;-2.274980361107737E-004;
2.406500000000000E+009;1.950561553239822E-001;3.728254884481430E-002;-4.270245844963938E-004;-8.021624125831295E-006;
2.406666666666667E+009;1.957683116197586E-001;3.758357837796211E-002;-4.586396098602563E-004;3.840176577796228E-005;
2.406833333333334E+009;1.965540051460266E-001;3.774581477046013E-002;-6.290160235948861E-004;-8.174205140676349E-005;
2.407000000000000E+009;1.972435116767883E-001;3.818210959434509E-002;-8.096673409454525E-004;5.481850166688673E-005;
2.407166666666667E+009;1.976885050535202E-001;3.815156593918800E-002;-7.688444457016885E-004;1.805578795028850E-004;
2.407333333333334E+009;1.978141665458679E-001;3.870966657996178E-002;-9.258000645786524E-004;3.677659842651337E-004;
2.407500000000000E+009;1.979317069053650E-001;3.919082507491112E-002;-1.103469287045300E-003;5.147973424755037E-004;
2.407666666666667E+009;1.981712728738785E-001;3.916566446423531E-002;-1.046086428686976E-003;6.747579318471253E-004;
2.407833333333334E+009;1.977709233760834E-001;3.943558782339096E-002;-1.100773341022432E-003;7.012712885625660E-004;
2.408000000000000E+009;1.977340281009674E-001;3.961761295795441E-002;-9.874565294012427E-004;8.823394891805947E-004;
2.408166666666667E+009;1.972822844982147E-001;3.963530808687210E-002;-1.025713630951941E-003;9.985675569623709E-004;
2.408333333333334E+009;1.969235390424728E-001;3.946515545248985E-002;-1.012125401757658E-003;1.185191562399268E-003;
2.408500000000000E+009;1.961358189582825E-001;3.957312181591988E-002;-9.890475776046515E-004;1.262047677300870E-003;
2.408666666666667E+009;1.955827921628952E-001;3.916655853390694E-002;-9.980817558243871E-004;1.327417558059096E-003;
2.408833333333334E+009;1.949046254158020E-001;3.901695832610130E-002;-9.332204936072230E-004;1.391008496284485E-003;
2.409000000000000E+009;1.939049810171127E-001;3.831012547016144E-002;-8.808609563857317E-004;1.580759533680975E-003;
2.409166666666667E+009;1.928680539131165E-001;3.768521547317505E-002;-8.823031093925238E-004;1.538969576358795E-003;
2.409333333333334E+009;1.917994767427445E-001;3.702319413423538E-002;-6.785863079130650E-004;1.652294071391225E-003;
2.409500000000000E+009;1.906179338693619E-001;3.607033565640450E-002;-8.018906810320914E-004;1.778704579919577E-003;
2.409666666666667E+009;1.893638968467712E-001;3.493896126747131E-002;-8.260578615590930E-004;1.796978758648038E-003;
2.409833333333334E+009;1.883370280265808E-001;3.369208052754402E-002;-6.715230410918593E-004;1.821320038288832E-003;
2.410000000000000E+009;1.873572319746018E-001;3.236623853445053E-002;-6.417230470106006E-004;1.920564332976937E-003;
2.410166666666667E+009;1.859152168035507E-001;3.066623769700527E-002;-5.322496290318668E-004;2.233622130006552E-003;
2.410333333333334E+009;1.846226155757904E-001;2.874167077243328E-002;-5.206161877140403E-004;2.259128727018833E-003;
2.410500000000000E+009;1.833671629428864E-001;2.734756283462048E-002;-2.680298930499703E-004;2.441136399284005E-003;
2.410666666666667E+009;1.822166889905930E-001;2.492780610918999E-002;-3.016956325154752E-004;2.485641511157155E-003;
2.410833333333334E+009;1.813779622316361E-001;2.291969396173954E-002;-2.362803934374824E-004;2.555659972131252E-003;
2.411000000000000E+009;1.805579215288162E-001;2.084188163280487E-002;-1.926446129800752E-004;2.634804928675294E-003;
2.411166666666667E+009;1.796142905950546E-001;1.872457563877106E-002;3.028890569112264E-005;2.652614843100309E-003;
2.411333333333334E+009;1.787544339895248E-001;1.621520705521107E-002;1.444593071937561E-004;2.702303929254413E-003;
2.411500000000000E+009;1.782338023185730E-001;1.369901560246944E-002;4.698698758147657E-004;2.574304118752480E-003;
2.411666666666667E+009;1.778121441602707E-001;1.131112780421972E-002;4.812628903891891E-004;2.762952819466591E-003;
2.411833333333334E+009;1.773121356964111E-001;8.760071359574795E-003;5.993139930069447E-004;2.973204944282770E-003;
2.412000000000000E+009;1.771943867206574E-001;6.137067452073097E-003;8.835357730276883E-004;3.008220344781876E-003;
2.412166666666667E+009;1.770987063646317E-001;3.675906453281641E-003;1.076458720490336E-003;3.079448128119111E-003;
2.412333333333334E+009;1.771028339862824E-001;8.743343641981483E-004;1.364710507914424E-003;3.072878345847130E-003;
2.412500000000000E+009;1.774798333644867E-001;-1.666381256654859E-003;1.458803424611688E-003;3.001854522153735E-003;
2.412666666666667E+009;1.777528673410416E-001;-4.295147955417633E-003;1.771955750882626E-003;3.085758071392775E-003;
2.412833333333334E+009;1.783777773380280E-001;-6.981979589909315E-003;2.089492976665497E-003;2.919339342042804E-003;
2.413000000000000E+009;1.791257709264755E-001;-9.407809935510159E-003;2.162207616493106E-003;2.901777392253280E-003;
2.413166666666667E+009;1.798397004604340E-001;-1.198830083012581E-002;2.571810968220234E-003;2.923672320321202E-003;
2.413333333333334E+009;1.808815151453018E-001;-1.452007424086332E-002;2.872160635888577E-003;2.727614948526025E-003;
2.413500000000000E+009;1.816664189100266E-001;-1.706112548708916E-002;3.056316170841456E-003;2.540659392252564E-003;
2.413666666666667E+009;1.826966851949692E-001;-1.954928785562515E-002;3.405929543077946E-003;2.377584576606751E-003;
2.413833333333334E+009;1.840647310018539E-001;-2.186159975826740E-002;3.531921189278364E-003;2.088105538859963E-003;
2.414000000000000E+009;1.852888762950897E-001;-2.392206527292728E-002;3.659404581412673E-003;1.817875308915973E-003;
2.414166666666667E+009;1.865616142749786E-001;-2.601463533937931E-002;3.651831299066544E-003;1.554178772494197E-003;
2.414333333333334E+009;1.878301352262497E-001;-2.815504185855389E-002;3.890703432261944E-003;1.212590839713812E-003;
2.414500000000000E+009;1.892539709806442E-001;-2.995479665696621E-002;3.860250115394592E-003;9.522959007881582E-004;
2.414666666666667E+009;1.906446516513825E-001;-3.166922554373741E-002;3.865836653858423E-003;6.263752584345639E-004;
2.414833333333334E+009;1.918471753597260E-001;-3.324300423264504E-002;3.877111012116075E-003;3.214393218513578E-004;
2.415000000000000E+009;1.932507753372192E-001;-3.467637673020363E-002;3.916933201253414E-003;1.899774651974440E-004;
2.415166666666667E+009;1.947706043720245E-001;-3.584064543247223E-002;3.860919503495097E-003;-9.720010712044314E-005;
2.415333333333334E+009;1.961367428302765E-001;-3.702026605606079E-002;3.770432900637388E-003;-2.587458002381027E-004;
2.415500000000000E+009;1.975450664758682E-001;-3.794291242957115E-002;3.606705926358700E-003;-4.407456144690514E-004;
2.415666666666667E+009;1.989147812128067E-001;-3.873580321669579E-002;3.599471645429730E-003;-7.193177589215338E-004;
2.415833333333334E+009;2.000803202390671E-001;-3.953354805707932E-002;3.484683111310005E-003;-1.005869591608644E-003;
2.416000000000000E+009;2.011350989341736E-001;-4.029631987214088E-002;3.348154714331031E-003;-1.061699236743152E-003;
2.416166666666667E+009;2.022149115800858E-001;-4.076615720987320E-002;3.263313788920641E-003;-1.302372431382537E-003;
2.416333333333334E+009;2.031267732381821E-001;-4.112862423062325E-002;3.139832289889455E-003;-1.330100465565920E-003;
2.416500000000000E+009;2.038822174072266E-001;-4.145485535264015E-002;3.068920457735658E-003;-1.418879488483071E-003;
2.416666666666667E+009;2.045346796512604E-001;-4.175791889429092E-002;2.977396128699184E-003;-1.574139110744000E-003;
2.416833333333334E+009;2.049820125102997E-001;-4.178457707166672E-002;2.633428666740656E-003;-1.679504755884409E-003;
2.417000000000000E+009;2.054512500762940E-001;-4.178653284907341E-002;2.595689147710800E-003;-1.640383852645755E-003;
2.417166666666667E+009;2.053131014108658E-001;-4.175285249948502E-002;2.507468918338418E-003;-1.954114763066173E-003;
2.417333333333334E+009;2.054366320371628E-001;-4.138793796300888E-002;2.285094698891044E-003;-1.956999069079757E-003;
2.417500000000000E+009;2.054535001516342E-001;-4.129751026630402E-002;2.296367892995477E-003;-2.058387966826558E-003;
2.417666666666667E+009;2.051600068807602E-001;-4.090849310159683E-002;2.213784959167242E-003;-2.005539601668716E-003;
2.417833333333334E+009;2.049811035394669E-001;-4.063294082880020E-002;2.080077771097422E-003;-2.149882027879357E-003;
2.418000000000000E+009;2.043871581554413E-001;-4.020199924707413E-002;2.141341567039490E-003;-2.172404667362571E-003;
2.418166666666667E+009;2.039265781641007E-001;-3.993982821702957E-002;1.953787868842483E-003;-2.234396757557988E-003;
2.418333333333334E+009;2.031462639570236E-001;-3.953561931848526E-002;1.898075337521732E-003;-2.261890098452568E-003;
2.418500000000000E+009;2.021942287683487E-001;-3.946322575211525E-002;1.844084123149514E-003;-2.344245556741953E-003;
2.418666666666667E+009;2.013614773750305E-001;-3.901474922895432E-002;1.701279077678919E-003;-2.518285764381290E-003;
2.418833333333334E+009;2.002287358045578E-001;-3.910680860280991E-002;1.382905291393399E-003;-2.511689905077219E-003;
2.419000000000000E+009;1.989334076642990E-001;-3.905845060944557E-002;1.214861054904759E-003;-2.651673508808017E-003;
2.419166666666667E+009;1.977443397045136E-001;-3.928003460168839E-002;1.336587010882795E-003;-2.661696635186672E-003;
2.419333333333334E+009;1.964253187179565E-001;-3.941604867577553E-002;1.073662890121341E-003;-2.739249961450696E-003;
2.419500000000000E+009;1.948392242193222E-001;-3.965514898300171E-002;8.009501034393907E-004;-2.881713677197695E-003;
2.419666666666667E+009;1.931596845388413E-001;-4.020006954669952E-002;5.827606655657291E-004;-2.661411417648196E-003;
2.419833333333334E+009;1.915066540241242E-001;-4.088475182652473E-002;5.612079985439777E-004;-2.757021691650152E-003;
2.420000000000000E+009;1.898206323385239E-001;-4.152497276663780E-002;2.035900834016502E-004;-2.579791005700827E-003;
2.420166666666667E+009;1.880495995283127E-001;-4.225880652666092E-002;6.962598854443058E-005;-2.514658961445093E-003;
2.420333333333334E+009;1.863275617361069E-001;-4.329080879688263E-002;-1.217664830619469E-004;-2.354894764721394E-003;
2.420500000000000E+009;1.844536066055298E-001;-4.465297609567642E-002;-1.555219350848347E-004;-2.265165327116847E-003;
2.420666666666667E+009;1.826340407133102E-001;-4.563478007912636E-002;-2.797810011543334E-004;-2.052509458735585E-003;
2.420833333333334E+009;1.807833164930344E-001;-4.701747372746468E-002;-3.407253243494779E-004;-1.936746994033456E-003;
2.421000000000000E+009;1.790442615747452E-001;-4.864932969212532E-002;-3.266647108830512E-004;-1.764102838933468E-003;
2.421166666666667E+009;1.774339973926544E-001;-5.024514719843864E-002;-2.308186813024804E-004;-1.632438972592354E-003;
2.421333333333334E+009;1.757080554962158E-001;-5.173484236001968E-002;-1.832039270084351E-004;-1.538873417302966E-003;
2.421500000000000E+009;1.739804893732071E-001;-5.391267687082291E-002;-2.167030324926600E-004;-1.370062353089452E-003;
2.421666666666667E+009;1.723800450563431E-001;-5.555388331413269E-002;-1.661923743085936E-004;-1.320795388892293E-003;
2.421833333333334E+009;1.713139861822128E-001;-5.759053304791451E-002;-1.471284631406888E-004;-1.378193031996489E-003;
2.422000000000000E+009;1.698166877031326E-001;-5.951220169663429E-002;1.099531218642369E-004;-1.080372603610158E-003;
2.422166666666667E+009;1.686518341302872E-001;-6.186262890696526E-002;2.213128609582782E-004;-1.054364256560803E-003;
2.422333333333334E+009;1.673335433006287E-001;-6.403534114360809E-002;1.931248116306961E-004;-1.190357143059373E-003;
2.422500000000000E+009;1.663906574249268E-001;-6.597697734832764E-002;2.379001089138910E-004;-1.072803745046258E-003;
2.422666666666667E+009;1.656792461872101E-001;-6.835634261369705E-002;2.274383150506765E-004;-1.116624567657709E-003;
2.422833333333334E+009;1.650643497705460E-001;-7.052241265773773E-002;2.998816780745983E-004;-1.016768510453403E-003;
2.423000000000000E+009;1.643769592046738E-001;-7.285992801189423E-002;4.203705175314099E-004;-1.144821639172733E-003;
2.423166666666667E+009;1.637424081563950E-001;-7.494682073593140E-002;6.066014757379890E-004;-1.288209808990359E-003;
2.423333333333334E+009;1.635359525680542E-001;-7.738579064607620E-002;4.484456148929894E-004;-1.282256329432130E-003;
2.423500000000000E+009;1.632732301950455E-001;-7.929537445306778E-002;4.508587298914790E-004;-1.444039051420987E-003;
2.423666666666667E+009;1.634654700756073E-001;-8.152924478054047E-002;4.626630980055779E-004;-1.439781510271132E-003;
2.423833333333334E+009;1.631133556365967E-001;-8.353821933269501E-002;3.979218599852175E-004;-1.385238603688777E-003;
2.424000000000000E+009;1.632223874330521E-001;-8.549435436725617E-002;4.235096857883036E-004;-1.593870925717056E-003;
2.424166666666667E+009;1.633868813514710E-001;-8.739511668682098E-002;3.689311852212995E-004;-1.690710079856217E-003;
2.424333333333334E+009;1.637792736291885E-001;-8.909890055656433E-002;4.385139327496290E-004;-1.706874812953174E-003;
2.424500000000000E+009;1.641324758529663E-001;-9.115604311227799E-002;6.589592667296529E-004;-1.691894838586450E-003;
2.424666666666667E+009;1.647440642118454E-001;-9.262483566999435E-002;3.588111721910536E-004;-1.738390768878162E-003;
2.424833333333334E+009;1.650428473949432E-001;-9.422651678323746E-002;2.081130660371855E-004;-1.991304568946362E-003;
2.425000000000000E+009;1.656520068645477E-001;-9.559322893619537E-002;2.566795155871660E-004;-1.846475293859839E-003;
2.425166666666667E+009;1.661007255315781E-001;-9.697412699460983E-002;3.890742955263704E-004;-2.094026654958725E-003;
2.425333333333334E+009;1.666052341461182E-001;-9.815253317356110E-002;4.005354712717235E-004;-2.169870072975755E-003;
2.425500000000000E+009;1.673276275396347E-001;-9.924622625112534E-002;1.929678692249581E-004;-2.198187401518226E-003;
2.425666666666667E+009;1.679304242134094E-001;-1.002005487680435E-001;1.337697613053024E-004;-2.188286511227489E-003;
2.425833333333334E+009;1.684352010488510E-001;-1.012271940708160E-001;1.680329114606138E-005;-2.361173974350095E-003;
2.426000000000000E+009;1.691115945577622E-001;-1.017839461565018E-001;1.144729467341676E-004;-2.389765810221434E-003;
2.426166666666667E+009;1.696496158838272E-001;-1.023107022047043E-001;-2.826842865033541E-005;-2.428139094263315E-003;
2.426333333333334E+009;1.699860990047455E-001;-1.028977632522583E-001;-2.015127829508856E-004;-2.563399728387594E-003;
2.426500000000000E+009;1.707238107919693E-001;-1.031319350004196E-001;-1.482985971961170E-004;-2.526353113353252E-003;
2.426666666666667E+009;1.711074560880661E-001;-1.035885289311409E-001;-9.643140947446227E-005;-2.729527652263641E-003;
2.426833333333334E+009;1.717323511838913E-001;-1.039727106690407E-001;-4.735088441520929E-004;-2.912462223321199E-003;
2.427000000000000E+009;1.719416677951813E-001;-1.040442734956741E-001;-6.548273959197104E-004;-2.863461384549737E-003;
2.427166666666667E+009;1.722225397825241E-001;-1.042160615324974E-001;-7.922342629171908E-004;-2.864724490791559E-003;
2.427333333333334E+009;1.724761724472046E-001;-1.043728590011597E-001;-8.482537232339382E-004;-2.965916180983186E-003;
2.427500000000000E+009;1.723383218050003E-001;-1.044901758432388E-001;-1.232438022270799E-003;-2.893663011491299E-003;
2.427666666666667E+009;1.723017841577530E-001;-1.044522225856781E-001;-1.436384976841509E-003;-3.015102120116353E-003;
2.427833333333334E+009;1.720079779624939E-001;-1.044360101222992E-001;-1.477191224694252E-003;-2.956072567030788E-003;
