# Version 1.00
#
freq[Hz];re:Trc1_S11;im:Trc1_S11;re:Trc2_S21;im:Trc2_S21;
2.400000000000000E+009;1.576252877712250E-001;1.117544323205948E-001;6.567717995494604E-003;2.973219845443964E-003;
2.400166666666667E+009;1.569688618183136E-001;1.096204444766045E-001;6.858822423964739E-003;2.447281032800674E-003;
2.400333333333334E+009;1.568408906459808E-001;1.074518710374832E-001;7.066852878779173E-003;2.215895801782608E-003;
2.400500000000000E+009;1.562867015600205E-001;1.049363836646080E-001;7.095455192029476E-003;1.753461896441877E-003;
2.400666666666667E+009;1.560227274894714E-001;1.025157123804092E-001;6.985524203628302E-003;1.423599082045257E-003;
2.400833333333334E+009;1.556621938943863E-001;9.958738833665848E-002;7.082469295710325E-003;9.929327061399818E-004;
2.401000000000000E+009;1.554172188043594E-001;9.686518460512161E-002;6.890733260661364E-003;6.759138777852058E-004;
2.401166666666667E+009;1.551882624626160E-001;9.411906450986862E-002;6.804114207625389E-003;2.333479205844924E-004;
2.401333333333334E+009;1.552659273147583E-001;9.111467003822327E-002;6.713894661515951E-003;-5.072712156106718E-005;
2.401500000000000E+009;1.552796065807343E-001;8.788357675075531E-002;6.455785594880581E-003;-2.108003536704928E-004;
2.401666666666667E+009;1.553812175989151E-001;8.516639471054077E-002;6.301132030785084E-003;-5.286464584060013E-004;
2.401833333333334E+009;1.556250005960465E-001;8.213769644498825E-002;5.967054981738329E-003;-7.308768108487129E-004;
2.402000000000000E+009;1.561355292797089E-001;7.913351804018021E-002;5.904117599129677E-003;-1.045073731802404E-003;
2.402166666666667E+009;1.565436869859695E-001;7.626887410879135E-002;5.762139800935984E-003;-1.164494780823588E-003;
2.402333333333334E+009;1.572523564100266E-001;7.315554469823837E-002;5.514807999134064E-003;-1.452099997550249E-003;
2.402500000000000E+009;1.582112908363342E-001;7.028087228536606E-002;5.209563300013542E-003;-1.367573626339436E-003;
2.402666666666667E+009;1.589839160442352E-001;6.774330884218216E-002;5.129837431013584E-003;-1.429464668035507E-003;
2.402833333333334E+009;1.603001207113266E-001;6.481872498989105E-002;4.930245224386454E-003;-1.505812397226691E-003;
2.403000000000000E+009;1.615156531333923E-001;6.186546012759209E-002;5.017988849431276E-003;-1.557465991936624E-003;
2.403166666666667E+009;1.631067991256714E-001;5.956183001399040E-002;4.777744412422180E-003;-1.511208363808692E-003;
2.403333333333334E+009;1.644564718008041E-001;5.690789222717285E-002;4.514717031270266E-003;-1.522561418823898E-003;
2.403500000000000E+009;1.667875945568085E-001;5.448023974895477E-002;3.911943640559912E-003;-2.077524550259113E-003;
2.403666666666667E+009;1.682604551315308E-001;5.246575549244881E-002;4.575049970299006E-003;-2.067455789074302E-003;
2.403833333333334E+009;1.695464253425598E-001;5.014729499816895E-002;4.382440820336342E-003;-1.721424981951714E-003;
2.404000000000000E+009;1.708717495203018E-001;4.787917062640190E-002;4.378972575068474E-003;-1.608022721484304E-003;
2.404166666666667E+009;1.727036833763123E-001;4.563733935356140E-002;4.273124970495701E-003;-1.203232211992145E-003;
2.404333333333334E+009;1.751025319099426E-001;4.418377950787544E-002;4.047507885843515E-003;-1.807962544262409E-003;
2.404500000000000E+009;1.764993071556091E-001;4.225673153996468E-002;4.047194961458445E-003;-1.850224449299276E-003;
2.404666666666667E+009;1.782395392656326E-001;4.107635840773583E-002;4.385086707770824E-003;-1.911351806484163E-003;
2.404833333333334E+009;1.802099794149399E-001;3.966038674116135E-002;4.397172946482897E-003;-1.918960711918771E-003;
2.405000000000000E+009;1.818244904279709E-001;3.871331736445427E-002;4.330294206738472E-003;-2.155528869479895E-003;
2.405166666666667E+009;1.834471970796585E-001;3.784873709082604E-002;4.558866843581200E-003;-2.240228932350874E-003;
2.405333333333334E+009;1.852773129940033E-001;3.700492531061173E-002;4.377455450594425E-003;-2.166917314752936E-003;
2.405500000000000E+009;1.868952959775925E-001;3.638526797294617E-002;4.257598426192999E-003;-2.532509388402104E-003;
2.405666666666667E+009;1.884249895811081E-001;3.600334003567696E-002;4.032731056213379E-003;-2.719443058595061E-003;
2.405833333333334E+009;1.900181919336319E-001;3.556987270712853E-002;3.965165000408888E-003;-2.848132047802210E-003;
2.406000000000000E+009;1.913549751043320E-001;3.532644361257553E-002;3.866767277941108E-003;-2.911023795604706E-003;
2.406166666666667E+009;1.927088797092438E-001;3.526606783270836E-002;3.577234223484993E-003;-2.915847115218639E-003;
2.406333333333334E+009;1.941573619842529E-001;3.521675243973732E-002;3.683936316519976E-003;-2.896246965974569E-003;
2.406500000000000E+009;1.951148957014084E-001;3.529693931341171E-002;3.710816381499171E-003;-2.999199088662863E-003;
2.406666666666667E+009;1.961124390363693E-001;3.551496192812920E-002;3.406307892873883E-003;-3.058804431930184E-003;
2.406833333333334E+009;1.970255225896835E-001;3.561965003609657E-002;3.385563148185611E-003;-3.213976509869099E-003;
2.407000000000000E+009;1.977941542863846E-001;3.598050028085709E-002;3.560891607776284E-003;-3.263967344537377E-003;
2.407166666666667E+009;1.984460353851318E-001;3.619358316063881E-002;3.545050742104650E-003;-3.069665981456637E-003;
2.407333333333334E+009;1.985925436019898E-001;3.650855273008347E-002;3.477704944089055E-003;-3.069943748414516E-003;
2.407500000000000E+009;1.988941729068756E-001;3.686996176838875E-002;3.559509059414268E-003;-3.154832404106855E-003;
2.407666666666667E+009;1.992354989051819E-001;3.714690357446671E-002;3.620296483859420E-003;-3.401272697374225E-003;
2.407833333333334E+009;1.990112066268921E-001;3.739495947957039E-002;3.726947121322155E-003;-3.592472523450851E-003;
2.408000000000000E+009;1.991890668869019E-001;3.756625950336456E-002;3.691874211654067E-003;-3.743829205632210E-003;
2.408166666666667E+009;1.988006234169006E-001;3.759386017918587E-002;3.528368659317493E-003;-3.823852865025401E-003;
2.408333333333334E+009;1.984297633171082E-001;3.715126961469650E-002;3.403664566576481E-003;-3.814282827079296E-003;
2.408500000000000E+009;1.980601847171783E-001;3.722094371914864E-002;3.273843089118600E-003;-4.264467861503363E-003;
2.408666666666667E+009;1.973080337047577E-001;3.746678307652473E-002;3.443171503022313E-003;-4.505577962845564E-003;
2.408833333333334E+009;1.969014257192612E-001;3.739406913518906E-002;3.592815482988954E-003;-4.563331604003906E-003;
2.409000000000000E+009;1.957086920738220E-001;3.654160350561142E-002;3.285890445113182E-003;-4.853746853768826E-003;
2.409166666666667E+009;1.947794705629349E-001;3.615668043494225E-002;3.263749182224274E-003;-5.090384278446436E-003;
2.409333333333334E+009;1.939069479703903E-001;3.559064120054245E-002;3.061208408325911E-003;-5.104458890855312E-003;
2.409500000000000E+009;1.925479620695114E-001;3.460317105054855E-002;2.881195396184921E-003;-5.364505574107170E-003;
2.409666666666667E+009;1.914837062358856E-001;3.363189101219177E-002;2.710648579522967E-003;-5.749612580984831E-003;
2.409833333333334E+009;1.902214288711548E-001;3.251733630895615E-002;2.525692339986563E-003;-5.803832318633795E-003;
2.410000000000000E+009;1.891432702541351E-001;3.119539283216000E-002;2.374448347836733E-003;-5.981881171464920E-003;
2.410166666666667E+009;1.878588050603867E-001;2.966164611279964E-002;2.001612447202206E-003;-6.136248353868723E-003;
2.410333333333334E+009;1.867378503084183E-001;2.819792181253433E-002;1.735177705995739E-003;-6.229571066796780E-003;
2.410500000000000E+009;1.853953748941422E-001;2.647407166659832E-002;1.511396956630051E-003;-6.441062316298485E-003;
2.410666666666667E+009;1.841437369585037E-001;2.442387305200100E-002;1.356543041765690E-003;-6.440727505832911E-003;
2.410833333333334E+009;1.832254976034164E-001;2.239200845360756E-002;9.720803936943412E-004;-6.629853043705225E-003;
2.411000000000000E+009;1.822740435600281E-001;2.050877176225185E-002;7.114360341802239E-004;-6.536453962326050E-003;
2.411166666666667E+009;1.811933517456055E-001;1.831197366118431E-002;4.725991166196764E-004;-6.631879135966301E-003;
2.411333333333334E+009;1.803063303232193E-001;1.592334173619747E-002;4.172626722720452E-005;-6.649931892752647E-003;
2.411500000000000E+009;1.797133088111877E-001;1.343203149735928E-002;-1.983994443435222E-004;-6.598066538572311E-003;
2.411666666666667E+009;1.791277378797531E-001;1.117991469800472E-002;-3.429523785598576E-004;-6.715266034007072E-003;
2.411833333333334E+009;1.783219128847122E-001;8.601221255958080E-003;-7.417654851451516E-004;-6.593428086489439E-003;
2.412000000000000E+009;1.782719492912293E-001;5.952349863946438E-003;-9.412435465492308E-004;-6.676971912384033E-003;
2.412166666666667E+009;1.779076755046845E-001;3.535980358719826E-003;-1.242225524038076E-003;-6.716693751513958E-003;
2.412333333333334E+009;1.776712387800217E-001;8.807454141788185E-004;-1.576415845192969E-003;-6.699451711028814E-003;
2.412500000000000E+009;1.779619902372360E-001;-1.816718722693622E-003;-1.881531905382872E-003;-6.408655084669590E-003;
2.412666666666667E+009;1.782831251621246E-001;-4.468102008104324E-003;-2.160057425498962E-003;-6.259527988731861E-003;
2.412833333333334E+009;1.786630004644394E-001;-7.069841027259827E-003;-2.606346737593412E-003;-6.329299882054329E-003;
2.413000000000000E+009;1.792049109935761E-001;-9.772193618118763E-003;-2.635036362335086E-003;-6.080952938646078E-003;
2.413166666666667E+009;1.797692477703095E-001;-1.235217135399580E-002;-3.120092907920480E-003;-5.979483015835285E-003;
2.413333333333334E+009;1.807395368814468E-001;-1.489598676562309E-002;-3.357053734362125E-003;-5.563570186495781E-003;
2.413500000000000E+009;1.814811229705811E-001;-1.739028654992580E-002;-3.650490194559097E-003;-5.564349703490734E-003;
2.413666666666667E+009;1.824759244918823E-001;-2.001291140913963E-002;-3.807764733210206E-003;-5.155749153345823E-003;
2.413833333333334E+009;1.834449470043182E-001;-2.234721370041370E-002;-3.929102793335915E-003;-4.902166314423084E-003;
2.414000000000000E+009;1.846262514591217E-001;-2.457923442125320E-002;-4.119918216019869E-003;-4.618756938725710E-003;
2.414166666666667E+009;1.859195679426193E-001;-2.674220688641071E-002;-4.321560263633728E-003;-4.410889465361834E-003;
2.414333333333334E+009;1.870509684085846E-001;-2.891927398741245E-002;-4.503997508436441E-003;-4.006308037787676E-003;
2.414500000000000E+009;1.885184496641159E-001;-3.060192056000233E-002;-4.589802119880915E-003;-3.848061198368669E-003;
2.414666666666667E+009;1.895418018102646E-001;-3.249972686171532E-002;-4.467044025659561E-003;-3.528083674609661E-003;
2.414833333333334E+009;1.910165101289749E-001;-3.418966010212898E-002;-4.525800701230764E-003;-3.372767707332969E-003;
2.415000000000000E+009;1.921914368867874E-001;-3.572214022278786E-002;-4.526602569967508E-003;-3.079260000959039E-003;
2.415166666666667E+009;1.938228458166122E-001;-3.715602308511734E-002;-4.589665215462446E-003;-3.037478541955352E-003;
2.415333333333334E+009;1.950540840625763E-001;-3.831520676612854E-002;-4.645056091248989E-003;-2.677695825695992E-003;
2.415500000000000E+009;1.964185535907745E-001;-3.934163972735405E-002;-4.699798300862312E-003;-2.548424061387777E-003;
2.415666666666667E+009;1.978246271610260E-001;-4.031057655811310E-002;-4.827600903809071E-003;-2.333475043997169E-003;
2.415833333333334E+009;1.989019066095352E-001;-4.103513434529305E-002;-4.742264747619629E-003;-2.037700964137912E-003;
2.416000000000000E+009;1.999260634183884E-001;-4.174562543630600E-002;-4.900181200355291E-003;-1.865355297923088E-003;
2.416166666666667E+009;2.011408954858780E-001;-4.248575121164322E-002;-4.821075592190027E-003;-1.518842647783458E-003;
2.416333333333334E+009;2.019463330507278E-001;-4.267112165689468E-002;-4.829132929444313E-003;-1.479654456488788E-003;
2.416500000000000E+009;2.028602361679077E-001;-4.309866949915886E-002;-4.557781852781773E-003;-1.072255312465131E-003;
2.416666666666667E+009;2.035767287015915E-001;-4.342698678374291E-002;-4.629810340702534E-003;-1.035779365338385E-003;
2.416833333333334E+009;2.041280418634415E-001;-4.350794851779938E-002;-4.388794768601656E-003;-6.193800945766270E-004;
2.417000000000000E+009;2.046497017145157E-001;-4.354732111096382E-002;-4.340528976172209E-003;-5.163354217074812E-004;
2.417166666666667E+009;2.047222256660461E-001;-4.339708387851715E-002;-4.012557677924633E-003;-3.903889446519315E-004;
2.417333333333334E+009;2.048257440328598E-001;-4.317530244588852E-002;-3.816492855548859E-003;-5.085922894068062E-004;
2.417500000000000E+009;2.049073725938797E-001;-4.301353543996811E-002;-3.690404351800680E-003;-3.254518378525972E-004;
2.417666666666667E+009;2.047552019357681E-001;-4.266625642776489E-002;-3.735824720934033E-003;-3.747130685951561E-004;
2.417833333333334E+009;2.045327872037888E-001;-4.235254600644112E-002;-3.489219117909670E-003;-4.069449205417186E-004;
2.418000000000000E+009;2.041127979755402E-001;-4.189193248748779E-002;-3.476553130894899E-003;-5.218834266997874E-004;
2.418166666666667E+009;2.036423534154892E-001;-4.154296964406967E-002;-3.437737002968788E-003;-5.641225143335760E-004;
2.418333333333334E+009;2.029319554567337E-001;-4.110991954803467E-002;-3.485454712063074E-003;-6.855258252471685E-004;
2.418500000000000E+009;2.020600289106369E-001;-4.089235141873360E-002;-3.618907881900668E-003;-6.905270274728537E-004;
2.418666666666667E+009;2.014030218124390E-001;-4.056378826498985E-002;-3.637416055426002E-003;-5.968555924482644E-004;
2.418833333333334E+009;2.002853304147720E-001;-4.037163034081459E-002;-3.708243835717440E-003;-5.507266614586115E-004;
2.419000000000000E+009;1.991236358880997E-001;-4.035852849483490E-002;-3.864675294607878E-003;-6.427154876291752E-004;
2.419166666666667E+009;1.978242099285126E-001;-4.037746042013168E-002;-3.835979383438826E-003;-4.628286405932158E-004;
2.419333333333334E+009;1.965064406394959E-001;-4.052567854523659E-002;-4.072598181664944E-003;-3.253040777053684E-004;
2.419500000000000E+009;1.949667781591415E-001;-4.065690934658051E-002;-4.097974859178066E-003;-1.645668671699241E-004;
2.419666666666667E+009;1.934766322374344E-001;-4.116118699312210E-002;-4.220547154545784E-003;-1.143615008913912E-004;
2.419833333333334E+009;1.917193531990051E-001;-4.149615392088890E-002;-4.327518865466118E-003;1.831215340644121E-004;
2.420000000000000E+009;1.901635527610779E-001;-4.212589934468269E-002;-4.122679587453604E-003;4.046618123538792E-004;
2.420166666666667E+009;1.883580386638641E-001;-4.272153601050377E-002;-4.189037717878819E-003;5.063780699856579E-004;
2.420333333333334E+009;1.866016387939453E-001;-4.365396499633789E-002;-4.233340732753277E-003;5.914499633945525E-004;
2.420500000000000E+009;1.848382949829102E-001;-4.475297033786774E-002;-4.010034725070000E-003;8.196961716748774E-004;
2.420666666666667E+009;1.828652322292328E-001;-4.563486948609352E-002;-3.891968866810203E-003;9.981547482311726E-004;
2.420833333333334E+009;1.810556501150131E-001;-4.706969484686852E-002;-3.747720038518310E-003;1.000184332951903E-003;
2.421000000000000E+009;1.791998594999313E-001;-4.848643392324448E-002;-3.630712395533919E-003;1.273216446861625E-003;
2.421166666666667E+009;1.775240898132324E-001;-5.004175379872322E-002;-3.478698432445526E-003;1.294164219871163E-003;
2.421333333333334E+009;1.756199896335602E-001;-5.162343010306358E-002;-3.342812415212393E-003;1.293739303946495E-003;
2.421500000000000E+009;1.739923059940338E-001;-5.332399904727936E-002;-3.251463640481234E-003;1.341148745268583E-003;
2.421666666666667E+009;1.724111735820770E-001;-5.526613444089890E-002;-3.126498078927398E-003;1.303798402659595E-003;
2.421833333333334E+009;1.710937321186066E-001;-5.707583576440811E-002;-3.075100015848875E-003;1.293336623348296E-003;
2.422000000000000E+009;1.697075515985489E-001;-5.907783657312393E-002;-2.986186183989048E-003;1.251667155884206E-003;
2.422166666666667E+009;1.682527214288712E-001;-6.128850206732750E-002;-3.069014986976981E-003;1.181826926767826E-003;
2.422333333333334E+009;1.670752316713333E-001;-6.340766698122025E-002;-2.959955018013716E-003;1.229400630109012E-003;
2.422500000000000E+009;1.659880727529526E-001;-6.555969268083572E-002;-2.949591493234038E-003;1.299659023061395E-003;
2.422666666666667E+009;1.650445908308029E-001;-6.767427176237106E-002;-2.950752386823297E-003;1.226550200954080E-003;
2.422833333333334E+009;1.644614487886429E-001;-7.004572451114655E-002;-3.002408193424344E-003;1.161120715551078E-003;
2.423000000000000E+009;1.635823547840118E-001;-7.231584936380386E-002;-2.995441900566220E-003;1.320174545980990E-003;
2.423166666666667E+009;1.628811210393906E-001;-7.453867048025131E-002;-3.166276961565018E-003;1.342156436294317E-003;
2.423333333333334E+009;1.624179482460022E-001;-7.669835537672043E-002;-3.223747713491321E-003;1.175353303551674E-003;
2.423500000000000E+009;1.622356623411179E-001;-7.879535108804703E-002;-3.390895435586572E-003;1.427941839210689E-003;
2.423666666666667E+009;1.622147411108017E-001;-8.109520375728607E-002;-3.283464582636952E-003;1.430732780136168E-003;
2.423833333333334E+009;1.620827466249466E-001;-8.307454735040665E-002;-3.314540022984147E-003;1.690256409347057E-003;
2.424000000000000E+009;1.622706651687622E-001;-8.532479405403137E-002;-3.404682502150536E-003;1.806756015866995E-003;
2.424166666666667E+009;1.620695590972900E-001;-8.728531002998352E-002;-3.499806160107255E-003;1.995139522477984E-003;
2.424333333333334E+009;1.622557491064072E-001;-8.898743242025375E-002;-3.144934540614486E-003;2.221079077571631E-003;
2.424500000000000E+009;1.626335680484772E-001;-9.115232527256012E-002;-3.592836437746882E-003;2.263420261442661E-003;
2.424666666666667E+009;1.629992276430130E-001;-9.266516566276550E-002;-3.361144103109837E-003;2.416150411590934E-003;
2.424833333333334E+009;1.634920686483383E-001;-9.426121413707733E-002;-3.204925684258342E-003;2.589601557701826E-003;
2.425000000000000E+009;1.639830470085144E-001;-9.586191177368164E-002;-3.147424431517720E-003;2.896957565099001E-003;
2.425166666666667E+009;1.644934117794037E-001;-9.736675769090653E-002;-3.098455723375082E-003;3.052662359550595E-003;
2.425333333333334E+009;1.650701910257340E-001;-9.854730963706970E-002;-2.821418223902583E-003;3.047341248020530E-003;
2.425500000000000E+009;1.657600849866867E-001;-9.974112361669540E-002;-2.596236765384674E-003;3.006139071658254E-003;
2.425666666666667E+009;1.664073765277863E-001;-1.007405221462250E-001;-2.545225434005261E-003;3.277453826740384E-003;
2.425833333333334E+009;1.669184863567352E-001;-1.016909852623940E-001;-2.368587534874678E-003;3.407789859920740E-003;
2.426000000000000E+009;1.676613986492157E-001;-1.024663969874382E-001;-2.190771279856563E-003;3.390604397282004E-003;
2.426166666666667E+009;1.683414429426193E-001;-1.031438186764717E-001;-2.096880692988634E-003;3.466235008090735E-003;
2.426333333333334E+009;1.688075959682465E-001;-1.038121879100800E-001;-1.980782486498356E-003;3.690630197525024E-003;
2.426500000000000E+009;1.695217639207840E-001;-1.041812449693680E-001;-1.923453062772751E-003;3.498420584946871E-003;
2.426666666666667E+009;1.700588613748550E-001;-1.045796647667885E-001;-1.751990523189306E-003;3.623420139774680E-003;
2.426833333333334E+009;1.705152094364166E-001;-1.049828082323074E-001;-1.580843934789300E-003;3.631456987932324E-003;
2.427000000000000E+009;1.708826422691345E-001;-1.052415147423744E-001;-1.460454892367125E-003;3.593582427129149E-003;
2.427166666666667E+009;1.712930500507355E-001;-1.052728071808815E-001;-1.446014153771102E-003;3.524166997522116E-003;
2.427333333333334E+009;1.714597195386887E-001;-1.055536493659020E-001;-1.416096230968833E-003;3.733714111149311E-003;
2.427500000000000E+009;1.716726869344711E-001;-1.056970134377480E-001;-1.362797338515520E-003;3.652623388916254E-003;
2.427666666666667E+009;1.716806143522263E-001;-1.056705266237259E-001;-1.284189405851066E-003;3.664937801659107E-003;
