# Version 1.00
#
freq[Hz];re:Trc1_S11;im:Trc1_S11;re:Trc2_S21;im:Trc2_S21;
2.400000000000000E+009;1.572606712579727E-001;1.121307015419006E-001;6.587537936866283E-003;2.914801007136703E-003;
2.400166666666667E+009;1.568275839090347E-001;1.100307628512383E-001;6.848931312561035E-003;2.530207857489586E-003;
2.400333333333334E+009;1.564560383558273E-001;1.078899428248406E-001;6.936057005077601E-003;2.334124175831676E-003;
2.400500000000000E+009;1.561282873153687E-001;1.053020060062408E-001;7.079033646732569E-003;1.754660974256694E-003;
2.400666666666667E+009;1.558505147695541E-001;1.029477566480637E-001;7.007076404988766E-003;1.444788766093552E-003;
2.400833333333334E+009;1.555429995059967E-001;1.000324115157127E-001;7.143296301364899E-003;9.915106929838657E-004;
2.401000000000000E+009;1.553395837545395E-001;9.730137884616852E-002;6.990255787968636E-003;6.555823492817581E-004;
2.401166666666667E+009;1.551578342914581E-001;9.457779675722122E-002;6.846843753010035E-003;2.924129075836390E-004;
2.401333333333334E+009;1.549162864685059E-001;9.162414073944092E-002;6.821220740675926E-003;-6.567201489815489E-005;
2.401500000000000E+009;1.552176177501679E-001;8.852943032979965E-002;6.603289861232042E-003;-2.657231234479696E-004;
2.401666666666667E+009;1.553914397954941E-001;8.549803495407105E-002;6.265039090067148E-003;-5.699780303984880E-004;
2.401833333333334E+009;1.556066870689392E-001;8.237805962562561E-002;6.081549450755119E-003;-8.681972394697368E-004;
2.402000000000000E+009;1.561359912157059E-001;7.962734252214432E-002;6.000300869345665E-003;-1.012741471640766E-003;
2.402166666666667E+009;1.566766649484634E-001;7.670069485902786E-002;5.744747351855040E-003;-1.209466485306621E-003;
2.402333333333334E+009;1.572554558515549E-001;7.350721210241318E-002;5.636140704154968E-003;-1.339671551249921E-003;
2.402500000000000E+009;1.582032144069672E-001;7.082901149988174E-002;5.286441650241613E-003;-1.426226925104857E-003;
2.402666666666667E+009;1.591586023569107E-001;6.809134781360626E-002;5.198647268116474E-003;-1.520920428447425E-003;
2.402833333333334E+009;1.603364944458008E-001;6.526139378547669E-002;5.055038258433342E-003;-1.721204142086208E-003;
2.403000000000000E+009;1.614459753036499E-001;6.258758902549744E-002;4.934887401759625E-003;-1.728513161651790E-003;
2.403166666666667E+009;1.632342636585236E-001;5.990578234195709E-002;4.812673199921846E-003;-1.535391667857766E-003;
2.403333333333334E+009;1.644437611103058E-001;5.730910599231720E-002;4.565445706248283E-003;-1.596193644218147E-003;
2.403500000000000E+009;1.661278754472733E-001;5.503711104393005E-002;4.509883001446724E-003;-1.588266459293664E-003;
2.403666666666667E+009;1.678093820810318E-001;5.277662724256516E-002;4.360444843769074E-003;-1.694933976978064E-003;
2.403833333333334E+009;1.694852113723755E-001;5.053477734327316E-002;4.267966374754906E-003;-1.553852111101151E-003;
2.404000000000000E+009;1.710449159145355E-001;4.830964282155037E-002;4.485684912651777E-003;-1.753362361341715E-003;
2.404166666666667E+009;1.730756461620331E-001;4.623061418533325E-002;4.372558556497097E-003;-1.743294415064156E-003;
2.404333333333334E+009;1.748095303773880E-001;4.464833438396454E-002;4.368332680314779E-003;-1.811210997402668E-003;
2.404500000000000E+009;1.764684170484543E-001;4.280905053019524E-002;4.516437649726868E-003;-1.903300289995968E-003;
2.404666666666667E+009;1.782258599996567E-001;4.133145138621330E-002;4.358066711574793E-003;-1.864493708126247E-003;
2.404833333333334E+009;1.802553534507752E-001;4.004895687103272E-002;4.379503428936005E-003;-1.999760046601296E-003;
2.405000000000000E+009;1.818495541810989E-001;3.908031806349754E-002;4.524943884462118E-003;-2.147779799997807E-003;
2.405166666666667E+009;1.834944188594818E-001;3.816564753651619E-002;4.491426050662994E-003;-2.319727558642626E-003;
2.405333333333334E+009;1.852201521396637E-001;3.756066784262657E-002;4.348132293671370E-003;-2.512427279725671E-003;
2.405500000000000E+009;1.868958920240402E-001;3.682458773255348E-002;4.235871601849794E-003;-2.521313028410077E-003;
2.405666666666667E+009;1.885203719139099E-001;3.641529753804207E-002;4.289597272872925E-003;-2.720331074669957E-003;
2.405833333333334E+009;1.901164203882217E-001;3.619969636201859E-002;3.946330398321152E-003;-2.868200885131955E-003;
2.406000000000000E+009;1.916251629590988E-001;3.581982851028442E-002;3.951451741158962E-003;-2.938573248684406E-003;
2.406166666666667E+009;1.929793804883957E-001;3.568089753389359E-002;3.684765426442027E-003;-3.044585697352886E-003;
2.406333333333334E+009;1.941995322704315E-001;3.567700088024139E-002;3.685277653858066E-003;-3.002773737534881E-003;
2.406500000000000E+009;1.952361017465591E-001;3.579219058156014E-002;3.625919111073017E-003;-3.130861790850759E-003;
2.406666666666667E+009;1.963404119014740E-001;3.592431545257568E-002;3.476196667179465E-003;-3.199865343049169E-003;
2.406833333333334E+009;1.971860975027084E-001;3.607646003365517E-002;3.526775399222970E-003;-3.179051680490375E-003;
2.407000000000000E+009;1.979388743638992E-001;3.648298233747482E-002;3.462656168267131E-003;-3.157875500619412E-003;
2.407166666666667E+009;1.986973434686661E-001;3.636723384261131E-002;3.425628179684281E-003;-3.165740752592683E-003;
2.407333333333334E+009;1.988642215728760E-001;3.650745749473572E-002;3.254643175750971E-003;-3.113854676485062E-003;
2.407500000000000E+009;1.991432309150696E-001;3.739573433995247E-002;3.467120695859194E-003;-3.359370399266481E-003;
2.407666666666667E+009;1.996025890111923E-001;3.731349483132362E-002;3.438325598835945E-003;-3.646508790552616E-003;
2.407833333333334E+009;1.994881480932236E-001;3.759726136922836E-002;3.573129884898663E-003;-3.632038133218885E-003;
2.408000000000000E+009;1.997523605823517E-001;3.786089271306992E-002;3.445816924795508E-003;-4.197419621050358E-003;
2.408166666666667E+009;1.990863084793091E-001;3.748365491628647E-002;3.227901645004749E-003;-3.897523740306497E-003;
2.408333333333334E+009;1.986077725887299E-001;3.764267265796661E-002;3.364327596500516E-003;-3.944611176848412E-003;
2.408500000000000E+009;1.983421146869659E-001;3.816808760166168E-002;3.655583132058382E-003;-4.351006355136633E-003;
2.408666666666667E+009;1.973792761564255E-001;3.782474249601364E-002;3.726175287738442E-003;-4.452393390238285E-003;
2.408833333333334E+009;1.969781219959259E-001;3.738446161150932E-002;3.270817454904318E-003;-4.771226085722446E-003;
2.409000000000000E+009;1.960586309432983E-001;3.679065778851509E-002;3.160377498716116E-003;-4.779086913913488E-003;
2.409166666666667E+009;1.952075213193893E-001;3.634065389633179E-002;3.085276111960411E-003;-5.201196763664484E-003;
2.409333333333334E+009;1.941039562225342E-001;3.572295978665352E-002;2.879699924960733E-003;-5.279341712594032E-003;
2.409500000000000E+009;1.929070204496384E-001;3.474245220422745E-002;2.783655654639006E-003;-5.387304816395044E-003;
2.409666666666667E+009;1.916109472513199E-001;3.376920148730278E-002;2.604003529995680E-003;-5.600875709205866E-003;
2.409833333333334E+009;1.904831826686859E-001;3.275627270340920E-002;2.361912745982409E-003;-5.824637599289417E-003;
2.410000000000000E+009;1.893774569034576E-001;3.138273954391480E-002;2.057439414784312E-003;-5.883881356567144E-003;
2.410166666666667E+009;1.879942715167999E-001;2.971556782722473E-002;1.930005382746458E-003;-6.093859672546387E-003;
2.410333333333334E+009;1.869179606437683E-001;2.840941585600376E-002;1.688918215222657E-003;-6.341670174151659E-003;
2.410500000000000E+009;1.857122033834457E-001;2.679969184100628E-002;1.495313830673695E-003;-6.296311505138874E-003;
2.410666666666667E+009;1.845785081386566E-001;2.468835003674030E-002;1.187540125101805E-003;-6.432456430047751E-003;
2.410833333333334E+009;1.836205869913101E-001;2.260998822748661E-002;8.465817663818598E-004;-6.513091269880533E-003;
2.411000000000000E+009;1.826166659593582E-001;2.053860947489739E-002;5.584245081990957E-004;-6.609822623431683E-003;
2.411166666666667E+009;1.814500540494919E-001;1.848819106817246E-002;3.092804399784654E-004;-6.741385441273451E-003;
2.411333333333334E+009;1.807564347982407E-001;1.603721641004086E-002;9.989224054152146E-005;-6.693210452795029E-003;
2.411500000000000E+009;1.800325363874435E-001;1.356033701449633E-002;-2.261773915961385E-004;-6.693230476230383E-003;
2.411666666666667E+009;1.793133020401001E-001;1.126969978213310E-002;-5.873464979231358E-004;-6.754984147846699E-003;
2.411833333333334E+009;1.787626445293427E-001;8.853881619870663E-003;-7.892766734585166E-004;-6.640664301812649E-003;
2.412000000000000E+009;1.784626841545105E-001;6.243531126528978E-003;-1.117269974201918E-003;-6.734528578817844E-003;
2.412166666666667E+009;1.783298999071121E-001;3.647624514997006E-003;-1.308666658587754E-003;-6.596976891160011E-003;
2.412333333333334E+009;1.781910657882690E-001;9.669784340076149E-004;-1.610783394426107E-003;-6.549815647304058E-003;
2.412500000000000E+009;1.784415841102600E-001;-1.708221505396068E-003;-1.982162473723292E-003;-6.333644501864910E-003;
2.412666666666667E+009;1.786068975925446E-001;-4.367800895124674E-003;-2.135899383574724E-003;-6.232066545635462E-003;
2.412833333333334E+009;1.789279431104660E-001;-7.113762199878693E-003;-2.570914104580879E-003;-6.187169346958399E-003;
2.413000000000000E+009;1.795118004083633E-001;-9.739844128489494E-003;-2.991760149598122E-003;-6.098383106291294E-003;
2.413166666666667E+009;1.802247613668442E-001;-1.232064794749022E-002;-3.166917944326997E-003;-5.929823964834213E-003;
2.413333333333334E+009;1.811417043209076E-001;-1.489325519651175E-002;-3.467314876616001E-003;-5.676776170730591E-003;
2.413500000000000E+009;1.817231029272080E-001;-1.743982359766960E-002;-3.705054754391313E-003;-5.542816594243050E-003;
2.413666666666667E+009;1.828798055648804E-001;-2.002044394612312E-002;-3.970293328166008E-003;-5.305965896695852E-003;
2.413833333333334E+009;1.839018911123276E-001;-2.224179916083813E-002;-4.059049766510725E-003;-4.855484701693058E-003;
2.414000000000000E+009;1.849450170993805E-001;-2.457032166421413E-002;-4.353996831923723E-003;-4.627124406397343E-003;
2.414166666666667E+009;1.863224059343338E-001;-2.673942223191261E-002;-4.275292158126831E-003;-4.386432934552431E-003;
2.414333333333334E+009;1.873018294572830E-001;-2.903402037918568E-002;-4.583644215017557E-003;-4.075180739164352E-003;
2.414500000000000E+009;1.888587623834610E-001;-3.074443526566029E-002;-4.577046725898981E-003;-3.821318270638585E-003;
2.414666666666667E+009;1.900487095117569E-001;-3.244737163186073E-002;-4.601221531629562E-003;-3.613767446950078E-003;
2.414833333333334E+009;1.913754642009735E-001;-3.429790958762169E-002;-4.750561900436878E-003;-3.234068397432566E-003;
2.415000000000000E+009;1.926134377717972E-001;-3.598155826330185E-002;-4.702064208686352E-003;-3.197934012860060E-003;
2.415166666666667E+009;1.940990984439850E-001;-3.725333884358406E-002;-4.784751217812300E-003;-3.017533104866743E-003;
2.415333333333334E+009;1.954955011606216E-001;-3.837356343865395E-002;-4.791841842234135E-003;-2.704570535570383E-003;
2.415500000000000E+009;1.966791599988937E-001;-3.942338377237320E-002;-4.844792652875185E-003;-2.501868177205324E-003;
2.415666666666667E+009;1.980536133050919E-001;-4.039317741990089E-002;-4.856198560446501E-003;-2.263850998133421E-003;
2.415833333333334E+009;1.991878151893616E-001;-4.121504351496697E-002;-4.934037569910288E-003;-2.064377767965198E-003;
2.416000000000000E+009;2.003568559885025E-001;-4.179588705301285E-002;-4.874266218394041E-003;-1.859749900177121E-003;
2.416166666666667E+009;2.013748586177826E-001;-4.255845025181770E-002;-4.956598393619061E-003;-1.405220245942473E-003;
2.416333333333334E+009;2.023746818304062E-001;-4.301027208566666E-002;-4.794603213667870E-003;-1.287371153011918E-003;
2.416500000000000E+009;2.032067626714706E-001;-4.326162859797478E-002;-4.798428621143103E-003;-1.110756187699735E-003;
2.416666666666667E+009;2.038808763027191E-001;-4.355883970856667E-002;-4.577192943543196E-003;-8.909209864214063E-004;
2.416833333333334E+009;2.042832225561142E-001;-4.370208084583283E-002;-4.524290561676025E-003;-5.569196073338389E-004;
2.417000000000000E+009;2.049022912979126E-001;-4.367596656084061E-002;-4.394412040710449E-003;-5.363811505958438E-004;
2.417166666666667E+009;2.049641758203507E-001;-4.363654181361198E-002;-4.139766562730074E-003;-3.769472241401672E-004;
2.417333333333334E+009;2.051807045936585E-001;-4.340090602636337E-002;-3.964465111494064E-003;-2.851089520845562E-004;
2.417500000000000E+009;2.051102072000504E-001;-4.323865100741386E-002;-3.847502637654543E-003;-2.453899651300162E-004;
2.417666666666667E+009;2.050268501043320E-001;-4.291269183158875E-002;-3.674954874441028E-003;-2.950402849819511E-004;
2.417833333333334E+009;2.048833370208740E-001;-4.258079826831818E-002;-3.625511657446623E-003;-3.284054982941598E-004;
2.418000000000000E+009;2.044703215360642E-001;-4.206258058547974E-002;-3.735063364729285E-003;-2.963204169645906E-004;
2.418166666666667E+009;2.038940340280533E-001;-4.173710197210312E-002;-3.542508929967880E-003;-5.163075402379036E-004;
2.418333333333334E+009;2.032030671834946E-001;-4.135122522711754E-002;-3.463492030277848E-003;-4.087520937900990E-004;
2.418500000000000E+009;2.024097293615341E-001;-4.123470187187195E-002;-3.556891810148954E-003;-4.713229427579790E-004;
2.418666666666667E+009;2.015345543622971E-001;-4.080211743712425E-002;-3.698424668982625E-003;-4.787801590282470E-004;
2.418833333333334E+009;2.003853470087051E-001;-4.063280671834946E-002;-3.742915345355868E-003;-4.518788773566485E-004;
2.419000000000000E+009;1.991800814867020E-001;-4.058803990483284E-002;-3.993136808276177E-003;-4.053977027069777E-004;
2.419166666666667E+009;1.980451643466950E-001;-4.062038660049439E-002;-4.063257016241550E-003;-1.853684661909938E-004;
2.419333333333334E+009;1.966528445482254E-001;-4.077337309718132E-002;-4.207328427582979E-003;-2.215470449300483E-004;
2.419500000000000E+009;1.951218396425247E-001;-4.081847146153450E-002;-4.147041589021683E-003;-5.433023761725053E-005;
2.419666666666667E+009;1.935640126466751E-001;-4.146772995591164E-002;-4.294875543564558E-003;7.057609764160588E-005;
2.419833333333334E+009;1.919163465499878E-001;-4.176378250122070E-002;-4.105941858142614E-003;3.059541340917349E-004;
2.420000000000000E+009;1.902447491884232E-001;-4.236645996570587E-002;-4.240371286869049E-003;6.009489879943430E-004;
2.420166666666667E+009;1.885623931884766E-001;-4.287902638316155E-002;-4.174382891505957E-003;7.085844408720732E-004;
2.420333333333334E+009;1.866579204797745E-001;-4.411772638559341E-002;-4.161221906542778E-003;9.613545844331384E-004;
2.420500000000000E+009;1.847730726003647E-001;-4.499780014157295E-002;-4.034006036818028E-003;1.149299088865519E-003;
2.420666666666667E+009;1.827980726957321E-001;-4.602456092834473E-002;-4.001023713499308E-003;1.263799378648400E-003;
2.420833333333334E+009;1.809240728616715E-001;-4.738134145736694E-002;-3.727311501279473E-003;1.409188145771623E-003;
2.421000000000000E+009;1.792993992567062E-001;-4.880125075578690E-002;-3.557729534804821E-003;1.455262769013643E-003;
2.421166666666667E+009;1.775004118680954E-001;-5.043764412403107E-002;-3.407713491469622E-003;1.457192585803568E-003;
2.421333333333334E+009;1.755133569240570E-001;-5.189777165651321E-002;-3.386780619621277E-003;1.453438191674650E-003;
2.421500000000000E+009;1.740259826183319E-001;-5.361689254641533E-002;-3.103821538388729E-003;1.449339790269733E-003;
2.421666666666667E+009;1.723199635744095E-001;-5.556568875908852E-002;-3.172823926433921E-003;1.410391298122704E-003;
2.421833333333334E+009;1.709905415773392E-001;-5.738565698266029E-002;-2.953420160338283E-003;1.484585576690733E-003;
2.422000000000000E+009;1.694882810115814E-001;-5.928923562169075E-002;-2.931471215561032E-003;1.474980846978724E-003;
2.422166666666667E+009;1.683444082736969E-001;-6.165120378136635E-002;-2.820538822561503E-003;1.487778616137803E-003;
2.422333333333334E+009;1.669041961431503E-001;-6.352803856134415E-002;-2.863615984097123E-003;1.250742236152291E-003;
2.422500000000000E+009;1.657766103744507E-001;-6.573410332202911E-002;-2.883359091356397E-003;1.446417183615267E-003;
2.422666666666667E+009;1.650627553462982E-001;-6.792835146188736E-002;-2.870344789698720E-003;1.269692904315889E-003;
2.422833333333334E+009;1.642063558101654E-001;-7.018907368183136E-002;-2.929982496425510E-003;1.449418370611966E-003;
2.423000000000000E+009;1.632478535175324E-001;-7.257930934429169E-002;-2.945052227005363E-003;1.277935458347201E-003;
2.423166666666667E+009;1.628690510988236E-001;-7.455576956272125E-002;-2.888912335038185E-003;1.254052855074406E-003;
2.423333333333334E+009;1.624164879322052E-001;-7.703480124473572E-002;-3.242037491872907E-003;1.469056005589664E-003;
2.423500000000000E+009;1.622446924448013E-001;-7.887769490480423E-002;-3.126732772216201E-003;1.517298864200711E-003;
2.423666666666667E+009;1.619448363780975E-001;-8.119166642427445E-002;-3.213764866814017E-003;1.565421931445599E-003;
2.423833333333334E+009;1.619543880224228E-001;-8.327575027942658E-002;-3.196574049070478E-003;1.612251740880311E-003;
2.424000000000000E+009;1.619948148727417E-001;-8.531122654676437E-002;-3.196208737790585E-003;1.992278965190053E-003;
2.424166666666667E+009;1.618326008319855E-001;-8.736740052700043E-002;-3.183211898431182E-003;2.025518799200654E-003;
2.424333333333334E+009;1.622665524482727E-001;-8.924800902605057E-002;-3.250221721827984E-003;2.191608306020498E-003;
2.424500000000000E+009;1.626706272363663E-001;-9.125911444425583E-002;-3.138980595394969E-003;2.385655185207725E-003;
2.424666666666667E+009;1.628131568431854E-001;-9.300151467323303E-002;-3.105067415162921E-003;2.514438005164266E-003;
2.424833333333334E+009;1.634127348661423E-001;-9.450309723615646E-002;-3.035858739167452E-003;2.666631480678916E-003;
2.425000000000000E+009;1.638991832733154E-001;-9.610936790704727E-002;-2.870561322197318E-003;2.800032263621688E-003;
2.425166666666667E+009;1.643185019493103E-001;-9.737630188465118E-002;-2.712717978283763E-003;2.950585680082440E-003;
2.425333333333334E+009;1.648705750703812E-001;-9.877961874008179E-002;-2.602037275210023E-003;3.039719304069877E-003;
2.425500000000000E+009;1.656666398048401E-001;-9.995963424444199E-002;-2.492806641384959E-003;3.136099781841040E-003;
2.425666666666667E+009;1.661644279956818E-001;-1.008425951004028E-001;-2.481681061908603E-003;3.252445254474878E-003;
2.425833333333334E+009;1.668135523796082E-001;-1.019209548830986E-001;-2.301553264260292E-003;3.193020122125745E-003;
2.426000000000000E+009;1.675293445587158E-001;-1.026340499520302E-001;-2.144229598343372E-003;3.290813416242600E-003;
2.426166666666667E+009;1.681588590145111E-001;-1.032121106982231E-001;-2.013700781390071E-003;3.387589007616043E-003;
2.426333333333334E+009;1.686858385801315E-001;-1.038917824625969E-001;-1.871475367806852E-003;3.470705589279532E-003;
2.426500000000000E+009;1.692489385604858E-001;-1.042074039578438E-001;-1.605452387593687E-003;3.436669008806348E-003;
2.426666666666667E+009;1.699194312095642E-001;-1.046741455793381E-001;-1.599534996785224E-003;3.506547771394253E-003;
2.426833333333334E+009;1.704754978418350E-001;-1.051050126552582E-001;-1.430860836990178E-003;3.476225538179278E-003;
2.427000000000000E+009;1.708449274301529E-001;-1.052635535597801E-001;-1.426658360287547E-003;3.349341917783022E-003;
2.427166666666667E+009;1.712097972631455E-001;-1.054147779941559E-001;-1.320151146501303E-003;3.541519399732351E-003;
2.427333333333334E+009;1.714959293603897E-001;-1.056622117757797E-001;-1.238058786839247E-003;3.588423365727067E-003;
2.427500000000000E+009;1.715282946825028E-001;-1.057512387633324E-001;-1.280090771615505E-003;3.665243973955512E-003;
2.427666666666667E+009;1.715271323919296E-001;-1.057954430580139E-001;-1.032044645398855E-003;3.593740053474903E-003;
