# Version 1.00
#
freq[Hz];re:Trc1_S11;im:Trc1_S11;re:Trc2_S21;im:Trc2_S21;
2.400000000000000E+009;1.573161482810974E-001;1.121502220630646E-001;6.624985951930285E-003;2.868585521355271E-003;
2.400166666666667E+009;1.566839665174484E-001;1.100219339132309E-001;6.886892952024937E-003;2.535517793148756E-003;
2.400333333333334E+009;1.564576178789139E-001;1.079861149191856E-001;7.032338064163923E-003;2.298260340467095E-003;
2.400500000000000E+009;1.559738218784332E-001;1.054153144359589E-001;7.121405564248562E-003;1.751472125761211E-003;
2.400666666666667E+009;1.557093709707260E-001;1.031189039349556E-001;6.961978040635586E-003;1.393518061377108E-003;
2.400833333333334E+009;1.554099172353745E-001;1.001574695110321E-001;7.048234343528748E-003;9.571872651576996E-004;
2.401000000000000E+009;1.552782803773880E-001;9.732682257890701E-002;6.942564155906439E-003;6.287783035077155E-004;
2.401166666666667E+009;1.550351381301880E-001;9.445571154356003E-002;7.031088229268789E-003;1.262895093532279E-004;
2.401333333333334E+009;1.550444066524506E-001;9.159407764673233E-002;6.815430708229542E-003;-1.072194718290120E-004;
2.401500000000000E+009;1.551078259944916E-001;8.864851295948029E-002;6.648763082921505E-003;-4.009341064374894E-004;
2.401666666666667E+009;1.552004814147949E-001;8.555921912193298E-002;6.491623818874359E-003;-7.319587166421115E-004;
2.401833333333334E+009;1.555026620626450E-001;8.272287249565125E-002;6.171799264848232E-003;-8.541604038327932E-004;
2.402000000000000E+009;1.559636890888214E-001;7.972171902656555E-002;6.120473146438599E-003;-1.088240882381797E-003;
2.402166666666667E+009;1.566362380981445E-001;7.696094363927841E-002;5.882943980395794E-003;-1.261214842088521E-003;
2.402333333333334E+009;1.572136431932449E-001;7.368709892034531E-002;5.847184453159571E-003;-1.432698452845216E-003;
2.402500000000000E+009;1.581619083881378E-001;7.095169275999069E-002;5.451456643640995E-003;-1.417307299561799E-003;
2.402666666666667E+009;1.590987443923950E-001;6.829836964607239E-002;5.326704587787390E-003;-1.550938352011144E-003;
2.402833333333334E+009;1.602027267217636E-001;6.521233916282654E-002;5.071668885648251E-003;-1.376449130475521E-003;
2.403000000000000E+009;1.616978347301483E-001;6.261868029832840E-002;5.033243447542191E-003;-1.594852074049413E-003;
2.403166666666667E+009;1.631273180246353E-001;6.003722548484802E-002;4.842804279178381E-003;-1.691463403403759E-003;
2.403333333333334E+009;1.643851548433304E-001;5.759956315159798E-002;4.700354300439358E-003;-1.740648061968386E-003;
2.403500000000000E+009;1.661403924226761E-001;5.514771491289139E-002;4.439079668372870E-003;-1.696815364994109E-003;
2.403666666666667E+009;1.679714173078537E-001;5.280492082238197E-002;4.498767200857401E-003;-1.670468598604202E-003;
2.403833333333334E+009;1.696239113807678E-001;5.030269548296928E-002;4.499360918998718E-003;-1.752314274199307E-003;
2.404000000000000E+009;1.711399108171463E-001;4.826882481575012E-002;4.267414566129446E-003;-1.786511624231935E-003;
2.404166666666667E+009;1.731437146663666E-001;4.643494635820389E-002;4.447935614734888E-003;-1.879647606983781E-003;
2.404333333333334E+009;1.747390478849411E-001;4.448249936103821E-002;4.456993658095598E-003;-1.941817346960306E-003;
2.404500000000000E+009;1.765556782484055E-001;4.280044510960579E-002;4.525834228843451E-003;-1.969408011063933E-003;
2.404666666666667E+009;1.784162223339081E-001;4.152320325374603E-002;4.386695101857185E-003;-2.003585221245885E-003;
2.404833333333334E+009;1.804368197917938E-001;4.005815833806992E-002;4.468883853405714E-003;-2.301380271092057E-003;
2.405000000000000E+009;1.818913966417313E-001;3.923488035798073E-002;4.570312798023224E-003;-2.404623664915562E-003;
2.405166666666667E+009;1.836453974246979E-001;3.829889744520187E-002;4.437688738107681E-003;-2.520405454561114E-003;
2.405333333333334E+009;1.853027939796448E-001;3.754029050469399E-002;4.333104006946087E-003;-2.624066313728690E-003;
2.405500000000000E+009;1.871625036001205E-001;3.697382658720017E-002;4.369171801954508E-003;-2.681994577869773E-003;
2.405666666666667E+009;1.885914206504822E-001;3.645629808306694E-002;4.192226100713015E-003;-2.917077625170350E-003;
2.405833333333334E+009;1.902086287736893E-001;3.610616549849510E-002;4.078547004610300E-003;-2.875684993341565E-003;
2.406000000000000E+009;1.916241794824600E-001;3.583662211894989E-002;3.843625541776419E-003;-3.022318938747048E-003;
2.406166666666667E+009;1.928628832101822E-001;3.565720096230507E-002;3.953123465180397E-003;-3.165151458233595E-003;
2.406333333333334E+009;1.941986829042435E-001;3.580770641565323E-002;3.723349655047059E-003;-3.451148280873895E-003;
2.406500000000000E+009;1.953019797801971E-001;3.586825355887413E-002;3.549481276422739E-003;-3.353332635015249E-003;
2.406666666666667E+009;1.963438838720322E-001;3.592882677912712E-002;3.538340330123901E-003;-3.337528323754668E-003;
2.406833333333334E+009;1.972461789846420E-001;3.615935891866684E-002;3.411570331081748E-003;-3.316915128380060E-003;
2.407000000000000E+009;1.979512125253677E-001;3.647371381521225E-002;3.396797226741910E-003;-3.228245768696070E-003;
2.407166666666667E+009;1.986678689718247E-001;3.649973124265671E-002;3.300745971500874E-003;-3.382382681593299E-003;
2.407333333333334E+009;1.989807784557343E-001;3.697318211197853E-002;3.522622399032116E-003;-3.406626172363758E-003;
2.407500000000000E+009;1.991882473230362E-001;3.733187913894653E-002;3.366303164511919E-003;-3.496805671602488E-003;
2.407666666666667E+009;1.995371431112289E-001;3.753274679183960E-002;3.521186299622059E-003;-3.651920240372419E-003;
2.407833333333334E+009;1.993496865034103E-001;3.767596930265427E-002;3.479241160675883E-003;-3.819143865257502E-003;
2.408000000000000E+009;1.995058655738831E-001;3.786981850862503E-002;3.484412329271436E-003;-3.860813565552235E-003;
2.408166666666667E+009;1.991390138864517E-001;3.794547170400620E-002;3.549752989783883E-003;-4.147852770984173E-003;
2.408333333333334E+009;1.989538520574570E-001;3.779766708612442E-002;3.387255361303687E-003;-4.141845740377903E-003;
2.408500000000000E+009;1.982408612966538E-001;3.799820691347122E-002;3.385852323845029E-003;-4.353280179202557E-003;
2.408666666666667E+009;1.977229714393616E-001;3.777783364057541E-002;3.291836474090815E-003;-4.742645658552647E-003;
2.408833333333334E+009;1.971683651208878E-001;3.739308938384056E-002;3.280288306996226E-003;-4.801569506525993E-003;
2.409000000000000E+009;1.962252557277679E-001;3.698374703526497E-002;3.123739268630743E-003;-5.070652812719345E-003;
2.409166666666667E+009;1.952189505100250E-001;3.630284965038300E-002;2.987503306940198E-003;-5.170137155801058E-003;
2.409333333333334E+009;1.942243576049805E-001;3.588074073195458E-002;2.808450954034925E-003;-5.469376686960459E-003;
2.409500000000000E+009;1.930160075426102E-001;3.476051613688469E-002;2.665979554876685E-003;-5.526836961507797E-003;
2.409666666666667E+009;1.918318867683411E-001;3.382088616490364E-002;2.577238483354449E-003;-5.756447091698647E-003;
2.409833333333334E+009;1.906584650278091E-001;3.272850438952446E-002;2.381878672167659E-003;-5.953317508101463E-003;
2.410000000000000E+009;1.894945055246353E-001;3.131662681698799E-002;2.123292302712798E-003;-5.974994041025639E-003;
2.410166666666667E+009;1.883237063884735E-001;2.988991327583790E-002;1.955803018063307E-003;-6.089942529797554E-003;
2.410333333333334E+009;1.870597600936890E-001;2.849564701318741E-002;1.670910860411823E-003;-6.404881365597248E-003;
2.410500000000000E+009;1.859529763460159E-001;2.666850015521050E-002;1.429586787708104E-003;-6.361144594848156E-003;
2.410666666666667E+009;1.845376640558243E-001;2.447365224361420E-002;1.145020127296448E-003;-6.610764656215906E-003;
2.410833333333334E+009;1.837385892868042E-001;2.252897806465626E-002;8.900674874894321E-004;-6.396178621798754E-003;
2.411000000000000E+009;1.825563162565231E-001;2.053447812795639E-002;5.841578240506351E-004;-6.648860406130552E-003;
2.411166666666667E+009;1.815605610609055E-001;1.824235171079636E-002;8.918360981624574E-005;-6.678729318082333E-003;
2.411333333333334E+009;1.806442141532898E-001;1.590925268828869E-002;-6.248841964406893E-005;-6.695355754345655E-003;
2.411500000000000E+009;1.798433065414429E-001;1.356142945587635E-002;-3.978917957283557E-004;-6.652853917330504E-003;
2.411666666666667E+009;1.794409006834030E-001;1.119303423911333E-002;-5.893850466236472E-004;-6.797638256102800E-003;
2.411833333333334E+009;1.787632703781128E-001;8.793582208454609E-003;-1.048983191139996E-003;-6.676532328128815E-003;
2.412000000000000E+009;1.783942282199860E-001;5.811025388538837E-003;-1.125919516198337E-003;-6.710591260343790E-003;
2.412166666666667E+009;1.781416386365891E-001;3.448708215728402E-003;-1.538858748972416E-003;-6.667783018201590E-003;
2.412333333333334E+009;1.781556904315949E-001;7.471265853382647E-004;-1.739626750349999E-003;-6.589502096176148E-003;
2.412500000000000E+009;1.783815324306488E-001;-1.761698164045811E-003;-2.099691191688180E-003;-6.420986726880074E-003;
2.412666666666667E+009;1.785788685083389E-001;-4.484979435801506E-003;-2.550640376284719E-003;-6.390046328306198E-003;
2.412833333333334E+009;1.790559142827988E-001;-7.368689402937889E-003;-2.767456695437431E-003;-6.345994770526886E-003;
2.413000000000000E+009;1.794221550226212E-001;-9.929570369422436E-003;-3.048609942197800E-003;-6.047190167009831E-003;
2.413166666666667E+009;1.802530586719513E-001;-1.229678653180599E-002;-3.267251653596759E-003;-5.970447324216366E-003;
2.413333333333334E+009;1.810455322265625E-001;-1.503221224993467E-002;-3.497710451483727E-003;-5.897622555494309E-003;
2.413500000000000E+009;1.818093061447144E-001;-1.749087311327457E-002;-3.677607281133533E-003;-5.462388973683119E-003;
2.413666666666667E+009;1.828035712242127E-001;-2.005760185420513E-002;-4.007869865745306E-003;-5.191747564822435E-003;
2.413833333333334E+009;1.839283108711243E-001;-2.234947495162487E-002;-4.251779988408089E-003;-4.936652723699808E-003;
2.414000000000000E+009;1.848571300506592E-001;-2.467523328959942E-002;-4.349553491920233E-003;-4.676753189414740E-003;
2.414166666666667E+009;1.862411797046661E-001;-2.673013694584370E-002;-4.544222261756659E-003;-4.332258366048336E-003;
2.414333333333334E+009;1.875039190053940E-001;-2.909285016357899E-002;-4.505360499024391E-003;-3.994411323219538E-003;
2.414500000000000E+009;1.887443214654923E-001;-3.078177757561207E-002;-4.755976144224405E-003;-3.818330354988575E-003;
2.414666666666667E+009;1.899929940700531E-001;-3.251064196228981E-002;-4.804037977010012E-003;-3.598191775381565E-003;
2.414833333333334E+009;1.913504004478455E-001;-3.437086567282677E-002;-4.610345233231783E-003;-3.301154123619199E-003;
2.415000000000000E+009;1.925751864910126E-001;-3.587727621197701E-002;-4.846229217946529E-003;-3.071647835895419E-003;
2.415166666666667E+009;1.940146982669830E-001;-3.725634887814522E-002;-4.828053526580334E-003;-2.740869997069240E-003;
2.415333333333334E+009;1.953711360692978E-001;-3.838800638914108E-002;-4.998061340302229E-003;-2.744585741311312E-003;
2.415500000000000E+009;1.967004388570786E-001;-3.933615982532501E-002;-4.966511391103268E-003;-2.354624215513468E-003;
2.415666666666667E+009;1.980580538511276E-001;-4.040781781077385E-002;-4.945517983287573E-003;-2.335071330890060E-003;
2.415833333333334E+009;1.991268247365952E-001;-4.116793349385262E-002;-5.062312353402376E-003;-2.179326722398400E-003;
2.416000000000000E+009;2.002648264169693E-001;-4.199552163481712E-002;-5.064800847321749E-003;-1.731723663397133E-003;
2.416166666666667E+009;2.013860195875168E-001;-4.268291592597961E-002;-5.062379874289036E-003;-1.500597107224166E-003;
2.416333333333334E+009;2.023154795169830E-001;-4.298492893576622E-002;-5.026000086218119E-003;-1.420481479726732E-003;
2.416500000000000E+009;2.032608985900879E-001;-4.329034686088562E-002;-4.887929186224937E-003;-9.604160441085696E-004;
2.416666666666667E+009;2.038134932518005E-001;-4.367429018020630E-002;-4.826185759156942E-003;-8.168310159817338E-004;
2.416833333333334E+009;2.042827159166336E-001;-4.357858747243881E-002;-4.530258476734161E-003;-5.941998679190874E-004;
2.417000000000000E+009;2.048830389976502E-001;-4.378818348050118E-002;-4.459789022803307E-003;-4.302534507587552E-004;
2.417166666666667E+009;2.048972845077515E-001;-4.364220052957535E-002;-4.262818489223719E-003;-4.193556669633836E-004;
2.417333333333334E+009;2.050430327653885E-001;-4.335623234510422E-002;-4.173729568719864E-003;-2.814079925883561E-004;
2.417500000000000E+009;2.050981223583221E-001;-4.317902028560638E-002;-4.033362027257681E-003;-3.887467319145799E-004;
2.417666666666667E+009;2.049687951803207E-001;-4.289743676781654E-002;-3.839478129521012E-003;-1.575202477397397E-004;
2.417833333333334E+009;2.048513740301132E-001;-4.255287721753120E-002;-3.704952541738749E-003;-2.975247916765511E-004;
2.418000000000000E+009;2.044062018394470E-001;-4.213243350386620E-002;-3.624205943197012E-003;-3.581083146855235E-004;
2.418166666666667E+009;2.039702236652374E-001;-4.186606779694557E-002;-3.608759259805083E-003;-3.799452388193458E-004;
2.418333333333334E+009;2.031871527433395E-001;-4.131170734763145E-002;-3.739334410056472E-003;-4.068616835866123E-004;
2.418500000000000E+009;2.024437934160233E-001;-4.125315696001053E-002;-3.777025965973735E-003;-3.670840524137020E-004;
2.418666666666667E+009;2.015222758054733E-001;-4.077815636992455E-002;-3.832762129604816E-003;-4.614906501956284E-004;
2.418833333333334E+009;2.004961222410202E-001;-4.071797057986260E-002;-3.835250856354833E-003;-4.231055791024119E-004;
2.419000000000000E+009;1.991969645023346E-001;-4.056907072663307E-002;-3.960315138101578E-003;-3.105057985521853E-004;
2.419166666666667E+009;1.980732679367065E-001;-4.062609374523163E-002;-4.021433647722006E-003;-1.193356074509211E-004;
2.419333333333334E+009;1.966983079910278E-001;-4.080412164330483E-002;-4.244036972522736E-003;-9.775107901077718E-005;
2.419500000000000E+009;1.953304857015610E-001;-4.090218245983124E-002;-4.164591431617737E-003;4.644039290724322E-005;
2.419666666666667E+009;1.935235559940338E-001;-4.137667268514633E-002;-4.204528406262398E-003;2.906382142100483E-004;
2.419833333333334E+009;1.918580681085587E-001;-4.171589761972427E-002;-4.330545663833618E-003;5.504479049704969E-004;
2.420000000000000E+009;1.902466863393784E-001;-4.244417697191238E-002;-4.389385227113962E-003;6.459253490902484E-004;
2.420166666666667E+009;1.884362101554871E-001;-4.296664521098137E-002;-4.241005517542362E-003;1.023507094942033E-003;
2.420333333333334E+009;1.867196410894394E-001;-4.399460926651955E-002;-4.149013198912144E-003;1.059959060512483E-003;
2.420500000000000E+009;1.847172528505325E-001;-4.505176097154617E-002;-4.047012422233820E-003;1.318593276664615E-003;
2.420666666666667E+009;1.829130053520203E-001;-4.592919349670410E-002;-3.994201775640249E-003;1.488511799834669E-003;
2.420833333333334E+009;1.809626072645187E-001;-4.735262691974640E-002;-3.980256151407957E-003;1.550300279632211E-003;
2.421000000000000E+009;1.793720275163651E-001;-4.887807369232178E-002;-3.644794924184680E-003;1.749951858073473E-003;
2.421166666666667E+009;1.775856614112854E-001;-5.032972246408463E-002;-3.488009562715888E-003;1.628414378501475E-003;
2.421333333333334E+009;1.755246073007584E-001;-5.197563394904137E-002;-3.267728956416249E-003;1.712185912765563E-003;
2.421500000000000E+009;1.739802211523056E-001;-5.386396124958992E-002;-3.214551834389567E-003;1.851213979534805E-003;
2.421666666666667E+009;1.725192368030548E-001;-5.554731935262680E-002;-3.124189330264926E-003;1.642329851165414E-003;
2.421833333333334E+009;1.710806787014008E-001;-5.749829486012459E-002;-2.995020244270563E-003;1.577349496074021E-003;
2.422000000000000E+009;1.693724393844605E-001;-5.938072875142098E-002;-2.996460767462850E-003;1.573611050844193E-003;
2.422166666666667E+009;1.682821661233902E-001;-6.145979464054108E-002;-2.875907812267542E-003;1.644153962843120E-003;
2.422333333333334E+009;1.669304221868515E-001;-6.361590325832367E-002;-2.900251653045416E-003;1.649405923672020E-003;
2.422500000000000E+009;1.658862531185150E-001;-6.580144912004471E-002;-2.889453200623393E-003;1.554618007503450E-003;
2.422666666666667E+009;1.648821383714676E-001;-6.802413612604141E-002;-2.860619919374585E-003;1.525111845694482E-003;
2.422833333333334E+009;1.641846895217896E-001;-7.028304040431976E-002;-2.905674511566758E-003;1.576424459926784E-003;
2.423000000000000E+009;1.634202152490616E-001;-7.262940704822540E-002;-2.809797180816531E-003;1.625024364329875E-003;
2.423166666666667E+009;1.630477756261826E-001;-7.472109049558640E-002;-3.005773061886430E-003;1.672929502092302E-003;
2.423333333333334E+009;1.623424440622330E-001;-7.695022970438004E-002;-2.957767806947231E-003;1.726918155327439E-003;
2.423500000000000E+009;1.621954143047333E-001;-7.901949435472488E-002;-3.073097439482808E-003;1.728617236949503E-003;
2.423666666666667E+009;1.620771884918213E-001;-8.118832111358643E-002;-2.999068703502417E-003;1.892595551908016E-003;
2.423833333333334E+009;1.618103086948395E-001;-8.323786407709122E-002;-3.057304769754410E-003;1.908037811517716E-003;
2.424000000000000E+009;1.620261669158936E-001;-8.539125323295593E-002;-3.143308917060494E-003;2.078289864584804E-003;
2.424166666666667E+009;1.619188338518143E-001;-8.733206987380981E-002;-3.190587740391493E-003;2.205449854955077E-003;
2.424333333333334E+009;1.620866060256958E-001;-8.925486356019974E-002;-3.173784818500280E-003;2.487767487764359E-003;
2.424500000000000E+009;1.624646633863449E-001;-9.128859639167786E-002;-3.050416009500623E-003;2.442234195768833E-003;
2.424666666666667E+009;1.628124415874481E-001;-9.290198981761932E-002;-3.086412325501442E-003;2.608600771054626E-003;
2.424833333333334E+009;1.634000837802887E-001;-9.466338902711868E-002;-2.865419955924153E-003;2.791800070554018E-003;
2.425000000000000E+009;1.638434827327728E-001;-9.605434536933899E-002;-2.780413022264838E-003;2.944266423583031E-003;
2.425166666666667E+009;1.644925922155380E-001;-9.748794138431549E-002;-2.721632597967982E-003;3.068652469664812E-003;
2.425333333333334E+009;1.647630035877228E-001;-9.872440248727799E-002;-2.394100883975625E-003;3.213571850210428E-003;
2.425500000000000E+009;1.656002849340439E-001;-9.995570033788681E-002;-2.415035851299763E-003;3.276089439168572E-003;
2.425666666666667E+009;1.662135869264603E-001;-1.008461639285088E-001;-2.111929003149271E-003;3.336489899083972E-003;
2.425833333333334E+009;1.668725162744522E-001;-1.018820628523827E-001;-2.076211618259549E-003;3.392278682440519E-003;
2.426000000000000E+009;1.674893051385880E-001;-1.026068404316902E-001;-2.073563868179917E-003;3.449719166383147E-003;
2.426166666666667E+009;1.681622117757797E-001;-1.032797992229462E-001;-1.805760432034731E-003;3.474470926448703E-003;
2.426333333333334E+009;1.685028374195099E-001;-1.039606332778931E-001;-1.680250628851354E-003;3.589570522308350E-003;
2.426500000000000E+009;1.693481504917145E-001;-1.043564155697823E-001;-1.557152252644301E-003;3.465060377493501E-003;
2.426666666666667E+009;1.698677241802216E-001;-1.047279387712479E-001;-1.448427326977253E-003;3.576845163479447E-003;
2.426833333333334E+009;1.704406589269638E-001;-1.050781235098839E-001;-1.259422278963029E-003;3.462334861978889E-003;
2.427000000000000E+009;1.707245111465454E-001;-1.052944883704186E-001;-1.011454616673291E-003;3.611276857554913E-003;
2.427166666666667E+009;1.712258458137512E-001;-1.054009646177292E-001;-1.287695369683206E-003;3.537445794790983E-003;
2.427333333333334E+009;1.713831871747971E-001;-1.057082340121269E-001;-1.045986544340849E-003;3.612344386056066E-003;
2.427500000000000E+009;1.715221107006073E-001;-1.057569682598114E-001;-1.015528454445303E-003;3.501732368022203E-003;
2.427666666666667E+009;1.714799553155899E-001;-1.057537272572517E-001;-8.440306992270052E-004;3.486236091703177E-003;
