# Version 1.00
#
freq[Hz];re:Trc1_S11;im:Trc1_S11;re:Trc2_S21;im:Trc2_S21;
2.400000000000000E+009;1.553298234939575E-001;1.116948127746582E-001;-4.898514598608017E-003;2.764503005892038E-004;
2.400166666666667E+009;1.549229323863983E-001;1.095720678567886E-001;-4.747105296701193E-003;6.686106207780540E-004;
2.400333333333334E+009;1.548649817705154E-001;1.072378605604172E-001;-4.816033411771059E-003;6.131106638349593E-004;
2.400500000000000E+009;1.545531004667282E-001;1.044946983456612E-001;-4.683986771851778E-003;1.042410265654326E-003;
2.400666666666667E+009;1.542813032865524E-001;1.020899191498756E-001;-4.696713760495186E-003;1.152304466813803E-003;
2.400833333333334E+009;1.539977341890335E-001;9.920867532491684E-002;-4.592114593833685E-003;1.298517920076847E-003;
2.401000000000000E+009;1.540217846632004E-001;9.635543078184128E-002;-4.401976242661476E-003;1.329379272647202E-003;
2.401166666666667E+009;1.537939310073853E-001;9.350759536027908E-002;-4.258899018168449E-003;1.419837004505098E-003;
2.401333333333334E+009;1.540956050157547E-001;9.053881466388702E-002;-4.156815353780985E-003;1.602626871317625E-003;
2.401500000000000E+009;1.542589217424393E-001;8.742782473564148E-002;-4.246481228619814E-003;1.671554869972169E-003;
2.401666666666667E+009;1.544588804244995E-001;8.461836725473404E-002;-4.062872845679522E-003;2.006705850362778E-003;
2.401833333333334E+009;1.548091471195221E-001;8.156942576169968E-002;-3.871594788506627E-003;2.050856826826930E-003;
2.402000000000000E+009;1.553419977426529E-001;7.857178151607513E-002;-4.055885598063469E-003;2.234254498034716E-003;
2.402166666666667E+009;1.560374796390533E-001;7.584009319543839E-002;-3.936272114515305E-003;2.093463903293014E-003;
2.402333333333334E+009;1.568944454193115E-001;7.292621582746506E-002;-3.825515741482377E-003;2.307231305167079E-003;
2.402500000000000E+009;1.580795645713806E-001;7.010680437088013E-002;-3.606959944590926E-003;2.404690021649003E-003;
2.402666666666667E+009;1.590072661638260E-001;6.760561466217041E-002;-3.651647130027413E-003;2.523954026401043E-003;
2.402833333333334E+009;1.601287722587585E-001;6.481339037418366E-002;-3.324572229757905E-003;2.674320479854941E-003;
2.403000000000000E+009;1.615629196166992E-001;6.226942315697670E-002;-3.408047370612621E-003;2.643669722601771E-003;
2.403166666666667E+009;1.632655560970306E-001;5.956891924142838E-002;-3.114675870165229E-003;2.649805741384625E-003;
2.403333333333334E+009;1.648186743259430E-001;5.718545243144035E-002;-3.051615087315440E-003;2.707345411181450E-003;
2.403500000000000E+009;1.664275676012039E-001;5.470167472958565E-002;-2.983315847814083E-003;2.688476117327809E-003;
2.403666666666667E+009;1.684108227491379E-001;5.275695398449898E-002;-2.862677443772554E-003;2.892029238864780E-003;
2.403833333333334E+009;1.700441390275955E-001;5.050024390220642E-002;-2.740489086136222E-003;2.734029665589333E-003;
2.404000000000000E+009;1.716656237840653E-001;4.858684912323952E-002;-2.780318725854158E-003;2.816529246047139E-003;
2.404166666666667E+009;1.737091392278671E-001;4.682379215955734E-002;-2.704513724893332E-003;2.747202059254050E-003;
2.404333333333334E+009;1.756030023097992E-001;4.512139782309532E-002;-2.769088605418801E-003;2.678922144696116E-003;
2.404500000000000E+009;1.770601570606232E-001;4.339172691106796E-002;-2.749128034338355E-003;2.894732169806957E-003;
2.404666666666667E+009;1.790633946657181E-001;4.225273057818413E-002;-2.680005505681038E-003;2.948070643469691E-003;
2.404833333333334E+009;1.808073222637177E-001;4.093856364488602E-002;-2.762021496891975E-003;3.072085324674845E-003;
2.405000000000000E+009;1.826414763927460E-001;4.006712138652802E-002;-2.627083333209157E-003;3.088207216933370E-003;
2.405166666666667E+009;1.842506825923920E-001;3.940243646502495E-002;-2.730703447014093E-003;3.345568431541324E-003;
2.405333333333334E+009;1.857861727476120E-001;3.871700540184975E-002;-2.675478812307119E-003;3.413301426917315E-003;
2.405500000000000E+009;1.874200403690338E-001;3.814481198787689E-002;-2.586173126474023E-003;3.592760534957051E-003;
2.405666666666667E+009;1.889845877885819E-001;3.779599815607071E-002;-2.379770623520017E-003;3.855020273476839E-003;
2.405833333333334E+009;1.905141025781632E-001;3.762272372841835E-002;-2.191922860220075E-003;3.826195374131203E-003;
2.406000000000000E+009;1.918417960405350E-001;3.747121989727020E-002;-2.018523402512074E-003;3.811211558058858E-003;
2.406166666666667E+009;1.930573582649231E-001;3.734138235449791E-002;-1.922616735100746E-003;3.878239542245865E-003;
2.406333333333334E+009;1.942059695720673E-001;3.757735714316368E-002;-1.690831268206239E-003;4.072605166584253E-003;
2.406500000000000E+009;1.952846348285675E-001;3.760617226362228E-002;-1.678153057582676E-003;4.031273070722818E-003;
2.406666666666667E+009;1.961853057146072E-001;3.786809369921684E-002;-1.576945418491960E-003;4.074168857187033E-003;
2.406833333333334E+009;1.969384253025055E-001;3.806461766362190E-002;-1.431060838513076E-003;4.052438773214817E-003;
2.407000000000000E+009;1.974983960390091E-001;3.839296102523804E-002;-1.317718415521085E-003;3.951910883188248E-003;
2.407166666666667E+009;1.979710459709168E-001;3.843494132161140E-002;-1.098195905797184E-003;4.114092793315649E-003;
2.407333333333334E+009;1.981628984212875E-001;3.883028030395508E-002;-1.071655773557723E-003;4.063657950609922E-003;
2.407500000000000E+009;1.983582675457001E-001;3.914566338062286E-002;-1.231153612025082E-003;3.959752153605223E-003;
2.407666666666667E+009;1.985003054141998E-001;3.952990844845772E-002;-1.132395351305604E-003;4.086526576429606E-003;
2.407833333333334E+009;1.980838179588318E-001;3.957881778478622E-002;-9.644679375924170E-004;4.227842204272747E-003;
2.408000000000000E+009;1.982034593820572E-001;3.973744437098503E-002;-8.262176415883005E-004;4.098164848983288E-003;
2.408166666666667E+009;1.976389288902283E-001;3.986186161637306E-002;-8.975442033261061E-004;4.304109141230583E-003;
2.408333333333334E+009;1.972944438457489E-001;3.957280516624451E-002;-7.754910038784146E-004;4.578475374728441E-003;
2.408500000000000E+009;1.968161165714264E-001;3.970231488347054E-002;-7.293822709470987E-004;4.537712316960096E-003;
2.408666666666667E+009;1.961417198181152E-001;3.944462910294533E-002;-6.040783482603729E-004;4.565179347991943E-003;
2.408833333333334E+009;1.953346282243729E-001;3.894019499421120E-002;-5.125708412379026E-004;4.698724485933781E-003;
2.409000000000000E+009;1.943171322345734E-001;3.841702267527580E-002;-2.643902844283730E-004;4.717069212347269E-003;
2.409166666666667E+009;1.932833045721054E-001;3.779453039169312E-002;-2.458314411342144E-004;4.852445796132088E-003;
2.409333333333334E+009;1.923970878124237E-001;3.709591925144196E-002;-6.811307684984058E-005;4.845192655920982E-003;
2.409500000000000E+009;1.909207552671433E-001;3.602256625890732E-002;1.675410749157891E-004;4.919625353068113E-003;
2.409666666666667E+009;1.899060904979706E-001;3.488093987107277E-002;8.060869731707498E-005;4.964796360582113E-003;
2.409833333333334E+009;1.887003481388092E-001;3.359495103359222E-002;4.968764260411263E-004;4.985929932445288E-003;
2.410000000000000E+009;1.875259280204773E-001;3.217305243015289E-002;6.427232292480767E-004;5.122910253703594E-003;
2.410166666666667E+009;1.862978488206863E-001;3.069385327398777E-002;8.406418492086232E-004;5.048903636634350E-003;
2.410333333333334E+009;1.850586235523224E-001;2.905935421586037E-002;1.024061581119895E-003;5.098251625895500E-003;
2.410500000000000E+009;1.839047968387604E-001;2.716811001300812E-002;1.314290799200535E-003;5.006062798202038E-003;
2.410666666666667E+009;1.826540976762772E-001;2.501326426863670E-002;1.506766187958419E-003;5.174423567950726E-003;
2.410833333333334E+009;1.820938736200333E-001;2.284746430814266E-002;1.614133361726999E-003;5.046577192842960E-003;
2.411000000000000E+009;1.808557659387589E-001;2.077210880815983E-002;1.856340211816132E-003;4.976287949830294E-003;
2.411166666666667E+009;1.799758970737457E-001;1.854264549911022E-002;2.078043995425105E-003;4.889514762908220E-003;
2.411333333333334E+009;1.792544722557068E-001;1.597506366670132E-002;2.299105050042272E-003;4.752283450216055E-003;
2.411500000000000E+009;1.786119192838669E-001;1.366887986660004E-002;2.467782003805041E-003;4.827345255762339E-003;
2.411666666666667E+009;1.783927083015442E-001;1.119947992265225E-002;2.757988637313247E-003;4.615126177668572E-003;
2.411833333333334E+009;1.776776313781738E-001;8.751225657761097E-003;2.790580037981272E-003;4.500630311667919E-003;
2.412000000000000E+009;1.776273697614670E-001;6.012889090925455E-003;3.038967028260231E-003;4.455465357750654E-003;
2.412166666666667E+009;1.775148808956146E-001;3.550640074536204E-003;3.084462834522128E-003;4.457585047930479E-003;
2.412333333333334E+009;1.776459217071533E-001;1.039340742863715E-003;3.510376904159784E-003;4.285083618015051E-003;
2.412500000000000E+009;1.778835505247116E-001;-1.688179443590343E-003;3.568691201508045E-003;4.103149753063917E-003;
2.412666666666667E+009;1.781904697418213E-001;-4.342457745224237E-003;3.816598094999790E-003;4.060040693730116E-003;
2.412833333333334E+009;1.787977367639542E-001;-7.135123014450073E-003;4.062659107148647E-003;4.059506580233574E-003;
2.413000000000000E+009;1.796031743288040E-001;-9.621184319257736E-003;4.220379982143641E-003;3.702031914144754E-003;
2.413166666666667E+009;1.802132874727249E-001;-1.211779378354549E-002;4.578775726258755E-003;3.612799802795053E-003;
2.413333333333334E+009;1.812103837728500E-001;-1.482094544917345E-002;4.668473731726408E-003;3.380562411621213E-003;
2.413500000000000E+009;1.819805949926376E-001;-1.729489117860794E-002;4.930843133479357E-003;3.088533179834485E-003;
2.413666666666667E+009;1.831776797771454E-001;-1.974605396389961E-002;5.052571184933186E-003;2.654824871569872E-003;
2.413833333333334E+009;1.844167560338974E-001;-2.197006158530712E-002;5.179886240512133E-003;2.504387870430946E-003;
2.414000000000000E+009;1.855061054229736E-001;-2.411101013422012E-002;5.125172901898623E-003;2.077311277389526E-003;
2.414166666666667E+009;1.869929581880570E-001;-2.636650577187538E-002;5.228171125054359E-003;1.861042925156653E-003;
2.414333333333334E+009;1.879725605249405E-001;-2.837305702269077E-002;5.206375382840633E-003;1.615065382793546E-003;
2.414500000000000E+009;1.895853877067566E-001;-3.009561076760292E-002;5.089674610644579E-003;1.286431215703487E-003;
2.414666666666667E+009;1.908730566501617E-001;-3.187266364693642E-002;5.043493118137121E-003;1.112705329433084E-003;
2.414833333333334E+009;1.923176795244217E-001;-3.342550620436668E-002;4.961630329489708E-003;7.413075654767454E-004;
2.415000000000000E+009;1.935310214757919E-001;-3.500822931528091E-002;4.725718405097723E-003;6.710353191010654E-004;
2.415166666666667E+009;1.950578540563583E-001;-3.624880313873291E-002;4.803880117833614E-003;4.506997647695243E-004;
2.415333333333334E+009;1.963349133729935E-001;-3.731623291969299E-002;4.690177273005247E-003;3.961135807912797E-004;
2.415500000000000E+009;1.977493017911911E-001;-3.822720795869827E-002;4.566558636724949E-003;-3.427355841267854E-005;
2.415666666666667E+009;1.990819722414017E-001;-3.927529603242874E-002;4.523871000856161E-003;-1.801120088202879E-004;
2.415833333333334E+009;2.001357227563858E-001;-3.983172029256821E-002;4.367209505289793E-003;-4.269032506272197E-004;
2.416000000000000E+009;2.012329846620560E-001;-4.052855074405670E-002;4.268731921911240E-003;-2.717313473112881E-004;
2.416166666666667E+009;2.023173123598099E-001;-4.129344224929810E-002;4.265803378075361E-003;-7.028846303001046E-004;
2.416333333333334E+009;2.030871808528900E-001;-4.145768657326698E-002;4.084154963493347E-003;-8.325036033056676E-004;
2.416500000000000E+009;2.040222883224487E-001;-4.180835932493210E-002;3.923804964870215E-003;-9.737882064655423E-004;
2.416666666666667E+009;2.045690268278122E-001;-4.218604043126106E-002;3.797296900302172E-003;-1.013213070109487E-003;
2.416833333333334E+009;2.049931138753891E-001;-4.208336398005486E-002;3.692786209285259E-003;-1.111034885980189E-003;
2.417000000000000E+009;2.054218053817749E-001;-4.216298088431358E-002;3.526336513459683E-003;-1.049512880854309E-003;
2.417166666666667E+009;2.053931802511215E-001;-4.204756766557694E-002;3.346611512824893E-003;-1.036014873534441E-003;
2.417333333333334E+009;2.054350376129150E-001;-4.182402417063713E-002;3.140246029943228E-003;-1.243055914528668E-003;
2.417500000000000E+009;2.053528279066086E-001;-4.167940840125084E-002;3.074529813602567E-003;-1.210989663377404E-003;
2.417666666666667E+009;2.050291001796722E-001;-4.138343781232834E-002;2.955463482066989E-003;-1.158708706498146E-003;
2.417833333333334E+009;2.048035860061646E-001;-4.095172509551048E-002;2.905163215473294E-003;-1.043569878675044E-003;
2.418000000000000E+009;2.043384015560150E-001;-4.052023589611054E-002;2.846533665433526E-003;-1.068744575604796E-003;
2.418166666666667E+009;2.037038058042526E-001;-4.028632119297981E-002;2.877800725400448E-003;-1.085391966626048E-003;
2.418333333333334E+009;2.028558850288391E-001;-3.995050117373467E-002;2.857802901417017E-003;-1.017934759147465E-003;
2.418500000000000E+009;2.019764631986618E-001;-3.969153016805649E-002;2.822164911776781E-003;-1.024211873300374E-003;
2.418666666666667E+009;2.011347413063049E-001;-3.941366448998451E-002;2.950005466118455E-003;-9.864853927865624E-004;
2.418833333333334E+009;2.000815868377686E-001;-3.938197344541550E-002;2.905858913436532E-003;-9.348826133646071E-004;
2.419000000000000E+009;1.986892372369766E-001;-3.942437842488289E-002;2.907064976170659E-003;-1.098039909265935E-003;
2.419166666666667E+009;1.973888725042343E-001;-3.932322189211845E-002;2.946711145341396E-003;-1.048134290613234E-003;
2.419333333333334E+009;1.959939152002335E-001;-3.969810158014298E-002;2.855420578271151E-003;-1.111989491619170E-003;
2.419500000000000E+009;1.944866776466370E-001;-3.994720056653023E-002;2.900778315961361E-003;-1.059395959600806E-003;
2.419666666666667E+009;1.928335875272751E-001;-4.047773778438568E-002;2.909261267632246E-003;-1.256253570318222E-003;
2.419833333333334E+009;1.911112815141678E-001;-4.098048061132431E-002;2.761998912319541E-003;-1.108014723286033E-003;
2.420000000000000E+009;1.894242167472839E-001;-4.160713404417038E-002;2.780730836093426E-003;-1.185106695629656E-003;
2.420166666666667E+009;1.877491325139999E-001;-4.239089787006378E-002;2.894093282520771E-003;-1.280097407288849E-003;
2.420333333333334E+009;1.860039234161377E-001;-4.353772103786469E-002;2.921079518273473E-003;-1.102261943742633E-003;
2.420500000000000E+009;1.841082274913788E-001;-4.470276460051537E-002;2.830985467880964E-003;-1.117200823500752E-003;
2.420666666666667E+009;1.822326183319092E-001;-4.572368040680885E-002;3.014252986758947E-003;-1.267894753254950E-003;
2.420833333333334E+009;1.804595887660980E-001;-4.708716645836830E-002;3.207923378795385E-003;-1.320218900218606E-003;
2.421000000000000E+009;1.787868738174439E-001;-4.855730757117271E-002;2.968106884509325E-003;-1.212667208164930E-003;
2.421166666666667E+009;1.771678626537323E-001;-5.023596808314323E-002;3.299146890640259E-003;-1.466983696445823E-003;
2.421333333333334E+009;1.752121895551682E-001;-5.168158188462257E-002;3.293040208518505E-003;-1.432576798833907E-003;
2.421500000000000E+009;1.736923158168793E-001;-5.366524681448937E-002;3.284958656877279E-003;-1.571423723362386E-003;
2.421666666666667E+009;1.722550690174103E-001;-5.556540191173554E-002;3.296761540696025E-003;-1.741657033562660E-003;
2.421833333333334E+009;1.709574759006500E-001;-5.735406279563904E-002;3.468929789960384E-003;-1.921290531754494E-003;
2.422000000000000E+009;1.695464402437210E-001;-5.932528898119927E-002;3.450978314504027E-003;-1.989774405956268E-003;
2.422166666666667E+009;1.684809327125549E-001;-6.162873283028603E-002;3.411570098251104E-003;-2.228192053735256E-003;
2.422333333333334E+009;1.672334969043732E-001;-6.377478688955307E-002;3.332680789753795E-003;-2.497905632480979E-003;
2.422500000000000E+009;1.662469804286957E-001;-6.588208675384522E-002;3.286958206444979E-003;-2.531049307435751E-003;
2.422666666666667E+009;1.655339449644089E-001;-6.807095557451248E-002;3.302426310256124E-003;-2.676188945770264E-003;
2.422833333333334E+009;1.649272441864014E-001;-7.026093453168869E-002;3.362363902851939E-003;-2.697692718356848E-003;
2.423000000000000E+009;1.641816496849060E-001;-7.253725081682205E-002;3.376611741259694E-003;-2.893036231398583E-003;
2.423166666666667E+009;1.637386828660965E-001;-7.482266426086426E-002;3.190350020304322E-003;-3.037730930373073E-003;
2.423333333333334E+009;1.634449958801270E-001;-7.687140256166458E-002;3.260017139837146E-003;-3.210601396858692E-003;
2.423500000000000E+009;1.633519530296326E-001;-7.890555262565613E-002;3.114099148660898E-003;-3.248936496675015E-003;
2.423666666666667E+009;1.632390171289444E-001;-8.127146959304810E-002;3.082086797803640E-003;-3.567855572327972E-003;
2.423833333333334E+009;1.631410717964172E-001;-8.307142555713654E-002;3.034385852515698E-003;-3.705386770889163E-003;
2.424000000000000E+009;1.633880585432053E-001;-8.524101972579956E-002;2.836412517353892E-003;-3.942140843719244E-003;
2.424166666666667E+009;1.634226441383362E-001;-8.714052289724350E-002;2.820896916091442E-003;-4.129272419959307E-003;
2.424333333333334E+009;1.638125330209732E-001;-8.886487036943436E-002;2.676337491720915E-003;-4.367634188383818E-003;
2.424500000000000E+009;1.642412394285202E-001;-9.080016613006592E-002;2.629097318276763E-003;-4.540208727121353E-003;
2.424666666666667E+009;1.646365225315094E-001;-9.257253259420395E-002;2.296887338161469E-003;-4.649967420846224E-003;
2.424833333333334E+009;1.653403937816620E-001;-9.401188790798187E-002;2.082765568047762E-003;-4.879983142018318E-003;
2.425000000000000E+009;1.657999157905579E-001;-9.544256329536438E-002;1.791589078493416E-003;-5.148020107299089E-003;
2.425166666666667E+009;1.663425564765930E-001;-9.680476784706116E-002;1.713380101136863E-003;-5.090422928333283E-003;
2.425333333333334E+009;1.666901856660843E-001;-9.794558584690094E-002;1.373750856146216E-003;-5.242545623332262E-003;
2.425500000000000E+009;1.675265878438950E-001;-9.920122474431992E-002;1.161489170044661E-003;-5.333580542355776E-003;
2.425666666666667E+009;1.680530160665512E-001;-9.997102618217468E-002;7.668380858376622E-004;-5.337494425475597E-003;
2.425833333333334E+009;1.685214936733246E-001;-1.009605899453163E-001;5.138870910741389E-004;-5.388863384723663E-003;
2.426000000000000E+009;1.692533940076828E-001;-1.016164869070053E-001;2.803877869155258E-004;-5.329935811460018E-003;
2.426166666666667E+009;1.698480099439621E-001;-1.022710427641869E-001;-6.932421092642471E-005;-5.382527131587267E-003;
2.426333333333334E+009;1.702303290367127E-001;-1.028128117322922E-001;-3.083045012317598E-004;-5.275543779134750E-003;
2.426500000000000E+009;1.708508878946304E-001;-1.031555756926537E-001;-4.676791722886264E-004;-5.252395290881395E-003;
2.426666666666667E+009;1.713338643312454E-001;-1.035545244812965E-001;-7.609925232827663E-004;-5.129641853272915E-003;
2.426833333333334E+009;1.719199120998383E-001;-1.040415018796921E-001;-1.025011413730681E-003;-5.114184226840735E-003;
2.427000000000000E+009;1.721384376287460E-001;-1.040617898106575E-001;-1.248644432052970E-003;-5.013601388782263E-003;
2.427166666666667E+009;1.723982542753220E-001;-1.041039451956749E-001;-1.304598874412477E-003;-4.776866175234318E-003;
2.427333333333334E+009;1.725531965494156E-001;-1.044066995382309E-001;-1.452851924113929E-003;-4.747892264276743E-003;
2.427500000000000E+009;1.725759208202362E-001;-1.043836548924446E-001;-1.668642740696669E-003;-4.707664251327515E-003;
2.427666666666667E+009;1.724278032779694E-001;-1.044530570507050E-001;-1.869504339993000E-003;-4.673745017498732E-003;
2.427833333333334E+009;1.723162531852722E-001;-1.045149713754654E-001;-1.904676901176572E-003;-4.455963149666786E-003;
