# Version 1.00
#
freq[Hz];re:Trc1_S11;im:Trc1_S11;re:Trc2_S21;im:Trc2_S21;
2.400000000000000E+009;1.558332145214081E-001;1.116391122341156E-001;-4.889108706265688E-003;3.046310448553413E-004;
2.400166666666667E+009;1.553876847028732E-001;1.093510016798973E-001;-4.976465832442045E-003;6.204988458193839E-004;
2.400333333333334E+009;1.551254838705063E-001;1.071281582117081E-001;-4.959169309586287E-003;7.462563808076084E-004;
2.400500000000000E+009;1.548320949077606E-001;1.043559089303017E-001;-4.806729033589363E-003;9.836982935667038E-004;
2.400666666666667E+009;1.544535011053085E-001;1.019303798675537E-001;-4.660117905586958E-003;1.049994956701994E-003;
2.400833333333334E+009;1.542550474405289E-001;9.893874824047089E-002;-4.575654398649931E-003;1.238125259988010E-003;
2.401000000000000E+009;1.542831659317017E-001;9.603163599967957E-002;-4.463350865989924E-003;1.409836113452911E-003;
2.401166666666667E+009;1.539383083581924E-001;9.331522136926651E-002;-4.669453017413616E-003;1.571670873090625E-003;
2.401333333333334E+009;1.542219221591950E-001;9.042228013277054E-002;-4.539135377854109E-003;1.639660797081888E-003;
2.401500000000000E+009;1.542561501264572E-001;8.731604367494583E-002;-4.344494547694922E-003;1.652765669859946E-003;
2.401666666666667E+009;1.544556170701981E-001;8.445950597524643E-002;-4.321771208196878E-003;1.835310133174062E-003;
2.401833333333334E+009;1.548977196216583E-001;8.122660964727402E-002;-4.191860090941191E-003;2.074816962704063E-003;
2.402000000000000E+009;1.554502844810486E-001;7.845180481672287E-002;-4.011738579720259E-003;2.086035441607237E-003;
2.402166666666667E+009;1.562274694442749E-001;7.553809136152268E-002;-4.102914594113827E-003;2.284135203808546E-003;
2.402333333333334E+009;1.569474339485169E-001;7.258991897106171E-002;-3.953875042498112E-003;2.467588521540165E-003;
2.402500000000000E+009;1.582523435354233E-001;6.985288858413696E-002;-3.915048670023680E-003;2.573885954916477E-003;
2.402666666666667E+009;1.591825336217880E-001;6.734168529510498E-002;-3.676681313663721E-003;2.615267876535654E-003;
2.402833333333334E+009;1.603372395038605E-001;6.440337747335434E-002;-3.574710339307785E-003;2.591591095551848E-003;
2.403000000000000E+009;1.618291139602661E-001;6.190570071339607E-002;-3.423139452934265E-003;2.624849323183298E-003;
2.403166666666667E+009;1.635053008794785E-001;5.939028039574623E-002;-3.281833836808801E-003;2.844152273610234E-003;
2.403333333333334E+009;1.649794131517410E-001;5.680914968252182E-002;-3.084272611886263E-003;2.933353418484330E-003;
2.403500000000000E+009;1.667298078536987E-001;5.461112409830093E-002;-2.973877824842930E-003;2.880332991480827E-003;
2.403666666666667E+009;1.684497445821762E-001;5.228246375918388E-002;-2.865082118660212E-003;2.853616373613477E-003;
2.403833333333334E+009;1.702306419610977E-001;5.018058046698570E-002;-2.823060145601630E-003;2.774769440293312E-003;
2.404000000000000E+009;1.718735247850418E-001;4.821453988552094E-002;-2.740687690675259E-003;2.767377998679876E-003;
2.404166666666667E+009;1.737543344497681E-001;4.637902975082398E-002;-2.655788324773312E-003;2.771174302324653E-003;
2.404333333333334E+009;1.755392551422119E-001;4.453573003411293E-002;-2.683884697034955E-003;2.746540820226073E-003;
2.404500000000000E+009;1.775443255901337E-001;4.300828650593758E-002;-2.717256546020508E-003;2.782613039016724E-003;
2.404666666666667E+009;1.792868673801422E-001;4.181060567498207E-002;-2.702292287722230E-003;2.937407232820988E-003;
2.404833333333334E+009;1.810527443885803E-001;4.049382731318474E-002;-2.861014334484935E-003;3.022428601980209E-003;
2.405000000000000E+009;1.825840324163437E-001;3.962379321455956E-002;-2.792199142277241E-003;3.154523670673370E-003;
2.405166666666667E+009;1.842964589595795E-001;3.883723169565201E-002;-2.775533823296428E-003;3.400256391614676E-003;
2.405333333333334E+009;1.860513985157013E-001;3.826237469911575E-002;-2.686641644686461E-003;3.571158275008202E-003;
2.405500000000000E+009;1.875827461481094E-001;3.781017661094666E-002;-2.514340216293931E-003;3.631279105320573E-003;
2.405666666666667E+009;1.891054511070252E-001;3.737175837159157E-002;-2.372174058109522E-003;3.715206403285265E-003;
2.405833333333334E+009;1.905987560749054E-001;3.699920326471329E-002;-2.069753361865878E-003;3.915040288120508E-003;
2.406000000000000E+009;1.917337626218796E-001;3.694793209433556E-002;-2.068348694592714E-003;4.129566717892885E-003;
2.406166666666667E+009;1.931852549314499E-001;3.682302683591843E-002;-1.964969560503960E-003;4.114126786589623E-003;
2.406333333333334E+009;1.942907869815826E-001;3.701126947999001E-002;-1.703074318356812E-003;4.018623847514391E-003;
2.406500000000000E+009;1.953203231096268E-001;3.707579895853996E-002;-1.729404088109732E-003;4.050847142934799E-003;
2.406666666666667E+009;1.961845904588699E-001;3.724085539579392E-002;-1.406545517966151E-003;4.128761589527130E-003;
2.406833333333334E+009;1.969235390424728E-001;3.751877695322037E-002;-1.464460743591189E-003;4.012715071439743E-003;
2.407000000000000E+009;1.974308192729950E-001;3.793282806873322E-002;-1.325202407315373E-003;4.139106255024672E-003;
2.407166666666667E+009;1.980712264776230E-001;3.797654807567596E-002;-1.219429890625179E-003;4.138110205531120E-003;
2.407333333333334E+009;1.982066482305527E-001;3.844041749835014E-002;-1.202683430165052E-003;4.130146466195583E-003;
2.407500000000000E+009;1.982662230730057E-001;3.877868503332138E-002;-1.155216246843338E-003;4.162716679275036E-003;
2.407666666666667E+009;1.983915418386459E-001;3.895544260740280E-002;-1.019596587866545E-003;4.224468953907490E-003;
2.407833333333334E+009;1.981344521045685E-001;3.920190781354904E-002;-1.073553459718823E-003;4.308767151087523E-003;
2.408000000000000E+009;1.980358511209488E-001;3.941857442259789E-002;-9.093721746467054E-004;4.422137513756752E-003;
2.408166666666667E+009;1.975843608379364E-001;3.944841027259827E-002;-7.964791730046272E-004;4.307826515287161E-003;
2.408333333333334E+009;1.971710473299027E-001;3.919510170817375E-002;-6.990180700086057E-004;4.429914988577366E-003;
2.408500000000000E+009;1.965596973896027E-001;3.924705460667610E-002;-6.306788418442011E-004;4.595972131937742E-003;
2.408666666666667E+009;1.958683133125305E-001;3.912080079317093E-002;-4.228618636261672E-004;4.633415956050158E-003;
2.408833333333334E+009;1.951516717672348E-001;3.869917988777161E-002;-3.323044511489570E-004;4.661241546273232E-003;
2.409000000000000E+009;1.940705180168152E-001;3.812426701188088E-002;-1.213224968523718E-004;4.661330487579107E-003;
2.409166666666667E+009;1.930869370698929E-001;3.742609173059464E-002;-2.054216201941017E-005;4.837031010538340E-003;
2.409333333333334E+009;1.921592056751251E-001;3.654667735099793E-002;1.730679359752685E-004;4.958307370543480E-003;
2.409500000000000E+009;1.908699572086334E-001;3.561602905392647E-002;2.497551904525608E-004;5.045347847044468E-003;
2.409666666666667E+009;1.896779090166092E-001;3.448918089270592E-002;3.211525618098676E-004;4.989587236195803E-003;
2.409833333333334E+009;1.884304732084274E-001;3.346827626228333E-002;5.918662063777447E-004;4.996597766876221E-003;
2.410000000000000E+009;1.872777491807938E-001;3.201651573181152E-002;9.346756851300597E-004;5.146993789821863E-003;
2.410166666666667E+009;1.859826892614365E-001;3.036516532301903E-002;1.088517135940492E-003;5.160522647202015E-003;
2.410333333333334E+009;1.848049610853195E-001;2.880226820707321E-002;1.222380553372204E-003;5.104469135403633E-003;
2.410500000000000E+009;1.836115866899490E-001;2.699151262640953E-002;1.317092683166266E-003;5.078172776848078E-003;
2.410666666666667E+009;1.825774610042572E-001;2.493454702198505E-002;1.568949082866311E-003;5.151901859790087E-003;
2.410833333333334E+009;1.816148608922958E-001;2.269874326884747E-002;1.828139531426132E-003;5.082448478788137E-003;
2.411000000000000E+009;1.807093471288681E-001;2.070030383765698E-002;2.002562629058957E-003;4.910363815724850E-003;
2.411166666666667E+009;1.796614676713944E-001;1.835163123905659E-002;2.254937076941133E-003;4.868337418884039E-003;
2.411333333333334E+009;1.789037138223648E-001;1.592956855893135E-002;2.351265167817473E-003;4.768676124513149E-003;
2.411500000000000E+009;1.782441139221191E-001;1.352547761052847E-002;2.520298818126321E-003;4.701221361756325E-003;
2.411666666666667E+009;1.777931153774262E-001;1.102438382804394E-002;2.792285988107324E-003;4.649875219911337E-003;
2.411833333333334E+009;1.774114221334457E-001;8.605785667896271E-003;2.944602398201823E-003;4.542214795947075E-003;
2.412000000000000E+009;1.772754490375519E-001;5.865766666829586E-003;3.140117274597287E-003;4.466373473405838E-003;
2.412166666666667E+009;1.769787669181824E-001;3.491365117952228E-003;3.248168854042888E-003;4.334094002842903E-003;
2.412333333333334E+009;1.770005375146866E-001;7.396086002700031E-004;3.518139710649848E-003;4.119016230106354E-003;
2.412500000000000E+009;1.772838532924652E-001;-1.902389572933316E-003;3.738782834261656E-003;4.138418938964605E-003;
2.412666666666667E+009;1.778314411640167E-001;-4.591692704707384E-003;3.816168289631605E-003;3.984066657721996E-003;
2.412833333333334E+009;1.783064007759094E-001;-7.265678606927395E-003;4.084668122231960E-003;3.824643092229962E-003;
2.413000000000000E+009;1.791539490222931E-001;-9.731447324156761E-003;4.364238586276770E-003;3.757463302463293E-003;
2.413166666666667E+009;1.795895248651505E-001;-1.212768442928791E-002;4.526846110820770E-003;3.417715663090348E-003;
2.413333333333334E+009;1.808533072471619E-001;-1.481623109430075E-002;4.577411338686943E-003;3.255812916904688E-003;
2.413500000000000E+009;1.816090494394302E-001;-1.715613715350628E-002;4.892408847808838E-003;3.005135338753462E-003;
2.413666666666667E+009;1.828019469976425E-001;-1.970604248344898E-002;4.839281551539898E-003;2.824473893269897E-003;
2.413833333333334E+009;1.838827282190323E-001;-2.194026112556458E-002;5.209060851484537E-003;2.361613791435957E-003;
2.414000000000000E+009;1.851503700017929E-001;-2.412313781678677E-002;5.196934565901756E-003;2.078874269500375E-003;
2.414166666666667E+009;1.865835636854172E-001;-2.631777897477150E-002;5.293459165841341E-003;1.795795629732311E-003;
2.414333333333334E+009;1.876185387372971E-001;-2.830399200320244E-002;5.205932073295116E-003;1.269391388632357E-003;
2.414500000000000E+009;1.890672445297241E-001;-3.006803989410400E-002;4.985876381397247E-003;1.151558011770248E-003;
2.414666666666667E+009;1.904837936162949E-001;-3.186679631471634E-002;5.049122963100672E-003;9.047281346283853E-004;
2.414833333333334E+009;1.918552070856094E-001;-3.327163681387901E-002;5.027754697948694E-003;7.423893548548222E-004;
2.415000000000000E+009;1.931994855403900E-001;-3.491482138633728E-002;4.829168319702148E-003;3.509849775582552E-004;
2.415166666666667E+009;1.947443336248398E-001;-3.616223111748695E-002;4.747921600937843E-003;2.744145458564162E-004;
2.415333333333334E+009;1.961051821708679E-001;-3.717252984642983E-002;4.665449727326632E-003;1.766665809554979E-004;
2.415500000000000E+009;1.973928362131119E-001;-3.814560547471046E-002;4.709545988589525E-003;-1.133472596848151E-005;
2.415666666666667E+009;1.987738907337189E-001;-3.914019837975502E-002;4.521567374467850E-003;-1.998390216613188E-004;
2.415833333333334E+009;1.998264044523239E-001;-3.974333405494690E-002;4.588231910020113E-003;-4.338432336226106E-004;
2.416000000000000E+009;2.008220106363297E-001;-4.043624177575111E-002;4.337732680141926E-003;-5.499205435626209E-004;
2.416166666666667E+009;2.019957304000855E-001;-4.105817526578903E-002;4.336936865001917E-003;-6.362245767377317E-004;
2.416333333333334E+009;2.028358876705170E-001;-4.144796356558800E-002;4.216474015265703E-003;-9.264252730645239E-004;
2.416500000000000E+009;2.036884278059006E-001;-4.165242984890938E-002;4.018482286483049E-003;-8.814932662062347E-004;
2.416666666666667E+009;2.041608989238739E-001;-4.197035357356072E-002;3.827970707789064E-003;-1.004849560558796E-003;
2.416833333333334E+009;2.047595530748367E-001;-4.187174141407013E-002;3.742716042324901E-003;-1.091233920305967E-003;
2.417000000000000E+009;2.050879299640656E-001;-4.207417368888855E-002;3.552523907274008E-003;-1.186640351079404E-003;
2.417166666666667E+009;2.051382511854172E-001;-4.189556837081909E-002;3.217827063053846E-003;-1.199107035063207E-003;
2.417333333333334E+009;2.050862610340118E-001;-4.159767925739288E-002;3.198258113116026E-003;-1.308559905737639E-003;
2.417500000000000E+009;2.051574587821960E-001;-4.154940322041512E-002;3.028062870725989E-003;-1.098062377423048E-003;
2.417666666666667E+009;2.048198729753494E-001;-4.116034507751465E-002;3.059837967157364E-003;-1.184774446301162E-003;
2.417833333333334E+009;2.046698033809662E-001;-4.076384007930756E-002;2.950465073809028E-003;-1.285310951061547E-003;
2.418000000000000E+009;2.041783481836319E-001;-4.037265479564667E-002;2.925053006038070E-003;-1.028686994686723E-003;
2.418166666666667E+009;2.035398781299591E-001;-4.013464972376823E-002;2.765544690191746E-003;-1.057021669112146E-003;
2.418333333333334E+009;2.027837783098221E-001;-3.969973325729370E-002;2.725162077695131E-003;-1.101472647860646E-003;
2.418500000000000E+009;2.018430233001709E-001;-3.960605338215828E-002;2.818966051563621E-003;-1.098856795579195E-003;
2.418666666666667E+009;2.010759562253952E-001;-3.914574906229973E-002;2.827496035024524E-003;-1.007688697427511E-003;
2.418833333333334E+009;1.998520642518997E-001;-3.919873386621475E-002;2.853621263056994E-003;-1.090129371732473E-003;
2.419000000000000E+009;1.986742317676544E-001;-3.904652595520020E-002;2.809928031638265E-003;-1.049806480295956E-003;
2.419166666666667E+009;1.974529922008514E-001;-3.929768875241280E-002;2.925940090790391E-003;-1.116011873818934E-003;
2.419333333333334E+009;1.959047615528107E-001;-3.943520039319992E-002;2.853489946573973E-003;-1.176079618744552E-003;
2.419500000000000E+009;1.944095939397812E-001;-3.960712254047394E-002;2.784101525321603E-003;-9.855650132521987E-004;
2.419666666666667E+009;1.928407996892929E-001;-4.033260792493820E-002;2.826550742611289E-003;-1.165742985904217E-003;
2.419833333333334E+009;1.911167651414871E-001;-4.084880650043488E-002;2.900684019550681E-003;-1.168043585494161E-003;
2.420000000000000E+009;1.893622428178787E-001;-4.141057655215263E-002;2.729963744059205E-003;-1.120553584769368E-003;
2.420166666666667E+009;1.877130717039108E-001;-4.236206784844399E-002;2.759646857157350E-003;-1.227675820700824E-003;
2.420333333333334E+009;1.859803497791290E-001;-4.315171390771866E-002;2.804719144478440E-003;-1.327255857177079E-003;
2.420500000000000E+009;1.841239631175995E-001;-4.444160312414169E-002;2.951831789687276E-003;-1.303928205743432E-003;
2.420666666666667E+009;1.822695732116699E-001;-4.545433074235916E-002;2.970749977976084E-003;-1.436206861399114E-003;
2.420833333333334E+009;1.804474890232086E-001;-4.694021493196487E-002;3.073913743719459E-003;-1.308074919506908E-003;
2.421000000000000E+009;1.786425560712814E-001;-4.836781695485115E-002;3.096265252679586E-003;-1.234635361470282E-003;
2.421166666666667E+009;1.770289987325668E-001;-4.994975030422211E-002;3.213438671082258E-003;-1.278658630326390E-003;
2.421333333333334E+009;1.751741468906403E-001;-5.154323950409889E-002;3.281530225649476E-003;-1.512350165285170E-003;
2.421500000000000E+009;1.736598461866379E-001;-5.350527539849281E-002;3.222519764676690E-003;-1.636568107642233E-003;
2.421666666666667E+009;1.721385270357132E-001;-5.528882145881653E-002;3.343020332977176E-003;-1.739732921123505E-003;
2.421833333333334E+009;1.709433943033218E-001;-5.730483308434486E-002;3.342098556458950E-003;-1.827230211347342E-003;
2.422000000000000E+009;1.695004403591156E-001;-5.923790112137795E-002;3.387398552149534E-003;-2.056219615042210E-003;
2.422166666666667E+009;1.684863865375519E-001;-6.144652888178825E-002;3.327453508973122E-003;-2.163376193493605E-003;
2.422333333333334E+009;1.674338579177856E-001;-6.366050988435745E-002;3.339497372508049E-003;-2.323392080143094E-003;
2.422500000000000E+009;1.663928180932999E-001;-6.570554524660111E-002;3.392251208424568E-003;-2.465332858264446E-003;
2.422666666666667E+009;1.655346751213074E-001;-6.794050335884094E-002;3.228456480428577E-003;-2.661860780790448E-003;
2.422833333333334E+009;1.650069952011108E-001;-7.022795081138611E-002;3.234536619856954E-003;-2.785876626148820E-003;
2.423000000000000E+009;1.640843898057938E-001;-7.237644493579865E-002;3.115461906418204E-003;-2.859633648768067E-003;
2.423166666666667E+009;1.638213396072388E-001;-7.469593733549118E-002;3.100787755101919E-003;-3.117478918284178E-003;
2.423333333333334E+009;1.634916812181473E-001;-7.687313854694367E-002;3.132264362648130E-003;-3.161197993904352E-003;
2.423500000000000E+009;1.634271293878555E-001;-7.884703576564789E-002;3.069472266361117E-003;-3.449217649176717E-003;
2.423666666666667E+009;1.633367687463760E-001;-8.108387887477875E-002;2.963586011901498E-003;-3.563800593838096E-003;
2.423833333333334E+009;1.631616353988648E-001;-8.305005729198456E-002;2.827116521075368E-003;-3.709012875333428E-003;
2.424000000000000E+009;1.634309142827988E-001;-8.523750305175781E-002;2.814915962517262E-003;-4.061707761138678E-003;
2.424166666666667E+009;1.635285317897797E-001;-8.702734112739563E-002;2.648396417498589E-003;-4.136210307478905E-003;
2.424333333333334E+009;1.638327538967133E-001;-8.872584253549576E-002;2.614100929349661E-003;-4.357860889285803E-003;
2.424500000000000E+009;1.643042862415314E-001;-9.077186137437820E-002;2.358416793867946E-003;-4.491492640227079E-003;
2.424666666666667E+009;1.646683365106583E-001;-9.251757711172104E-002;2.164618344977498E-003;-4.787892568856478E-003;
2.424833333333334E+009;1.652940809726715E-001;-9.397733211517334E-002;2.016652841120958E-003;-4.968201741576195E-003;
2.425000000000000E+009;1.658589988946915E-001;-9.540665894746780E-002;1.794309355318546E-003;-5.031773820519447E-003;
2.425166666666667E+009;1.662115305662155E-001;-9.674492478370667E-002;1.535387476906180E-003;-5.164145957678556E-003;
2.425333333333334E+009;1.665799021720886E-001;-9.791254997253418E-002;1.253894995898008E-003;-5.375005770474672E-003;
2.425500000000000E+009;1.674511730670929E-001;-9.905800968408585E-002;9.935114067047834E-004;-5.495951045304537E-003;
2.425666666666667E+009;1.680464893579483E-001;-9.994003921747208E-002;7.424491923302412E-004;-5.488045979291201E-003;
2.425833333333334E+009;1.684762686491013E-001;-1.009376943111420E-001;3.077269648201764E-004;-5.445951595902443E-003;
2.426000000000000E+009;1.691089719533920E-001;-1.015503183007240E-001;1.708706695353612E-004;-5.436308216303587E-003;
2.426166666666667E+009;1.698157042264938E-001;-1.021210327744484E-001;-1.018556940834969E-004;-5.316371563822031E-003;
2.426333333333334E+009;1.701859086751938E-001;-1.027117595076561E-001;-3.534269053488970E-004;-5.327919032424688E-003;
2.426500000000000E+009;1.707359552383423E-001;-1.030876263976097E-001;-6.589099066331983E-004;-5.160739645361900E-003;
2.426666666666667E+009;1.712409406900406E-001;-1.033980473876000E-001;-7.830244139768183E-004;-5.206998903304339E-003;
2.426833333333334E+009;1.718015223741531E-001;-1.037074625492096E-001;-9.931345703080297E-004;-5.042823497205973E-003;
2.427000000000000E+009;1.720024496316910E-001;-1.038712710142136E-001;-1.208647270686925E-003;-5.043290089815855E-003;
2.427166666666667E+009;1.722778528928757E-001;-1.039872393012047E-001;-1.395841478370130E-003;-4.917768295854330E-003;
2.427333333333334E+009;1.724638491868973E-001;-1.042839959263802E-001;-1.589356572367251E-003;-4.675162490457296E-003;
2.427500000000000E+009;1.724654585123062E-001;-1.043214723467827E-001;-1.636347034946084E-003;-4.648749250918627E-003;
2.427666666666667E+009;1.724700927734375E-001;-1.042347848415375E-001;-2.021203516051173E-003;-4.727442748844624E-003;
2.427833333333334E+009;1.720617413520813E-001;-1.042266488075256E-001;-1.962504116818309E-003;-4.322123248130083E-003;
