# Version 1.00
#
freq[Hz];re:Trc1_S11;im:Trc1_S11;re:Trc2_S21;im:Trc2_S21;
2.400000000000000E+009;1.561697125434876E-001;6.185602024197578E-002;-6.052351091057062E-003;-1.132019588112598E-005;
2.400166666666667E+009;1.559681147336960E-001;6.005930528044701E-002;-5.858696997165680E-003;1.883384684333578E-004;
2.400333333333334E+009;1.559408754110336E-001;5.803965032100678E-002;-5.908071063458920E-003;1.331682142335922E-004;
2.400500000000000E+009;1.561006605625153E-001;5.600654333829880E-002;-5.908242426812649E-003;3.991156117990613E-004;
2.400666666666667E+009;1.560256779193878E-001;5.386163666844368E-002;-5.870410241186619E-003;6.599898333661258E-004;
2.400833333333334E+009;1.563265323638916E-001;5.191836506128311E-002;-5.846923682838678E-003;7.321121520362794E-004;
2.401000000000000E+009;1.565647572278976E-001;4.980091378092766E-002;-5.857449490576983E-003;9.527396177873015E-004;
2.401166666666667E+009;1.568447798490524E-001;4.768338799476624E-002;-5.708383861929178E-003;1.080278540030122E-003;
2.401333333333334E+009;1.570151150226593E-001;4.539482668042183E-002;-5.699191242456436E-003;1.292821601964533E-003;
2.401500000000000E+009;1.576564460992813E-001;4.331841692328453E-002;-5.643184762448072E-003;1.480185077525675E-003;
2.401666666666667E+009;1.580300629138947E-001;4.129471257328987E-002;-5.600961390882731E-003;1.670778845436871E-003;
2.401833333333334E+009;1.584774255752564E-001;3.899772092700005E-002;-5.439078900963068E-003;1.761751947924495E-003;
2.402000000000000E+009;1.590186506509781E-001;3.710855916142464E-002;-5.349599756300449E-003;1.863548764958978E-003;
2.402166666666667E+009;1.598843783140183E-001;3.515047580003738E-002;-5.264882929623127E-003;2.201000694185495E-003;
2.402333333333334E+009;1.604946702718735E-001;3.328937292098999E-002;-5.406113807111979E-003;2.319405553862453E-003;
2.402500000000000E+009;1.613781154155731E-001;3.160635381937027E-002;-5.276852753013372E-003;2.335146069526672E-003;
2.402666666666667E+009;1.622352153062820E-001;2.983812429010868E-002;-4.937098361551762E-003;2.514463150873780E-003;
2.402833333333334E+009;1.631117761135101E-001;2.808096632361412E-002;-4.780282266438007E-003;2.619778737425804E-003;
2.403000000000000E+009;1.640667170286179E-001;2.658130228519440E-002;-4.642666783183813E-003;2.719762036576867E-003;
2.403166666666667E+009;1.650884598493576E-001;2.511177957057953E-002;-4.666844382882118E-003;2.850439632311463E-003;
2.403333333333334E+009;1.663380414247513E-001;2.389651350677013E-002;-4.584879614412785E-003;2.994720824062824E-003;
2.403500000000000E+009;1.670551598072052E-001;2.238909155130386E-002;-4.443835932761431E-003;3.068631049245596E-003;
2.403666666666667E+009;1.681968122720718E-001;2.115920558571816E-002;-4.362498875707388E-003;3.323973855003715E-003;
2.403833333333334E+009;1.693944036960602E-001;2.013045735657215E-002;-4.255001433193684E-003;3.325487254187465E-003;
2.404000000000000E+009;1.704680621623993E-001;1.894878409802914E-002;-4.318296909332275E-003;3.493797266855836E-003;
2.404166666666667E+009;1.714494228363037E-001;1.805454306304455E-002;-4.103714600205421E-003;3.532983362674713E-003;
2.404333333333334E+009;1.724048405885696E-001;1.719384081661701E-002;-3.983272239565849E-003;3.661762224510312E-003;
2.404500000000000E+009;1.733940690755844E-001;1.638997346162796E-002;-3.776819678023458E-003;3.769587492570281E-003;
2.404666666666667E+009;1.742952018976212E-001;1.566008664667606E-002;-3.706562099978328E-003;3.937833476811647E-003;
2.404833333333334E+009;1.752549111843109E-001;1.507907733321190E-002;-3.614008426666260E-003;3.904999000951648E-003;
2.405000000000000E+009;1.761950552463532E-001;1.450684573501349E-002;-3.217638470232487E-003;4.066282883286476E-003;
2.405166666666667E+009;1.771358251571655E-001;1.397926732897759E-002;-3.305793507024646E-003;4.180557094514370E-003;
2.405333333333334E+009;1.778250038623810E-001;1.350246556103230E-002;-2.951907459646463E-003;4.114764276891947E-003;
2.405500000000000E+009;1.783546805381775E-001;1.316955406218767E-002;-2.712760353460908E-003;4.409300163388252E-003;
2.405666666666667E+009;1.791272461414337E-001;1.299017388373613E-002;-2.658368786796928E-003;4.281001631170511E-003;
2.405833333333334E+009;1.795018315315247E-001;1.268054917454720E-002;-2.562485169619322E-003;4.490793682634831E-003;
2.406000000000000E+009;1.799575984477997E-001;1.253055687993765E-002;-2.352915238589048E-003;4.545932635664940E-003;
2.406166666666667E+009;1.802878677845001E-001;1.231572497636080E-002;-2.097758464515209E-003;4.358682315796614E-003;
2.406333333333334E+009;1.807835847139359E-001;1.222739741206169E-002;-1.976755680516362E-003;4.451718181371689E-003;
2.406500000000000E+009;1.809051781892777E-001;1.174574624747038E-002;-1.837919466197491E-003;4.363533575087786E-003;
2.406666666666667E+009;1.808177232742310E-001;1.157717593014240E-002;-1.638106768950820E-003;4.489394836127758E-003;
2.406833333333334E+009;1.810590326786041E-001;1.132835168391466E-002;-1.539073651656508E-003;4.310952033847570E-003;
2.407000000000000E+009;1.809692978858948E-001;1.112307235598564E-002;-1.386723597534001E-003;4.322754219174385E-003;
2.407166666666667E+009;1.809978485107422E-001;1.081324834376574E-002;-1.089595258235931E-003;4.365665372461081E-003;
2.407333333333334E+009;1.807255595922470E-001;1.020094193518162E-002;-1.143598114140332E-003;4.347371403127909E-003;
2.407500000000000E+009;1.804530620574951E-001;1.000793650746346E-002;-8.554844534955919E-004;4.178604111075401E-003;
2.407666666666667E+009;1.800248324871063E-001;9.585441090166569E-003;-8.810541476123035E-004;4.174659959971905E-003;
2.407833333333334E+009;1.793906539678574E-001;8.908680640161037E-003;-7.458184263668954E-004;4.369877278804779E-003;
2.408000000000000E+009;1.788742095232010E-001;8.288973942399025E-003;-5.699791945517063E-004;4.075747448951006E-003;
2.408166666666667E+009;1.783192008733749E-001;7.687373552471399E-003;-6.252041785046458E-004;4.146250896155834E-003;
2.408333333333334E+009;1.779745072126389E-001;6.810709834098816E-003;-3.916072600986809E-004;3.883530618622899E-003;
2.408500000000000E+009;1.771372109651566E-001;5.908269435167313E-003;-3.839185228571296E-004;4.045769572257996E-003;
2.408666666666667E+009;1.763960272073746E-001;4.907902330160141E-003;-2.935857046395540E-004;4.047184716910124E-003;
2.408833333333334E+009;1.756417900323868E-001;3.788525471463800E-003;-2.079329569824040E-004;3.840618766844273E-003;
2.409000000000000E+009;1.747649908065796E-001;2.702849451452494E-003;-1.546707644592971E-004;4.004265647381544E-003;
2.409166666666667E+009;1.741157621145248E-001;1.460567931644619E-003;1.970714038179722E-005;3.882889170199633E-003;
2.409333333333334E+009;1.733721494674683E-001;6.657247286057100E-005;1.296407481277129E-005;3.783298190683126E-003;
2.409500000000000E+009;1.726416498422623E-001;-1.470305025577545E-003;-9.562089690007269E-005;3.789171576499939E-003;
2.409666666666667E+009;1.718911826610565E-001;-2.962529659271240E-003;1.308038044953719E-004;3.847134765237570E-003;
2.409833333333334E+009;1.710499823093414E-001;-4.430646542459726E-003;1.729400973999873E-004;3.679182147607207E-003;
2.410000000000000E+009;1.705888509750366E-001;-6.135177798569202E-003;3.360402188263834E-004;3.703410038724542E-003;
2.410166666666667E+009;1.698359549045563E-001;-7.933571003377438E-003;3.193897719029337E-004;3.690757788717747E-003;
2.410333333333334E+009;1.692171692848206E-001;-9.633599780499935E-003;2.216930297436193E-004;3.502679988741875E-003;
2.410500000000000E+009;1.687107682228088E-001;-1.152085326611996E-002;3.821052087005228E-004;3.549168817698956E-003;
2.410666666666667E+009;1.682567149400711E-001;-1.346687506884337E-002;3.352468484081328E-004;3.492114134132862E-003;
2.410833333333334E+009;1.680435985326767E-001;-1.545218657702208E-002;2.569963107816875E-004;3.554103896021843E-003;
2.411000000000000E+009;1.676003187894821E-001;-1.747144572436810E-002;3.726375871337950E-004;3.504847409203649E-003;
2.411166666666667E+009;1.673341393470764E-001;-1.952577568590641E-002;4.419991455506533E-004;3.353055333718658E-003;
2.411333333333334E+009;1.670665740966797E-001;-2.134438976645470E-002;4.144966078456491E-004;3.319622250273824E-003;
2.411500000000000E+009;1.670590043067932E-001;-2.365058287978172E-002;6.460599252022803E-004;3.376615466549993E-003;
2.411666666666667E+009;1.671024709939957E-001;-2.572301588952541E-002;6.336812512017787E-004;3.327737096697092E-003;
2.411833333333334E+009;1.671310961246491E-001;-2.767685241997242E-002;5.912666092626751E-004;3.364633535966277E-003;
2.412000000000000E+009;1.673418134450913E-001;-2.986677363514900E-002;7.764106267131865E-004;3.363596508279443E-003;
2.412166666666667E+009;1.675214618444443E-001;-3.166659921407700E-002;7.327272323891521E-004;3.173657460138202E-003;
2.412333333333334E+009;1.680277436971664E-001;-3.369116410613060E-002;8.792209555394948E-004;3.288481850177050E-003;
2.412500000000000E+009;1.683379858732224E-001;-3.553149476647377E-002;9.601336787454784E-004;3.295178757980466E-003;
2.412666666666667E+009;1.687477529048920E-001;-3.755496814846993E-002;1.185203553177416E-003;3.407657146453857E-003;
2.412833333333334E+009;1.692884117364883E-001;-3.942194208502770E-002;8.794529130682349E-004;3.306033555418253E-003;
2.413000000000000E+009;1.697909384965897E-001;-4.121487215161324E-002;9.038525749929249E-004;3.283557947725058E-003;
2.413166666666667E+009;1.703294366598129E-001;-4.285279661417007E-002;1.051490660756826E-003;3.166025970131159E-003;
2.413333333333334E+009;1.707629710435867E-001;-4.453770071268082E-002;1.260980148799717E-003;3.411694895476103E-003;
2.413500000000000E+009;1.715142577886581E-001;-4.611581191420555E-002;1.245984109118581E-003;3.194105811417103E-003;
2.413666666666667E+009;1.722829341888428E-001;-4.760252311825752E-002;1.479445956647396E-003;3.336445428431034E-003;
2.413833333333334E+009;1.728145778179169E-001;-4.904006421566010E-002;1.378847518935800E-003;3.268710803240538E-003;
2.414000000000000E+009;1.734367609024048E-001;-5.035726726055145E-002;1.549695851281285E-003;3.259499557316303E-003;
2.414166666666667E+009;1.740653216838837E-001;-5.162707716226578E-002;1.538595068268478E-003;3.304813988506794E-003;
2.414333333333334E+009;1.748493462800980E-001;-5.281526967883110E-002;1.564075122587383E-003;3.195720026269555E-003;
2.414500000000000E+009;1.755074560642242E-001;-5.375144258141518E-002;1.851378357969225E-003;3.205097047612071E-003;
2.414666666666667E+009;1.760482043027878E-001;-5.453819781541824E-002;1.892623142339289E-003;3.200825070962310E-003;
2.414833333333334E+009;1.764873564243317E-001;-5.536696687340736E-002;1.900071976706386E-003;3.153917612507939E-003;
2.415000000000000E+009;1.770107150077820E-001;-5.615513771772385E-002;2.035953802987933E-003;3.254739101976156E-003;
2.415166666666667E+009;1.774703711271286E-001;-5.686724558472633E-002;2.090782159939408E-003;3.109195968136191E-003;
2.415333333333334E+009;1.779390126466751E-001;-5.748479813337326E-002;2.291253767907620E-003;3.204238601028919E-003;
2.415500000000000E+009;1.781571209430695E-001;-5.782422423362732E-002;2.304873429238796E-003;3.035095985978842E-003;
2.415666666666667E+009;1.784381419420242E-001;-5.823718756437302E-002;2.323322463780642E-003;3.064416348934174E-003;
2.415833333333334E+009;1.787196248769760E-001;-5.859135463833809E-002;2.647722605615854E-003;2.883269218727946E-003;
2.416000000000000E+009;1.785239279270172E-001;-5.885108932852745E-002;2.484864555299282E-003;2.809798344969750E-003;
2.416166666666667E+009;1.788833886384964E-001;-5.922969058156014E-002;2.847162773832679E-003;2.832402940839529E-003;
2.416333333333334E+009;1.786397993564606E-001;-5.929911136627197E-002;2.859650412574410E-003;2.800999442115426E-003;
2.416500000000000E+009;1.786038577556610E-001;-5.946086719632149E-002;2.994933864101768E-003;2.722040750086308E-003;
2.416666666666667E+009;1.782285720109940E-001;-5.954442918300629E-002;3.134124213829637E-003;2.596242353320122E-003;
2.416833333333334E+009;1.778422594070435E-001;-5.971252545714378E-002;3.088338999077678E-003;2.470492850989103E-003;
2.417000000000000E+009;1.773150712251663E-001;-5.980527028441429E-002;3.315533511340618E-003;2.366777276620269E-003;
2.417166666666667E+009;1.767494678497315E-001;-5.981836840510368E-002;3.260845784097910E-003;2.357069402933121E-003;
2.417333333333334E+009;1.760832965373993E-001;-5.997291207313538E-002;3.268327564001083E-003;2.128518885001540E-003;
2.417500000000000E+009;1.753771901130676E-001;-6.028569489717484E-002;3.356382949277759E-003;1.992632402107120E-003;
2.417666666666667E+009;1.746096760034561E-001;-6.031436473131180E-002;3.536564996466041E-003;1.899810275062919E-003;
2.417833333333334E+009;1.735332310199738E-001;-6.052648276090622E-002;3.502669278532267E-003;1.882555778138340E-003;
2.418000000000000E+009;1.724734008312225E-001;-6.081909686326981E-002;3.588805906474590E-003;1.700475928373635E-003;
2.418166666666667E+009;1.714276969432831E-001;-6.113689020276070E-002;3.635087283328176E-003;1.477982732467353E-003;
2.418333333333334E+009;1.705927699804306E-001;-6.151920184493065E-002;3.659344976767898E-003;1.596093061380088E-003;
2.418500000000000E+009;1.692996770143509E-001;-6.197220087051392E-002;3.533583367243409E-003;1.409581629559398E-003;
2.418666666666667E+009;1.681909114122391E-001;-6.251529604196549E-002;3.594515379518271E-003;1.185832545161247E-003;
2.418833333333334E+009;1.666243523359299E-001;-6.301591545343399E-002;3.666914533823729E-003;1.143853995017707E-003;
2.419000000000000E+009;1.653017699718475E-001;-6.365967541933060E-002;3.664850024506450E-003;1.095078187063336E-003;
2.419166666666667E+009;1.640148311853409E-001;-6.438690423965454E-002;3.758967621251941E-003;9.834498632699251E-004;
2.419333333333334E+009;1.626826822757721E-001;-6.502382457256317E-002;3.765564411878586E-003;8.626448689028621E-004;
2.419500000000000E+009;1.615858525037766E-001;-6.625791639089584E-002;3.743405919522047E-003;6.989914108999074E-004;
2.419666666666667E+009;1.603901237249374E-001;-6.714060902595520E-002;3.663666779175401E-003;6.315695936791599E-004;
2.419833333333334E+009;1.590248644351959E-001;-6.792657077312470E-002;3.658908884972334E-003;3.689533914439380E-004;
2.420000000000000E+009;1.579565405845642E-001;-6.926943361759186E-002;3.669438418000937E-003;5.423963884823024E-004;
2.420166666666667E+009;1.567294448614121E-001;-7.050599902868271E-002;3.757024183869362E-003;1.675429666647688E-004;
2.420333333333334E+009;1.557667106389999E-001;-7.186006754636765E-002;3.728379029780626E-003;2.615380799397826E-004;
2.420500000000000E+009;1.546552181243897E-001;-7.301006466150284E-002;3.741864347830415E-003;1.496822806075215E-004;
2.420666666666667E+009;1.537381708621979E-001;-7.442358881235123E-002;3.519793739542365E-003;-2.898496677516960E-005;
2.420833333333334E+009;1.528290063142777E-001;-7.606695592403412E-002;3.588075283914805E-003;-5.509259426617064E-005;
2.421000000000000E+009;1.519783735275269E-001;-7.766822725534439E-002;3.592840163037181E-003;-2.244307252112776E-004;
2.421166666666667E+009;1.512894481420517E-001;-7.919007539749146E-002;3.482989734038711E-003;-2.207142970291898E-004;
2.421333333333334E+009;1.507326066493988E-001;-8.097675442695618E-002;3.563109086826444E-003;-3.101062029600143E-004;
2.421500000000000E+009;1.500237584114075E-001;-8.253326267004013E-002;3.457241691648960E-003;-4.438924079295248E-004;
2.421666666666667E+009;1.496520489454269E-001;-8.451876044273377E-002;3.466040594503284E-003;-5.513471551239491E-004;
2.421833333333334E+009;1.493149101734161E-001;-8.615317195653915E-002;3.495135577395558E-003;-4.948044079355896E-004;
2.422000000000000E+009;1.490353196859360E-001;-8.800976723432541E-002;3.367799567058682E-003;-7.453646394424141E-004;
2.422166666666667E+009;1.489309668540955E-001;-9.002119302749634E-002;3.206124063581228E-003;-7.130609010346234E-004;
2.422333333333334E+009;1.487831026315689E-001;-9.155215322971344E-002;3.260638099163771E-003;-6.794994114898145E-004;
2.422500000000000E+009;1.486492902040482E-001;-9.328590333461762E-002;3.140159416943789E-003;-8.233044645749033E-004;
2.422666666666667E+009;1.487740129232407E-001;-9.516280144453049E-002;3.256125841289759E-003;-9.966315701603890E-004;
2.422833333333334E+009;1.489068567752838E-001;-9.700904041528702E-002;3.137579886242747E-003;-1.175225828774273E-003;
2.423000000000000E+009;1.492070555686951E-001;-9.867321699857712E-002;2.999047981575131E-003;-1.032467000186443E-003;
2.423166666666667E+009;1.495581567287445E-001;-1.002718880772591E-001;2.850753022357822E-003;-1.128475414589047E-003;
2.423333333333334E+009;1.499233841896057E-001;-1.018241569399834E-001;2.962816273793578E-003;-1.136785023845732E-003;
2.423500000000000E+009;1.503194719552994E-001;-1.033775955438614E-001;2.929679350927472E-003;-1.242419821210206E-003;
2.423666666666667E+009;1.505616456270218E-001;-1.048709899187088E-001;2.776044886559248E-003;-1.275881426408887E-003;
2.423833333333334E+009;1.513924300670624E-001;-1.062920987606049E-001;2.774417633190751E-003;-1.239133300259709E-003;
2.424000000000000E+009;1.517404317855835E-001;-1.075418889522553E-001;2.650215290486813E-003;-1.366895274259150E-003;
2.424166666666667E+009;1.522578448057175E-001;-1.088238507509232E-001;2.689355751499534E-003;-1.328048296272755E-003;
2.424333333333334E+009;1.528390049934387E-001;-1.099706068634987E-001;2.711514942348003E-003;-1.345835858955979E-003;
2.424500000000000E+009;1.534011214971542E-001;-1.110734120011330E-001;2.546783536672592E-003;-1.420641783624888E-003;
2.424666666666667E+009;1.542169600725174E-001;-1.119510382413864E-001;2.500296570360661E-003;-1.591786742210388E-003;
2.424833333333334E+009;1.544648855924606E-001;-1.128902435302734E-001;2.548415446653962E-003;-1.478079124353826E-003;
2.425000000000000E+009;1.551096886396408E-001;-1.137697622179985E-001;2.626841887831688E-003;-1.644139294512570E-003;
2.425166666666667E+009;1.554393768310547E-001;-1.144512742757797E-001;2.584977541118860E-003;-1.683983369730413E-003;
2.425333333333334E+009;1.558956652879715E-001;-1.150871440768242E-001;2.555683488026261E-003;-1.805461593903601E-003;
2.425500000000000E+009;1.564285159111023E-001;-1.157095432281494E-001;2.499897731468082E-003;-1.703698537312448E-003;
2.425666666666667E+009;1.565031409263611E-001;-1.162223815917969E-001;2.335744211450219E-003;-1.840571756474674E-003;
2.425833333333334E+009;1.569345593452454E-001;-1.165497601032257E-001;2.451083157211542E-003;-1.846675993874669E-003;
2.426000000000000E+009;1.570678651332855E-001;-1.170168966054916E-001;2.421278273686767E-003;-1.817636191844940E-003;
2.426166666666667E+009;1.573545932769775E-001;-1.172738447785378E-001;2.445242833346129E-003;-2.111569512635469E-003;
2.426333333333334E+009;1.572488993406296E-001;-1.173867955803871E-001;2.493213163688779E-003;-1.985639333724976E-003;
2.426500000000000E+009;1.572791486978531E-001;-1.176418140530586E-001;2.320038853213191E-003;-2.210103673860431E-003;
2.426666666666667E+009;1.572513878345490E-001;-1.176433935761452E-001;2.265340648591518E-003;-1.987856812775135E-003;
2.426833333333334E+009;1.568537950515747E-001;-1.178223714232445E-001;2.347876084968448E-003;-2.186479512602091E-003;
2.427000000000000E+009;1.564734727144241E-001;-1.179203391075134E-001;2.429876942187548E-003;-2.303431509062648E-003;
2.427166666666667E+009;1.561158746480942E-001;-1.178876757621765E-001;2.162660937756300E-003;-2.410403219982982E-003;
2.427333333333334E+009;1.555154323577881E-001;-1.179237216711044E-001;2.148611703887582E-003;-2.578290645033121E-003;
2.427500000000000E+009;1.549448668956757E-001;-1.180320456624031E-001;2.084275009110570E-003;-2.571098739281297E-003;
2.427666666666667E+009;1.541011780500412E-001;-1.180712282657623E-001;2.141539007425308E-003;-2.489579608663917E-003;
2.427833333333334E+009;1.532825678586960E-001;-1.180988922715187E-001;2.013963181525469E-003;-2.667426364496350E-003;
