# Version 1.00
#
freq[Hz];re:Trc1_S11;im:Trc1_S11;re:Trc2_S21;im:Trc2_S21;
2.400000000000000E+009;1.558572202920914E-001;6.180295348167419E-002;-6.303390488028526E-003;5.064167198725045E-004;
2.400166666666667E+009;1.559038609266281E-001;6.011624261736870E-002;-6.462944671511650E-003;6.749415188096464E-004;
2.400333333333334E+009;1.555617749691010E-001;5.808931961655617E-002;-6.433636415749788E-003;7.978169596754015E-004;
2.400500000000000E+009;1.559098213911057E-001;5.600494518876076E-002;-6.457884795963764E-003;9.871429065242410E-004;
2.400666666666667E+009;1.557985693216324E-001;5.391924828290939E-002;-6.326041184365749E-003;1.306569902226329E-003;
2.400833333333334E+009;1.560334265232086E-001;5.204015225172043E-002;-6.442026235163212E-003;1.501759863458574E-003;
2.401000000000000E+009;1.562728136777878E-001;4.987361282110214E-002;-6.201919168233872E-003;1.629385165870190E-003;
2.401166666666667E+009;1.565553396940231E-001;4.768085852265358E-002;-6.117756478488445E-003;1.675945008173585E-003;
2.401333333333334E+009;1.567729711532593E-001;4.546869918704033E-002;-6.002913694828749E-003;2.043299376964569E-003;
2.401500000000000E+009;1.574854403734207E-001;4.336519911885262E-002;-5.881892517209053E-003;2.145292935892940E-003;
2.401666666666667E+009;1.577294319868088E-001;4.154946282505989E-002;-5.887054372578859E-003;2.363937208428979E-003;
2.401833333333334E+009;1.583678573369980E-001;3.948475793004036E-002;-5.706966854631901E-003;2.613140968605876E-003;
2.402000000000000E+009;1.589989066123962E-001;3.726856410503388E-002;-5.689802113920450E-003;2.714328933507204E-003;
2.402166666666667E+009;1.596530079841614E-001;3.538213670253754E-002;-5.621103104203939E-003;2.931253751739860E-003;
2.402333333333334E+009;1.602719724178314E-001;3.348734974861145E-002;-5.473156459629536E-003;3.081339644268155E-003;
2.402500000000000E+009;1.614635288715363E-001;3.158481046557427E-002;-5.299747921526432E-003;3.137980587780476E-003;
2.402666666666667E+009;1.622395962476730E-001;3.005484677851200E-002;-5.094617605209351E-003;3.356157336384058E-003;
2.402833333333334E+009;1.630448997020721E-001;2.835684828460217E-002;-4.962906241416931E-003;3.514325479045510E-003;
2.403000000000000E+009;1.640449762344360E-001;2.682312019169331E-002;-4.760426003485918E-003;3.630273276939988E-003;
2.403166666666667E+009;1.651597172021866E-001;2.528083510696888E-002;-4.749925341457129E-003;3.637309884652495E-003;
2.403333333333334E+009;1.662613451480866E-001;2.405567094683647E-002;-4.597698338329792E-003;3.830074798315764E-003;
2.403500000000000E+009;1.671945303678513E-001;2.266292460262775E-002;-4.382632207125425E-003;3.975612111389637E-003;
2.403666666666667E+009;1.682098656892777E-001;2.125529944896698E-002;-4.309690091758966E-003;4.145811777561903E-003;
2.403833333333334E+009;1.693232059478760E-001;2.018423750996590E-002;-4.183230921626091E-003;4.203391727060080E-003;
2.404000000000000E+009;1.706310957670212E-001;1.916733756661415E-002;-3.928529564291239E-003;4.422231111675501E-003;
2.404166666666667E+009;1.714195162057877E-001;1.820576936006546E-002;-3.736188169568777E-003;4.478747956454754E-003;
2.404333333333334E+009;1.726537197828293E-001;1.745230704545975E-002;-3.494908800348640E-003;4.520814400166273E-003;
2.404500000000000E+009;1.735058575868607E-001;1.642808876931667E-002;-3.403548151254654E-003;4.611869342625141E-003;
2.404666666666667E+009;1.744824200868607E-001;1.586662419140339E-002;-3.460090607404709E-003;4.777178168296814E-003;
2.404833333333334E+009;1.753399223089218E-001;1.509171631187201E-002;-3.062331816181541E-003;4.740567877888680E-003;
2.405000000000000E+009;1.764345169067383E-001;1.464377623051405E-002;-2.942326245829463E-003;4.914650227874517E-003;
2.405166666666667E+009;1.771126389503479E-001;1.405666768550873E-002;-2.638983074575663E-003;4.900809843093157E-003;
2.405333333333334E+009;1.778656989336014E-001;1.362066157162190E-002;-2.441073767840862E-003;5.111027043312788E-003;
2.405500000000000E+009;1.785842925310135E-001;1.339342910796404E-002;-2.314843237400055E-003;5.106212105602026E-003;
2.405666666666667E+009;1.792085319757462E-001;1.305253803730011E-002;-2.017545513808727E-003;5.101035349071026E-003;
2.405833333333334E+009;1.797085255384445E-001;1.272445917129517E-002;-1.867953105829656E-003;5.011784844100475E-003;
2.406000000000000E+009;1.802526116371155E-001;1.260620914399624E-002;-1.590675441548228E-003;5.128602497279644E-003;
2.406166666666667E+009;1.805312186479569E-001;1.252515055239201E-002;-1.538265845738351E-003;5.063665565103293E-003;
2.406333333333334E+009;1.809329986572266E-001;1.211011689156294E-002;-1.341374474577606E-003;5.023474339395762E-003;
2.406500000000000E+009;1.811158210039139E-001;1.188895665109158E-002;-1.172390067949891E-003;4.895180463790894E-003;
2.406666666666667E+009;1.809423863887787E-001;1.180676929652691E-002;-9.346772567369044E-004;4.843659233301878E-003;
2.406833333333334E+009;1.811199039220810E-001;1.137662678956986E-002;-7.424805662594736E-004;4.860341083258390E-003;
2.407000000000000E+009;1.811532229185104E-001;1.111450325697660E-002;-7.153847836889327E-004;4.863012116402388E-003;
2.407166666666667E+009;1.810948550701141E-001;1.098401192575693E-002;-4.283369344193488E-004;4.777429159730673E-003;
2.407333333333334E+009;1.807781457901001E-001;1.048079319298267E-002;-3.567933454178274E-004;4.778776783496141E-003;
2.407500000000000E+009;1.804327666759491E-001;1.007358450442553E-002;-3.364059666637331E-004;4.569006618112326E-003;
2.407666666666667E+009;1.800532341003418E-001;9.682251140475273E-003;-1.158949453383684E-004;4.513217136263847E-003;
2.407833333333334E+009;1.796319484710693E-001;9.046789258718491E-003;-5.738828622270376E-005;4.436976276338100E-003;
2.408000000000000E+009;1.790847629308701E-001;8.271673694252968E-003;1.874651934485883E-005;4.464154597371817E-003;
2.408166666666667E+009;1.784697771072388E-001;7.678744848817587E-003;1.698456326266751E-004;4.365469329059124E-003;
2.408333333333334E+009;1.780875623226166E-001;6.945734377950430E-003;2.583207678981125E-004;4.259867127984762E-003;
2.408500000000000E+009;1.772471219301224E-001;5.853620357811451E-003;3.002117737196386E-004;4.158872645348311E-003;
2.408666666666667E+009;1.766140908002853E-001;4.828987177461386E-003;4.046002577524632E-004;4.236284643411636E-003;
2.408833333333334E+009;1.757650971412659E-001;3.908826038241386E-003;3.931690298486501E-004;4.168627317994833E-003;
2.409000000000000E+009;1.749845743179321E-001;2.650212263688445E-003;5.901477416045964E-004;3.959350753575563E-003;
2.409166666666667E+009;1.743481755256653E-001;1.442560111172497E-003;7.776630227454007E-004;3.817996941506863E-003;
2.409333333333334E+009;1.734724640846252E-001;4.971667658537626E-005;7.095259497873485E-004;3.897760761901736E-003;
2.409500000000000E+009;1.728088408708572E-001;-1.493202638812363E-003;6.982439081184566E-004;3.785436507314444E-003;
2.409666666666667E+009;1.720278114080429E-001;-2.989176195114851E-003;7.652522181160748E-004;3.692178055644035E-003;
2.409833333333334E+009;1.712264418601990E-001;-4.523611627519131E-003;8.794059976935387E-004;3.659219015389681E-003;
2.410000000000000E+009;1.707100719213486E-001;-6.181231234222651E-003;8.350905845873058E-004;3.591684158891439E-003;
2.410166666666667E+009;1.699863076210022E-001;-7.924941368401051E-003;9.980536997318268E-004;3.439615247771144E-003;
2.410333333333334E+009;1.694033741950989E-001;-9.713507257401943E-003;9.088148362934589E-004;3.391579026356340E-003;
2.410500000000000E+009;1.688373088836670E-001;-1.165387034416199E-002;1.029665814712644E-003;3.439625725150108E-003;
2.410666666666667E+009;1.683377772569656E-001;-1.361315976828337E-002;1.001169905066490E-003;3.375616157427430E-003;
2.410833333333334E+009;1.678828299045563E-001;-1.554043032228947E-002;1.148515264503658E-003;3.270187648013234E-003;
2.411000000000000E+009;1.676902025938034E-001;-1.749087311327457E-002;1.096891122870147E-003;3.286099527031183E-003;
2.411166666666667E+009;1.672173291444778E-001;-1.952061615884304E-002;1.335882581770420E-003;3.218885976821184E-003;
2.411333333333334E+009;1.670300811529160E-001;-2.152773365378380E-002;1.130387536250055E-003;3.076084423810244E-003;
2.411500000000000E+009;1.669522672891617E-001;-2.372874692082405E-002;1.404375187121332E-003;3.172107040882111E-003;
2.411666666666667E+009;1.671454757452011E-001;-2.576377801597118E-002;1.383795868605375E-003;3.104077419266105E-003;
2.411833333333334E+009;1.671399176120758E-001;-2.766507118940353E-002;1.454902230761945E-003;2.970700385048986E-003;
2.412000000000000E+009;1.671350896358490E-001;-2.987102046608925E-002;1.378603978082538E-003;3.087242366746068E-003;
2.412166666666667E+009;1.674656122922897E-001;-3.181492537260056E-002;1.486287103034556E-003;2.871141303330660E-003;
2.412333333333334E+009;1.678979694843292E-001;-3.370737284421921E-002;1.501082326285541E-003;2.881639637053013E-003;
2.412500000000000E+009;1.681821644306183E-001;-3.555383160710335E-002;1.520351506769657E-003;2.762334421277046E-003;
2.412666666666667E+009;1.686079055070877E-001;-3.762447834014893E-002;1.449848641641438E-003;2.912061987444758E-003;
2.412833333333334E+009;1.692873984575272E-001;-3.935910016298294E-002;1.681968336924911E-003;2.848861040547490E-003;
2.413000000000000E+009;1.697507500648499E-001;-4.129586741328239E-002;1.703988295048475E-003;2.789840335026383E-003;
2.413166666666667E+009;1.702787131071091E-001;-4.301796853542328E-002;1.607826328836381E-003;2.690861932933331E-003;
2.413333333333334E+009;1.707653254270554E-001;-4.463252797722817E-002;1.818641321733594E-003;2.688244916498661E-003;
2.413500000000000E+009;1.713097691535950E-001;-4.615920037031174E-002;1.775827724486589E-003;2.803830429911614E-003;
2.413666666666667E+009;1.721804887056351E-001;-4.772809147834778E-002;1.726261805742979E-003;2.817631699144840E-003;
2.413833333333334E+009;1.726470887660980E-001;-4.901167005300522E-002;1.831605331972241E-003;2.608661074191332E-003;
2.414000000000000E+009;1.732072085142136E-001;-5.039322003722191E-002;2.084956970065832E-003;2.584515139460564E-003;
2.414166666666667E+009;1.740688830614090E-001;-5.166148394346237E-002;1.883848104625940E-003;2.590842777863145E-003;
2.414333333333334E+009;1.746195256710053E-001;-5.268197134137154E-002;1.925666118040681E-003;2.564688911661506E-003;
2.414500000000000E+009;1.754511147737503E-001;-5.369513109326363E-002;2.063006628304720E-003;2.524927491322160E-003;
2.414666666666667E+009;1.759750247001648E-001;-5.452373251318932E-002;2.129643457010388E-003;2.502392278984189E-003;
2.414833333333334E+009;1.763653308153153E-001;-5.553289130330086E-002;2.238037297502160E-003;2.633968368172646E-003;
2.415000000000000E+009;1.768859326839447E-001;-5.612332746386528E-002;2.229311270639300E-003;2.524291630834341E-003;
2.415166666666667E+009;1.771675646305084E-001;-5.681626126170158E-002;2.301509259268642E-003;2.571667544543743E-003;
2.415333333333334E+009;1.778119951486588E-001;-5.735746771097183E-002;2.465774072334170E-003;2.508727833628655E-003;
2.415500000000000E+009;1.782229393720627E-001;-5.782187730073929E-002;2.495516091585159E-003;2.528760116547346E-003;
2.415666666666667E+009;1.783285439014435E-001;-5.819969624280930E-002;2.684191567823291E-003;2.356186741963029E-003;
2.415833333333334E+009;1.785789430141449E-001;-5.848250910639763E-002;2.665221225470305E-003;2.338238526135683E-003;
2.416000000000000E+009;1.785022318363190E-001;-5.876180529594421E-002;2.759597729891539E-003;2.279275096952915E-003;
2.416166666666667E+009;1.786763370037079E-001;-5.913567170500755E-002;2.684622537344694E-003;2.010400639846921E-003;
2.416333333333334E+009;1.785661131143570E-001;-5.916166678071022E-002;2.786451019346714E-003;2.063812920823693E-003;
2.416500000000000E+009;1.783667057752609E-001;-5.940961465239525E-002;2.923091175034642E-003;2.132320776581764E-003;
2.416666666666667E+009;1.780667155981064E-001;-5.942496284842491E-002;3.036029171198607E-003;1.886934740468860E-003;
2.416833333333334E+009;1.777460426092148E-001;-5.972940474748612E-002;3.060607006773353E-003;1.880520721897483E-003;
2.417000000000000E+009;1.770915389060974E-001;-5.977743491530418E-002;3.003300633281469E-003;1.729600247927010E-003;
2.417166666666667E+009;1.766563504934311E-001;-5.984734743833542E-002;3.255393356084824E-003;1.806779648177326E-003;
2.417333333333334E+009;1.760324239730835E-001;-5.996087938547134E-002;3.311061998829246E-003;1.608788385055959E-003;
2.417500000000000E+009;1.752082556486130E-001;-6.020992994308472E-002;3.284557955339551E-003;1.498697325587273E-003;
2.417666666666667E+009;1.745018362998962E-001;-6.023267284035683E-002;3.304022829979658E-003;1.437412574887276E-003;
2.417833333333334E+009;1.734564602375031E-001;-6.053709983825684E-002;3.222596133127809E-003;1.385059324093163E-003;
2.418000000000000E+009;1.724804639816284E-001;-6.076848506927490E-002;3.287826431915164E-003;1.196526689454913E-003;
2.418166666666667E+009;1.712836474180222E-001;-6.109175086021423E-002;3.511124523356557E-003;1.072038547135890E-003;
2.418333333333334E+009;1.705614030361176E-001;-6.150691211223602E-002;3.324528224766254E-003;9.872642112895846E-004;
2.418500000000000E+009;1.691994071006775E-001;-6.181868165731430E-002;3.474668599665165E-003;9.706699638627470E-004;
2.418666666666667E+009;1.681117564439774E-001;-6.245562061667442E-002;3.419240703806281E-003;8.799209608696401E-004;
2.418833333333334E+009;1.667423546314240E-001;-6.292118132114410E-002;3.436338156461716E-003;8.889723685570061E-004;
2.419000000000000E+009;1.653568595647812E-001;-6.355159729719162E-002;3.414047183468938E-003;6.846939213573933E-004;
2.419166666666667E+009;1.641900986433029E-001;-6.439376622438431E-002;3.467993112280965E-003;5.873239133507013E-004;
2.419333333333334E+009;1.626280695199966E-001;-6.490706652402878E-002;3.431785386055708E-003;3.966677759308368E-004;
2.419500000000000E+009;1.615309119224548E-001;-6.606540828943253E-002;3.321635536849499E-003;2.186129713663831E-004;
2.419666666666667E+009;1.602604389190674E-001;-6.707040965557098E-002;3.478732891380787E-003;3.134802391286939E-004;
2.419833333333334E+009;1.590831726789475E-001;-6.802314519882202E-002;3.380049020051956E-003;2.933539217337966E-004;
2.420000000000000E+009;1.578820347785950E-001;-6.932093203067780E-002;3.323410637676716E-003;1.436674501746893E-004;
2.420166666666667E+009;1.566477715969086E-001;-7.049218565225601E-002;3.486339002847672E-003;-7.892322901170701E-005;
2.420333333333334E+009;1.557365655899048E-001;-7.171794772148132E-002;3.394318744540215E-003;-1.146621434600093E-004;
2.420500000000000E+009;1.545597612857819E-001;-7.298684865236282E-002;3.375645494088531E-003;-2.334428427275270E-004;
2.420666666666667E+009;1.536725610494614E-001;-7.455848902463913E-002;3.362683346495032E-003;-2.771149156615138E-004;
2.420833333333334E+009;1.529340147972107E-001;-7.596572488546372E-002;3.234851406887174E-003;-2.495833032298833E-004;
2.421000000000000E+009;1.518823206424713E-001;-7.767888903617859E-002;3.232064424082637E-003;-4.603267880156636E-004;
2.421166666666667E+009;1.512164920568466E-001;-7.924981415271759E-002;3.303617006167769E-003;-4.974899929948151E-004;
2.421333333333334E+009;1.506588160991669E-001;-8.113913983106613E-002;3.116662614047527E-003;-3.486026544123888E-004;
2.421500000000000E+009;1.501096487045288E-001;-8.260220289230347E-002;3.171411575749517E-003;-4.991952446289361E-004;
2.421666666666667E+009;1.494586169719696E-001;-8.443263918161392E-002;3.162757027894259E-003;-6.251215818338096E-004;
2.421833333333334E+009;1.492829769849777E-001;-8.624623715877533E-002;3.192755626514554E-003;-7.211771444417536E-004;
2.422000000000000E+009;1.490051448345184E-001;-8.795390278100967E-002;3.205707529559732E-003;-7.216059020720422E-004;
2.422166666666667E+009;1.488239616155624E-001;-8.989454060792923E-002;3.039691830053926E-003;-9.560442995280027E-004;
2.422333333333334E+009;1.486530750989914E-001;-9.153661131858826E-002;2.826842945069075E-003;-7.331560482271016E-004;
2.422500000000000E+009;1.485790312290192E-001;-9.324339777231216E-002;2.878513187170029E-003;-9.959703311324120E-004;
2.422666666666667E+009;1.486354172229767E-001;-9.510418027639389E-002;2.789488295093179E-003;-1.023327815346420E-003;
2.422833333333334E+009;1.488475054502487E-001;-9.697946161031723E-002;2.758394693955779E-003;-9.612046414986253E-004;
2.423000000000000E+009;1.491295397281647E-001;-9.849707782268524E-002;2.827008720487356E-003;-1.274640322662890E-003;
2.423166666666667E+009;1.494961082935333E-001;-1.001784726977348E-001;2.727007493376732E-003;-1.189425936900079E-003;
2.423333333333334E+009;1.498176157474518E-001;-1.017218381166458E-001;2.850003540515900E-003;-1.023179735057056E-003;
2.423500000000000E+009;1.502995043992996E-001;-1.033098474144936E-001;2.662428421899676E-003;-1.087160664610565E-003;
2.423666666666667E+009;1.505275815725327E-001;-1.048799976706505E-001;2.694668713957071E-003;-1.379384775646031E-003;
2.423833333333334E+009;1.512222737073898E-001;-1.062485575675964E-001;2.472703577950597E-003;-1.361667527817190E-003;
2.424000000000000E+009;1.518243104219437E-001;-1.074637770652771E-001;2.634239848703146E-003;-1.439709914848208E-003;
2.424166666666667E+009;1.522868573665619E-001;-1.087894737720490E-001;2.554201055318117E-003;-1.344744814559817E-003;
2.424333333333334E+009;1.529829800128937E-001;-1.098236963152885E-001;2.621702849864960E-003;-1.209359383210540E-003;
2.424500000000000E+009;1.534860879182816E-001;-1.109419390559197E-001;2.527215285226703E-003;-1.309646992012858E-003;
2.424666666666667E+009;1.541562378406525E-001;-1.118508875370026E-001;2.523303264752030E-003;-1.398588065057993E-003;
2.424833333333334E+009;1.546067595481873E-001;-1.128393560647965E-001;2.588633447885513E-003;-1.498444122262299E-003;
2.425000000000000E+009;1.551934331655502E-001;-1.135947629809380E-001;2.507410943508148E-003;-1.543668447993696E-003;
2.425166666666667E+009;1.554268151521683E-001;-1.144735738635063E-001;2.503247698768973E-003;-1.627841731533408E-003;
2.425333333333334E+009;1.560165584087372E-001;-1.150490120053291E-001;2.596403472125530E-003;-1.574510824866593E-003;
2.425500000000000E+009;1.564300209283829E-001;-1.156084984540939E-001;2.356131095439196E-003;-1.596161397174001E-003;
2.425666666666667E+009;1.566277742385864E-001;-1.162136495113373E-001;2.580137457698584E-003;-1.748974435031414E-003;
2.425833333333334E+009;1.570631265640259E-001;-1.165991947054863E-001;2.437385963276029E-003;-1.716710394248366E-003;
2.426000000000000E+009;1.571221500635147E-001;-1.170263737440109E-001;2.548428019508719E-003;-1.805487554520369E-003;
2.426166666666667E+009;1.572806090116501E-001;-1.172607764601708E-001;2.433549845591188E-003;-1.930782804265618E-003;
2.426333333333334E+009;1.573369950056076E-001;-1.176472753286362E-001;2.401014091446996E-003;-1.872044405899942E-003;
2.426500000000000E+009;1.572897881269455E-001;-1.176342517137528E-001;2.453900873661041E-003;-2.126289997249842E-003;
2.426666666666667E+009;1.573232114315033E-001;-1.176717355847359E-001;2.564438851550221E-003;-2.112756017595530E-003;
2.426833333333334E+009;1.570140421390533E-001;-1.178921088576317E-001;2.381228609010577E-003;-2.101240446791053E-003;
2.427000000000000E+009;1.564944088459015E-001;-1.180342063307762E-001;2.276800340041518E-003;-2.209157217293978E-003;
2.427166666666667E+009;1.561518460512161E-001;-1.179509162902832E-001;2.136772265657783E-003;-2.369045279920101E-003;
2.427333333333334E+009;1.555512696504593E-001;-1.179434657096863E-001;2.275203121826053E-003;-2.520788460969925E-003;
2.427500000000000E+009;1.549788266420364E-001;-1.180344596505165E-001;2.288843505084515E-003;-2.579391235485673E-003;
2.427666666666667E+009;1.540893465280533E-001;-1.181486621499062E-001;2.166430233046413E-003;-2.752159722149372E-003;
2.427833333333334E+009;1.532630771398544E-001;-1.180959641933441E-001;2.112784190103412E-003;-2.720276592299342E-003;
