# Version 1.00
#
freq[Hz];re:Trc1_S11;im:Trc1_S11;re:Trc2_S21;im:Trc2_S21;
2.400000000000000E+009;1.565846651792526E-001;1.093339771032333E-001;1.955213258042932E-003;-8.211922249756753E-004;
2.400166666666667E+009;1.562452465295792E-001;1.066826730966568E-001;1.903723808936775E-003;-9.590684203431010E-004;
2.400333333333334E+009;1.562290638685226E-001;1.044643819332123E-001;1.995110418647528E-003;-1.086374162696302E-003;
2.400500000000000E+009;1.560439914464951E-001;1.016529053449631E-001;1.930329599417746E-003;-1.205111038871110E-003;
2.400666666666667E+009;1.560039371252060E-001;9.931161999702454E-002;2.005256479606032E-003;-1.200540689751506E-003;
2.400833333333334E+009;1.558105200529099E-001;9.637139737606049E-002;1.905868295580149E-003;-1.271416898816824E-003;
2.401000000000000E+009;1.559840142726898E-001;9.330034255981445E-002;2.185745630413294E-003;-1.773509313352406E-003;
2.401166666666667E+009;1.558730155229569E-001;9.056977927684784E-002;2.143702004104853E-003;-1.784190186299384E-003;
2.401333333333334E+009;1.562675833702087E-001;8.762101083993912E-002;1.407979521900415E-003;-2.662037499248982E-003;
2.401500000000000E+009;1.564701199531555E-001;8.454544097185135E-002;1.677490770816803E-003;-3.219826379790902E-003;
2.401666666666667E+009;1.567647755146027E-001;8.189823478460312E-002;2.901313127949834E-003;-2.071026014164090E-003;
2.401833333333334E+009;1.571459770202637E-001;7.883106917142868E-002;1.773452735505998E-003;-8.921115659177303E-004;
2.402000000000000E+009;1.578291803598404E-001;7.605096697807312E-002;1.928179641254246E-003;-1.858208910562098E-003;
2.402166666666667E+009;1.586041301488876E-001;7.330828160047531E-002;2.178238937631249E-003;-1.816546893678606E-003;
2.402333333333334E+009;1.593126058578491E-001;7.048029452562332E-002;9.598762844689190E-004;-3.396060084924102E-003;
2.402500000000000E+009;1.605123877525330E-001;6.781242787837982E-002;3.856980241835117E-003;-2.783602336421609E-003;
2.402666666666667E+009;1.615685969591141E-001;6.540613621473312E-002;1.848260289989412E-003;-2.631373237818480E-003;
2.402833333333334E+009;1.628261655569077E-001;6.270615756511688E-002;1.653412473388016E-003;-2.998592797666788E-003;
2.403000000000000E+009;1.642477661371231E-001;6.019448116421700E-002;1.597631024196744E-003;-3.025097073987126E-003;
2.403166666666667E+009;1.657377779483795E-001;5.781758949160576E-002;1.265250379219651E-003;-3.287860425189138E-003;
2.403333333333334E+009;1.672430038452148E-001;5.545541644096375E-002;1.062594703398645E-003;-3.417801577597857E-003;
2.403500000000000E+009;1.687992513179779E-001;5.340582877397537E-002;5.814493633806706E-004;-3.464725334197283E-003;
2.403666666666667E+009;1.705724745988846E-001;5.132460594177246E-002;5.038192030042410E-004;-3.592366585507989E-003;
2.403833333333334E+009;1.722145229578018E-001;4.919356852769852E-002;1.704108581179753E-004;-3.686843207105994E-003;
2.404000000000000E+009;1.736628413200378E-001;4.737437516450882E-002;-8.604453614680097E-005;-3.704350208863616E-003;
2.404166666666667E+009;1.755876988172531E-001;4.584456980228424E-002;-3.992505662608892E-004;-3.621147712692618E-003;
2.404333333333334E+009;1.771852523088455E-001;4.416661337018013E-002;-6.419786368496716E-004;-3.402254777029157E-003;
2.404500000000000E+009;1.787790954113007E-001;4.258978366851807E-002;-8.803544915281236E-004;-3.518031910061836E-003;
2.404666666666667E+009;1.805292963981628E-001;4.150034487247467E-002;-1.151982578448951E-003;-3.141320543363690E-003;
2.404833333333334E+009;1.821252405643463E-001;4.044915735721588E-002;-1.426043454557657E-003;-3.072586376219988E-003;
2.405000000000000E+009;1.836177110671997E-001;3.961401060223579E-002;-1.373116974718869E-003;-2.742065815255046E-003;
2.405166666666667E+009;1.851406097412109E-001;3.884558752179146E-002;-1.673575490713120E-003;-2.554556820541620E-003;
2.405333333333334E+009;1.865277737379074E-001;3.813440725207329E-002;-1.711654011160135E-003;-2.394932089373469E-003;
2.405500000000000E+009;1.879700273275375E-001;3.770505264401436E-002;-1.757891033776105E-003;-2.276691840961576E-003;
2.405666666666667E+009;1.893260180950165E-001;3.730943053960800E-002;-1.860240357927978E-003;-2.148516010493040E-003;
2.405833333333334E+009;1.906510442495346E-001;3.713979944586754E-002;-1.932740444317460E-003;-1.933281077072024E-003;
2.406000000000000E+009;1.916910111904144E-001;3.699710965156555E-002;-1.876899623312056E-003;-1.858089352026582E-003;
2.406166666666667E+009;1.927740424871445E-001;3.686517849564552E-002;-1.933039398863912E-003;-1.738977385684848E-003;
2.406333333333334E+009;1.937738507986069E-001;3.698974847793579E-002;-1.912986394017935E-003;-1.511562033556402E-003;
2.406500000000000E+009;1.946000158786774E-001;3.714357689023018E-002;-1.754305907525122E-003;-1.406128285452724E-003;
2.406666666666667E+009;1.952865719795227E-001;3.720828518271446E-002;-1.855653594247997E-003;-1.347544486634433E-003;
2.406833333333334E+009;1.959341615438461E-001;3.732109442353249E-002;-1.795026473701000E-003;-1.436770078726113E-003;
2.407000000000000E+009;1.963074952363968E-001;3.771676123142242E-002;-1.875144895166159E-003;-1.096263295039535E-003;
2.407166666666667E+009;1.967515200376511E-001;3.762282803654671E-002;-1.738543855026364E-003;-9.291598107665777E-004;
2.407333333333334E+009;1.967063397169113E-001;3.800742700695992E-002;-1.868500141426921E-003;-8.736077579669654E-004;
2.407500000000000E+009;1.967215389013290E-001;3.829037770628929E-002;-1.734354067593813E-003;-7.780175656080246E-004;
2.407666666666667E+009;1.967397630214691E-001;3.834411129355431E-002;-1.863644807599485E-003;-7.567336433567107E-004;
2.407833333333334E+009;1.965274959802628E-001;3.839918971061707E-002;-1.581584103405476E-003;-6.159279728308320E-004;
2.408000000000000E+009;1.963923126459122E-001;3.845144808292389E-002;-1.535559771582484E-003;-4.898821352981031E-004;
2.408166666666667E+009;1.959340721368790E-001;3.842817991971970E-002;-1.523758866824210E-003;-4.507041303440929E-004;
2.408333333333334E+009;1.956192553043366E-001;3.808594122529030E-002;-1.417036983184516E-003;-4.080072685610503E-004;
2.408500000000000E+009;1.948094666004181E-001;3.795793652534485E-002;-1.435069250874221E-003;-2.410082961432636E-004;
2.408666666666667E+009;1.942073404788971E-001;3.748608753085136E-002;-1.206218497827649E-003;-1.366781070828438E-004;
2.408833333333334E+009;1.935794651508331E-001;3.708661720156670E-002;-1.172402757219970E-003;-7.378713053185493E-005;
2.409000000000000E+009;1.925016790628433E-001;3.628643974661827E-002;-1.171470386907458E-003;-1.163888809969649E-004;
2.409166666666667E+009;1.918164342641830E-001;3.548810258507729E-002;-9.603470098227263E-004;1.057232202583691E-005;
2.409333333333334E+009;1.907626539468765E-001;3.467519208788872E-002;-7.243469008244574E-004;-9.581953781889752E-005;
2.409500000000000E+009;1.897641420364380E-001;3.356706351041794E-002;-6.419384153559804E-004;-5.237403820501640E-005;
2.409666666666667E+009;1.886075735092163E-001;3.232674300670624E-002;-5.109271733090282E-004;-4.946377157466486E-005;
2.409833333333334E+009;1.875517219305039E-001;3.101396188139916E-002;-4.587601870298386E-004;-5.515968950930983E-005;
2.410000000000000E+009;1.865834593772888E-001;2.954738959670067E-002;-1.761487801559269E-004;-3.976989246439189E-004;
2.410166666666667E+009;1.854643672704697E-001;2.780843898653984E-002;-1.588520099176094E-004;-4.015562299173325E-004;
2.410333333333334E+009;1.845076382160187E-001;2.617196552455425E-002;-1.760520535754040E-004;-5.595593829639256E-004;
2.410500000000000E+009;1.834641098976135E-001;2.423105202615261E-002;-2.361727383686230E-004;-6.124654319137335E-004;
2.410666666666667E+009;1.825243830680847E-001;2.206941694021225E-002;-2.069795882562175E-004;-8.183431345969439E-004;
2.410833333333334E+009;1.817968487739563E-001;1.992309652268887E-002;-2.416376810288057E-004;-7.653515785932541E-004;
2.411000000000000E+009;1.807623654603958E-001;1.778762787580490E-002;-2.024251298280433E-004;-8.528980542905629E-004;
2.411166666666667E+009;1.800924390554428E-001;1.571716554462910E-002;-2.458413655404002E-004;-9.528273949399591E-004;
2.411333333333334E+009;1.794959008693695E-001;1.312810834497213E-002;-1.954156177816913E-004;-1.179319922812283E-003;
2.411500000000000E+009;1.789218336343765E-001;1.081929448992014E-002;-2.705787192098796E-004;-1.062920666299760E-003;
2.411666666666667E+009;1.789282113313675E-001;8.548152633011341E-003;-1.486060209572315E-004;-1.153357443399727E-003;
2.411833333333334E+009;1.782937645912170E-001;6.193183828145266E-003;-3.727439325302839E-004;-1.117804436944425E-003;
2.412000000000000E+009;1.784973442554474E-001;3.387333592399955E-003;-3.412391233723611E-004;-1.412181998603046E-003;
2.412166666666667E+009;1.783994585275650E-001;1.126875635236502E-003;-2.683889761101455E-004;-1.428992603905499E-003;
2.412333333333334E+009;1.785494834184647E-001;-1.550391083583236E-003;-2.950802736449987E-004;-1.490286085754633E-003;
2.412500000000000E+009;1.789260506629944E-001;-4.055449739098549E-003;-3.882736491505057E-004;-1.750896335579455E-003;
2.412666666666667E+009;1.793432235717773E-001;-6.568578537553549E-003;-3.816023818217218E-004;-1.703581539914012E-003;
2.412833333333334E+009;1.800409555435181E-001;-8.883384987711906E-003;-5.637007998302579E-004;-1.826398889534175E-003;
2.413000000000000E+009;1.807740181684494E-001;-1.144495699554682E-002;-5.837237113155425E-004;-1.939488342031837E-003;
2.413166666666667E+009;1.813747584819794E-001;-1.376736909151077E-002;-6.810263730585575E-004;-2.178828231990337E-003;
2.413333333333334E+009;1.823364794254303E-001;-1.620757393538952E-002;-9.685594122856855E-004;-2.222840208560228E-003;
2.413500000000000E+009;1.833583563566208E-001;-1.847191713750362E-002;-1.225817832164466E-003;-2.348735462874174E-003;
2.413666666666667E+009;1.843877136707306E-001;-2.076775953173637E-002;-1.211542868986726E-003;-2.490611281245947E-003;
2.413833333333334E+009;1.856572329998016E-001;-2.292486280202866E-002;-1.561819808557630E-003;-2.379117067903280E-003;
2.414000000000000E+009;1.868034601211548E-001;-2.513503842055798E-002;-1.883778721094132E-003;-2.514415653422475E-003;
2.414166666666667E+009;1.879487633705139E-001;-2.692001499235630E-002;-2.046170644462109E-003;-2.277378924190998E-003;
2.414333333333334E+009;1.892099976539612E-001;-2.896485850214958E-002;-2.211160259321332E-003;-2.115103183314204E-003;
2.414500000000000E+009;1.906457841396332E-001;-3.062227368354797E-002;-2.418234944343567E-003;-2.134734299033880E-003;
2.414666666666667E+009;1.917632818222046E-001;-3.214151784777641E-002;-2.507313387468457E-003;-1.943531911820173E-003;
2.414833333333334E+009;1.929276585578919E-001;-3.361680358648300E-002;-2.690370660275221E-003;-1.721183303743601E-003;
2.415000000000000E+009;1.941511482000351E-001;-3.507745638489723E-002;-2.821332542225719E-003;-1.707164919935167E-003;
2.415166666666667E+009;1.954199075698853E-001;-3.628611192107201E-002;-2.937373006716371E-003;-1.515071257017553E-003;
2.415333333333334E+009;1.967093646526337E-001;-3.720678016543388E-002;-3.011560533195734E-003;-1.361301634460688E-003;
2.415500000000000E+009;1.978405117988586E-001;-3.810173645615578E-002;-3.189233364537358E-003;-1.247411943040788E-003;
2.415666666666667E+009;1.990279108285904E-001;-3.898007050156593E-002;-3.290562657639384E-003;-1.136949984356761E-003;
2.415833333333334E+009;2.000644057989121E-001;-3.976234048604965E-002;-3.416586434468627E-003;-9.195517050102353E-004;
2.416000000000000E+009;2.009227275848389E-001;-4.020012542605400E-002;-3.400423564016819E-003;-7.663144497200847E-004;
2.416166666666667E+009;2.017794698476791E-001;-4.090387746691704E-002;-3.495875978842378E-003;-5.456713261082768E-004;
2.416333333333334E+009;2.024616301059723E-001;-4.106971994042397E-002;-3.598617389798164E-003;-5.779035855084658E-004;
2.416500000000000E+009;2.029853165149689E-001;-4.137895628809929E-002;-3.511215094476938E-003;-4.047754046041518E-004;
2.416666666666667E+009;2.034539282321930E-001;-4.180622100830078E-002;-3.612829605117440E-003;-1.488752459408715E-004;
2.416833333333334E+009;2.037348598241806E-001;-4.173267260193825E-002;-3.773540956899524E-003;-1.268402556888759E-004;
2.417000000000000E+009;2.039132416248322E-001;-4.181518405675888E-002;-3.804615465924144E-003;1.500922080595046E-004;
2.417166666666667E+009;2.037636488676071E-001;-4.169920831918716E-002;-3.738611936569214E-003;3.341823467053473E-004;
2.417333333333334E+009;2.036891281604767E-001;-4.139498621225357E-002;-3.822523402050138E-003;4.611737094819546E-004;
2.417500000000000E+009;2.035340964794159E-001;-4.142998531460762E-002;-3.662681207060814E-003;7.578072254545987E-004;
2.417666666666667E+009;2.030618190765381E-001;-4.110359027981758E-002;-3.791071474552155E-003;7.702633156441152E-004;
2.417833333333334E+009;2.028508931398392E-001;-4.087047651410103E-002;-3.835959127172828E-003;1.007774146273732E-003;
2.418000000000000E+009;2.022276371717453E-001;-4.060851037502289E-002;-3.829305060207844E-003;1.115611637942493E-003;
2.418166666666667E+009;2.014791518449783E-001;-4.036479070782661E-002;-3.707403317093849E-003;1.290879561565816E-003;
2.418333333333334E+009;2.005822658538818E-001;-4.012120142579079E-002;-3.680367721244693E-003;1.508030225522816E-003;
2.418500000000000E+009;1.997669488191605E-001;-3.988306596875191E-002;-3.647082485258579E-003;1.639692811295390E-003;
2.418666666666667E+009;1.988455355167389E-001;-3.996333852410317E-002;-3.568809013813734E-003;1.940132817253470E-003;
2.418833333333334E+009;1.975726634263992E-001;-3.999407961964607E-002;-3.437891136854887E-003;1.999861327931285E-003;
2.419000000000000E+009;1.963363289833069E-001;-4.010278731584549E-002;-3.333028405904770E-003;2.252934500575066E-003;
2.419166666666667E+009;1.951352357864380E-001;-4.038944467902184E-002;-3.126717405393720E-003;2.340732142329216E-003;
2.419333333333334E+009;1.936440318822861E-001;-4.075638949871063E-002;-2.996743656694889E-003;2.705624327063561E-003;
2.419500000000000E+009;1.922667473554611E-001;-4.114128276705742E-002;-2.799068344756961E-003;2.770118182525039E-003;
2.419666666666667E+009;1.906716376543045E-001;-4.176061227917671E-002;-2.603204688057303E-003;2.754753921180964E-003;
2.419833333333334E+009;1.889523714780808E-001;-4.235331341624260E-002;-2.352721290662885E-003;2.857887884601951E-003;
2.420000000000000E+009;1.872354298830032E-001;-4.322618246078491E-002;-2.282920992001891E-003;2.982671838253737E-003;
2.420166666666667E+009;1.857277899980545E-001;-4.412077739834786E-002;-2.151177031919360E-003;2.928694244474173E-003;
2.420333333333334E+009;1.841064989566803E-001;-4.513274878263474E-002;-1.935942214913666E-003;2.941456390544772E-003;
2.420500000000000E+009;1.821370571851730E-001;-4.641986265778542E-002;-1.878201728686690E-003;2.969771623611450E-003;
2.420666666666667E+009;1.805110871791840E-001;-4.740027710795403E-002;-1.772209536284208E-003;2.794004278257489E-003;
2.420833333333334E+009;1.788377761840820E-001;-4.899438470602036E-002;-1.651598606258631E-003;2.761119510978460E-003;
2.421000000000000E+009;1.772522032260895E-001;-5.043727904558182E-002;-1.533351838588715E-003;2.777951071038842E-003;
2.421166666666667E+009;1.757439672946930E-001;-5.211841315031052E-002;-1.698650070466101E-003;2.808293793350458E-003;
2.421333333333334E+009;1.740819215774536E-001;-5.366699025034905E-002;-1.530182431451976E-003;2.802915172651410E-003;
2.421500000000000E+009;1.725614815950394E-001;-5.565590783953667E-002;-1.473635435104370E-003;2.715376671403647E-003;
2.421666666666667E+009;1.713384687900543E-001;-5.738542601466179E-002;-1.442295149900019E-003;2.772814128547907E-003;
2.421833333333334E+009;1.700203269720078E-001;-5.934435129165649E-002;-1.296679838560522E-003;2.636509481817484E-003;
2.422000000000000E+009;1.689666360616684E-001;-6.126422435045242E-002;-1.315908273681998E-003;2.973232883960009E-003;
2.422166666666667E+009;1.679396778345108E-001;-6.344337016344070E-002;-1.268723281100392E-003;2.875549718737602E-003;
2.422333333333334E+009;1.669590026140213E-001;-6.549603492021561E-002;-1.218045363202691E-003;3.042039228603244E-003;
2.422500000000000E+009;1.661608368158341E-001;-6.734258681535721E-002;-1.183690852485597E-003;2.959645818918943E-003;
2.422666666666667E+009;1.653825342655182E-001;-6.966989487409592E-002;-9.816064266487956E-004;3.157476894557476E-003;
2.422833333333334E+009;1.647996157407761E-001;-7.187129557132721E-002;-9.582873899489641E-004;3.120149252936244E-003;
2.423000000000000E+009;1.642300039529800E-001;-7.385466992855072E-002;-6.521149189211428E-004;3.244521329179406E-003;
2.423166666666667E+009;1.637896448373795E-001;-7.599543035030365E-002;-6.739059463143349E-004;3.161040600389242E-003;
2.423333333333334E+009;1.635288745164871E-001;-7.813194394111633E-002;-5.799679202027619E-004;3.243770450353622E-003;
2.423500000000000E+009;1.634915918111801E-001;-7.992632687091827E-002;-5.412765895016491E-004;3.363834694027901E-003;
2.423666666666667E+009;1.634456664323807E-001;-8.200611174106598E-002;-3.783244756050408E-004;3.172828350216150E-003;
2.423833333333334E+009;1.633044779300690E-001;-8.401353657245636E-002;-6.205968384165317E-005;3.022375516593456E-003;
2.424000000000000E+009;1.635642349720001E-001;-8.587260544300079E-002;-7.803761400282383E-005;3.032970707863569E-003;
2.424166666666667E+009;1.635726243257523E-001;-8.748377114534378E-002;-5.440465611172840E-005;2.977579133585095E-003;
2.424333333333334E+009;1.640402823686600E-001;-8.923693001270294E-002;1.721266744425520E-004;3.039984498172998E-003;
2.424500000000000E+009;1.642595380544663E-001;-9.107747673988342E-002;1.323784526903182E-004;3.020277479663491E-003;
2.424666666666667E+009;1.646799147129059E-001;-9.261775016784668E-002;-1.256542600458488E-005;2.714475849643350E-003;
2.424833333333334E+009;1.653880774974823E-001;-9.386619180440903E-002;1.980767119675875E-004;2.775772474706173E-003;
2.425000000000000E+009;1.657453924417496E-001;-9.528557956218720E-002;2.429780870443210E-004;2.928472356870771E-003;
2.425166666666667E+009;1.661049574613571E-001;-9.658124297857285E-002;1.834734721342102E-004;2.751642605289817E-003;
2.425333333333334E+009;1.665482968091965E-001;-9.770942479372025E-002;3.148600808344781E-004;2.798336325213313E-003;
2.425500000000000E+009;1.671335101127625E-001;-9.876768290996552E-002;4.570543242152780E-004;2.870870055630803E-003;
2.425666666666667E+009;1.676714867353439E-001;-9.950395673513413E-002;1.865577651187778E-004;2.737933536991477E-003;
2.425833333333334E+009;1.680293977260590E-001;-1.005348563194275E-001;4.617331142071635E-004;2.839687047526240E-003;
2.426000000000000E+009;1.686256080865860E-001;-1.010398790240288E-001;3.640320792328566E-004;2.835374558344483E-003;
2.426166666666667E+009;1.691682189702988E-001;-1.016066297888756E-001;5.036772345192730E-004;2.722349949181080E-003;
2.426333333333334E+009;1.694355756044388E-001;-1.022441610693932E-001;4.918806371279061E-004;2.936668694019318E-003;
2.426500000000000E+009;1.698453575372696E-001;-1.026024669408798E-001;4.762987955473363E-004;2.897357102483511E-003;
2.426666666666667E+009;1.703537553548813E-001;-1.028147488832474E-001;6.574110011570156E-004;2.906068228185177E-003;
2.426833333333334E+009;1.707095503807068E-001;-1.032283827662468E-001;7.049082196317613E-004;2.953070448711515E-003;
2.427000000000000E+009;1.707823723554611E-001;-1.035088673233986E-001;7.455163868144155E-004;2.951601520180702E-003;
2.427166666666667E+009;1.709951162338257E-001;-1.034636795520783E-001;8.667720248922706E-004;3.052206244319677E-003;
2.427333333333334E+009;1.709028035402298E-001;-1.038172915577889E-001;8.115541422739625E-004;3.004337428137660E-003;
2.427500000000000E+009;1.708476394414902E-001;-1.039637029170990E-001;1.059502363204956E-003;3.235515905544162E-003;
2.427666666666667E+009;1.706219315528870E-001;-1.040223538875580E-001;1.138668390922248E-003;3.156148595735431E-003;
