# Version 1.00
#
freq[Hz];re:Trc1_S11;im:Trc1_S11;re:Trc2_S21;im:Trc2_S21;
2.400000000000000E+009;1.565625518560410E-001;1.090063527226448E-001;2.176676411181688E-003;-6.474534748122096E-004;
2.400166666666667E+009;1.561562269926071E-001;1.064166873693466E-001;2.288116374984384E-003;-6.920468294993043E-004;
2.400333333333334E+009;1.560576856136322E-001;1.042096912860870E-001;2.216910943388939E-003;-7.229108014144003E-004;
2.400500000000000E+009;1.559838652610779E-001;1.015791073441505E-001;2.203613054007292E-003;-9.150055120699108E-004;
2.400666666666667E+009;1.557116657495499E-001;9.922642260789871E-002;2.201638882979751E-003;-1.150042167864740E-003;
2.400833333333334E+009;1.557557731866837E-001;9.608876705169678E-002;2.006553811952472E-003;-1.094763516448438E-003;
2.401000000000000E+009;1.558337956666946E-001;9.327396750450134E-002;2.379724290221930E-003;-1.228602253831923E-003;
2.401166666666667E+009;1.557300835847855E-001;9.051918238401413E-002;2.186118625104427E-003;-1.475974451750517E-003;
2.401333333333334E+009;1.559955328702927E-001;8.762216567993164E-002;2.367991255596280E-003;-1.402309397235513E-003;
2.401500000000000E+009;1.562827974557877E-001;8.474404364824295E-002;2.374059520661831E-003;-1.584835466928780E-003;
2.401666666666667E+009;1.566237211227417E-001;8.175737410783768E-002;2.063609194010496E-003;-1.802209764719009E-003;
2.401833333333334E+009;1.569840610027313E-001;7.889690995216370E-002;2.290211152285337E-003;-2.013728022575378E-003;
2.402000000000000E+009;1.578425616025925E-001;7.604333758354187E-002;2.347843488678336E-003;-1.947992714121938E-003;
2.402166666666667E+009;1.584940999746323E-001;7.341380417346954E-002;2.156599191948772E-003;-2.259988337755203E-003;
2.402333333333334E+009;1.592348664999008E-001;7.049696892499924E-002;2.246142365038395E-003;-2.532200887799263E-003;
2.402500000000000E+009;1.602963358163834E-001;6.778480857610703E-002;2.178125549107790E-003;-2.469022525474429E-003;
2.402666666666667E+009;1.614120453596115E-001;6.526838243007660E-002;2.019360195845366E-003;-2.755814464762807E-003;
2.402833333333334E+009;1.626410484313965E-001;6.264137476682663E-002;1.890108571387827E-003;-3.086815355345607E-003;
2.403000000000000E+009;1.638917922973633E-001;6.019563600420952E-002;2.531763399019837E-003;-3.990620374679565E-003;
2.403166666666667E+009;1.655291318893433E-001;5.793469771742821E-002;9.782463312149048E-004;-2.843754831701517E-003;
2.403333333333334E+009;1.670373231172562E-001;5.543930828571320E-002;1.200538128614426E-003;-3.746273694559932E-003;
2.403500000000000E+009;1.685118377208710E-001;5.334548652172089E-002;9.942005854099989E-004;-5.024742335081101E-003;
2.403666666666667E+009;1.703578233718872E-001;5.116022005677223E-002;1.456956233596429E-004;-3.106064163148403E-003;
2.403833333333334E+009;1.721866279840469E-001;4.922913759946823E-002;9.592938586138189E-004;-3.859735094010830E-003;
2.404000000000000E+009;1.733469367027283E-001;4.752201959490776E-002;-4.287497431505472E-004;-3.681765869259834E-003;
2.404166666666667E+009;1.752677708864212E-001;4.570360481739044E-002;-7.339294534176588E-004;-4.755737259984016E-003;
2.404333333333334E+009;1.770704537630081E-001;4.437040910124779E-002;1.387764350511134E-004;-2.812163904309273E-003;
2.404500000000000E+009;1.785604953765869E-001;4.255905002355576E-002;-7.310314103960991E-004;-4.915273748338223E-003;
2.404666666666667E+009;1.802902668714523E-001;4.158404096961021E-002;-1.084974152036011E-003;-3.589945612475276E-003;
2.404833333333334E+009;1.820380538702011E-001;4.048204049468041E-002;-1.137927290983498E-003;-3.242151811718941E-003;
2.405000000000000E+009;1.833755522966385E-001;3.969879448413849E-002;-1.266143284738064E-003;-3.133962862193584E-003;
2.405166666666667E+009;1.848364323377609E-001;3.881993517279625E-002;-1.378932269290090E-003;-2.896023681387305E-003;
2.405333333333334E+009;1.862914711236954E-001;3.826946392655373E-002;-1.584580866619945E-003;-2.714797621592879E-003;
2.405500000000000E+009;1.878730654716492E-001;3.796077147126198E-002;-1.515092211775482E-003;-2.652837662026286E-003;
2.405666666666667E+009;1.890736371278763E-001;3.759147971868515E-002;-1.724636298604310E-003;-2.490855753421783E-003;
2.405833333333334E+009;1.903189718723297E-001;3.719549998641014E-002;-1.783578540198505E-003;-2.266235183924437E-003;
2.406000000000000E+009;1.915451437234879E-001;3.712952136993408E-002;-1.810120535083115E-003;-2.184585435315967E-003;
2.406166666666667E+009;1.925987899303436E-001;3.701448440551758E-002;-1.668249489739537E-003;-1.890911720693111E-003;
2.406333333333334E+009;1.936075836420059E-001;3.718438372015953E-002;-1.812307280488312E-003;-1.958159264177084E-003;
2.406500000000000E+009;1.943560540676117E-001;3.716035187244415E-002;-1.842927420511842E-003;-1.726370421238244E-003;
2.406666666666667E+009;1.951052397489548E-001;3.731082007288933E-002;-1.751733594574034E-003;-1.602150732651353E-003;
2.406833333333334E+009;1.956955641508102E-001;3.745305538177490E-002;-1.754702068865299E-003;-1.530447509139776E-003;
2.407000000000000E+009;1.960559785366058E-001;3.780995681881905E-002;-1.879573450423777E-003;-1.438169740140438E-003;
2.407166666666667E+009;1.966469436883926E-001;3.771178051829338E-002;-1.768436399288476E-003;-1.281842705793679E-003;
2.407333333333334E+009;1.966123431921005E-001;3.810171782970429E-002;-1.727167400531471E-003;-1.051176572218537E-003;
2.407500000000000E+009;1.966309696435928E-001;3.827236220240593E-002;-1.835367875173688E-003;-9.889522334560752E-004;
2.407666666666667E+009;1.968398988246918E-001;3.843576833605766E-002;-1.690139644779265E-003;-1.170784584246576E-003;
2.407833333333334E+009;1.962736397981644E-001;3.846104815602303E-002;-1.664043054915965E-003;-8.503313292749226E-004;
2.408000000000000E+009;1.962622702121735E-001;3.850571438670158E-002;-1.666828873567283E-003;-7.531899027526379E-004;
2.408166666666667E+009;1.957548409700394E-001;3.838426619768143E-002;-1.518855686299503E-003;-5.310972919687629E-004;
2.408333333333334E+009;1.954617649316788E-001;3.805103525519371E-002;-1.644306234084070E-003;-5.483275745064020E-004;
2.408500000000000E+009;1.946892440319061E-001;3.800281882286072E-002;-1.518938923254609E-003;-4.151049652136862E-004;
2.408666666666667E+009;1.941714584827423E-001;3.756773471832275E-002;-1.428925432264805E-003;-3.099278837908059E-004;
2.408833333333334E+009;1.934935301542282E-001;3.705494105815888E-002;-1.232655369676650E-003;-2.955590316560119E-004;
2.409000000000000E+009;1.926005184650421E-001;3.635350242257118E-002;-1.047234050929546E-003;-1.900216302601621E-004;
2.409166666666667E+009;1.917487233877182E-001;3.553868457674980E-002;-1.069796155206859E-003;-1.371472171740606E-004;
2.409333333333334E+009;1.907434612512589E-001;3.481841087341309E-002;-9.218179620802403E-004;-5.935371154919267E-005;
2.409500000000000E+009;1.896802335977554E-001;3.338319808244705E-002;-8.111587958410382E-004;-2.733751898631454E-004;
2.409666666666667E+009;1.885754466056824E-001;3.237745538353920E-002;-5.704588256776333E-004;-2.545368042774499E-004;
2.409833333333334E+009;1.875462830066681E-001;3.093011863529682E-002;-5.400924128480256E-004;-5.237727309577167E-004;
2.410000000000000E+009;1.865365654230118E-001;2.944664284586906E-002;-4.258229746483266E-004;-3.950778918806464E-004;
2.410166666666667E+009;1.855423450469971E-001;2.777315117418766E-002;-2.145666221622378E-004;-6.661563529632986E-004;
2.410333333333334E+009;1.845003813505173E-001;2.598939649760723E-002;-1.514888426754624E-004;-8.390358998440206E-004;
2.410500000000000E+009;1.835283786058426E-001;2.415890991687775E-002;-2.942729333881289E-004;-8.197891293093562E-004;
2.410666666666667E+009;1.825230568647385E-001;2.214181050658226E-002;-2.371073787799105E-004;-9.474885300733149E-004;
2.410833333333334E+009;1.815545707941055E-001;2.006848156452179E-002;-3.525977081153542E-004;-9.100784664042294E-004;
2.411000000000000E+009;1.806995719671249E-001;1.778629422187805E-002;-3.333024505991489E-004;-1.025632955133915E-003;
2.411166666666667E+009;1.799464374780655E-001;1.561502739787102E-002;-4.051706637255848E-004;-1.087873359210789E-003;
2.411333333333334E+009;1.794412136077881E-001;1.318549178540707E-002;-3.753563796635717E-004;-1.004989724606276E-003;
2.411500000000000E+009;1.789554506540299E-001;1.073926873505116E-002;-3.774222568608820E-004;-1.189062022604048E-003;
2.411666666666667E+009;1.785872578620911E-001;8.391732349991798E-003;-3.450855147093535E-004;-1.348366960883141E-003;
2.411833333333334E+009;1.781326085329056E-001;6.081800442188978E-003;-3.812744980677962E-004;-1.308110426180065E-003;
2.412000000000000E+009;1.783651262521744E-001;3.496000310406089E-003;-3.850990615319461E-004;-1.442620414309204E-003;
2.412166666666667E+009;1.781809777021408E-001;1.085034222342074E-003;-4.077688208781183E-004;-1.484276377595961E-003;
2.412333333333334E+009;1.782543659210205E-001;-1.689304248429835E-003;-6.300108507275581E-004;-1.820642733946443E-003;
2.412500000000000E+009;1.787399947643280E-001;-3.904630430042744E-003;-6.448712083511055E-004;-1.774695818312466E-003;
2.412666666666667E+009;1.792381256818771E-001;-6.579579319804907E-003;-5.277217715047300E-004;-1.903379452414811E-003;
2.412833333333334E+009;1.799901425838471E-001;-9.030668064951897E-003;-6.930016679689288E-004;-1.965280622243881E-003;
2.413000000000000E+009;1.805378645658493E-001;-1.149414572864771E-002;-9.074446861632168E-004;-2.112775342538953E-003;
2.413166666666667E+009;1.812801063060761E-001;-1.377650350332260E-002;-8.750524139031768E-004;-2.228664932772517E-003;
2.413333333333334E+009;1.822348833084106E-001;-1.614507846534252E-002;-9.281240636482835E-004;-2.308478811755776E-003;
2.413500000000000E+009;1.831181347370148E-001;-1.850335672497749E-002;-1.259272336028516E-003;-2.509218640625477E-003;
2.413666666666667E+009;1.844083815813065E-001;-2.078309282660484E-002;-1.614455250091851E-003;-2.402236917987466E-003;
2.413833333333334E+009;1.854615062475205E-001;-2.281568944454193E-002;-1.911602448672056E-003;-2.435729373246431E-003;
2.414000000000000E+009;1.866460144519806E-001;-2.480311505496502E-002;-1.958489883691073E-003;-2.318345941603184E-003;
2.414166666666667E+009;1.877890825271606E-001;-2.685717493295670E-002;-2.236747648566961E-003;-2.295099431648850E-003;
2.414333333333334E+009;1.890449076890945E-001;-2.881730534136295E-002;-2.334510907530785E-003;-2.243672031909227E-003;
2.414500000000000E+009;1.903132200241089E-001;-3.047395497560501E-002;-2.662180224433541E-003;-2.029566792771220E-003;
2.414666666666667E+009;1.915695369243622E-001;-3.200582787394524E-002;-2.722356701269746E-003;-1.959121553227305E-003;
2.414833333333334E+009;1.926581859588623E-001;-3.361275047063828E-002;-2.818722510710359E-003;-1.846202532760799E-003;
2.415000000000000E+009;1.939538419246674E-001;-3.498247265815735E-002;-3.024040488526225E-003;-1.673728460446000E-003;
2.415166666666667E+009;1.953318417072296E-001;-3.609760478138924E-002;-3.055953653529286E-003;-1.569411018863320E-003;
2.415333333333334E+009;1.965616643428803E-001;-3.705386444926262E-002;-3.207156900316477E-003;-1.351738465018570E-003;
2.415500000000000E+009;1.976806968450546E-001;-3.785501420497894E-002;-3.415383398532867E-003;-1.331453910097480E-003;
2.415666666666667E+009;1.988155841827393E-001;-3.879601880908012E-002;-3.394884755834937E-003;-1.183368265628815E-003;
2.415833333333334E+009;1.997370719909668E-001;-3.949026390910149E-002;-3.451457945629954E-003;-1.133553683757782E-003;
2.416000000000000E+009;2.006550878286362E-001;-3.993381932377815E-002;-3.547928063198924E-003;-8.603125461377204E-004;
2.416166666666667E+009;2.014877349138260E-001;-4.066012427210808E-002;-3.551302477717400E-003;-8.354830206371844E-004;
2.416333333333334E+009;2.023484855890274E-001;-4.080569744110107E-002;-3.788620000705123E-003;-5.751910503022373E-004;
2.416500000000000E+009;2.029328346252441E-001;-4.110300913453102E-002;-3.708823584020138E-003;-5.296316812746227E-004;
2.416666666666667E+009;2.033192664384842E-001;-4.150055721402168E-002;-3.794882912188768E-003;-4.337434365879744E-004;
2.416833333333334E+009;2.034911960363388E-001;-4.131723940372467E-002;-3.935859538614750E-003;-6.143064820207655E-005;
2.417000000000000E+009;2.038444131612778E-001;-4.153942316770554E-002;-3.924663178622723E-003;7.518062193412334E-005;
2.417166666666667E+009;2.037177234888077E-001;-4.138740524649620E-002;-3.886559512466192E-003;2.572066732682288E-004;
2.417333333333334E+009;2.034816741943359E-001;-4.124922305345535E-002;-3.999643027782440E-003;6.150403060019016E-004;
2.417500000000000E+009;2.033586353063583E-001;-4.115285724401474E-002;-4.100460559129715E-003;6.292566540651023E-004;
2.417666666666667E+009;2.028459310531616E-001;-4.086736217141151E-002;-3.988897893577814E-003;7.483632070943713E-004;
2.417833333333334E+009;2.026751935482025E-001;-4.058347269892693E-002;-3.931234590709209E-003;1.052672159858048E-003;
2.418000000000000E+009;2.020013630390167E-001;-4.022479802370071E-002;-3.906722180545330E-003;1.291284570470452E-003;
2.418166666666667E+009;2.014400362968445E-001;-4.007731005549431E-002;-3.971443977206945E-003;1.492625800892711E-003;
2.418333333333334E+009;2.007111310958862E-001;-3.983519971370697E-002;-3.972854465246201E-003;1.646461430937052E-003;
2.418500000000000E+009;1.996244043111801E-001;-3.973630815744400E-002;-3.819992532953620E-003;1.903126714751124E-003;
2.418666666666667E+009;1.987588256597519E-001;-3.962753340601921E-002;-3.839176846668124E-003;2.115004230290651E-003;
2.418833333333334E+009;1.976228505373001E-001;-3.971560299396515E-002;-3.731046104803681E-003;2.181200077757239E-003;
2.419000000000000E+009;1.963516771793366E-001;-3.981512039899826E-002;-3.461021697148681E-003;2.497621113434434E-003;
2.419166666666667E+009;1.950546056032181E-001;-3.999048843979836E-002;-3.434167709201574E-003;2.514537423849106E-003;
2.419333333333334E+009;1.936658620834351E-001;-4.055648297071457E-002;-3.150198608636856E-003;2.678322140127420E-003;
2.419500000000000E+009;1.921740323305130E-001;-4.079722985625267E-002;-3.036341629922390E-003;2.961982972919941E-003;
2.419666666666667E+009;1.905706077814102E-001;-4.164379090070725E-002;-2.838629996404052E-003;3.126920899376273E-003;
2.419833333333334E+009;1.889393031597138E-001;-4.213730245828629E-002;-2.593886572867632E-003;3.150458680465818E-003;
2.420000000000000E+009;1.873193979263306E-001;-4.277884587645531E-002;-2.506724558770657E-003;3.338241018354893E-003;
2.420166666666667E+009;1.856470555067062E-001;-4.377736151218414E-002;-2.322635846212506E-003;3.262204816564918E-003;
2.420333333333334E+009;1.839935332536697E-001;-4.496115446090698E-002;-2.088451758027077E-003;3.116213250905275E-003;
2.420500000000000E+009;1.822966486215591E-001;-4.612497985363007E-002;-2.010770607739687E-003;3.171832300722599E-003;
2.420666666666667E+009;1.805484145879746E-001;-4.715559631586075E-002;-1.941744470968843E-003;3.178186947479844E-003;
2.420833333333334E+009;1.788500398397446E-001;-4.852006584405899E-002;-1.699389307759702E-003;3.228882560506463E-003;
2.421000000000000E+009;1.773065775632858E-001;-5.008707568049431E-002;-1.734691904857755E-003;3.160973079502583E-003;
2.421166666666667E+009;1.757929474115372E-001;-5.183835327625275E-002;-1.752946176566184E-003;3.061658004298806E-003;
2.421333333333334E+009;1.741196513175964E-001;-5.333606898784638E-002;-1.537451287731528E-003;3.147116862237454E-003;
2.421500000000000E+009;1.726816147565842E-001;-5.531607940793037E-002;-1.414048601873219E-003;2.971826819702983E-003;
2.421666666666667E+009;1.714118421077728E-001;-5.706068128347397E-002;-1.364970346912742E-003;3.019010880962014E-003;
2.421833333333334E+009;1.703141629695892E-001;-5.897405371069908E-002;-1.380067900754511E-003;3.026788821443915E-003;
2.422000000000000E+009;1.689710766077042E-001;-6.082031130790710E-002;-1.254962291568518E-003;3.245335072278976E-003;
2.422166666666667E+009;1.680371463298798E-001;-6.297315657138825E-002;-1.206115353852511E-003;3.192152129486203E-003;
2.422333333333334E+009;1.669737547636032E-001;-6.509603559970856E-002;-1.114923506975174E-003;3.274048212915659E-003;
2.422500000000000E+009;1.661568284034729E-001;-6.718856841325760E-002;-1.108588650822640E-003;3.307118313387036E-003;
2.422666666666667E+009;1.654211580753326E-001;-6.939247250556946E-002;-1.004323014058173E-003;3.286821069195867E-003;
2.422833333333334E+009;1.650408506393433E-001;-7.139707356691361E-002;-7.942775846458972E-004;3.378044581040740E-003;
2.423000000000000E+009;1.643401980400085E-001;-7.357075810432434E-002;-7.521945517510176E-004;3.448515664786100E-003;
2.423166666666667E+009;1.639675647020340E-001;-7.556098699569702E-002;-7.671486819162965E-004;3.376499051228166E-003;
2.423333333333334E+009;1.637456715106964E-001;-7.771689444780350E-002;-5.440544919110835E-004;3.450806718319655E-003;
2.423500000000000E+009;1.636816412210465E-001;-7.965639978647232E-002;-3.267593565396965E-004;3.390947123989463E-003;
2.423666666666667E+009;1.637574434280396E-001;-8.155661821365356E-002;-2.677463635336608E-004;3.428477328270674E-003;
2.423833333333334E+009;1.637973040342331E-001;-8.359434455633164E-002;-1.635580410948023E-004;3.285728394985199E-003;
2.424000000000000E+009;1.638864576816559E-001;-8.545676618814468E-002;-8.188110223272815E-005;3.299660282209516E-003;
2.424166666666667E+009;1.641114503145218E-001;-8.721736818552017E-002;1.280659780604765E-004;3.237623022869229E-003;
2.424333333333334E+009;1.642738878726959E-001;-8.897187560796738E-002;2.400533558102325E-004;3.066888777539134E-003;
2.424500000000000E+009;1.646891236305237E-001;-9.094106405973434E-002;6.872940866742283E-005;3.180483588948846E-003;
2.424666666666667E+009;1.649063527584076E-001;-9.240051358938217E-002;3.009510401170701E-004;2.953824819996953E-003;
2.424833333333334E+009;1.656798869371414E-001;-9.371393918991089E-002;4.861357156187296E-004;3.010495798662305E-003;
2.425000000000000E+009;1.661270260810852E-001;-9.514125436544418E-002;3.631661820691079E-004;2.923550782725215E-003;
2.425166666666667E+009;1.665493100881577E-001;-9.646305441856384E-002;4.922815714962781E-004;3.062193049117923E-003;
2.425333333333334E+009;1.669596135616303E-001;-9.750861674547195E-002;3.531742549967021E-004;2.925685374066234E-003;
2.425500000000000E+009;1.675760746002197E-001;-9.847567230463028E-002;3.555082366801798E-004;2.765505108982325E-003;
2.425666666666667E+009;1.680183112621307E-001;-9.941675513982773E-002;4.145227721892297E-004;2.812185557559133E-003;
2.425833333333334E+009;1.685296446084976E-001;-1.003795936703682E-001;5.147556657902896E-004;2.839125227183104E-003;
2.426000000000000E+009;1.690893769264221E-001;-1.008889079093933E-001;5.671112448908389E-004;2.794151427224279E-003;
2.426166666666667E+009;1.695629954338074E-001;-1.014562100172043E-001;6.642138469032943E-004;2.895271638408303E-003;
2.426333333333334E+009;1.697974056005478E-001;-1.021280437707901E-001;4.783949407283217E-004;2.957108197733760E-003;
2.426500000000000E+009;1.704235821962357E-001;-1.024404540657997E-001;4.873819416388869E-004;3.130956552922726E-003;
2.426666666666667E+009;1.706870198249817E-001;-1.028091236948967E-001;7.417132146656513E-004;3.171550808474422E-003;
2.426833333333334E+009;1.710329055786133E-001;-1.031040623784065E-001;7.067702827043831E-004;3.132319310680032E-003;
2.427000000000000E+009;1.712250858545303E-001;-1.033551171422005E-001;9.237018530257046E-004;3.046798286959529E-003;
2.427166666666667E+009;1.713438779115677E-001;-1.034994125366211E-001;9.382163407281041E-004;3.064433811232448E-003;
2.427333333333334E+009;1.713645160198212E-001;-1.038217246532440E-001;1.045170938596129E-003;3.156938124448061E-003;
2.427500000000000E+009;1.712400317192078E-001;-1.039678826928139E-001;1.246624626219273E-003;3.014256944879890E-003;
2.427666666666667E+009;1.710674762725830E-001;-1.039737164974213E-001;1.357103348709643E-003;3.142495639622212E-003;
