# Version 1.00
#
freq[Hz];re:Trc1_S11;im:Trc1_S11;re:Trc2_S21;im:Trc2_S21;
2.400000000000000E+009;1.563240289688110E-001;1.087234914302826E-001;2.231081482023001E-003;-4.986547864973545E-004;
2.400166666666667E+009;1.558894813060761E-001;1.063162907958031E-001;2.092007780447602E-003;-1.637824927456677E-003;
2.400333333333334E+009;1.558555066585541E-001;1.041612029075623E-001;2.081045648083091E-003;-7.830245885998011E-004;
2.400500000000000E+009;1.558353900909424E-001;1.013297662138939E-001;2.021546242758632E-003;-9.378771064803004E-004;
2.400666666666667E+009;1.556392759084702E-001;9.891087561845779E-002;2.037805505096912E-003;-9.963710326701403E-004;
2.400833333333334E+009;1.554689407348633E-001;9.607103466987610E-002;2.051880117505789E-003;-1.114206505008042E-003;
2.401000000000000E+009;1.555426418781281E-001;9.303858131170273E-002;1.932678162120283E-003;-1.156998099759221E-003;
2.401166666666667E+009;1.554449796676636E-001;9.036185592412949E-002;2.018108963966370E-003;-1.235608127899468E-003;
2.401333333333334E+009;1.557919979095459E-001;8.734314888715744E-002;1.938634901307523E-003;-1.370186684653163E-003;
2.401500000000000E+009;1.560097485780716E-001;8.440662175416946E-002;1.951013691723347E-003;-1.445867004804313E-003;
2.401666666666667E+009;1.562935858964920E-001;8.147214353084564E-002;2.084220992401242E-003;-1.546100829727948E-003;
2.401833333333334E+009;1.566922515630722E-001;7.857409119606018E-002;2.002213848754764E-003;-1.741048996336758E-003;
2.402000000000000E+009;1.576306074857712E-001;7.575967162847519E-002;2.024372108280659E-003;-1.747903763316572E-003;
2.402166666666667E+009;1.582123786211014E-001;7.307384908199310E-002;2.040241146460176E-003;-2.024339977651835E-003;
2.402333333333334E+009;1.590440124273300E-001;7.023450732231140E-002;2.057175850495696E-003;-2.299333456903696E-003;
2.402500000000000E+009;1.601474583148956E-001;6.756702810525894E-002;1.883902004919946E-003;-2.276816871017218E-003;
2.402666666666667E+009;1.610945016145706E-001;6.504182517528534E-002;1.888121245428920E-003;-2.475121058523655E-003;
2.402833333333334E+009;1.624798625707626E-001;6.254526972770691E-002;1.672506798058748E-003;-2.611588221043348E-003;
2.403000000000000E+009;1.636503934860230E-001;5.994166806340218E-002;1.562546938657761E-003;-2.950921887531877E-003;
2.403166666666667E+009;1.654553711414337E-001;5.757022276520729E-002;1.424037618562579E-003;-3.054840955883265E-003;
2.403333333333334E+009;1.668300032615662E-001;5.532929301261902E-002;1.349354046396911E-003;-3.220290178433061E-003;
2.403500000000000E+009;1.684099435806274E-001;5.317763984203339E-002;8.060284890234470E-004;-3.501405240967870E-003;
2.403666666666667E+009;1.701580882072449E-001;5.110244825482369E-002;7.478517363779247E-004;-3.304846584796906E-003;
2.403833333333334E+009;1.717941910028458E-001;4.901298135519028E-002;5.542764556594193E-004;-3.496352583169937E-003;
2.404000000000000E+009;1.732802242040634E-001;4.718157649040222E-002;1.294418034376577E-004;-3.634074004366994E-003;
2.404166666666667E+009;1.748922914266586E-001;4.568528011441231E-002;-1.363143237540498E-004;-3.461454994976521E-003;
2.404333333333334E+009;1.766918450593948E-001;4.407715052366257E-002;-4.398444143589586E-004;-3.478455357253552E-003;
2.404500000000000E+009;1.783480346202850E-001;4.252236708998680E-002;-6.084408378228545E-004;-3.235748736187816E-003;
2.404666666666667E+009;1.799287497997284E-001;4.144144058227539E-002;-8.895740029402077E-004;-3.171026473864913E-003;
2.404833333333334E+009;1.816893070936203E-001;4.022004827857018E-002;-1.088317600078881E-003;-3.025941317901015E-003;
2.405000000000000E+009;1.830486804246903E-001;3.958331421017647E-002;-1.266520936042070E-003;-2.824716502800584E-003;
2.405166666666667E+009;1.846176236867905E-001;3.876782581210136E-002;-1.172473537735641E-003;-2.636936027556658E-003;
2.405333333333334E+009;1.859673559665680E-001;3.837076202034950E-002;-1.284429221414030E-003;-2.581243403255940E-003;
2.405500000000000E+009;1.874874383211136E-001;3.781206160783768E-002;-1.390050048939884E-003;-2.430352615192533E-003;
2.405666666666667E+009;1.887953281402588E-001;3.749521449208260E-002;-1.560381264425814E-003;-2.341883024200797E-003;
2.405833333333334E+009;1.901663392782211E-001;3.713188320398331E-002;-1.499779173173010E-003;-2.111803041771054E-003;
2.406000000000000E+009;1.911481320858002E-001;3.703301772475243E-002;-1.637026900425553E-003;-1.853374764323235E-003;
2.406166666666667E+009;1.922546327114105E-001;3.700601682066917E-002;-1.458376995287836E-003;-1.873169909231365E-003;
2.406333333333334E+009;1.932936310768127E-001;3.708501905202866E-002;-1.507324515841901E-003;-1.807489665225148E-003;
2.406500000000000E+009;1.940269619226456E-001;3.725445270538330E-002;-1.575275440700352E-003;-1.787504996173084E-003;
2.406666666666667E+009;1.946684122085571E-001;3.753329813480377E-002;-1.618987880647183E-003;-1.495455391705036E-003;
2.406833333333334E+009;1.953889876604080E-001;3.757960349321365E-002;-1.640052767470479E-003;-1.428546383976936E-003;
2.407000000000000E+009;1.956855356693268E-001;3.786925598978996E-002;-1.550970948301256E-003;-1.265162369236350E-003;
2.407166666666667E+009;1.962743550539017E-001;3.791126981377602E-002;-1.647641183808446E-003;-1.263858168385923E-003;
2.407333333333334E+009;1.962766200304031E-001;3.812373429536820E-002;-1.656281528994441E-003;-1.171595882624388E-003;
2.407500000000000E+009;1.963435858488083E-001;3.849490359425545E-002;-1.636986504308879E-003;-1.091535785235465E-003;
2.407666666666667E+009;1.964687108993530E-001;3.858700767159462E-002;-1.562339137308300E-003;-8.257420849986374E-004;
2.407833333333334E+009;1.959525942802429E-001;3.868995606899262E-002;-1.502021448686719E-003;-9.166411473415792E-004;
2.408000000000000E+009;1.959504634141922E-001;3.880396112799645E-002;-1.515084877610207E-003;-8.114181691780686E-004;
2.408166666666667E+009;1.953827887773514E-001;3.868697583675385E-002;-1.437846454791725E-003;-6.951485411264002E-004;
2.408333333333334E+009;1.949388980865479E-001;3.835062682628632E-002;-1.351192244328558E-003;-6.855210522189736E-004;
2.408500000000000E+009;1.944183260202408E-001;3.821844980120659E-002;-1.346450182609260E-003;-6.193242734298110E-004;
2.408666666666667E+009;1.937642842531204E-001;3.789412230253220E-002;-1.214912743307650E-003;-5.528306937776506E-004;
2.408833333333334E+009;1.930583566427231E-001;3.727464005351067E-002;-9.139689500443637E-004;-4.504905955400318E-004;
2.409000000000000E+009;1.921107918024063E-001;3.664602339267731E-002;-8.872341713868082E-004;-3.817793622147292E-004;
2.409166666666667E+009;1.913240253925324E-001;3.581164032220841E-002;-8.486305596306920E-004;-5.437024447019212E-005;
2.409333333333334E+009;1.903110891580582E-001;3.500086814165115E-002;-7.612082408741117E-004;-3.236806951463223E-004;
2.409500000000000E+009;1.893335133790970E-001;3.403419256210327E-002;-5.927355377934873E-004;-1.170377508969978E-004;
2.409666666666667E+009;1.882195025682449E-001;3.265290334820747E-002;-4.145911952946335E-004;-3.305034479126334E-004;
2.409833333333334E+009;1.872105747461319E-001;3.124053403735161E-002;-4.016337916254997E-004;-3.084162599407136E-004;
2.410000000000000E+009;1.862002611160278E-001;2.976946718990803E-002;-2.836700587067753E-004;-4.782996547874063E-004;
2.410166666666667E+009;1.850005090236664E-001;2.804657071828842E-002;-3.953502455260605E-004;-6.827571196481586E-004;
2.410333333333334E+009;1.841489672660828E-001;2.647238038480282E-002;-1.096188789233565E-004;-7.897908799350262E-004;
2.410500000000000E+009;1.830209940671921E-001;2.450390346348286E-002;-2.818909415509552E-004;-8.200992597267032E-004;
2.410666666666667E+009;1.820534169673920E-001;2.227735519409180E-002;-3.768443420995027E-004;-9.819339029490948E-004;
2.410833333333334E+009;1.813744157552719E-001;2.036489918828011E-002;-2.207563084084541E-004;-9.163602371700108E-004;
2.411000000000000E+009;1.805678457021713E-001;1.833309791982174E-002;-1.300530129810795E-004;-1.060453127138317E-003;
2.411166666666667E+009;1.800078302621841E-001;1.600895822048187E-002;-2.328203263459727E-004;-1.165224355645478E-003;
2.411333333333334E+009;1.791767627000809E-001;1.368920877575874E-002;-3.718463703989983E-004;-1.217609853483737E-003;
2.411500000000000E+009;1.788345277309418E-001;1.108885742723942E-002;-1.951145095517859E-004;-1.222311868332326E-003;
2.411666666666667E+009;1.783701926469803E-001;9.014438837766647E-003;-3.683397662825882E-004;-1.324423006735742E-003;
2.411833333333334E+009;1.780756115913391E-001;6.517737172544003E-003;-3.589816333260387E-004;-1.491608913056552E-003;
2.412000000000000E+009;1.781318038702011E-001;3.978184424340725E-003;-2.637748548295349E-004;-1.428154879249632E-003;
2.412166666666667E+009;1.783276349306107E-001;1.478075166232884E-003;-2.872010518331081E-004;-1.539341406896710E-003;
2.412333333333334E+009;1.782725900411606E-001;-1.106334500946105E-003;-4.349247901700437E-004;-1.625556382350624E-003;
2.412500000000000E+009;1.788349151611328E-001;-3.496160963550210E-003;-3.942964831367135E-004;-1.800243859179318E-003;
2.412666666666667E+009;1.791805028915405E-001;-6.105273962020874E-003;-5.463257548399270E-004;-1.865085330791771E-003;
2.412833333333334E+009;1.798785030841827E-001;-8.483434095978737E-003;-6.133508868515492E-004;-1.866912818513811E-003;
2.413000000000000E+009;1.806205362081528E-001;-1.088351197540760E-002;-7.775105186738074E-004;-2.196101471781731E-003;
2.413166666666667E+009;1.813975274562836E-001;-1.322092209011316E-002;-9.160876506939530E-004;-2.353120595216751E-003;
2.413333333333334E+009;1.823600530624390E-001;-1.573438197374344E-002;-1.128070289269090E-003;-2.356152050197125E-003;
2.413500000000000E+009;1.833276152610779E-001;-1.803348399698734E-002;-1.335676759481430E-003;-2.335784723982215E-003;
2.413666666666667E+009;1.847018450498581E-001;-2.044122666120529E-002;-1.538909040391445E-003;-2.426250837743282E-003;
2.413833333333334E+009;1.857413649559021E-001;-2.246798761188984E-002;-1.798060722649097E-003;-2.381783211603761E-003;
2.414000000000000E+009;1.866879165172577E-001;-2.468479052186012E-002;-1.969399861991406E-003;-2.289714058861136E-003;
2.414166666666667E+009;1.881560832262039E-001;-2.647213265299797E-002;-2.095515374094248E-003;-2.329727169126272E-003;
2.414333333333334E+009;1.892887204885483E-001;-2.855866216123104E-002;-2.446791389957070E-003;-2.207125071436167E-003;
2.414500000000000E+009;1.906777471303940E-001;-3.030644729733467E-002;-2.548053162172437E-003;-2.047543646767736E-003;
2.414666666666667E+009;1.917970180511475E-001;-3.175546601414681E-002;-2.721414901316166E-003;-1.931865001097322E-003;
2.414833333333334E+009;1.930863559246063E-001;-3.323360532522202E-002;-2.909168833866715E-003;-1.812775153666735E-003;
2.415000000000000E+009;1.941631734371185E-001;-3.447318449616432E-002;-3.051821608096361E-003;-1.592130749486387E-003;
2.415166666666667E+009;1.955644041299820E-001;-3.585532307624817E-002;-3.037423128262162E-003;-1.504288171418011E-003;
2.415333333333334E+009;1.968448609113693E-001;-3.707286342978478E-002;-3.116641426458955E-003;-1.553034759126604E-003;
2.415500000000000E+009;1.980434507131577E-001;-3.767267614603043E-002;-3.128406358882785E-003;-1.212717732414603E-003;
2.415666666666667E+009;1.991252452135086E-001;-3.865050524473190E-002;-3.322997828945518E-003;-1.129009062424302E-003;
2.415833333333334E+009;2.000870555639267E-001;-3.920219838619232E-002;-3.327439306303859E-003;-1.033529173582792E-003;
2.416000000000000E+009;2.010691165924072E-001;-3.990054130554199E-002;-3.409509081393480E-003;-8.906190050765872E-004;
2.416166666666667E+009;2.018403410911560E-001;-4.045264050364494E-002;-3.604534780606628E-003;-7.938809576444328E-004;
2.416333333333334E+009;2.025730907917023E-001;-4.065752029418945E-002;-3.605253295972943E-003;-7.763351313769817E-004;
2.416500000000000E+009;2.031185328960419E-001;-4.112582653760910E-002;-3.819715464487672E-003;-5.342678632587194E-004;
2.416666666666667E+009;2.036254853010178E-001;-4.132394865155220E-002;-3.823463106527925E-003;-4.124751139897853E-004;
2.416833333333334E+009;2.037078887224197E-001;-4.135641828179359E-002;-3.762223292142153E-003;-1.201523336931132E-004;
2.417000000000000E+009;2.041736245155335E-001;-4.147306829690933E-002;-3.824608167633414E-003;2.351629518670961E-005;
2.417166666666667E+009;2.039497196674347E-001;-4.129268601536751E-002;-3.778198966756463E-003;1.824988430598751E-004;
2.417333333333334E+009;2.037839144468308E-001;-4.109648615121841E-002;-3.878752700984478E-003;1.802925398806110E-004;
2.417500000000000E+009;2.036102861166000E-001;-4.111758247017860E-002;-3.798375604674220E-003;5.567063926719129E-004;
2.417666666666667E+009;2.032006680965424E-001;-4.075506702065468E-002;-3.858626121655107E-003;7.399481255561113E-004;
2.417833333333334E+009;2.029639035463333E-001;-4.048101976513863E-002;-3.826399100944400E-003;8.958771359175444E-004;
2.418000000000000E+009;2.023337185382843E-001;-4.012800753116608E-002;-3.880017204210162E-003;1.002440229058266E-003;
2.418166666666667E+009;2.017740607261658E-001;-4.002916067838669E-002;-3.893480170518160E-003;1.177437487058342E-003;
2.418333333333334E+009;2.008519023656845E-001;-3.982827067375183E-002;-3.872400149703026E-003;1.399105181917548E-003;
2.418500000000000E+009;1.999184340238571E-001;-3.974646329879761E-002;-3.780005732551217E-003;1.492427545599639E-003;
2.418666666666667E+009;1.990752071142197E-001;-3.960805013775826E-002;-3.762744134292007E-003;1.766676548868418E-003;
2.418833333333334E+009;1.979292929172516E-001;-3.953696042299271E-002;-3.551763715222478E-003;1.950216363184154E-003;
2.419000000000000E+009;1.966485530138016E-001;-3.981261327862740E-002;-3.540735226124525E-003;2.077642362564802E-003;
2.419166666666667E+009;1.953595876693726E-001;-3.997666761279106E-002;-3.365494310855866E-003;2.347335685044527E-003;
2.419333333333334E+009;1.939631402492523E-001;-4.046148806810379E-002;-3.231990616768599E-003;2.549491822719574E-003;
2.419500000000000E+009;1.925190240144730E-001;-4.072383418679237E-002;-2.968880580738187E-003;2.630322705954313E-003;
2.419666666666667E+009;1.908967196941376E-001;-4.162948206067085E-002;-2.801707480102778E-003;2.833459759131074E-003;
2.419833333333334E+009;1.892124414443970E-001;-4.204345121979713E-002;-2.772073028609157E-003;2.931929193437100E-003;
2.420000000000000E+009;1.876169592142105E-001;-4.283762350678444E-002;-2.425692277029157E-003;2.753411885350943E-003;
2.420166666666667E+009;1.859047710895538E-001;-4.374792054295540E-002;-2.260142471641302E-003;2.858393359929323E-003;
2.420333333333334E+009;1.842981278896332E-001;-4.492685571312904E-002;-2.172623993828893E-003;2.922526793554425E-003;
2.420500000000000E+009;1.824539601802826E-001;-4.609904065728188E-002;-1.933489344082773E-003;2.910773735493422E-003;
2.420666666666667E+009;1.807007491588593E-001;-4.717152193188667E-002;-1.825361861847341E-003;2.922334242612124E-003;
2.420833333333334E+009;1.789942681789398E-001;-4.868520051240921E-002;-1.932361745275557E-003;2.966152969747782E-003;
2.421000000000000E+009;1.774740517139435E-001;-5.011360347270966E-002;-1.665572286583483E-003;2.764612901955843E-003;
2.421166666666667E+009;1.759373992681503E-001;-5.199433863162994E-002;-1.658431254327297E-003;2.866961061954498E-003;
2.421333333333334E+009;1.742867082357407E-001;-5.342550203204155E-002;-1.706363051198423E-003;2.756987232714891E-003;
2.421500000000000E+009;1.729125082492828E-001;-5.521464720368385E-002;-1.671129371970892E-003;2.812543418258429E-003;
2.421666666666667E+009;1.715944856405258E-001;-5.716134980320931E-002;-1.709025003947318E-003;2.995754592120647E-003;
2.421833333333334E+009;1.703509837388992E-001;-5.911181494593620E-002;-1.483671599999070E-003;2.927831374108791E-003;
2.422000000000000E+009;1.691136360168457E-001;-6.099203974008560E-002;-1.482511870563030E-003;3.004594938829541E-003;
2.422166666666667E+009;1.683479994535446E-001;-6.305995583534241E-002;-1.453035627491772E-003;3.031171625480056E-003;
2.422333333333334E+009;1.671284139156342E-001;-6.526052206754684E-002;-1.309401239268482E-003;3.144959919154644E-003;
2.422500000000000E+009;1.662916541099548E-001;-6.725832074880600E-002;-1.231484115123749E-003;3.303006058558822E-003;
2.422666666666667E+009;1.655849218368530E-001;-6.941831111907959E-002;-1.308262697421014E-003;3.289298852905631E-003;
2.422833333333334E+009;1.651401966810226E-001;-7.168169319629669E-002;-1.023233169689775E-003;3.371800063177943E-003;
2.423000000000000E+009;1.645747721195221E-001;-7.359144836664200E-002;-1.013149274513125E-003;3.312137210741639E-003;
2.423166666666667E+009;1.640287786722183E-001;-7.566478848457336E-002;-8.302189526148140E-004;3.324408549815416E-003;
2.423333333333334E+009;1.637134253978729E-001;-7.798378169536591E-002;-6.051948294043541E-004;3.466986352577806E-003;
2.423500000000000E+009;1.637498587369919E-001;-7.985745370388031E-002;-5.369523423723877E-004;3.368524136021733E-003;
2.423666666666667E+009;1.638389527797699E-001;-8.186513930559158E-002;-2.858678926713765E-004;3.513873787596822E-003;
2.423833333333334E+009;1.637257486581802E-001;-8.374527841806412E-002;-2.777198678813875E-004;3.537632524967194E-003;
2.424000000000000E+009;1.638597995042801E-001;-8.569252490997315E-002;-1.653947110753506E-004;3.344148863106966E-003;
2.424166666666667E+009;1.640236526727676E-001;-8.734681457281113E-002;-1.259089622180909E-004;3.268721746280789E-003;
2.424333333333334E+009;1.642417311668396E-001;-8.910939097404480E-002;-3.676363121485338E-005;3.438008483499289E-003;
2.424500000000000E+009;1.647349894046783E-001;-9.102117270231247E-002;8.213771798182279E-005;3.215903183445334E-003;
2.424666666666667E+009;1.649587899446487E-001;-9.241814911365509E-002;-4.864533821091754E-006;3.182389074936509E-003;
2.424833333333334E+009;1.656048297882080E-001;-9.389432519674301E-002;2.306169481016696E-004;3.094433108344674E-003;
2.425000000000000E+009;1.661400496959686E-001;-9.517128020524979E-002;3.121197514701635E-004;2.971159992739558E-003;
2.425166666666667E+009;1.665498316287994E-001;-9.656048566102982E-002;3.506581997498870E-004;3.008398693054915E-003;
2.425333333333334E+009;1.669094413518906E-001;-9.755426645278931E-002;3.501637838780880E-004;3.115910105407238E-003;
2.425500000000000E+009;1.675063073635101E-001;-9.868256747722626E-002;3.257294592913240E-004;2.988899126648903E-003;
2.425666666666667E+009;1.679656058549881E-001;-9.940937161445618E-002;3.530988469719887E-004;3.099980065599084E-003;
2.425833333333334E+009;1.684247553348541E-001;-1.004161164164543E-001;3.162736829835922E-004;2.934458898380399E-003;
2.426000000000000E+009;1.690383404493332E-001;-1.009694933891296E-001;4.331572272349149E-004;3.035457571968436E-003;
2.426166666666667E+009;1.695480048656464E-001;-1.014268547296524E-001;2.950497437268496E-004;3.128820098936558E-003;
2.426333333333334E+009;1.697606146335602E-001;-1.021186187863350E-001;4.292070225346834E-004;3.202347084879875E-003;
2.426500000000000E+009;1.702625155448914E-001;-1.023801043629646E-001;4.689529596362263E-004;3.245744388550520E-003;
2.426666666666667E+009;1.706981062889099E-001;-1.027457490563393E-001;5.425562267191708E-004;3.227825742214918E-003;
2.426833333333334E+009;1.710142940282822E-001;-1.031893193721771E-001;6.977408193051815E-004;3.091185120865703E-003;
2.427000000000000E+009;1.711854338645935E-001;-1.033718287944794E-001;7.501237560063601E-004;3.317069262266159E-003;
2.427166666666667E+009;1.713428050279617E-001;-1.035218387842178E-001;9.654973982833326E-004;3.360307076945901E-003;
2.427333333333334E+009;1.713690906763077E-001;-1.036483272910118E-001;9.895418770611286E-004;3.270490560680628E-003;
2.427500000000000E+009;1.712545752525330E-001;-1.038359329104424E-001;1.169612980447710E-003;3.202963620424271E-003;
2.427666666666667E+009;1.710125654935837E-001;-1.038865447044373E-001;1.172330346889794E-003;3.351102815940976E-003;
