# Version 1.00
#
freq[Hz];re:Trc1_S11;im:Trc1_S11;re:Trc2_S21;im:Trc2_S21;
2.400000000000000E+009;1.562598794698715E-001;6.036538258194923E-002;-2.317904727533460E-003;-2.705081598833203E-003;
2.400166666666667E+009;1.563675403594971E-001;5.857998877763748E-002;-2.312156837433577E-003;-2.705361694097519E-003;
2.400333333333334E+009;1.564471721649170E-001;5.663380026817322E-002;-2.224780386313796E-003;-2.571874763816595E-003;
2.400500000000000E+009;1.567998975515366E-001;5.455034598708153E-002;-2.573463367298245E-003;-2.478641923516989E-003;
2.400666666666667E+009;1.569729149341583E-001;5.251705646514893E-002;-2.284877467900515E-003;-2.578956773504615E-003;
2.400833333333334E+009;1.573531627655029E-001;5.050908401608467E-002;-2.501601120457053E-003;-2.314082812517881E-003;
2.401000000000000E+009;1.575408428907394E-001;4.842374473810196E-002;-2.682324266061187E-003;-2.404141239821911E-003;
2.401166666666667E+009;1.581324934959412E-001;4.637143388390541E-002;-2.698077121749520E-003;-2.227086573839188E-003;
2.401333333333334E+009;1.583316028118134E-001;4.428893700242043E-002;-2.701584948226810E-003;-2.272275742143393E-003;
2.401500000000000E+009;1.591572016477585E-001;4.210532829165459E-002;-2.689299639314413E-003;-2.130593638867140E-003;
2.401666666666667E+009;1.595786660909653E-001;4.033298790454865E-002;-2.833001781255007E-003;-2.097238088026643E-003;
2.401833333333334E+009;1.601622849702835E-001;3.823022171854973E-002;-2.943046856671572E-003;-2.116637537255883E-003;
2.402000000000000E+009;1.607597321271896E-001;3.647051379084587E-002;-2.876495011150837E-003;-2.006151946261525E-003;
2.402166666666667E+009;1.615751236677170E-001;3.458984941244125E-002;-2.967063570395112E-003;-1.955950167030096E-003;
2.402333333333334E+009;1.620947122573853E-001;3.270896151661873E-002;-3.040848067030311E-003;-1.838995260186493E-003;
2.402500000000000E+009;1.631719619035721E-001;3.109944052994251E-002;-3.042880678549409E-003;-1.892615575343370E-003;
2.402666666666667E+009;1.640184968709946E-001;2.952033281326294E-002;-3.210934111848474E-003;-1.797397155314684E-003;
2.402833333333334E+009;1.648111492395401E-001;2.803927659988403E-002;-3.156813560053706E-003;-1.711884047836065E-003;
2.403000000000000E+009;1.659168899059296E-001;2.651037089526653E-002;-3.200441598892212E-003;-1.636419445276260E-003;
2.403166666666667E+009;1.666932702064514E-001;2.522848919034004E-002;-3.288818756118417E-003;-1.561503158882260E-003;
2.403333333333334E+009;1.678069233894348E-001;2.413279190659523E-002;-3.347374266013503E-003;-1.452615601010621E-003;
2.403500000000000E+009;1.685580313205719E-001;2.285544015467167E-002;-3.368156263604760E-003;-1.516966614872217E-003;
2.403666666666667E+009;1.695245951414108E-001;2.163270115852356E-002;-3.487200709059835E-003;-1.535412855446339E-003;
2.403833333333334E+009;1.705967336893082E-001;2.061671204864979E-002;-3.404833376407623E-003;-1.438919338397682E-003;
2.404000000000000E+009;1.713516414165497E-001;1.976892352104187E-002;-3.743513487279415E-003;-1.304881763644517E-003;
2.404166666666667E+009;1.723140925168991E-001;1.866658963263035E-002;-3.673924133181572E-003;-1.276468741707504E-003;
2.404333333333334E+009;1.733257472515106E-001;1.819786988198757E-002;-3.870482090860605E-003;-1.103046815842390E-003;
2.404500000000000E+009;1.740765571594238E-001;1.714543625712395E-002;-3.704510862007737E-003;-1.034444430842996E-003;
2.404666666666667E+009;1.749268025159836E-001;1.664686948060989E-002;-3.852723864838481E-003;-1.035719877108932E-003;
2.404833333333334E+009;1.755483001470566E-001;1.604891382157803E-002;-3.739471547305584E-003;-6.368727190420032E-004;
2.405000000000000E+009;1.763727366924286E-001;1.546689681708813E-002;-3.926567267626524E-003;-6.849157507531345E-004;
2.405166666666667E+009;1.770082563161850E-001;1.505551114678383E-002;-3.862358396872878E-003;-5.248850793577731E-004;
2.405333333333334E+009;1.775451451539993E-001;1.453595794737339E-002;-4.099481739103794E-003;-5.747030954807997E-004;
2.405500000000000E+009;1.782186478376389E-001;1.431136671453714E-002;-4.102406091988087E-003;-3.824152809102088E-004;
2.405666666666667E+009;1.787265837192535E-001;1.413601264357567E-002;-3.978310618549585E-003;-2.913577773142606E-004;
2.405833333333334E+009;1.788636893033981E-001;1.384554523974657E-002;-4.114147741347551E-003;-1.164160712505691E-004;
2.406000000000000E+009;1.793828606605530E-001;1.346951536834240E-002;-4.072848707437515E-003;-1.528121792944148E-004;
2.406166666666667E+009;1.794243156909943E-001;1.322507951408625E-002;-3.996591083705425E-003;1.310440566157922E-004;
2.406333333333334E+009;1.797779500484467E-001;1.299897395074368E-002;-4.141783341765404E-003;6.864123861305416E-005;
2.406500000000000E+009;1.797523647546768E-001;1.266080513596535E-002;-4.173350986093283E-003;3.335065557621419E-004;
2.406666666666667E+009;1.795449852943420E-001;1.227798778563738E-002;-4.213472362607718E-003;4.568795557133853E-004;
2.406833333333334E+009;1.795608699321747E-001;1.195785682648420E-002;-4.231541417539120E-003;5.477456725202501E-004;
2.407000000000000E+009;1.795124113559723E-001;1.160858199000359E-002;-4.116099327802658E-003;7.411188562400639E-004;
2.407166666666667E+009;1.793807148933411E-001;1.123456191271544E-002;-4.070747643709183E-003;6.946551147848368E-004;
2.407333333333334E+009;1.789532750844955E-001;1.067243609577417E-002;-3.974304534494877E-003;8.777418406680226E-004;
2.407500000000000E+009;1.787028908729553E-001;1.018914114683867E-002;-3.995324950665236E-003;9.030936635099351E-004;
2.407666666666667E+009;1.782137453556061E-001;9.568383917212486E-003;-3.945379517972469E-003;1.091708545573056E-003;
2.407833333333334E+009;1.776422858238220E-001;8.759900927543640E-003;-4.007173702120781E-003;1.188074587844312E-003;
2.408000000000000E+009;1.771698892116547E-001;8.058262057602406E-003;-3.914733417332172E-003;1.379991997964680E-003;
2.408166666666667E+009;1.765514016151428E-001;7.326817139983177E-003;-3.898149356245995E-003;1.368533936329186E-003;
2.408333333333334E+009;1.761322021484375E-001;6.326699163764715E-003;-4.030948970466852E-003;1.536104711703956E-003;
2.408500000000000E+009;1.754583716392517E-001;5.202358122915030E-003;-3.808743320405483E-003;1.542523619718850E-003;
2.408666666666667E+009;1.747214496135712E-001;4.145895130932331E-003;-3.815321251749992E-003;1.591067179106176E-003;
2.408833333333334E+009;1.739920675754547E-001;3.031536703929305E-003;-3.796691773459315E-003;1.627570949494839E-003;
2.409000000000000E+009;1.732404679059982E-001;1.649891026318073E-003;-3.706851508468390E-003;1.779056270606816E-003;
2.409166666666667E+009;1.728177517652512E-001;3.514249110594392E-004;-3.730125026777387E-003;1.876027556136251E-003;
2.409333333333334E+009;1.720724701881409E-001;-1.073889667168260E-003;-3.698263783007860E-003;1.958771608769894E-003;
2.409500000000000E+009;1.712831258773804E-001;-2.710103755816817E-003;-3.636717097833753E-003;1.834498601965606E-003;
2.409666666666667E+009;1.706439405679703E-001;-4.335453268140554E-003;-3.696777625009418E-003;2.129255561158061E-003;
2.409833333333334E+009;1.700509786605835E-001;-5.840505473315716E-003;-3.528244560584426E-003;2.195156412199140E-003;
2.410000000000000E+009;1.696174442768097E-001;-7.491783704608679E-003;-3.405560506507754E-003;2.246915362775326E-003;
2.410166666666667E+009;1.689877212047577E-001;-9.203893132507801E-003;-3.501687198877335E-003;2.327842405065894E-003;
2.410333333333334E+009;1.684813648462296E-001;-1.102843414992094E-002;-3.465993795543909E-003;2.371742157265544E-003;
2.410500000000000E+009;1.682502776384354E-001;-1.289308164268732E-002;-3.506501205265522E-003;2.478156704455614E-003;
2.410666666666667E+009;1.678422838449478E-001;-1.487502828240395E-002;-3.454837948083878E-003;2.603030996397138E-003;
2.410833333333334E+009;1.676155328750610E-001;-1.670459844172001E-002;-3.556868294253945E-003;2.836965490132570E-003;
2.411000000000000E+009;1.672850400209427E-001;-1.852758228778839E-002;-3.369348123669624E-003;2.828281838446856E-003;
2.411166666666667E+009;1.673250347375870E-001;-2.069973759353161E-002;-3.272638656198978E-003;2.837212523445487E-003;
2.411333333333334E+009;1.670373827219009E-001;-2.251840196549892E-002;-3.299891250208020E-003;2.888799179345369E-003;
2.411500000000000E+009;1.672823280096054E-001;-2.455418184399605E-002;-3.488841699436307E-003;3.162279725074768E-003;
2.411666666666667E+009;1.675511598587036E-001;-2.655740827322006E-002;-3.316707210615277E-003;3.254541428759694E-003;
2.411833333333334E+009;1.677051931619644E-001;-2.816776186227799E-002;-3.395140171051025E-003;3.437704406678677E-003;
2.412000000000000E+009;1.681731492280960E-001;-3.044207580387592E-002;-3.110232762992382E-003;3.559107193723321E-003;
2.412166666666667E+009;1.682294607162476E-001;-3.220991045236588E-002;-3.060749266296625E-003;3.698777640238404E-003;
2.412333333333334E+009;1.688799858093262E-001;-3.403631970286369E-002;-3.049580845981836E-003;3.745716996490955E-003;
2.412500000000000E+009;1.691537350416184E-001;-3.572276607155800E-002;-3.035787027329207E-003;3.912116400897503E-003;
2.412666666666667E+009;1.697286367416382E-001;-3.761069476604462E-002;-3.026618855074048E-003;3.972589038312435E-003;
2.412833333333334E+009;1.705047488212585E-001;-3.933808952569962E-002;-2.831790130585432E-003;4.180578514933586E-003;
2.413000000000000E+009;1.708122044801712E-001;-4.094823822379112E-002;-2.755196765065193E-003;4.212798085063696E-003;
2.413166666666667E+009;1.713211983442307E-001;-4.245708882808685E-002;-2.655841177329421E-003;4.439799580723047E-003;
2.413333333333334E+009;1.719423979520798E-001;-4.407408833503723E-002;-2.608041977509856E-003;4.615127108991146E-003;
2.413500000000000E+009;1.727932989597321E-001;-4.542938247323036E-002;-2.417240524664521E-003;4.486700054258108E-003;
2.413666666666667E+009;1.734336018562317E-001;-4.686763510107994E-002;-2.109796507284045E-003;4.892596974968910E-003;
2.413833333333334E+009;1.738486886024475E-001;-4.812015220522881E-002;-2.143698278814554E-003;4.896339494735003E-003;
2.414000000000000E+009;1.745311617851257E-001;-4.945033788681030E-002;-1.989630749449134E-003;4.918442573398352E-003;
2.414166666666667E+009;1.752452850341797E-001;-5.047300457954407E-002;-1.795891788788140E-003;5.283408798277378E-003;
2.414333333333334E+009;1.756289750337601E-001;-5.141030997037888E-002;-1.605816651135683E-003;5.303387995809317E-003;
2.414500000000000E+009;1.764815449714661E-001;-5.238193646073341E-002;-1.321574673056603E-003;5.243442021310329E-003;
2.414666666666667E+009;1.768598705530167E-001;-5.320372804999352E-002;-1.087660202756524E-003;5.309362895786762E-003;
2.414833333333334E+009;1.772953569889069E-001;-5.404036119580269E-002;-1.026402227580547E-003;5.470905918627977E-003;
2.415000000000000E+009;1.777606010437012E-001;-5.469710007309914E-002;-7.316577830351889E-004;5.551388952881098E-003;
2.415166666666667E+009;1.780150532722473E-001;-5.525652691721916E-002;-4.677861288655549E-004;5.565866827964783E-003;
2.415333333333334E+009;1.784122139215469E-001;-5.588518455624580E-002;-4.790818493347615E-004;5.667350254952908E-003;
2.415500000000000E+009;1.786266267299652E-001;-5.622482672333717E-002;-2.253878774354234E-004;5.576159805059433E-003;
2.415666666666667E+009;1.787211000919342E-001;-5.665738880634308E-002;6.626511458307505E-005;5.589475855231285E-003;
2.415833333333334E+009;1.787609905004501E-001;-5.711041018366814E-002;3.212689771316946E-004;5.770874209702015E-003;
2.416000000000000E+009;1.786454617977142E-001;-5.732003599405289E-002;4.399053868837655E-004;5.705426447093487E-003;
2.416166666666667E+009;1.787937283515930E-001;-5.769580230116844E-002;6.638675113208592E-004;5.780978128314018E-003;
2.416333333333334E+009;1.784804612398148E-001;-5.776654556393623E-002;1.032975735142827E-003;5.803000647574663E-003;
2.416500000000000E+009;1.781415790319443E-001;-5.819884315133095E-002;1.266393344849348E-003;5.511192604899406E-003;
2.416666666666667E+009;1.777659505605698E-001;-5.827410519123077E-002;1.309250248596072E-003;5.686849355697632E-003;
2.416833333333334E+009;1.773902177810669E-001;-5.865648388862610E-002;1.608149614185095E-003;5.589553155004978E-003;
2.417000000000000E+009;1.765777468681335E-001;-5.877909436821938E-002;1.745005720295012E-003;5.560121964663267E-003;
2.417166666666667E+009;1.760213673114777E-001;-5.894831195473671E-002;2.032015006989241E-003;5.403966177254915E-003;
2.417333333333334E+009;1.752986758947372E-001;-5.909106880426407E-002;2.267158823087812E-003;5.378852598369122E-003;
2.417500000000000E+009;1.744026839733124E-001;-5.968113243579865E-002;2.330577000975609E-003;5.200182087719441E-003;
2.417666666666667E+009;1.736126244068146E-001;-5.980269610881805E-002;2.607685048133135E-003;5.170715507119894E-003;
2.417833333333334E+009;1.727317720651627E-001;-6.029423326253891E-002;2.803442999720573E-003;5.051062442362309E-003;
2.418000000000000E+009;1.715683639049530E-001;-6.071592494845390E-002;2.923749620094895E-003;4.938090685755014E-003;
2.418166666666667E+009;1.704648435115814E-001;-6.106653437018395E-002;3.134800819680095E-003;4.840408451855183E-003;
2.418333333333334E+009;1.694895774126053E-001;-6.157879531383514E-002;3.220309503376484E-003;4.762463737279177E-003;
2.418500000000000E+009;1.681494116783142E-001;-6.221746280789375E-002;3.421493805944920E-003;4.625243134796619E-003;
2.418666666666667E+009;1.672284007072449E-001;-6.280598044395447E-002;3.623132361099124E-003;4.422137048095465E-003;
2.418833333333334E+009;1.657035201787949E-001;-6.357737630605698E-002;3.795238677412272E-003;4.261705558747053E-003;
2.419000000000000E+009;1.644291132688522E-001;-6.433629244565964E-002;3.841356141492724E-003;4.269404802471399E-003;
2.419166666666667E+009;1.632229983806610E-001;-6.527847051620483E-002;3.997534979134798E-003;4.056261852383614E-003;
2.419333333333334E+009;1.618983149528503E-001;-6.604991108179092E-002;4.130044952034950E-003;3.969884011894465E-003;
2.419500000000000E+009;1.607384234666824E-001;-6.716521084308624E-002;4.094830248504877E-003;3.628227626904845E-003;
2.419666666666667E+009;1.595478951931000E-001;-6.833438575267792E-002;4.359142854809761E-003;3.535637399181724E-003;
2.419833333333334E+009;1.582667976617813E-001;-6.936468929052353E-002;4.402240272611380E-003;3.285050392150879E-003;
2.420000000000000E+009;1.573448181152344E-001;-7.068310678005219E-002;4.423570353537798E-003;3.435081336647272E-003;
2.420166666666667E+009;1.561669707298279E-001;-7.198826223611832E-002;4.609259776771069E-003;2.976297400891781E-003;
2.420333333333334E+009;1.552717089653015E-001;-7.335739582777023E-002;4.643916152417660E-003;2.955393400043249E-003;
2.420500000000000E+009;1.543793529272080E-001;-7.469805330038071E-002;4.638398997485638E-003;2.708921674638987E-003;
2.420666666666667E+009;1.532755792140961E-001;-7.615048438310623E-002;4.865341354161501E-003;2.636447316035628E-003;
2.420833333333334E+009;1.526727080345154E-001;-7.759909331798554E-002;4.728988744318485E-003;2.311090007424355E-003;
2.421000000000000E+009;1.518611013889313E-001;-7.929784804582596E-002;4.889331292361021E-003;2.250734483823180E-003;
2.421166666666667E+009;1.511434614658356E-001;-8.095917105674744E-002;4.917705897241831E-003;1.907988684251905E-003;
2.421333333333334E+009;1.506939232349396E-001;-8.257179707288742E-002;4.842614289373159E-003;1.827290630899370E-003;
2.421500000000000E+009;1.502821445465088E-001;-8.416261523962021E-002;4.846700467169285E-003;1.628870959393680E-003;
2.421666666666667E+009;1.497626900672913E-001;-8.579372614622116E-002;4.909914452582598E-003;1.634164713323116E-003;
2.421833333333334E+009;1.496046930551529E-001;-8.766225725412369E-002;4.988088738173246E-003;1.389291835948825E-003;
2.422000000000000E+009;1.494056433439255E-001;-8.929283171892166E-002;4.911684431135654E-003;1.249577035196126E-003;
2.422166666666667E+009;1.493083387613297E-001;-9.116475284099579E-002;4.912236239761114E-003;9.977797744795680E-004;
2.422333333333334E+009;1.493330895900726E-001;-9.258887171745300E-002;4.905236884951592E-003;9.163117501884699E-004;
2.422500000000000E+009;1.493651568889618E-001;-9.420534223318100E-002;4.824278410524130E-003;8.788306731730700E-004;
2.422666666666667E+009;1.492931544780731E-001;-9.609922766685486E-002;4.830438178032637E-003;7.369061349891126E-004;
2.422833333333334E+009;1.497040838003159E-001;-9.775622934103012E-002;4.748681560158730E-003;4.293800739105791E-004;
2.423000000000000E+009;1.499862968921661E-001;-9.903258085250855E-002;4.913721233606339E-003;3.594908630475402E-004;
2.423166666666667E+009;1.503319442272186E-001;-1.006169617176056E-001;4.955182317644358E-003;1.269664062419906E-004;
2.423333333333334E+009;1.508261561393738E-001;-1.019591391086578E-001;4.789720289409161E-003;2.698312346183229E-005;
2.423500000000000E+009;1.512609869241715E-001;-1.034719496965408E-001;4.872605670243502E-003;-7.895061571616679E-005;
2.423666666666667E+009;1.513746380805969E-001;-1.048419997096062E-001;4.705031402409077E-003;-2.092085778713226E-004;
2.423833333333334E+009;1.522045135498047E-001;-1.060953661799431E-001;4.666905850172043E-003;-2.075910015264526E-004;
2.424000000000000E+009;1.526103764772415E-001;-1.071047633886337E-001;4.627291578799486E-003;-3.574174479581416E-004;
2.424166666666667E+009;1.530684977769852E-001;-1.084087714552879E-001;4.708120133727789E-003;-5.095649976283312E-004;
2.424333333333334E+009;1.536836326122284E-001;-1.093976870179176E-001;4.547937307506800E-003;-8.318085456266999E-004;
2.424500000000000E+009;1.541540771722794E-001;-1.103991270065308E-001;4.682787228375673E-003;-8.550877100788057E-004;
2.424666666666667E+009;1.548532843589783E-001;-1.110516786575317E-001;4.506687633693218E-003;-9.815404191613197E-004;
2.424833333333334E+009;1.551827192306519E-001;-1.120760664343834E-001;4.426113329827786E-003;-9.702275274321437E-004;
2.425000000000000E+009;1.556457281112671E-001;-1.128491833806038E-001;4.430055618286133E-003;-1.153913675807416E-003;
2.425166666666667E+009;1.558243781328201E-001;-1.134362965822220E-001;4.333776421844959E-003;-1.239298377186060E-003;
2.425333333333334E+009;1.562558859586716E-001;-1.139851659536362E-001;4.483749158680439E-003;-1.282394514419138E-003;
2.425500000000000E+009;1.566801667213440E-001;-1.146190091967583E-001;4.265469033271074E-003;-1.502609578892589E-003;
2.425666666666667E+009;1.565885394811630E-001;-1.149235591292381E-001;4.259527660906315E-003;-1.580807846039534E-003;
2.425833333333334E+009;1.568314880132675E-001;-1.153911724686623E-001;4.178302362561226E-003;-1.686151488684118E-003;
2.426000000000000E+009;1.570327281951904E-001;-1.158416792750359E-001;4.092388786375523E-003;-1.889824750833213E-003;
2.426166666666667E+009;1.571314483880997E-001;-1.160950139164925E-001;4.197196103632450E-003;-1.911375904455781E-003;
2.426333333333334E+009;1.569098532199860E-001;-1.163085103034973E-001;4.022818990051746E-003;-1.895497785881162E-003;
2.426500000000000E+009;1.567605584859848E-001;-1.164752468466759E-001;3.995250910520554E-003;-2.202503383159638E-003;
2.426666666666667E+009;1.567823886871338E-001;-1.164002791047096E-001;3.997593652456999E-003;-2.131790621206164E-003;
2.426833333333334E+009;1.562806814908981E-001;-1.166249811649323E-001;3.927194513380528E-003;-2.378566889092326E-003;
2.427000000000000E+009;1.558232009410858E-001;-1.168300509452820E-001;3.641977207735181E-003;-2.312864642590284E-003;
2.427166666666667E+009;1.553142368793488E-001;-1.168328598141670E-001;3.652755403891206E-003;-2.407975727692246E-003;
2.427333333333334E+009;1.546593606472015E-001;-1.170340478420258E-001;3.710144665092230E-003;-2.548455027863383E-003;
2.427500000000000E+009;1.540856063365936E-001;-1.170747503638268E-001;3.408873919397593E-003;-2.634235657751560E-003;
2.427666666666667E+009;1.531719714403153E-001;-1.173570007085800E-001;3.619665047153831E-003;-2.818486886098981E-003;
