# Version 1.00
#
freq[Hz];re:Trc1_S11;im:Trc1_S11;re:Trc2_S21;im:Trc2_S21;
2.400000000000000E+009;1.564501374959946E-001;1.059230044484139E-001;2.354999538511038E-003;-3.509204834699631E-004;
2.400166666666667E+009;1.567382514476776E-001;1.035401076078415E-001;2.534662373363972E-003;-5.751239950768650E-004;
2.400333333333334E+009;1.570351570844650E-001;1.014598682522774E-001;2.615301636978984E-003;-7.064724341034889E-004;
2.400500000000000E+009;1.571332067251205E-001;9.888324141502380E-002;2.481809118762612E-003;-9.436020045541227E-004;
2.400666666666667E+009;1.573834568262100E-001;9.652984142303467E-002;2.653134055435658E-003;-1.163439592346549E-003;
2.400833333333334E+009;1.576564162969589E-001;9.393415600061417E-002;2.518143504858017E-003;-1.450015348382294E-003;
2.401000000000000E+009;1.578574478626251E-001;9.100228548049927E-002;2.505965530872345E-003;-1.776063581928611E-003;
2.401166666666667E+009;1.582207679748535E-001;8.857536315917969E-002;2.479510148987174E-003;-1.931941835209727E-003;
2.401333333333334E+009;1.587322503328323E-001;8.599296212196350E-002;2.159122843295336E-003;-2.241749782115221E-003;
2.401500000000000E+009;1.591741144657135E-001;8.328617364168167E-002;2.046930603682995E-003;-2.334653632715344E-003;
2.401666666666667E+009;1.596237719058991E-001;8.068527281284332E-002;1.797293894924223E-003;-2.573717851191759E-003;
2.401833333333334E+009;1.600622683763504E-001;7.820172607898712E-002;1.487778383307159E-003;-2.771542407572269E-003;
2.402000000000000E+009;1.612154990434647E-001;7.565986365079880E-002;1.285039703361690E-003;-2.686280757188797E-003;
2.402166666666667E+009;1.618652790784836E-001;7.323668897151947E-002;9.627795661799610E-004;-2.820620313286781E-003;
2.402333333333334E+009;1.629158854484558E-001;7.079861313104630E-002;7.920695352368057E-004;-2.661932725459337E-003;
2.402500000000000E+009;1.639971435070038E-001;6.834430992603302E-002;6.835136446170509E-004;-2.624977845698595E-003;
2.402666666666667E+009;1.651085168123245E-001;6.628752499818802E-002;8.214038098230958E-005;-2.570055425167084E-003;
2.402833333333334E+009;1.662457585334778E-001;6.398408114910126E-002;8.376351615879685E-005;-2.430440625175834E-003;
2.403000000000000E+009;1.674987226724625E-001;6.188767403364182E-002;6.973536801524460E-005;-2.258566441014409E-003;
2.403166666666667E+009;1.689915359020233E-001;5.977915227413178E-002;1.622407762624789E-005;-2.236702712252736E-003;
2.403333333333334E+009;1.702553480863571E-001;5.773579701781273E-002;-3.658142020412925E-007;-2.201899420469999E-003;
2.403500000000000E+009;1.717900037765503E-001;5.580504238605499E-002;1.099928340408951E-004;-2.114748582243919E-003;
2.403666666666667E+009;1.736664772033691E-001;5.407555401325226E-002;8.580958092352375E-005;-1.886955345980823E-003;
2.403833333333334E+009;1.749295145273209E-001;5.239641666412354E-002;5.917069574934430E-005;-1.813117996789515E-003;
2.404000000000000E+009;1.761143356561661E-001;5.056595802307129E-002;5.364018579712138E-005;-2.058462239801884E-003;
2.404166666666667E+009;1.777442395687103E-001;4.913019388914108E-002;4.673102739616297E-005;-1.985016278922558E-003;
2.404333333333334E+009;1.789979934692383E-001;4.760083556175232E-002;9.092953405342996E-005;-2.127177780494094E-003;
2.404500000000000E+009;1.805072277784348E-001;4.610217362642288E-002;1.391498335578945E-005;-2.166188554838300E-003;
2.404666666666667E+009;1.818320751190186E-001;4.508815705776215E-002;-1.583901030244306E-004;-2.275987295433879E-003;
2.404833333333334E+009;1.833380609750748E-001;4.397885873913765E-002;-1.101037196349353E-004;-2.342320047318935E-003;
2.405000000000000E+009;1.843167990446091E-001;4.336526989936829E-002;-5.373284802772105E-004;-2.471729414537549E-003;
2.405166666666667E+009;1.855833083391190E-001;4.248917102813721E-002;-6.460951408371329E-004;-2.436656504869461E-003;
2.405333333333334E+009;1.868023425340653E-001;4.202225804328919E-002;-7.137353532016277E-004;-2.418532501906157E-003;
2.405500000000000E+009;1.878606379032135E-001;4.134903475642204E-002;-7.865105872042477E-004;-2.501454204320908E-003;
2.405666666666667E+009;1.888718605041504E-001;4.084782302379608E-002;-1.120767206884921E-003;-2.560606226325035E-003;
2.405833333333334E+009;1.898976266384125E-001;4.047080501914024E-002;-1.289809355512261E-003;-2.463191514834762E-003;
2.406000000000000E+009;1.906470507383347E-001;4.018167778849602E-002;-1.398402382619679E-003;-2.209715545177460E-003;
2.406166666666667E+009;1.914928406476975E-001;3.980968520045281E-002;-1.694214530289173E-003;-2.155342604964972E-003;
2.406333333333334E+009;1.923009455204010E-001;3.966940194368362E-002;-1.815917785279453E-003;-2.155061345547438E-003;
2.406500000000000E+009;1.930662989616394E-001;3.949476405978203E-002;-1.893692184239626E-003;-2.020449377596378E-003;
2.406666666666667E+009;1.934544891119003E-001;3.944307565689087E-002;-1.920756069011986E-003;-1.613555126823485E-003;
2.406833333333334E+009;1.938800215721130E-001;3.919103369116783E-002;-2.169277518987656E-003;-1.623401185497642E-003;
2.407000000000000E+009;1.940387636423111E-001;3.910546004772186E-002;-2.104314742609859E-003;-1.331995823420584E-003;
2.407166666666667E+009;1.944407820701599E-001;3.876783326268196E-002;-1.914955559186637E-003;-1.111235935240984E-003;
2.407333333333334E+009;1.944511979818344E-001;3.876783698797226E-002;-2.268004231154919E-003;-1.041052979417145E-003;
2.407500000000000E+009;1.943856775760651E-001;3.867133334279060E-002;-2.193690976127982E-003;-7.990555022843182E-004;
2.407666666666667E+009;1.944207549095154E-001;3.825609013438225E-002;-2.051208401098847E-003;-6.584578659385443E-004;
2.407833333333334E+009;1.940929293632507E-001;3.805394470691681E-002;-2.029027789831162E-003;-5.611816304735839E-004;
2.408000000000000E+009;1.940268427133560E-001;3.777747228741646E-002;-1.945675001479685E-003;-5.478409584611654E-004;
2.408166666666667E+009;1.936308294534683E-001;3.726558759808540E-002;-2.039320999756455E-003;-1.765385532053188E-004;
2.408333333333334E+009;1.933476626873016E-001;3.657975792884827E-002;-1.868195598945022E-003;-2.142587181879208E-004;
2.408500000000000E+009;1.927348226308823E-001;3.615766391158104E-002;-1.843563979491592E-003;-8.052741031860933E-005;
2.408666666666667E+009;1.923618763685226E-001;3.546796366572380E-002;-1.813751296140254E-003;-6.151388333819341E-006;
2.408833333333334E+009;1.918534785509110E-001;3.461762145161629E-002;-1.527754939161241E-003;1.634301588637754E-004;
2.409000000000000E+009;1.910923570394516E-001;3.349980711936951E-002;-1.578052178956568E-003;1.565019483678043E-004;
2.409166666666667E+009;1.904480010271072E-001;3.255104646086693E-002;-1.459626015275717E-003;4.520860966295004E-005;
2.409333333333334E+009;1.898456513881683E-001;3.150966763496399E-002;-1.359420362859964E-003;1.707291376078501E-004;
2.409500000000000E+009;1.888336092233658E-001;3.020047023892403E-002;-1.201044302433729E-003;1.288384082727134E-004;
2.409666666666667E+009;1.881772130727768E-001;2.860645391047001E-002;-1.184990978799760E-003;5.463885827339254E-006;
2.409833333333334E+009;1.873732209205627E-001;2.718189358711243E-002;-1.133797690272331E-003;1.225618179887533E-004;
2.410000000000000E+009;1.865091174840927E-001;2.570127695798874E-002;-9.417394176125526E-004;-6.349726754706353E-005;
2.410166666666667E+009;1.856602430343628E-001;2.384906448423863E-002;-9.633317240513861E-004;-1.408923126291484E-004;
2.410333333333334E+009;1.850230991840363E-001;2.222555130720139E-002;-9.785224683582783E-004;-1.023845470626839E-004;
2.410500000000000E+009;1.843511313199997E-001;2.035515196621418E-002;-8.277763845399022E-004;-2.067577443085611E-004;
2.410666666666667E+009;1.835608780384064E-001;1.833174563944340E-002;-9.998143650591373E-004;-8.728681859793142E-005;
2.410833333333334E+009;1.831962913274765E-001;1.624521985650063E-002;-9.267751593142748E-004;-2.136825205525383E-004;
2.411000000000000E+009;1.825792342424393E-001;1.418606378138065E-002;-1.075558946467936E-003;-1.601107069291174E-004;
2.411166666666667E+009;1.820587068796158E-001;1.219958718866110E-002;-1.108881202526391E-003;-3.667256096377969E-004;
2.411333333333334E+009;1.817501187324524E-001;1.001100335270166E-002;-1.084567978978157E-003;-4.436210729181767E-004;
2.411500000000000E+009;1.814990490674973E-001;7.814746350049973E-003;-1.308989711105824E-003;-3.234363975934684E-004;
2.411666666666667E+009;1.812706887722015E-001;5.516387987881899E-003;-1.244335551746190E-003;-2.923085121437907E-004;
2.411833333333334E+009;1.812130957841873E-001;3.381709335371852E-003;-1.406623749062419E-003;-2.363538224017248E-004;
2.412000000000000E+009;1.813125759363174E-001;1.193367526866496E-003;-1.465783803723753E-003;-2.686451189219952E-004;
2.412166666666667E+009;1.815532743930817E-001;-9.641961660236120E-004;-1.599973649717867E-003;-9.099209819396492E-006;
2.412333333333334E+009;1.816386729478836E-001;-3.279235446825624E-003;-1.655839500017464E-003;8.450560562778264E-005;
2.412500000000000E+009;1.821226924657822E-001;-5.524946842342615E-003;-1.811047201044858E-003;2.158149436581880E-005;
2.412666666666667E+009;1.825421750545502E-001;-7.598857395350933E-003;-1.866869279183447E-003;2.500857808627188E-004;
2.412833333333334E+009;1.832882463932037E-001;-9.854493662714958E-003;-1.837891526520252E-003;2.029317111009732E-004;
2.413000000000000E+009;1.837614178657532E-001;-1.189862471073866E-002;-1.822725869715214E-003;3.844870370812714E-004;
2.413166666666667E+009;1.846188008785248E-001;-1.392576843500137E-002;-1.773554482497275E-003;5.484592402353883E-004;
2.413333333333334E+009;1.855486184358597E-001;-1.619626022875309E-002;-1.788455061614513E-003;6.620494532398880E-004;
2.413500000000000E+009;1.864446550607681E-001;-1.816669665277004E-002;-1.679586828686297E-003;8.377238409593701E-004;
2.413666666666667E+009;1.873164474964142E-001;-2.010229602456093E-002;-1.649341196753085E-003;9.714828338474035E-004;
2.413833333333334E+009;1.882483810186386E-001;-2.207346260547638E-002;-1.543810358271003E-003;9.890670189633966E-004;
2.414000000000000E+009;1.891762763261795E-001;-2.371656149625778E-002;-1.538805896416307E-003;1.181100960820913E-003;
2.414166666666667E+009;1.903103291988373E-001;-2.547502517700195E-002;-1.426537754014134E-003;1.226468710228801E-003;
2.414333333333334E+009;1.912871748209000E-001;-2.740900963544846E-002;-1.131904078647494E-003;1.276376307941973E-003;
2.414500000000000E+009;1.923230141401291E-001;-2.869635447859764E-002;-1.124781323596835E-003;1.437422120943666E-003;
2.414666666666667E+009;1.933826804161072E-001;-3.011236898601055E-002;-9.823801228776574E-004;1.294345711357892E-003;
2.414833333333334E+009;1.943701058626175E-001;-3.158508241176605E-002;-8.656408754177392E-004;1.135293743573129E-003;
2.415000000000000E+009;1.951348036527634E-001;-3.278664872050285E-002;-6.715187919326127E-004;1.093878992833197E-003;
2.415166666666667E+009;1.962396353483200E-001;-3.389576822519302E-002;-8.283440838567913E-004;1.064494368620217E-003;
2.415333333333334E+009;1.971029490232468E-001;-3.479908406734467E-002;-6.809694459661841E-004;1.171438489109278E-003;
2.415500000000000E+009;1.979966163635254E-001;-3.556815162301064E-002;-8.126878528855741E-004;1.023507909849286E-003;
2.415666666666667E+009;1.987987458705902E-001;-3.645475208759308E-002;-7.252594805322588E-004;9.802640415728092E-004;
2.415833333333334E+009;1.995010972023010E-001;-3.734434768557549E-002;-6.903138128109276E-004;1.018283073790371E-003;
2.416000000000000E+009;2.001934349536896E-001;-3.787931799888611E-002;-6.613685982301831E-004;9.738667868077755E-004;
2.416166666666667E+009;2.006302177906036E-001;-3.857339918613434E-002;-8.081790292635560E-004;1.011961372569203E-003;
2.416333333333334E+009;2.011899054050446E-001;-3.897627070546150E-002;-7.220426341518760E-004;1.011352753266692E-003;
2.416500000000000E+009;2.014673650264740E-001;-3.942801430821419E-002;-8.089908515103161E-004;1.072914921678603E-003;
2.416666666666667E+009;2.017237991094589E-001;-3.991474211215973E-002;-7.628957973793149E-004;1.073882682248950E-003;
2.416833333333334E+009;2.016630917787552E-001;-4.015932604670525E-002;-6.897081038914621E-004;1.177899655885994E-003;
2.417000000000000E+009;2.017410248517990E-001;-4.040770977735519E-002;-6.506250938400626E-004;1.314003253355622E-003;
2.417166666666667E+009;2.013600468635559E-001;-4.062579572200775E-002;-5.791606963612139E-004;1.194355194456875E-003;
2.417333333333334E+009;2.011737227439880E-001;-4.059469699859619E-002;-6.503327749669552E-004;1.397276646457613E-003;
2.417500000000000E+009;2.008109986782074E-001;-4.092323407530785E-002;-4.366677312646061E-004;1.334963948465884E-003;
2.417666666666667E+009;2.002323865890503E-001;-4.082248359918594E-002;-4.329742805566639E-004;1.520554185844958E-003;
2.417833333333334E+009;1.998479813337326E-001;-4.095972329378128E-002;-2.625780762173235E-004;1.502007828094065E-003;
2.418000000000000E+009;1.992912888526917E-001;-4.076138883829117E-002;-2.402668178547174E-004;1.379429013468325E-003;
2.418166666666667E+009;1.985253691673279E-001;-4.097206518054009E-002;-2.817520289681852E-004;1.476796693168581E-003;
2.418333333333334E+009;1.977292746305466E-001;-4.102855175733566E-002;-5.950775448582135E-005;1.292216358706355E-003;
2.418500000000000E+009;1.967880427837372E-001;-4.136342555284500E-002;-1.044206364895217E-004;1.291544176638126E-003;
2.418666666666667E+009;1.959910392761231E-001;-4.139071702957153E-002;7.802648906363174E-005;1.295338966883719E-003;
2.418833333333334E+009;1.948353499174118E-001;-4.174971207976341E-002;-5.005559432902373E-005;1.140385051257908E-003;
2.419000000000000E+009;1.936313211917877E-001;-4.215720295906067E-002;-5.655221684719436E-005;1.387852942571044E-003;
2.419166666666667E+009;1.925750970840454E-001;-4.247251525521278E-002;4.985339910490438E-005;1.148835290223360E-003;
2.419333333333334E+009;1.914094537496567E-001;-4.321413859724999E-002;5.844631232321262E-005;1.032892265357077E-003;
2.419500000000000E+009;1.900800913572311E-001;-4.371849447488785E-002;5.152718949830160E-005;1.077663269825280E-003;
2.419666666666667E+009;1.888011693954468E-001;-4.457998275756836E-002;3.123858186881989E-005;1.144954352639616E-003;
2.419833333333334E+009;1.873601227998734E-001;-4.533001035451889E-002;5.003995829611085E-005;1.116782892495394E-003;
2.420000000000000E+009;1.860495805740356E-001;-4.626496508717537E-002;-6.836957618361339E-005;1.123875030316412E-003;
2.420166666666667E+009;1.846987009048462E-001;-4.722508043050766E-002;-1.886355312308297E-004;1.191704184748232E-003;
2.420333333333334E+009;1.832205504179001E-001;-4.848213493824005E-002;-1.519261422799900E-004;1.074911793693900E-003;
2.420500000000000E+009;1.818510591983795E-001;-4.980153217911720E-002;3.233669485780411E-005;1.344949589110911E-003;
2.420666666666667E+009;1.804253011941910E-001;-5.090754851698875E-002;-2.200468297814950E-004;1.311994274146855E-003;
2.420833333333334E+009;1.788634806871414E-001;-5.251031741499901E-002;-7.391042890958488E-005;1.626918441615999E-003;
2.421000000000000E+009;1.776553541421890E-001;-5.392340943217278E-002;1.004580626613461E-004;1.575986621901393E-003;
2.421166666666667E+009;1.765301227569580E-001;-5.546298623085022E-002;1.246606261702254E-004;1.741451560519636E-003;
2.421333333333334E+009;1.748777925968170E-001;-5.685146525502205E-002;3.717608342412859E-004;1.782900071702898E-003;
2.421500000000000E+009;1.739541590213776E-001;-5.896685272455216E-002;4.052981676068157E-004;1.752953394316137E-003;
2.421666666666667E+009;1.727571487426758E-001;-6.045759469270706E-002;5.267410888336599E-004;1.776646357029676E-003;
2.421833333333334E+009;1.716720312833786E-001;-6.223777309060097E-002;7.236803066916764E-004;1.698537496849895E-003;
2.422000000000000E+009;1.705814749002457E-001;-6.397327035665512E-002;8.758094045333564E-004;1.670554513111711E-003;
2.422166666666667E+009;1.697172969579697E-001;-6.583342701196671E-002;1.104599679820240E-003;1.499984995462000E-003;
2.422333333333334E+009;1.687419265508652E-001;-6.770727038383484E-002;1.025986624881625E-003;1.411297474987805E-003;
2.422500000000000E+009;1.681298762559891E-001;-6.933182477951050E-002;1.282947021536529E-003;1.404105452820659E-003;
2.422666666666667E+009;1.673346757888794E-001;-7.116647809743881E-002;1.308681210502982E-003;1.211714348755777E-003;
2.422833333333334E+009;1.668966859579086E-001;-7.315405458211899E-002;1.177708618342876E-003;1.144022215157747E-003;
2.423000000000000E+009;1.664020419120789E-001;-7.486943155527115E-002;1.266707084141672E-003;1.040080445818603E-003;
2.423166666666667E+009;1.661731302738190E-001;-7.665645331144333E-002;1.295736874453723E-003;9.058336145244539E-004;
2.423333333333334E+009;1.657876223325729E-001;-7.852040976285934E-002;1.259929384104908E-003;8.989896741695702E-004;
2.423500000000000E+009;1.656583547592163E-001;-8.009929955005646E-002;1.315113389864564E-003;7.293474045582116E-004;
2.423666666666667E+009;1.655908524990082E-001;-8.177637308835983E-002;1.255267416127026E-003;6.355603691190481E-004;
2.423833333333334E+009;1.655193865299225E-001;-8.339916169643402E-002;1.214938471093774E-003;6.367037422023714E-004;
2.424000000000000E+009;1.654218882322311E-001;-8.504872769117355E-002;1.270856475457549E-003;7.233741343952715E-004;
2.424166666666667E+009;1.653640866279602E-001;-8.658771961927414E-002;1.445292029529810E-003;6.357147358357906E-004;
2.424333333333334E+009;1.655077040195465E-001;-8.789651095867157E-002;1.391389407217503E-003;6.609521224163473E-004;
2.424500000000000E+009;1.657441109418869E-001;-8.974128216505051E-002;1.356963301077485E-003;6.987376254983246E-004;
2.424666666666667E+009;1.658259332180023E-001;-9.089442342519760E-002;1.413023914210498E-003;6.272465689107776E-004;
2.424833333333334E+009;1.662323176860809E-001;-9.205718338489533E-002;1.505039865151048E-003;4.478648479562253E-004;
2.425000000000000E+009;1.665644496679306E-001;-9.327395260334015E-002;1.434137695468962E-003;4.933848395012319E-004;
2.425166666666667E+009;1.666917204856873E-001;-9.421298652887344E-002;1.457077916711569E-003;5.218762089498341E-004;
2.425333333333334E+009;1.668488681316376E-001;-9.528662264347076E-002;1.494325115345419E-003;2.041239640675485E-004;
2.425500000000000E+009;1.672317683696747E-001;-9.623432904481888E-002;1.422959845513105E-003;8.606207120465115E-005;
2.425666666666667E+009;1.674387753009796E-001;-9.690543264150620E-002;1.473669777624309E-003;2.819988912960980E-005;
2.425833333333334E+009;1.675831824541092E-001;-9.777482599020004E-002;1.620679744519293E-003;-8.397435885854065E-005;
2.426000000000000E+009;1.678533405065537E-001;-9.829071909189224E-002;1.528462511487305E-003;-1.088142162188888E-004;
2.426166666666667E+009;1.682384610176086E-001;-9.887673705816269E-002;1.603910350240767E-003;-1.605128782102838E-004;
2.426333333333334E+009;1.681179106235504E-001;-9.966526180505753E-002;1.379282679408789E-003;-4.761613090522587E-004;
2.426500000000000E+009;1.684495508670807E-001;-9.991133958101273E-002;1.409630756825209E-003;-3.383728326298297E-004;
2.426666666666667E+009;1.685861945152283E-001;-1.004111319780350E-001;1.367898541502655E-003;-5.463892011903226E-004;
2.426833333333334E+009;1.687194555997849E-001;-1.008786708116531E-001;1.333837280981243E-003;-3.069975064136088E-004;
2.427000000000000E+009;1.686144173145294E-001;-1.013753563165665E-001;1.318118767812848E-003;-5.358058260753751E-004;
2.427166666666667E+009;1.686936914920807E-001;-1.014924049377441E-001;1.197427278384566E-003;-6.074117845855653E-004;
2.427333333333334E+009;1.685371249914169E-001;-1.019512563943863E-001;1.184696797281504E-003;-6.975925061851740E-004;
2.427500000000000E+009;1.682596355676651E-001;-1.023851484060288E-001;1.008562976494432E-003;-8.349880808964372E-004;
2.427666666666667E+009;1.679713875055313E-001;-1.025034710764885E-001;1.080243731848896E-003;-8.144312887452543E-004;
