# Version 1.00
#
freq[Hz];re:Trc1_S11;im:Trc1_S11;re:Trc2_S21;im:Trc2_S21;
2.400000000000000E+009;1.567447036504746E-001;1.059112548828125E-001;2.311335643753409E-003;-3.612341824918985E-004;
2.400166666666667E+009;1.567977517843247E-001;1.036814153194428E-001;2.327944617718458E-003;-6.141549674794078E-004;
2.400333333333334E+009;1.570966243743897E-001;1.014375165104866E-001;2.469294704496861E-003;-8.274801075458527E-004;
2.400500000000000E+009;1.573414504528046E-001;9.882899373769760E-002;2.394159557297826E-003;-1.235015573911369E-003;
2.400666666666667E+009;1.576085835695267E-001;9.639164805412293E-002;2.431289525702596E-003;-1.167506445199251E-003;
2.400833333333334E+009;1.576973348855972E-001;9.373898059129715E-002;2.460287418216467E-003;-1.454765209928155E-003;
2.401000000000000E+009;1.581460684537888E-001;9.110469371080399E-002;2.371625276282430E-003;-1.748652313835919E-003;
2.401166666666667E+009;1.583385318517685E-001;8.853354305028915E-002;2.176381647586823E-003;-2.037886995822191E-003;
2.401333333333334E+009;1.589122116565704E-001;8.584452420473099E-002;1.961445668712258E-003;-2.145879669114947E-003;
2.401500000000000E+009;1.594223678112030E-001;8.327010273933411E-002;1.913256943225861E-003;-2.420258475467563E-003;
2.401666666666667E+009;1.598906219005585E-001;8.067824691534042E-002;1.669488498009741E-003;-2.571341814473271E-003;
2.401833333333334E+009;1.605252772569656E-001;7.805824279785156E-002;1.305769896134734E-003;-2.651840215548873E-003;
2.402000000000000E+009;1.611905097961426E-001;7.560776174068451E-002;1.043242635205388E-003;-2.757862443104386E-003;
2.402166666666667E+009;1.621512621641159E-001;7.324906438589096E-002;8.353403536602855E-004;-2.851263619959354E-003;
2.402333333333334E+009;1.629002243280411E-001;7.056606560945511E-002;5.855624913237989E-004;-2.603993983939290E-003;
2.402500000000000E+009;1.639756560325623E-001;6.828770041465759E-002;4.166643775533885E-004;-2.623770851641893E-003;
2.402666666666667E+009;1.651059240102768E-001;6.610063463449478E-002;3.548803215380758E-004;-2.655076095834374E-003;
2.402833333333334E+009;1.663527190685272E-001;6.392914801836014E-002;1.126608622143976E-004;-2.443531528115273E-003;
2.403000000000000E+009;1.675493419170380E-001;6.159706413745880E-002;2.876716098398902E-005;-2.213748171925545E-003;
2.403166666666667E+009;1.693151146173477E-001;5.972238257527351E-002;1.070303187589161E-005;-2.230807673186064E-003;
2.403333333333334E+009;1.705017983913422E-001;5.759300664067268E-002;-1.242772577825235E-005;-2.071911934763193E-003;
2.403500000000000E+009;1.721053123474121E-001;5.563176050782204E-002;-1.370042082271539E-005;-2.008429262787104E-003;
2.403666666666667E+009;1.736003160476685E-001;5.395258218050003E-002;-1.451493444619700E-004;-1.918975380249322E-003;
2.403833333333334E+009;1.750346422195435E-001;5.202503502368927E-002;-1.123289985116571E-005;-1.864506048150361E-003;
2.404000000000000E+009;1.763022989034653E-001;5.040902271866798E-002;4.841007830691524E-005;-1.998884603381157E-003;
2.404166666666667E+009;1.777184903621674E-001;4.895922914147377E-002;1.244185841642320E-005;-2.000787761062384E-003;
2.404333333333334E+009;1.792246401309967E-001;4.742630198597908E-002;-7.647355232620612E-006;-2.066048095002770E-003;
2.404500000000000E+009;1.806788742542267E-001;4.606156796216965E-002;-4.148306288698223E-006;-2.130593638867140E-003;
2.404666666666667E+009;1.819433122873306E-001;4.500594362616539E-002;-1.600106916157529E-004;-2.162517746910453E-003;
2.404833333333334E+009;1.833703219890595E-001;4.384693503379822E-002;-2.239615714643151E-004;-2.194310771301389E-003;
2.405000000000000E+009;1.844300776720047E-001;4.323094710707665E-002;-5.039878305979073E-004;-2.413239097222686E-003;
2.405166666666667E+009;1.856928169727325E-001;4.247232899069786E-002;-6.040232256054878E-004;-2.363330684602261E-003;
2.405333333333334E+009;1.867771297693253E-001;4.186058044433594E-002;-7.841427577659488E-004;-2.474678913131356E-003;
2.405500000000000E+009;1.880968213081360E-001;4.118108376860619E-002;-7.455166196450591E-004;-2.348738489672542E-003;
2.405666666666667E+009;1.889524608850479E-001;4.066969826817513E-002;-1.137577579356730E-003;-2.453521592542529E-003;
2.405833333333334E+009;1.900065094232559E-001;4.022739455103874E-002;-1.310140476562083E-003;-2.303188666701317E-003;
2.406000000000000E+009;1.908878237009049E-001;3.989334031939507E-002;-1.443288987502456E-003;-2.366652712225914E-003;
2.406166666666667E+009;1.916435509920120E-001;3.960129618644714E-002;-1.696562510915101E-003;-1.916673616506159E-003;
2.406333333333334E+009;1.924558430910111E-001;3.950008377432823E-002;-1.808832748793066E-003;-1.957534346729517E-003;
2.406500000000000E+009;1.929478496313095E-001;3.922469913959503E-002;-2.007589209824801E-003;-1.757489168085158E-003;
2.406666666666667E+009;1.935493499040604E-001;3.913035988807678E-002;-2.010067924857140E-003;-1.587155507877469E-003;
2.406833333333334E+009;1.939195394515991E-001;3.905108198523521E-002;-1.969792181625962E-003;-1.484864507801831E-003;
2.407000000000000E+009;1.942624598741531E-001;3.891456872224808E-002;-2.116884104907513E-003;-1.241128542460501E-003;
2.407166666666667E+009;1.945020854473114E-001;3.863588348031044E-002;-2.060384489595890E-003;-1.132983947172761E-003;
2.407333333333334E+009;1.944434344768524E-001;3.861144557595253E-002;-2.116169314831495E-003;-9.568381356075406E-004;
2.407500000000000E+009;1.944225281476975E-001;3.844688460230827E-002;-2.105889143422246E-003;-6.819404079578817E-004;
2.407666666666667E+009;1.945874840021133E-001;3.818263113498688E-002;-2.014818834140897E-003;-5.802701343782246E-004;
2.407833333333334E+009;1.940304785966873E-001;3.786675259470940E-002;-2.143385121598840E-003;-4.158040101174265E-004;
2.408000000000000E+009;1.941243112087250E-001;3.754671663045883E-002;-1.988864038139582E-003;-2.821124508045614E-004;
2.408166666666667E+009;1.936962753534317E-001;3.704870492219925E-002;-1.860947930254042E-003;-2.255886793136597E-004;
2.408333333333334E+009;1.933192759752274E-001;3.636365011334419E-002;-1.883246586658061E-003;-5.787456029793248E-005;
2.408500000000000E+009;1.927477121353149E-001;3.604043275117874E-002;-1.619874616153538E-003;5.630749365082011E-005;
2.408666666666667E+009;1.922737210988998E-001;3.520187735557556E-002;-1.837877440266311E-003;1.642709830775857E-004;
2.408833333333334E+009;1.918241083621979E-001;3.442687913775444E-002;-1.584075391292572E-003;1.871151180239394E-004;
2.409000000000000E+009;1.911596357822418E-001;3.336467593908310E-002;-1.474819611757994E-003;2.992445952259004E-004;
2.409166666666667E+009;1.903325766324997E-001;3.226098418235779E-002;-1.394811435602605E-003;2.405166596872732E-004;
2.409333333333334E+009;1.896706670522690E-001;3.141684830188751E-002;-1.194621436297894E-003;2.913775388151407E-004;
2.409500000000000E+009;1.887832134962082E-001;2.989664673805237E-002;-1.159260282292962E-003;3.100704343523830E-004;
2.409666666666667E+009;1.880599409341812E-001;2.845652587711811E-002;-9.967552032321692E-004;2.136724942829460E-004;
2.409833333333334E+009;1.873280107975006E-001;2.708763815462589E-002;-1.060774666257203E-003;1.672787911957130E-004;
2.410000000000000E+009;1.864308863878250E-001;2.544000372290611E-002;-8.694821153767407E-004;2.111620124196634E-004;
2.410166666666667E+009;1.857255548238754E-001;2.356710284948349E-002;-7.469122647307813E-004;1.507935940026073E-005;
2.410333333333334E+009;1.850264966487885E-001;2.214293181896210E-002;-8.900098036974669E-004;-1.154445726569975E-005;
2.410500000000000E+009;1.840902715921402E-001;2.020745351910591E-002;-9.475409751757979E-004;2.687658707145602E-005;
2.410666666666667E+009;1.834950000047684E-001;1.820857077836990E-002;-8.220084127970040E-004;-2.278763859067112E-004;
2.410833333333334E+009;1.830825805664063E-001;1.597687229514122E-002;-1.009599771350622E-003;-1.587596489116550E-004;
2.411000000000000E+009;1.823666095733643E-001;1.401437539607287E-002;-9.973917622119188E-004;-3.575945156626403E-004;
2.411166666666667E+009;1.818710267543793E-001;1.198285818099976E-002;-1.090448931790888E-003;-3.690321173053235E-004;
2.411333333333334E+009;1.816713511943817E-001;9.755318053066731E-003;-1.129317213781178E-003;-4.254263185430318E-004;
2.411500000000000E+009;1.812250614166260E-001;7.533965632319450E-003;-1.142981927841902E-003;-3.830604837276042E-004;
2.411666666666667E+009;1.811240911483765E-001;5.508486647158861E-003;-1.177632831968367E-003;-4.143790865782648E-004;
2.411833333333334E+009;1.808919459581375E-001;3.186296438798308E-003;-1.325906370766461E-003;-3.108955570496619E-004;
2.412000000000000E+009;1.811909973621368E-001;1.000266754999757E-003;-1.510938163846731E-003;-4.557193606160581E-004;
2.412166666666667E+009;1.812784671783447E-001;-1.108983880840242E-003;-1.554753631353378E-003;-1.878927869256586E-004;
2.412333333333334E+009;1.815124452114105E-001;-3.464588196948171E-003;-1.664615236222744E-003;2.970381319755688E-005;
2.412500000000000E+009;1.818569451570511E-001;-5.496948491781950E-003;-1.628194819204509E-003;5.832066744915210E-005;
2.412666666666667E+009;1.823562979698181E-001;-7.852046750485897E-003;-1.739275176078081E-003;1.858909236034378E-004;
2.412833333333334E+009;1.830263733863831E-001;-1.000160071998835E-002;-1.674262690357864E-003;1.247238542418927E-004;
2.413000000000000E+009;1.838118433952332E-001;-1.206894032657147E-002;-1.767139416188002E-003;3.547102096490562E-004;
2.413166666666667E+009;1.844154447317123E-001;-1.410161517560482E-002;-1.734763733111322E-003;5.039569223299623E-004;
2.413333333333334E+009;1.852546930313110E-001;-1.612287200987339E-002;-1.830916851758957E-003;6.096808938309550E-004;
2.413500000000000E+009;1.862006038427353E-001;-1.815450005233288E-002;-1.561249373480678E-003;7.738565909676254E-004;
2.413666666666667E+009;1.872162818908691E-001;-2.025840990245342E-002;-1.466574962250888E-003;8.480277610942721E-004;
2.413833333333334E+009;1.882041394710541E-001;-2.204604074358940E-002;-1.559655531309545E-003;1.035697874613106E-003;
2.414000000000000E+009;1.891022026538849E-001;-2.389867976307869E-002;-1.373973791487515E-003;9.810416959226131E-004;
2.414166666666667E+009;1.901085078716278E-001;-2.556697838008404E-002;-1.150093739852309E-003;9.577443124726415E-004;
2.414333333333334E+009;1.910831481218338E-001;-2.749549224972725E-002;-1.082299277186394E-003;1.163869979791343E-003;
2.414500000000000E+009;1.920264214277268E-001;-2.864996902644634E-002;-1.000153133645654E-003;1.103780348785222E-003;
2.414666666666667E+009;1.931219100952148E-001;-3.016323223710060E-002;-8.538775146007538E-004;1.087157870642841E-003;
2.414833333333334E+009;1.940013021230698E-001;-3.159631043672562E-002;-8.789040730334818E-004;1.150964177213609E-003;
2.415000000000000E+009;1.948476284742355E-001;-3.283636644482613E-002;-6.995903677307069E-004;1.111056655645371E-003;
2.415166666666667E+009;1.959912776947022E-001;-3.400844708085060E-002;-6.764424033463001E-004;1.164128538221121E-003;
2.415333333333334E+009;1.968923211097717E-001;-3.480726853013039E-002;-6.165220402181149E-004;9.988063247874379E-004;
2.415500000000000E+009;1.978558301925659E-001;-3.573787584900856E-002;-6.825868040323257E-004;9.183416259475052E-004;
2.415666666666667E+009;1.986829489469528E-001;-3.668294474482536E-002;-6.235465989448130E-004;8.565868483856320E-004;
2.415833333333334E+009;1.992872804403305E-001;-3.721483796834946E-002;-6.479941075667739E-004;8.809776627458632E-004;
2.416000000000000E+009;2.000390142202377E-001;-3.799923136830330E-002;-9.012545924633741E-004;7.189487805590034E-004;
2.416166666666667E+009;2.004563212394714E-001;-3.870283067226410E-002;-7.257710094563663E-004;8.795801550149918E-004;
2.416333333333334E+009;2.010094076395035E-001;-3.900565579533577E-002;-8.505677105858922E-004;9.425999596714973E-004;
2.416500000000000E+009;2.013313770294190E-001;-3.945369645953178E-002;-7.341299206018448E-004;1.079938374459744E-003;
2.416666666666667E+009;2.013688534498215E-001;-3.994558006525040E-002;-7.386550423689187E-004;1.023269840516150E-003;
2.416833333333334E+009;2.013456523418427E-001;-4.023275524377823E-002;-6.710850284434855E-004;1.139088417403400E-003;
2.417000000000000E+009;2.015209943056107E-001;-4.053767025470734E-002;-7.065435056574643E-004;1.189628615975380E-003;
2.417166666666667E+009;2.011769413948059E-001;-4.057829454541206E-002;-6.304390262812376E-004;1.196626340970397E-003;
2.417333333333334E+009;2.009564340114594E-001;-4.059920087456703E-002;-7.397883455269039E-004;1.245388877578080E-003;
2.417500000000000E+009;2.005204707384110E-001;-4.085543751716614E-002;-4.450311243999749E-004;1.305689569562674E-003;
2.417666666666667E+009;1.999181807041168E-001;-4.091164842247963E-002;-4.750183434225619E-004;1.188014168292284E-003;
2.417833333333334E+009;1.996679455041885E-001;-4.087837040424347E-002;-3.789729671552777E-004;1.399574568495154E-003;
2.418000000000000E+009;1.990455240011215E-001;-4.088855162262917E-002;-1.363975170534104E-004;1.345441909506917E-003;
2.418166666666667E+009;1.981181055307388E-001;-4.121809452772141E-002;-3.156703023705632E-004;1.305380021221936E-003;
2.418333333333334E+009;1.973944306373596E-001;-4.105250909924507E-002;-2.866454306058586E-004;1.331409905105829E-003;
2.418500000000000E+009;1.964929550886154E-001;-4.120885953307152E-002;-5.433753540273756E-005;1.318667083978653E-003;
2.418666666666667E+009;1.957362890243530E-001;-4.137979820370674E-002;-8.424776024185121E-005;1.171648269519210E-003;
2.418833333333334E+009;1.946197003126144E-001;-4.179873690009117E-002;-8.648951916256920E-005;1.175974262878299E-003;
2.419000000000000E+009;1.934785246849060E-001;-4.199538379907608E-002;-6.994565046625212E-005;1.159295788966119E-003;
2.419166666666667E+009;1.923866719007492E-001;-4.249844327569008E-002;9.382546704728156E-005;1.054911990649998E-003;
2.419333333333334E+009;1.911498159170151E-001;-4.316483065485954E-002;-5.285045335767791E-005;1.020520110614598E-003;
2.419500000000000E+009;1.899482458829880E-001;-4.369400441646576E-002;-1.694318198133260E-004;9.872787632048130E-004;
2.419666666666667E+009;1.885247230529785E-001;-4.456856846809387E-002;2.064193176920526E-005;1.177398138679564E-003;
2.419833333333334E+009;1.870438307523727E-001;-4.517955705523491E-002;-1.136881401180290E-004;1.098175998777151E-003;
2.420000000000000E+009;1.857626289129257E-001;-4.633203148841858E-002;-2.214008272858337E-004;1.130489981733263E-003;
2.420166666666667E+009;1.844513863325119E-001;-4.727704823017120E-002;-2.930496702902019E-004;1.183245447464287E-003;
2.420333333333334E+009;1.830068975687027E-001;-4.851468279957771E-002;-2.566686307545751E-004;1.231375616043806E-003;
2.420500000000000E+009;1.817379295825958E-001;-4.978715255856514E-002;-2.880325191654265E-004;1.342863659374416E-003;
2.420666666666667E+009;1.801222711801529E-001;-5.076065659523010E-002;-2.529086486902088E-004;1.413728459738195E-003;
2.420833333333334E+009;1.788194626569748E-001;-5.231126025319099E-002;-1.651878410484642E-004;1.646959688514471E-003;
2.421000000000000E+009;1.773679256439209E-001;-5.379978567361832E-002;-2.013514458667487E-004;1.749191782437265E-003;
2.421166666666667E+009;1.761483848094940E-001;-5.543605238199234E-002;8.872222679201514E-005;1.681998837739229E-003;
2.421333333333334E+009;1.746333390474320E-001;-5.675262585282326E-002;1.356760622002184E-004;1.966954441741109E-003;
2.421500000000000E+009;1.735685020685196E-001;-5.875851213932037E-002;3.675141197163612E-004;1.940316520631313E-003;
2.421666666666667E+009;1.723853945732117E-001;-6.032985076308250E-002;5.283558275550604E-004;1.859365496784449E-003;
2.421833333333334E+009;1.714295446872711E-001;-6.200214475393295E-002;6.063993205316365E-004;1.854376867413521E-003;
2.422000000000000E+009;1.704107522964478E-001;-6.365720182657242E-002;7.934439345262945E-004;1.759996986947954E-003;
2.422166666666667E+009;1.695901900529862E-001;-6.562402099370956E-002;8.633785764686763E-004;1.627388759516180E-003;
2.422333333333334E+009;1.685792952775955E-001;-6.753061711788178E-002;9.815986268222332E-004;1.561666838824749E-003;
2.422500000000000E+009;1.678683161735535E-001;-6.914199888706207E-002;1.154022291302681E-003;1.407679286785424E-003;
2.422666666666667E+009;1.671301126480103E-001;-7.092968374490738E-002;1.185761531814933E-003;1.335126813501120E-003;
2.422833333333334E+009;1.668556034564972E-001;-7.286635041236877E-002;1.264611259102821E-003;1.083293464034796E-003;
2.423000000000000E+009;1.662747114896774E-001;-7.469201087951660E-002;1.303650089539588E-003;1.105756848119199E-003;
2.423166666666667E+009;1.659213453531265E-001;-7.644122093915939E-002;1.202745363116264E-003;1.057516317814589E-003;
2.423333333333334E+009;1.656721234321594E-001;-7.826109975576401E-002;1.202123239636421E-003;1.043579890392721E-003;
2.423500000000000E+009;1.653892844915390E-001;-7.985969632863998E-002;1.263010199181736E-003;9.201549110002816E-004;
2.423666666666667E+009;1.655276864767075E-001;-8.156388998031616E-002;1.160897547379136E-003;9.113994892686606E-004;
2.423833333333334E+009;1.653110384941101E-001;-8.313658833503723E-002;1.253854716196656E-003;8.816638146527112E-004;
2.424000000000000E+009;1.653982698917389E-001;-8.490581065416336E-002;1.155270496383309E-003;1.017824746668339E-003;
2.424166666666667E+009;1.654401272535324E-001;-8.627213537693024E-002;1.290069893002510E-003;6.658611237071455E-004;
2.424333333333334E+009;1.654536426067352E-001;-8.764763176441193E-002;1.317712478339672E-003;6.169796106405556E-004;
2.424500000000000E+009;1.657535880804062E-001;-8.928087353706360E-002;1.352565945126116E-003;7.091026054695249E-004;
2.424666666666667E+009;1.658541113138199E-001;-9.046728909015656E-002;1.363251474685967E-003;5.418596556410193E-004;
2.424833333333334E+009;1.662155389785767E-001;-9.171126782894135E-002;1.529976027086377E-003;6.863793823868036E-004;
2.425000000000000E+009;1.665571928024292E-001;-9.297727793455124E-002;1.493084244430065E-003;5.489184986799955E-004;
2.425166666666667E+009;1.666618287563324E-001;-9.401219338178635E-002;1.455612014979124E-003;3.856809053104371E-004;
2.425333333333334E+009;1.667751073837280E-001;-9.496562182903290E-002;1.442239386960864E-003;4.379423335194588E-004;
2.425500000000000E+009;1.671527624130249E-001;-9.590587019920349E-002;1.587686245329678E-003;3.479665901977569E-004;
2.425666666666667E+009;1.673766672611237E-001;-9.665724635124207E-002;1.560993259772658E-003;1.542780664749444E-004;
2.425833333333334E+009;1.675572395324707E-001;-9.757471829652786E-002;1.519210170954466E-003;1.060466674971394E-004;
2.426000000000000E+009;1.678758263587952E-001;-9.804312139749527E-002;1.569501124322414E-003;1.112100508180447E-004;
2.426166666666667E+009;1.682568043470383E-001;-9.876520931720734E-002;1.458098879083991E-003;-1.225059440912446E-005;
2.426333333333334E+009;1.681849211454392E-001;-9.926589578390122E-002;1.438894076272845E-003;-1.022479555103928E-004;
2.426500000000000E+009;1.685295403003693E-001;-9.960579872131348E-002;1.437981962226331E-003;-2.445412974338979E-004;
2.426666666666667E+009;1.685351878404617E-001;-1.000107303261757E-001;1.505161286331713E-003;-3.288936568424106E-004;
2.426833333333334E+009;1.687881648540497E-001;-1.005778163671494E-001;1.376509084366262E-003;-4.488958511501551E-004;
2.427000000000000E+009;1.686468273401260E-001;-1.010314077138901E-001;1.281707780435681E-003;-3.721498360391706E-004;
2.427166666666667E+009;1.687230616807938E-001;-1.012406423687935E-001;1.221644110046327E-003;-5.833578761667013E-004;
2.427333333333334E+009;1.685790866613388E-001;-1.016490012407303E-001;1.314206747338176E-003;-4.908653208985925E-004;
2.427500000000000E+009;1.682799160480499E-001;-1.020148918032646E-001;1.064548036083579E-003;-6.373134674504399E-004;
2.427666666666667E+009;1.680909097194672E-001;-1.022339388728142E-001;1.059367321431637E-003;-8.261314942501485E-004;
