# Version 1.00
#
freq[Hz];re:Trc1_S11;im:Trc1_S11;re:Trc2_S21;im:Trc2_S21;
2.400000000000000E+009;1.568976938724518E-001;1.058691367506981E-001;2.147233113646507E-003;-5.511563504114747E-004;
2.400166666666667E+009;1.568857282400131E-001;1.034284755587578E-001;2.444864949211478E-003;-5.561328143812716E-004;
2.400333333333334E+009;1.571569144725800E-001;1.013330891728401E-001;2.426833845674992E-003;-8.314212900586426E-004;
2.400500000000000E+009;1.572926938533783E-001;9.883659332990646E-002;2.451818203553557E-003;-9.450730867683888E-004;
2.400666666666667E+009;1.576351076364517E-001;9.645489603281021E-002;2.512620994821191E-003;-1.289165229536593E-003;
2.400833333333334E+009;1.577974110841751E-001;9.374168515205383E-002;2.298495732247829E-003;-1.521815545856953E-003;
2.401000000000000E+009;1.581524759531021E-001;9.115665405988693E-002;2.429810818284750E-003;-1.866282662376761E-003;
2.401166666666667E+009;1.583382487297058E-001;8.852637559175491E-002;2.266630297526717E-003;-2.035591518506408E-003;
2.401333333333334E+009;1.589149683713913E-001;8.601689338684082E-002;1.939218491315842E-003;-2.186132362112403E-003;
2.401500000000000E+009;1.592708379030228E-001;8.323483914136887E-002;1.936651882715523E-003;-2.367462264373899E-003;
2.401666666666667E+009;1.598817110061646E-001;8.058382570743561E-002;1.645392272621393E-003;-2.533416962251067E-003;
2.401833333333334E+009;1.604178994894028E-001;7.810812443494797E-002;1.302908523939550E-003;-2.752314321696758E-003;
2.402000000000000E+009;1.614556163549423E-001;7.559066265821457E-002;1.086983014829457E-003;-2.773226005956531E-003;
2.402166666666667E+009;1.620376855134964E-001;7.326527684926987E-002;9.738156804814935E-004;-2.734394976869226E-003;
2.402333333333334E+009;1.629298478364945E-001;7.071975618600845E-002;5.114799714647234E-004;-2.717221155762672E-003;
2.402500000000000E+009;1.640702784061432E-001;6.834950298070908E-002;4.893979639746249E-004;-2.611705334857106E-003;
2.402666666666667E+009;1.651125848293304E-001;6.612099707126617E-002;3.645574906840920E-004;-2.598193008452654E-003;
2.402833333333334E+009;1.662399619817734E-001;6.393595039844513E-002;1.362903421977535E-004;-2.374198287725449E-003;
2.403000000000000E+009;1.676831096410751E-001;6.185373291373253E-002;-1.248559274245054E-004;-2.238758141174913E-003;
2.403166666666667E+009;1.691609472036362E-001;5.984726920723915E-002;-8.991367940325290E-005;-2.159098861739039E-003;
2.403333333333334E+009;1.704297065734863E-001;5.772175639867783E-002;-4.196495865471661E-005;-2.042716834694147E-003;
2.403500000000000E+009;1.720305979251862E-001;5.575414001941681E-002;-8.680958853801712E-005;-1.989496173337102E-003;
2.403666666666667E+009;1.734826862812042E-001;5.386124178767204E-002;5.185568443266675E-005;-1.932105631567538E-003;
2.403833333333334E+009;1.748830080032349E-001;5.207432806491852E-002;-2.125982973666396E-005;-1.763962092809379E-003;
2.404000000000000E+009;1.762165427207947E-001;5.053536593914032E-002;-1.049766506184824E-004;-1.888364087790251E-003;
2.404166666666667E+009;1.778114289045334E-001;4.884143173694611E-002;-6.041306187398732E-005;-2.014840254560113E-003;
2.404333333333334E+009;1.791065186262131E-001;4.743279516696930E-002;-6.519362796097994E-005;-1.991545548662543E-003;
2.404500000000000E+009;1.803534328937531E-001;4.604579508304596E-002;-2.039816026808694E-004;-2.059156773611903E-003;
2.404666666666667E+009;1.818368136882782E-001;4.508959501981735E-002;-7.152824400691316E-005;-2.205199562013149E-003;
2.404833333333334E+009;1.832706928253174E-001;4.387317597866058E-002;-3.547374508343637E-004;-2.227612538263202E-003;
2.405000000000000E+009;1.843182444572449E-001;4.319385066628456E-002;-5.200493033044040E-004;-2.156161470338702E-003;
2.405166666666667E+009;1.855982840061188E-001;4.228997975587845E-002;-5.980621790513396E-004;-2.324301982298493E-003;
2.405333333333334E+009;1.866682022809982E-001;4.203493148088455E-002;-6.064400076866150E-004;-2.364480169489980E-003;
2.405500000000000E+009;1.878105401992798E-001;4.117066040635109E-002;-8.817019406706095E-004;-2.493077889084816E-003;
2.405666666666667E+009;1.888802647590637E-001;4.061229526996613E-002;-1.011539250612259E-003;-2.346059307456017E-003;
2.405833333333334E+009;1.900542974472046E-001;4.029412940144539E-002;-1.238660537637770E-003;-2.250431803986430E-003;
2.406000000000000E+009;1.907598525285721E-001;3.993391990661621E-002;-1.383530441671610E-003;-2.200255636125803E-003;
2.406166666666667E+009;1.915861070156097E-001;3.962451964616776E-002;-1.401331275701523E-003;-2.133095171302557E-003;
2.406333333333334E+009;1.923695504665375E-001;3.958357870578766E-002;-1.769885653629899E-003;-1.775511307641864E-003;
2.406500000000000E+009;1.929648071527481E-001;3.926661238074303E-002;-1.765927881933749E-003;-1.866649952717125E-003;
2.406666666666667E+009;1.934746354818344E-001;3.918130323290825E-002;-1.993056386709213E-003;-1.602909294888377E-003;
2.406833333333334E+009;1.939596980810165E-001;3.897897154092789E-002;-1.990641234442592E-003;-1.466250745579600E-003;
2.407000000000000E+009;1.941110789775848E-001;3.892450034618378E-002;-2.082587918266654E-003;-1.442792941816151E-003;
2.407166666666667E+009;1.945017129182816E-001;3.859008103609085E-002;-2.204875694587827E-003;-1.158366678282619E-003;
2.407333333333334E+009;1.944005936384201E-001;3.847688063979149E-002;-2.129618078470230E-003;-1.027212245389819E-003;
2.407500000000000E+009;1.944397091865540E-001;3.844635933637619E-002;-2.199892187491059E-003;-9.503729525022209E-004;
2.407666666666667E+009;1.944142729043961E-001;3.800088539719582E-002;-2.167924540117383E-003;-7.073393207974732E-004;
2.407833333333334E+009;1.940482854843140E-001;3.776139020919800E-002;-2.113100839778781E-003;-5.876513314433396E-004;
2.408000000000000E+009;1.939540952444077E-001;3.745570033788681E-002;-2.041149651631713E-003;-2.376056072534993E-004;
2.408166666666667E+009;1.935810148715973E-001;3.700279071927071E-002;-1.937779481522739E-003;-9.608962864149362E-005;
2.408333333333334E+009;1.933418959379196E-001;3.638252988457680E-002;-1.870406675152481E-003;-1.658582768868655E-004;
2.408500000000000E+009;1.926931589841843E-001;3.579317405819893E-002;-1.915682572871447E-003;-3.044538061658386E-005;
2.408666666666667E+009;1.923368573188782E-001;3.522045910358429E-002;-1.723625347949565E-003;1.340516464551911E-004;
2.408833333333334E+009;1.918162405490875E-001;3.428909927606583E-002;-1.580903539434075E-003;2.265506627736613E-004;
2.409000000000000E+009;1.910171955823898E-001;3.341599926352501E-002;-1.476419041864574E-003;8.525690645910800E-005;
2.409166666666667E+009;1.904650479555130E-001;3.227815404534340E-002;-1.334998873062432E-003;2.910986659117043E-004;
2.409333333333334E+009;1.896328777074814E-001;3.134702146053314E-002;-1.321734627708793E-003;2.302482316736132E-004;
2.409500000000000E+009;1.887918114662170E-001;2.982791513204575E-002;-1.225700252689421E-003;2.898626553360373E-004;
2.409666666666667E+009;1.881690323352814E-001;2.858081646263599E-002;-1.055851927958429E-003;1.702003792161122E-004;
2.409833333333334E+009;1.873396337032318E-001;2.700496837496758E-002;-9.648204431869090E-004;1.322880416410044E-004;
2.410000000000000E+009;1.865058094263077E-001;2.542098239064217E-002;-9.329007589258254E-004;2.102776343235746E-004;
2.410166666666667E+009;1.857249587774277E-001;2.366659417748451E-002;-8.451194153167307E-004;-7.037276373011991E-005;
2.410333333333334E+009;1.848395764827728E-001;2.206419222056866E-002;-8.625281043350697E-004;-1.042259173118509E-004;
2.410500000000000E+009;1.842898130416870E-001;2.026912011206150E-002;-9.057521820068359E-004;-4.505972174229100E-005;
2.410666666666667E+009;1.836512237787247E-001;1.808682084083557E-002;-8.729812689125538E-004;-2.309580740984529E-004;
2.410833333333334E+009;1.830652803182602E-001;1.614069193601608E-002;-8.750804699957371E-004;-1.687849726295099E-004;
2.411000000000000E+009;1.824006736278534E-001;1.414784789085388E-002;-8.776577305980027E-004;-3.351765044499189E-004;
2.411166666666667E+009;1.820274144411087E-001;1.202207151800394E-002;-9.501568856649101E-004;-2.102764410665259E-004;
2.411333333333334E+009;1.815266609191895E-001;9.801172651350498E-003;-9.079890442080796E-004;-3.192005387973040E-004;
2.411500000000000E+009;1.813673973083496E-001;7.561122532933950E-003;-1.006652601063252E-003;-3.203202795702964E-004;
2.411666666666667E+009;1.811506152153015E-001;5.474133882671595E-003;-1.158099737949669E-003;-3.369663900230080E-004;
2.411833333333334E+009;1.812181919813156E-001;3.218039870262146E-003;-1.327694859355688E-003;-3.850415232591331E-004;
2.412000000000000E+009;1.812405586242676E-001;1.096605672501028E-003;-1.328063430264592E-003;-1.790647511370480E-004;
2.412166666666667E+009;1.813072264194489E-001;-1.038312911987305E-003;-1.492334413342178E-003;-1.893873377412092E-005;
2.412333333333334E+009;1.815996170043945E-001;-3.238378325477243E-003;-1.422654371708632E-003;-6.748057057848200E-005;
2.412500000000000E+009;1.819173544645309E-001;-5.483750253915787E-003;-1.574945519678295E-003;2.642432946231565E-006;
2.412666666666667E+009;1.824839860200882E-001;-7.720979861915112E-003;-1.694485428743064E-003;7.073015149217099E-005;
2.412833333333334E+009;1.831290125846863E-001;-9.871075861155987E-003;-1.749439281411469E-003;1.957946660695598E-004;
2.413000000000000E+009;1.836956441402435E-001;-1.220507081598043E-002;-1.686469535343349E-003;4.076966724824160E-004;
2.413166666666667E+009;1.845386922359467E-001;-1.402388047426939E-002;-1.716706319712102E-003;4.743396420963109E-004;
2.413333333333334E+009;1.853134036064148E-001;-1.630855537950993E-002;-1.651988830417395E-003;6.138784228824079E-004;
2.413500000000000E+009;1.860857456922531E-001;-1.811235025525093E-002;-1.563011086545885E-003;6.594111910089850E-004;
2.413666666666667E+009;1.871912926435471E-001;-2.031033672392368E-002;-1.532050198875368E-003;9.036148549057543E-004;
2.413833333333334E+009;1.880440413951874E-001;-2.192476019263268E-002;-1.549815991893411E-003;9.456347906962037E-004;
2.414000000000000E+009;1.890726089477539E-001;-2.383081987500191E-002;-1.082489965483546E-003;1.062831026501954E-003;
2.414166666666667E+009;1.900480985641480E-001;-2.561919949948788E-002;-1.152110635302961E-003;1.076448708772659E-003;
2.414333333333334E+009;1.908876001834869E-001;-2.741066738963127E-002;-1.180869643576443E-003;1.203672261908650E-003;
2.414500000000000E+009;1.920760571956635E-001;-2.870944514870644E-002;-9.209876880049706E-004;1.165812020190060E-003;
2.414666666666667E+009;1.930388808250427E-001;-3.018522076308727E-002;-9.516836144030094E-004;1.015659421682358E-003;
2.414833333333334E+009;1.939564198255539E-001;-3.142629936337471E-002;-7.449514814652503E-004;1.008983701467514E-003;
2.415000000000000E+009;1.949527859687805E-001;-3.274242207407951E-002;-7.355666020885110E-004;1.080945366993547E-003;
2.415166666666667E+009;1.959913223981857E-001;-3.373808413743973E-002;-6.877119303680956E-004;8.554420783184469E-004;
2.415333333333334E+009;1.968960464000702E-001;-3.484705463051796E-002;-6.155687733553350E-004;9.924707701429725E-004;
2.415500000000000E+009;1.979028135538101E-001;-3.565106913447380E-002;-8.460038807243109E-004;9.806235320866108E-004;
2.415666666666667E+009;1.986978650093079E-001;-3.638253360986710E-002;-7.325969636440277E-004;8.889639284461737E-004;
2.415833333333334E+009;1.993604451417923E-001;-3.725670278072357E-002;-6.654511089436710E-004;8.342800429090858E-004;
2.416000000000000E+009;1.999786645174027E-001;-3.789935261011124E-002;-6.695128395222127E-004;8.657168946228921E-004;
2.416166666666667E+009;2.005146741867065E-001;-3.857453912496567E-002;-8.021336980164051E-004;8.774818852543831E-004;
2.416333333333334E+009;2.008791267871857E-001;-3.894041478633881E-002;-8.849605219438672E-004;8.031436009332538E-004;
2.416500000000000E+009;2.013810873031616E-001;-3.944155946373940E-002;-7.211983902379870E-004;1.012120861560106E-003;
2.416666666666667E+009;2.015172392129898E-001;-3.990377113223076E-002;-8.382129599340260E-004;1.170220202766359E-003;
2.416833333333334E+009;2.014396488666534E-001;-4.020548239350319E-002;-8.324333466589451E-004;1.244660234078765E-003;
2.417000000000000E+009;2.015171945095062E-001;-4.043968021869659E-002;-7.055738824419677E-004;1.201639533974230E-003;
2.417166666666667E+009;2.011675536632538E-001;-4.064860567450523E-002;-5.368933198042214E-004;1.249148743227124E-003;
2.417333333333334E+009;2.009896636009216E-001;-4.052235558629036E-002;-5.746654933318496E-004;1.307305181398988E-003;
2.417500000000000E+009;2.005735933780670E-001;-4.081091657280922E-002;-5.875989445485175E-004;1.191177638247609E-003;
2.417666666666667E+009;2.000759690999985E-001;-4.088139906525612E-002;-5.256219883449376E-004;1.286987680941820E-003;
2.417833333333334E+009;1.996700465679169E-001;-4.085798189043999E-002;-4.281207802705467E-004;1.312089501880109E-003;
2.418000000000000E+009;1.989931911230087E-001;-4.086291790008545E-002;-2.671138790901750E-004;1.270909095183015E-003;
2.418166666666667E+009;1.983927786350250E-001;-4.094792157411575E-002;-3.592199063859880E-004;1.398278400301933E-003;
2.418333333333334E+009;1.974200606346130E-001;-4.103500768542290E-002;-1.654425432207063E-004;1.249549095518887E-003;
2.418500000000000E+009;1.965003013610840E-001;-4.129266366362572E-002;-1.581333781359717E-004;1.122298650443554E-003;
2.418666666666667E+009;1.957623362541199E-001;-4.140511155128479E-002;-1.893374865176156E-004;1.258576987311244E-003;
2.418833333333334E+009;1.945913583040237E-001;-4.161763563752174E-002;-1.293613458983600E-004;1.146284746937454E-003;
2.419000000000000E+009;1.934506893157959E-001;-4.208439588546753E-002;-5.370936560211703E-005;1.164813991636038E-003;
2.419166666666667E+009;1.924570798873901E-001;-4.255319386720657E-002;-3.629585626185872E-005;1.141228131018579E-003;
2.419333333333334E+009;1.911938339471817E-001;-4.333724826574326E-002;-2.739775118243415E-005;1.056122826412320E-003;
2.419500000000000E+009;1.898342818021774E-001;-4.359687119722366E-002;3.002628909598570E-005;9.137946180999279E-004;
2.419666666666667E+009;1.885467767715454E-001;-4.453584179282188E-002;-1.692699297564104E-004;1.104704220779240E-003;
2.419833333333334E+009;1.870899647474289E-001;-4.531611502170563E-002;-1.505940308561549E-004;9.789180476218462E-004;
2.420000000000000E+009;1.857893466949463E-001;-4.630216956138611E-002;-1.856665767263621E-004;1.135899336077273E-003;
2.420166666666667E+009;1.844511032104492E-001;-4.721730202436447E-002;-1.711088407319039E-004;1.005987054668367E-003;
2.420333333333334E+009;1.830543726682663E-001;-4.837376996874809E-002;-1.956963533302769E-004;1.240078476257622E-003;
2.420500000000000E+009;1.816889047622681E-001;-4.977827146649361E-002;-3.979906905442476E-004;1.296755624935031E-003;
2.420666666666667E+009;1.801878809928894E-001;-5.078803747892380E-002;-3.031603700947017E-004;1.590245636180043E-003;
2.420833333333334E+009;1.787665039300919E-001;-5.239223316311836E-002;-1.514167815912515E-004;1.483702799305320E-003;
2.421000000000000E+009;1.774236708879471E-001;-5.384586751461029E-002;-2.016497019212693E-004;1.727372640743852E-003;
2.421166666666667E+009;1.762746870517731E-001;-5.546649917960167E-002;-6.043964822310954E-005;1.681090332567692E-003;
2.421333333333334E+009;1.747145354747772E-001;-5.677787214517593E-002;1.218665493070148E-004;1.741203828714788E-003;
2.421500000000000E+009;1.736558675765991E-001;-5.849680677056313E-002;3.747386799659580E-004;1.740019186399877E-003;
2.421666666666667E+009;1.725004166364670E-001;-6.028781458735466E-002;3.717584186233580E-004;1.758828992024064E-003;
2.421833333333334E+009;1.713399589061737E-001;-6.188575923442841E-002;6.704127881675959E-004;1.802403712645173E-003;
2.422000000000000E+009;1.703768521547318E-001;-6.371365487575531E-002;7.505229441449046E-004;1.666310010477901E-003;
2.422166666666667E+009;1.695468425750732E-001;-6.566681712865830E-002;8.988420013338327E-004;1.762774540111423E-003;
2.422333333333334E+009;1.686675101518631E-001;-6.752158701419830E-002;9.766715811565518E-004;1.656563719734550E-003;
2.422500000000000E+009;1.679524630308151E-001;-6.912342458963394E-002;1.134883845224977E-003;1.402925583533943E-003;
2.422666666666667E+009;1.672670990228653E-001;-7.111524790525436E-002;1.166175585240126E-003;1.344517921097577E-003;
2.422833333333334E+009;1.668041497468948E-001;-7.293216139078140E-002;1.280319062061608E-003;1.300596049986780E-003;
2.423000000000000E+009;1.661530882120132E-001;-7.473676651716232E-002;1.108571188524365E-003;1.135612255893648E-003;
2.423166666666667E+009;1.659006625413895E-001;-7.641977816820145E-002;1.364403520710766E-003;9.488117066211999E-004;
2.423333333333334E+009;1.656054258346558E-001;-7.816817611455917E-002;1.207375433295965E-003;1.008533756248653E-003;
2.423500000000000E+009;1.655777841806412E-001;-7.977183163166046E-002;1.256233779713512E-003;9.111259714700282E-004;
2.423666666666667E+009;1.654281765222549E-001;-8.153155446052551E-002;1.334970234893262E-003;1.025489764288068E-003;
2.423833333333334E+009;1.653838902711868E-001;-8.320158720016480E-002;1.381061854772270E-003;9.426400065422058E-004;
2.424000000000000E+009;1.653278172016144E-001;-8.479847013950348E-002;1.439286512322724E-003;8.705527288839221E-004;
2.424166666666667E+009;1.653591841459274E-001;-8.618404716253281E-002;1.207123044878244E-003;6.685754633508623E-004;
2.424333333333334E+009;1.655723601579666E-001;-8.773128688335419E-002;1.476120087318122E-003;8.052475168369710E-004;
2.424500000000000E+009;1.657014787197113E-001;-8.932107686996460E-002;1.383291906677187E-003;7.776764687150717E-004;
2.424666666666667E+009;1.657385230064392E-001;-9.054566919803619E-002;1.346894074231386E-003;5.813982570543885E-004;
2.424833333333334E+009;1.662475615739822E-001;-9.188503026962280E-002;1.454441109672189E-003;7.505043176934123E-004;
2.425000000000000E+009;1.664830744266510E-001;-9.285815805196762E-002;1.457598060369492E-003;5.927378660999239E-004;
2.425166666666667E+009;1.666994988918304E-001;-9.396542608737946E-002;1.595718320459127E-003;3.291244502179325E-004;
2.425333333333334E+009;1.669300645589829E-001;-9.492804855108261E-002;1.622321782633662E-003;4.130827728658915E-004;
2.425500000000000E+009;1.671588271856308E-001;-9.600520133972168E-002;1.502558705396950E-003;1.395341387251392E-004;
2.425666666666667E+009;1.674379110336304E-001;-9.662396460771561E-002;1.459723454900086E-003;1.962932874448597E-004;
2.425833333333334E+009;1.676299273967743E-001;-9.758194535970688E-002;1.593559165485203E-003;1.817933298298158E-005;
2.426000000000000E+009;1.679463386535645E-001;-9.804423153400421E-002;1.597030204720795E-003;1.086196425603703E-004;
2.426166666666667E+009;1.681899577379227E-001;-9.861104190349579E-002;1.593950903043151E-003;-1.164339555543847E-004;
2.426333333333334E+009;1.681117862462997E-001;-9.932372719049454E-002;1.484513282775879E-003;-1.995163474930450E-004;
2.426500000000000E+009;1.684768050909042E-001;-9.971363842487335E-002;1.354237087070942E-003;-2.825190676958300E-005;
2.426666666666667E+009;1.686036437749863E-001;-1.001595333218575E-001;1.416337909176946E-003;-2.561720903031528E-004;
2.426833333333334E+009;1.687642484903336E-001;-1.006951779127121E-001;1.367373275570571E-003;-3.165911766700447E-004;
2.427000000000000E+009;1.687426865100861E-001;-1.009727120399475E-001;1.252196962013841E-003;-4.020908672828227E-004;
2.427166666666667E+009;1.687075793743134E-001;-1.012905910611153E-001;1.364127499982715E-003;-5.435958737507463E-004;
2.427333333333334E+009;1.685569733381271E-001;-1.017649099230766E-001;1.250368193723261E-003;-5.616986309178174E-004;
2.427500000000000E+009;1.683498173952103E-001;-1.020254418253899E-001;1.114518730901182E-003;-7.548079593107104E-004;
2.427666666666667E+009;1.681500375270844E-001;-1.023138463497162E-001;1.023325021378696E-003;-7.881964556872845E-004;
