# Version 1.00
#
freq[Hz];re:Trc1_S11;im:Trc1_S11;re:Trc2_S21;im:Trc2_S21;
2.400000000000000E+009;1.566452831029892E-001;1.059748604893684E-001;2.419951604679227E-003;-2.800406364258379E-004;
2.400166666666667E+009;1.567205637693405E-001;1.038573160767555E-001;2.336676931008697E-003;-4.696501709986478E-004;
2.400333333333334E+009;1.571175009012222E-001;1.016271933913231E-001;2.559959422796965E-003;-6.660366198047996E-004;
2.400500000000000E+009;1.572093963623047E-001;9.907028079032898E-002;2.292439341545105E-003;-9.873636299744248E-004;
2.400666666666667E+009;1.574558913707733E-001;9.651270508766174E-002;2.517940010875464E-003;-1.130106160417199E-003;
2.400833333333334E+009;1.577311903238297E-001;9.400412440299988E-002;2.537113614380360E-003;-1.357993343845010E-003;
2.401000000000000E+009;1.581370681524277E-001;9.129699319601059E-002;2.573111793026328E-003;-1.752490876242518E-003;
2.401166666666667E+009;1.583827286958695E-001;8.877681195735931E-002;2.257993444800377E-003;-1.906041055917740E-003;
2.401333333333334E+009;1.588497161865234E-001;8.619827777147293E-002;2.143712947145104E-003;-2.230325713753700E-003;
2.401500000000000E+009;1.592910289764404E-001;8.343928307294846E-002;1.991776982322335E-003;-2.304989611729980E-003;
2.401666666666667E+009;1.596937924623489E-001;8.082711696624756E-002;1.677493331953883E-003;-2.559195039793849E-003;
2.401833333333334E+009;1.604694128036499E-001;7.827340066432953E-002;1.440706197172403E-003;-2.694840542972088E-003;
2.402000000000000E+009;1.613469272851944E-001;7.570939511060715E-002;1.111962250433862E-003;-2.686413237825036E-003;
2.402166666666667E+009;1.621233820915222E-001;7.337302714586258E-002;9.590486879460514E-004;-2.757622860372067E-003;
2.402333333333334E+009;1.630625128746033E-001;7.075898349285126E-002;7.683878066018224E-004;-2.605622634291649E-003;
2.402500000000000E+009;1.640745550394058E-001;6.850123405456543E-002;5.801589577458799E-004;-2.555579412728548E-003;
2.402666666666667E+009;1.652459502220154E-001;6.637658923864365E-002;2.972329966723919E-004;-2.344020642340183E-003;
2.402833333333334E+009;1.663468778133392E-001;6.418949365615845E-002;8.945378795033321E-005;-2.318777842447162E-003;
2.403000000000000E+009;1.677761822938919E-001;6.189141049981117E-002;-6.903756911924575E-006;-2.255382947623730E-003;
2.403166666666667E+009;1.693770736455917E-001;5.991915985941887E-002;5.719035107176751E-005;-1.977453939616680E-003;
2.403333333333334E+009;1.703569293022156E-001;5.793149024248123E-002;4.161149627179839E-005;-1.985625131055713E-003;
2.403500000000000E+009;1.720095276832581E-001;5.586193501949310E-002;-1.465453387936577E-004;-2.042811829596758E-003;
2.403666666666667E+009;1.736127585172653E-001;5.417500063776970E-002;-4.577074832923245E-006;-1.887038932181895E-003;
2.403833333333334E+009;1.749535948038101E-001;5.234705284237862E-002;2.520265661587473E-005;-1.874587964266539E-003;
2.404000000000000E+009;1.762975305318832E-001;5.071831494569778E-002;5.825568950967863E-005;-1.932100160047412E-003;
2.404166666666667E+009;1.778102815151215E-001;4.902112856507301E-002;5.633824002870824E-006;-1.935443608090282E-003;
2.404333333333334E+009;1.790880262851715E-001;4.773115366697311E-002;7.693734369240701E-005;-1.924403128214181E-003;
2.404500000000000E+009;1.804727315902710E-001;4.623464867472649E-002;-4.227304452797398E-005;-2.111599780619144E-003;
2.404666666666667E+009;1.819284856319428E-001;4.533226788043976E-002;-1.688688462309074E-005;-2.168655861169100E-003;
2.404833333333334E+009;1.833259463310242E-001;4.406158998608589E-002;-1.717478880891576E-004;-2.173383953049779E-003;
2.405000000000000E+009;1.844663769006729E-001;4.333652555942535E-002;-1.862515637185425E-004;-2.334022196009755E-003;
2.405166666666667E+009;1.856923252344132E-001;4.240269213914871E-002;-4.238532274030149E-004;-2.313118660822511E-003;
2.405333333333334E+009;1.869898438453674E-001;4.191908240318298E-002;-4.817791050300002E-004;-2.333178417757154E-003;
2.405500000000000E+009;1.881233304738998E-001;4.136740788817406E-002;-8.215825073421001E-004;-2.424683189019561E-003;
2.405666666666667E+009;1.891262233257294E-001;4.075141996145248E-002;-1.030065235681832E-003;-2.368056681007147E-003;
2.405833333333334E+009;1.899911165237427E-001;4.036222398281097E-002;-1.140366424806416E-003;-2.294343430548906E-003;
2.406000000000000E+009;1.910074949264526E-001;3.995304554700851E-002;-1.198179437778890E-003;-2.300471998751164E-003;
2.406166666666667E+009;1.917972564697266E-001;3.966634348034859E-002;-1.491760136559606E-003;-2.103440463542938E-003;
2.406333333333334E+009;1.924894303083420E-001;3.952807933092117E-002;-1.549799111671746E-003;-1.999491592869163E-003;
2.406500000000000E+009;1.931215375661850E-001;3.927228972315788E-002;-1.687847659923136E-003;-1.915586297400296E-003;
2.406666666666667E+009;1.935866624116898E-001;3.915387392044067E-002;-1.749034039676189E-003;-1.638074172660708E-003;
2.406833333333334E+009;1.940056383609772E-001;3.909150138497353E-002;-1.741309533827007E-003;-1.637035747990012E-003;
2.407000000000000E+009;1.943096071481705E-001;3.895109146833420E-002;-1.876826747320592E-003;-1.401134766638279E-003;
2.407166666666667E+009;1.945958435535431E-001;3.869815543293953E-002;-2.051016548648477E-003;-1.122607383877039E-003;
2.407333333333334E+009;1.945672780275345E-001;3.853921219706535E-002;-2.122776582837105E-003;-1.013161498121917E-003;
2.407500000000000E+009;1.946295648813248E-001;3.839642554521561E-002;-2.061640843749046E-003;-8.479200769215822E-004;
2.407666666666667E+009;1.946120262145996E-001;3.808255493640900E-002;-2.087499480694532E-003;-7.635010988451541E-004;
2.407833333333334E+009;1.941854953765869E-001;3.788976371288300E-002;-1.835394650697708E-003;-4.336175625212491E-004;
2.408000000000000E+009;1.942374110221863E-001;3.743901476264000E-002;-2.073741750791669E-003;-4.583333502523601E-004;
2.408166666666667E+009;1.937265545129776E-001;3.707772120833397E-002;-1.844491809606552E-003;-1.172692063846625E-004;
2.408333333333334E+009;1.934162974357605E-001;3.626875206828117E-002;-1.712746336124837E-003;-3.865604521706700E-004;
2.408500000000000E+009;1.929126679897308E-001;3.592062741518021E-002;-1.772380550391972E-003;-1.258229603990912E-004;
2.408666666666667E+009;1.924801766872406E-001;3.524320572614670E-002;-1.555958646349609E-003;4.854777944274247E-005;
2.408833333333334E+009;1.919214576482773E-001;3.455402702093124E-002;-1.503583858720958E-003;-7.221002306323499E-005;
2.409000000000000E+009;1.911606490612030E-001;3.337003663182259E-002;-1.398207154124975E-003;2.255098806926981E-004;
2.409166666666667E+009;1.903818696737289E-001;3.231471031904221E-002;-1.295345136895776E-003;6.735275383107364E-005;
2.409333333333334E+009;1.897817850112915E-001;3.133006766438484E-002;-1.274406793527305E-003;1.210537666338496E-004;
2.409500000000000E+009;1.888837814331055E-001;3.001292422413826E-002;-1.163974637165666E-003;1.900251081679016E-004;
2.409666666666667E+009;1.881093233823776E-001;2.857318520545960E-002;-1.135430065914989E-003;1.426769013050944E-004;
2.409833333333334E+009;1.871465444564819E-001;2.704837173223496E-002;-8.412796305492520E-004;4.999237717129290E-005;
2.410000000000000E+009;1.866947263479233E-001;2.552064135670662E-002;-8.815971086733043E-004;-4.165138670941815E-005;
2.410166666666667E+009;1.858015358448029E-001;2.379211969673634E-002;-9.150307741947472E-004;-6.441132427426055E-005;
2.410333333333334E+009;1.851447820663452E-001;2.199272997677326E-002;-8.045308059081435E-004;-1.644004660192877E-004;
2.410500000000000E+009;1.841553747653961E-001;2.009212970733643E-002;-8.430486777797341E-004;-1.954300241777673E-004;
2.410666666666667E+009;1.836235076189041E-001;1.808767579495907E-002;-9.732299367897213E-004;-1.947852724697441E-004;
2.410833333333334E+009;1.833035945892334E-001;1.626476645469666E-002;-7.994239567779005E-004;-2.261386835016310E-004;
2.411000000000000E+009;1.827121376991272E-001;1.415073033422232E-002;-9.519305313006043E-004;-4.094269534107298E-004;
2.411166666666667E+009;1.821829527616501E-001;1.215566974133253E-002;-1.007074723020196E-003;-3.633017186075449E-004;
2.411333333333334E+009;1.816937774419785E-001;9.843244217336178E-003;-1.073416089639068E-003;-4.527734708972275E-004;
2.411500000000000E+009;1.814349442720413E-001;7.443022914230824E-003;-1.225657411850989E-003;-4.679499252233654E-004;
2.411666666666667E+009;1.813274770975113E-001;5.504741799086332E-003;-1.435035723261535E-003;-4.871321725659072E-004;
2.411833333333334E+009;1.812254041433334E-001;3.270819317549467E-003;-1.439763000234962E-003;-3.918712027370930E-004;
2.412000000000000E+009;1.812705993652344E-001;1.109825912863016E-003;-1.417867490090430E-003;-3.975541912950575E-004;
2.412166666666667E+009;1.814786344766617E-001;-1.046859310008586E-003;-1.520974561572075E-003;-2.060417318716645E-004;
2.412333333333334E+009;1.815142035484314E-001;-3.483450273051858E-003;-1.628513215109706E-003;-1.282364537473768E-004;
2.412500000000000E+009;1.821190714836121E-001;-5.600917153060436E-003;-1.697286963462830E-003;1.248420812771656E-005;
2.412666666666667E+009;1.825075149536133E-001;-7.780451793223620E-003;-1.732786302454770E-003;8.404831896768883E-005;
2.412833333333334E+009;1.832785159349442E-001;-9.897837415337563E-003;-1.784913125447929E-003;2.200186281697825E-004;
2.413000000000000E+009;1.837448179721832E-001;-1.206445321440697E-002;-1.817138167098165E-003;3.237756900489330E-004;
2.413166666666667E+009;1.845978647470474E-001;-1.410178467631340E-002;-1.864943653345108E-003;3.827803884632886E-004;
2.413333333333334E+009;1.855798661708832E-001;-1.617908664047718E-002;-1.731094787828624E-003;5.750499549321830E-004;
2.413500000000000E+009;1.862061619758606E-001;-1.830631680786610E-002;-1.707881106995046E-003;6.612849538214505E-004;
2.413666666666667E+009;1.871998459100723E-001;-2.023627236485481E-002;-1.742894062772393E-003;8.211676031351090E-004;
2.413833333333334E+009;1.880001127719879E-001;-2.203075960278511E-002;-1.581496209837496E-003;9.493039106018841E-004;
2.414000000000000E+009;1.891198456287384E-001;-2.398326806724072E-002;-1.523560727946460E-003;1.093960250727832E-003;
2.414166666666667E+009;1.901952326297760E-001;-2.556940913200378E-002;-1.517534023150802E-003;1.103905378840864E-003;
2.414333333333334E+009;1.912357211112976E-001;-2.746096998453140E-002;-1.130061456933618E-003;1.216182368807495E-003;
2.414500000000000E+009;1.921508461236954E-001;-2.872257679700851E-002;-1.082613947801292E-003;1.114983111619949E-003;
2.414666666666667E+009;1.931502521038055E-001;-3.022156469523907E-002;-1.004776102490723E-003;1.181437284685671E-003;
2.414833333333334E+009;1.940877735614777E-001;-3.150164335966110E-002;-7.966994307935238E-004;1.090350211597979E-003;
2.415000000000000E+009;1.949801295995712E-001;-3.298309445381165E-002;-6.605060189031065E-004;1.026837853714824E-003;
2.415166666666667E+009;1.960486471652985E-001;-3.393839299678803E-002;-7.791795069351792E-004;9.216786711476743E-004;
2.415333333333334E+009;1.969453841447830E-001;-3.487755358219147E-002;-6.518919835798442E-004;1.016248133964837E-003;
2.415500000000000E+009;1.978357881307602E-001;-3.558933362364769E-002;-7.548266439698637E-004;8.923521381802857E-004;
2.415666666666667E+009;1.987476646900177E-001;-3.666091337800026E-002;-7.543991087004542E-004;8.760479395277798E-004;
2.415833333333334E+009;1.994072496891022E-001;-3.722752258181572E-002;-9.519808809272945E-004;1.013940316624939E-003;
2.416000000000000E+009;2.000295519828796E-001;-3.802475705742836E-002;-8.016146020963788E-004;9.094664128497243E-004;
2.416166666666667E+009;2.004741877317429E-001;-3.871585428714752E-002;-7.233901415020227E-004;9.163670474663377E-004;
2.416333333333334E+009;2.011031806468964E-001;-3.898748382925987E-002;-7.277896511368454E-004;9.140137117356062E-004;
2.416500000000000E+009;2.013835310935974E-001;-3.959364444017410E-002;-7.579333032481372E-004;1.080049201846123E-003;
2.416666666666667E+009;2.015251368284226E-001;-4.000625386834145E-002;-5.861080717295408E-004;1.125849434174597E-003;
2.416833333333334E+009;2.015926688909531E-001;-4.018553718924522E-002;-7.033284637145698E-004;1.181704574264586E-003;
2.417000000000000E+009;2.016747295856476E-001;-4.052609950304031E-002;-6.724026170559228E-004;1.318279304541647E-003;
2.417166666666667E+009;2.013700008392334E-001;-4.069241508841515E-002;-6.066239438951016E-004;1.313184970058501E-003;
2.417333333333334E+009;2.009636014699936E-001;-4.062548652291298E-002;-5.790194845758379E-004;1.386447809636593E-003;
2.417500000000000E+009;2.006369084119797E-001;-4.094782471656799E-002;-5.304967053234577E-004;1.333955326117575E-003;
2.417666666666667E+009;2.000925093889237E-001;-4.086436331272125E-002;-4.314787802286446E-004;1.233736169524491E-003;
2.417833333333334E+009;1.997284442186356E-001;-4.098740592598915E-002;-2.973778173327446E-004;1.385005307383835E-003;
2.418000000000000E+009;1.990863680839539E-001;-4.092901572585106E-002;-3.536509175319225E-004;1.332985586486757E-003;
2.418166666666667E+009;1.984491646289825E-001;-4.096956551074982E-002;-9.826606401475146E-005;1.341460156254470E-003;
2.418333333333334E+009;1.976332813501358E-001;-4.109296202659607E-002;-3.696081694215536E-005;1.281763892620802E-003;
2.418500000000000E+009;1.967188268899918E-001;-4.122199863195419E-002;-1.089105571736582E-004;1.274442533031106E-003;
2.418666666666667E+009;1.957814693450928E-001;-4.141493514180183E-002;6.926682544872165E-005;1.292633358389139E-003;
2.418833333333334E+009;1.947366893291473E-001;-4.171288758516312E-002;-2.461117037455551E-005;1.191831426694989E-003;
2.419000000000000E+009;1.935398578643799E-001;-4.210813716053963E-002;7.188209565356374E-005;1.053082174621522E-003;
2.419166666666667E+009;1.925312876701355E-001;-4.253224283456802E-002;-1.848883221100550E-005;1.051323139108717E-003;
2.419333333333334E+009;1.913788467645645E-001;-4.323868453502655E-002;7.445558730978519E-005;1.039028516970575E-003;
2.419500000000000E+009;1.899618506431580E-001;-4.369202628731728E-002;-1.125539638451301E-004;1.052118139341474E-003;
2.419666666666667E+009;1.886050254106522E-001;-4.468963667750359E-002;2.748184897427564E-006;1.002273871563375E-003;
2.419833333333334E+009;1.872508674860001E-001;-4.536435008049011E-002;-4.561419336823747E-005;1.130398828536272E-003;
2.420000000000000E+009;1.859458982944489E-001;-4.630055278539658E-002;-2.653549599926919E-004;1.017956179566681E-003;
2.420166666666667E+009;1.845775395631790E-001;-4.735106229782105E-002;-1.642149873077869E-004;1.259195269085467E-003;
2.420333333333334E+009;1.831628382205963E-001;-4.842459037899971E-002;-1.414449216099456E-004;1.123014255426824E-003;
2.420500000000000E+009;1.817106008529663E-001;-4.978812485933304E-002;-1.934770407387987E-004;1.208779751323164E-003;
2.420666666666667E+009;1.804100275039673E-001;-5.079865455627441E-002;-2.013266348512843E-004;1.379599096253514E-003;
2.420833333333334E+009;1.788612902164459E-001;-5.237759277224541E-002;-9.710075391922146E-005;1.437717000953853E-003;
2.421000000000000E+009;1.775859147310257E-001;-5.392545834183693E-002;-1.334940498054493E-005;1.701302011497319E-003;
2.421166666666667E+009;1.764973402023315E-001;-5.555579438805580E-002;9.315321221947670E-005;1.708120224066079E-003;
2.421333333333334E+009;1.749106943607330E-001;-5.690496787428856E-002;1.882575306808576E-004;1.917618443258107E-003;
2.421500000000000E+009;1.738092750310898E-001;-5.869317054748535E-002;3.072033287025988E-004;1.935041276738048E-003;
2.421666666666667E+009;1.726916283369064E-001;-6.045231595635414E-002;5.659619928337634E-004;1.749442657455802E-003;
2.421833333333334E+009;1.717213094234467E-001;-6.220980733633041E-002;8.823818061500788E-004;1.936160377226770E-003;
2.422000000000000E+009;1.706089079380035E-001;-6.392061710357666E-002;1.037157606333494E-003;1.798998331651092E-003;
2.422166666666667E+009;1.697767078876495E-001;-6.594023108482361E-002;9.654429159127176E-004;1.627958612516522E-003;
2.422333333333334E+009;1.687510311603546E-001;-6.749884039163590E-002;1.135003985837102E-003;1.463953289203346E-003;
2.422500000000000E+009;1.680489331483841E-001;-6.940323859453201E-002;1.098106964491308E-003;1.255734125152230E-003;
2.422666666666667E+009;1.674330830574036E-001;-7.108739018440247E-002;1.240946701727808E-003;1.230750931426883E-003;
2.422833333333334E+009;1.670326888561249E-001;-7.309625297784805E-002;1.374571933411062E-003;1.168934162706137E-003;
2.423000000000000E+009;1.662741154432297E-001;-7.488357275724411E-002;1.390276709571481E-003;1.093677012249827E-003;
2.423166666666667E+009;1.661147922277451E-001;-7.666738331317902E-002;1.259658602066338E-003;9.277623030357063E-004;
2.423333333333334E+009;1.657955944538117E-001;-7.848066836595535E-002;1.321389921940863E-003;9.143464267253876E-004;
2.423500000000000E+009;1.656743437051773E-001;-7.991091161966324E-002;1.443732297047973E-003;8.554153027944267E-004;
2.423666666666667E+009;1.656338423490524E-001;-8.176924288272858E-002;1.242090715095401E-003;8.808324928395450E-004;
2.423833333333334E+009;1.654067486524582E-001;-8.333288878202438E-002;1.138576539233327E-003;7.486996473744512E-004;
2.424000000000000E+009;1.655138880014420E-001;-8.495844900608063E-002;1.192774856463075E-003;8.080055704340339E-004;
2.424166666666667E+009;1.654832959175110E-001;-8.649356663227081E-002;1.304649165831506E-003;7.534809410572052E-004;
2.424333333333334E+009;1.655343025922775E-001;-8.788836002349854E-002;1.292626839131117E-003;6.944792694412172E-004;
2.424500000000000E+009;1.658755242824554E-001;-8.946534246206284E-002;1.440295833162963E-003;7.629328756593168E-004;
2.424666666666667E+009;1.658937633037567E-001;-9.076305478811264E-002;1.611771294847131E-003;5.122981383465231E-004;
2.424833333333334E+009;1.663011908531189E-001;-9.209443628787994E-002;1.423002686351538E-003;3.634091699495912E-004;
2.425000000000000E+009;1.665219664573669E-001;-9.311427921056747E-002;1.509669469669461E-003;3.887411148753017E-004;
2.425166666666667E+009;1.667848676443100E-001;-9.421198815107346E-002;1.474973279982805E-003;7.166288560256362E-005;
2.425333333333334E+009;1.669111400842667E-001;-9.518664330244064E-002;1.478137797676027E-003;1.525803381809965E-004;
2.425500000000000E+009;1.671757102012634E-001;-9.627790749073029E-002;1.511656329967082E-003;1.792256261978764E-005;
2.425666666666667E+009;1.674115210771561E-001;-9.697896242141724E-002;1.521571190096438E-003;-7.693779480177909E-005;
2.425833333333334E+009;1.675793379545212E-001;-9.776210784912109E-002;1.330274506472051E-003;-7.284414459718391E-005;
2.426000000000000E+009;1.678340137004852E-001;-9.839002788066864E-002;1.390701392665505E-003;-1.368179509881884E-004;
2.426166666666667E+009;1.681940555572510E-001;-9.890910238027573E-002;1.425124472007155E-003;-1.109488803194836E-004;
2.426333333333334E+009;1.681745052337647E-001;-9.962902963161469E-002;1.409150310792029E-003;-2.320653002243489E-004;
2.426500000000000E+009;1.684597283601761E-001;-9.991578757762909E-002;1.372843864373863E-003;-3.136469458695501E-004;
2.426666666666667E+009;1.685784906148911E-001;-1.003729626536369E-001;1.226786873303354E-003;-3.286319551989436E-004;
2.426833333333334E+009;1.686832606792450E-001;-1.008189916610718E-001;1.219360623508692E-003;-4.353401309344918E-004;
2.427000000000000E+009;1.687120944261551E-001;-1.012020036578178E-001;1.248071668669581E-003;-4.677886026911438E-004;
2.427166666666667E+009;1.686760783195496E-001;-1.014527007937431E-001;1.192286144942045E-003;-5.652524996548891E-004;
2.427333333333334E+009;1.685157865285873E-001;-1.019785180687904E-001;1.182775711640716E-003;-7.854243158362806E-004;
2.427500000000000E+009;1.683488786220551E-001;-1.023125723004341E-001;1.131142606027424E-003;-7.543734391219914E-004;
2.427666666666667E+009;1.679907441139221E-001;-1.025070175528526E-001;9.511017124168575E-004;-8.492297492921352E-004;
