# Version 1.00
#
freq[Hz];re:Trc1_S11;im:Trc1_S11;re:Trc2_S21;im:Trc2_S21;
2.400000000000000E+009;1.566247344017029E-001;1.051688268780708E-001;2.581464941613376E-004;-2.434992929920554E-003;
2.400166666666667E+009;1.565388888120651E-001;1.029074862599373E-001;2.288485848112032E-004;-2.530556172132492E-003;
2.400333333333334E+009;1.567968875169754E-001;1.006279289722443E-001;2.924650034401566E-004;-2.630850533023477E-003;
2.400500000000000E+009;1.569955945014954E-001;9.799746423959732E-002;1.091597441700287E-004;-2.659930381923914E-003;
2.400666666666667E+009;1.572183072566986E-001;9.557374566793442E-002;1.206942251883447E-004;-2.783160889521241E-003;
2.400833333333334E+009;1.573959290981293E-001;9.293068945407867E-002;7.356980404438218E-006;-2.782007446512580E-003;
2.401000000000000E+009;1.576094180345535E-001;9.037193655967712E-002;-2.266060619149357E-004;-2.866447670385242E-003;
2.401166666666667E+009;1.579667776823044E-001;8.758709579706192E-002;-3.270078450441361E-004;-2.741688163951039E-003;
2.401333333333334E+009;1.582759916782379E-001;8.487713336944580E-002;-2.231884136563167E-004;-2.923321677371860E-003;
2.401500000000000E+009;1.587429493665695E-001;8.233898133039475E-002;-3.671224694699049E-004;-2.899209735915065E-003;
2.401666666666667E+009;1.593265533447266E-001;7.956144213676453E-002;-5.565547617152333E-004;-2.978051779791713E-003;
2.401833333333334E+009;1.597889810800552E-001;7.732334733009338E-002;-6.663651438429952E-004;-3.010165877640247E-003;
2.402000000000000E+009;1.607132852077484E-001;7.444640994071960E-002;-6.939523154869676E-004;-3.205246524885297E-003;
2.402166666666667E+009;1.613791584968567E-001;7.214296609163284E-002;-8.296445594169200E-004;-3.149807220324874E-003;
2.402333333333334E+009;1.622598469257355E-001;6.949675828218460E-002;-9.023437742143869E-004;-3.287103958427906E-003;
2.402500000000000E+009;1.633369028568268E-001;6.724897027015686E-002;-1.200821716338396E-003;-3.191315336152911E-003;
2.402666666666667E+009;1.644552797079086E-001;6.526246666908264E-002;-1.413796213455498E-003;-3.188383998349309E-003;
2.402833333333334E+009;1.656621992588043E-001;6.287241727113724E-002;-1.535495626740158E-003;-3.167765680700541E-003;
2.403000000000000E+009;1.670002192258835E-001;6.070590391755104E-002;-1.633427338674665E-003;-3.041944932192564E-003;
2.403166666666667E+009;1.685454398393631E-001;5.868918076157570E-002;-1.899006427265704E-003;-2.969333669170737E-003;
2.403333333333334E+009;1.698324680328369E-001;5.664740502834320E-002;-2.177935792133212E-003;-2.853874582797289E-003;
2.403500000000000E+009;1.712905466556549E-001;5.468137562274933E-002;-2.325206995010376E-003;-2.639242913573980E-003;
2.403666666666667E+009;1.729417145252228E-001;5.280653014779091E-002;-2.251593628898263E-003;-2.551483921706677E-003;
2.403833333333334E+009;1.745184212923050E-001;5.117293074727058E-002;-2.468974562361836E-003;-2.403968712314963E-003;
2.404000000000000E+009;1.758158951997757E-001;4.935262352228165E-002;-2.569581381976605E-003;-2.290075877681375E-003;
2.404166666666667E+009;1.773521304130554E-001;4.802651703357697E-002;-2.475936431437731E-003;-2.204748103395104E-003;
2.404333333333334E+009;1.787100583314896E-001;4.650502279400826E-002;-2.725750673562288E-003;-2.014640020206571E-003;
2.404500000000000E+009;1.803011745214462E-001;4.516295716166496E-002;-2.467453246936202E-003;-1.947097713127732E-003;
2.404666666666667E+009;1.816644668579102E-001;4.415833577513695E-002;-2.555092563852668E-003;-1.888116239570081E-003;
2.404833333333334E+009;1.830483525991440E-001;4.304431751370430E-002;-2.577567007392645E-003;-1.818840857595205E-003;
2.405000000000000E+009;1.840045750141144E-001;4.233944416046143E-002;-2.556298859417439E-003;-1.901835436001420E-003;
2.405166666666667E+009;1.852996051311493E-001;4.170202463865280E-002;-2.824438968673348E-003;-1.938546192832291E-003;
2.405333333333334E+009;1.864190697669983E-001;4.145513102412224E-002;-2.901970874518156E-003;-1.937980996444821E-003;
2.405500000000000E+009;1.876738965511322E-001;4.034812003374100E-002;-2.827067160978913E-003;-1.527349464595318E-003;
2.405666666666667E+009;1.889814138412476E-001;3.986146301031113E-002;-2.950263209640980E-003;-1.403811969794333E-003;
2.405833333333334E+009;1.896269470453262E-001;3.968081250786781E-002;-2.986674197018147E-003;-1.473257900215685E-003;
2.406000000000000E+009;1.905127316713333E-001;4.007927700877190E-002;-3.360972506925464E-003;-1.470845658332110E-003;
2.406166666666667E+009;1.911991536617279E-001;3.935815021395683E-002;-3.079017857089639E-003;-1.192705589346588E-003;
2.406333333333334E+009;1.926306337118149E-001;3.916812315583229E-002;-3.433116711676121E-003;-7.676867535337806E-004;
2.406500000000000E+009;1.937485933303833E-001;3.910524025559425E-002;-3.640965092927218E-003;-4.947478882968426E-004;
2.406666666666667E+009;1.927153319120407E-001;3.835853561758995E-002;-3.017571289092302E-003;-9.146378142759204E-004;
2.406833333333334E+009;1.938892602920532E-001;3.884189948439598E-002;-3.224447369575501E-003;-4.770022642333061E-004;
2.407000000000000E+009;1.941809803247452E-001;3.891378268599510E-002;-3.299257485195994E-003;-4.287637420929968E-004;
2.407166666666667E+009;1.944581419229507E-001;3.868970274925232E-002;-3.434081794694066E-003;-1.541405508760363E-004;
2.407333333333334E+009;1.943104416131973E-001;3.862782567739487E-002;-3.204182256013155E-003;-1.639007241465151E-004;
2.407500000000000E+009;1.943800449371338E-001;3.855202719569206E-002;-3.298299387097359E-003;-8.616950253781397E-006;
2.407666666666667E+009;1.944040805101395E-001;3.829522803425789E-002;-3.116694977506995E-003;1.092937236535363E-005;
2.407833333333334E+009;1.940297931432724E-001;3.809893503785133E-002;-3.066319506615400E-003;1.001926939352416E-004;
2.408000000000000E+009;1.939757317304611E-001;3.783264011144638E-002;-3.081854665651918E-003;2.127621701220051E-004;
2.408166666666667E+009;1.935138404369354E-001;3.742306306958199E-002;-3.132542362436652E-003;4.967755521647632E-004;
2.408333333333334E+009;1.931229233741760E-001;3.680848702788353E-002;-3.056194866076112E-003;4.731962981168181E-004;
2.408500000000000E+009;1.926005929708481E-001;3.630525991320610E-002;-2.995676361024380E-003;4.358977603260428E-004;
2.408666666666667E+009;1.920414417982101E-001;3.576318174600601E-002;-3.049534978345037E-003;7.335223490372300E-004;
2.408833333333334E+009;1.915615200996399E-001;3.492993488907814E-002;-2.957817399874330E-003;8.168386993929744E-004;
2.409000000000000E+009;1.907896846532822E-001;3.397066891193390E-002;-2.798179397359490E-003;9.741954854689539E-004;
2.409166666666667E+009;1.900234073400497E-001;3.293583914637566E-002;-2.725414233282208E-003;9.178330656141043E-004;
2.409333333333334E+009;1.893380880355835E-001;3.198942542076111E-002;-2.770710503682494E-003;8.872346370480955E-004;
2.409500000000000E+009;1.884305775165558E-001;3.070661239326000E-002;-2.731335815042257E-003;1.023068209178746E-003;
2.409666666666667E+009;1.877130717039108E-001;2.914441376924515E-002;-2.632670337334275E-003;1.045738230459392E-003;
2.409833333333334E+009;1.867788434028626E-001;2.767207846045494E-002;-2.516340464353561E-003;1.030721119605005E-003;
2.410000000000000E+009;1.860677599906921E-001;2.603546902537346E-002;-2.435795031487942E-003;1.203864580020309E-003;
2.410166666666667E+009;1.854114830493927E-001;2.427200414240360E-002;-2.459150040522218E-003;1.246455707587302E-003;
2.410333333333334E+009;1.845451146364212E-001;2.257952652871609E-002;-2.530833240598440E-003;1.100708148442209E-003;
2.410500000000000E+009;1.836770921945572E-001;2.078106999397278E-002;-2.472747350111604E-003;1.205086125992239E-003;
2.410666666666667E+009;1.831641048192978E-001;1.850862801074982E-002;-2.413101028650999E-003;1.202284358441830E-003;
2.410833333333334E+009;1.826986670494080E-001;1.656248606741428E-002;-2.472104737535119E-003;1.207191264256835E-003;
2.411000000000000E+009;1.822192668914795E-001;1.438637450337410E-002;-2.398215467110276E-003;1.253042835742235E-003;
2.411166666666667E+009;1.817145347595215E-001;1.236946135759354E-002;-2.485281554982066E-003;1.285830978304148E-003;
2.411333333333334E+009;1.812605857849121E-001;1.000671740621328E-002;-2.442141063511372E-003;1.368716475553811E-003;
2.411500000000000E+009;1.809991449117661E-001;7.762304041534662E-003;-2.344471868127585E-003;1.545831328257918E-003;
2.411666666666667E+009;1.810041666030884E-001;5.554175935685635E-003;-2.411281922832131E-003;1.476818695664406E-003;
2.411833333333334E+009;1.806755363941193E-001;3.458464751020074E-003;-2.448045415803790E-003;1.605488243512809E-003;
2.412000000000000E+009;1.809177547693253E-001;8.391615119762719E-004;-2.391157206147909E-003;1.600433723069727E-003;
2.412166666666667E+009;1.812443137168884E-001;-1.170650939457119E-003;-2.482996555045247E-003;1.791263581253588E-003;
2.412333333333334E+009;1.815277636051178E-001;-3.442067652940750E-003;-2.270343713462353E-003;1.815780648030341E-003;
2.412500000000000E+009;1.817091554403305E-001;-5.625137127935886E-003;-2.366695087403059E-003;1.800219179131091E-003;
2.412666666666667E+009;1.824061721563339E-001;-7.991828024387360E-003;-2.428637119010091E-003;1.935353269800544E-003;
2.412833333333334E+009;1.831374019384384E-001;-1.017179060727358E-002;-2.430577995255590E-003;2.204092917963862E-003;
2.413000000000000E+009;1.838934123516083E-001;-1.241274736821652E-002;-2.429248997941613E-003;2.235447056591511E-003;
2.413166666666667E+009;1.845614165067673E-001;-1.445454172790051E-002;-2.405874896794558E-003;2.439819509163499E-003;
2.413333333333334E+009;1.855999678373337E-001;-1.678360439836979E-002;-2.452138578519225E-003;2.595229074358940E-003;
2.413500000000000E+009;1.864305734634399E-001;-1.874540187418461E-002;-2.319129882380366E-003;2.573574427515268E-003;
2.413666666666667E+009;1.874259710311890E-001;-2.079128287732601E-002;-2.195829292759299E-003;2.990782028064132E-003;
2.413833333333334E+009;1.884298920631409E-001;-2.273589931428433E-002;-2.109267283231020E-003;3.057275433093309E-003;
2.414000000000000E+009;1.895715296268463E-001;-2.450717240571976E-002;-1.936906133778393E-003;3.238186938688159E-003;
2.414166666666667E+009;1.906932145357132E-001;-2.626768685877323E-002;-1.747595961205661E-003;3.427777439355850E-003;
2.414333333333334E+009;1.915644556283951E-001;-2.814852446317673E-002;-1.650691148824990E-003;3.611636580899358E-003;
2.414500000000000E+009;1.927106678485870E-001;-2.953222207725048E-002;-1.267923740670085E-003;3.649374004453421E-003;
2.414666666666667E+009;1.938303858041763E-001;-3.089005127549171E-002;-1.108934637159109E-003;3.767943242564797E-003;
2.414833333333334E+009;1.947550624608994E-001;-3.236311674118042E-002;-8.367901900783181E-004;3.752381540834904E-003;
2.415000000000000E+009;1.957509964704514E-001;-3.357365354895592E-002;-7.413612329401076E-004;3.773756790906191E-003;
2.415166666666667E+009;1.967432200908661E-001;-3.468370810151100E-002;-4.595458740368486E-004;3.726662602275610E-003;
2.415333333333334E+009;1.977787315845490E-001;-3.552044183015823E-002;-2.780532522592694E-004;3.649119520559907E-003;
2.415500000000000E+009;1.986311674118042E-001;-3.638918697834015E-002;-1.806278160074726E-004;3.723665140569210E-003;
2.415666666666667E+009;1.994963139295578E-001;-3.725670278072357E-002;1.331310922978446E-004;3.656769637018442E-003;
2.415833333333334E+009;2.001895606517792E-001;-3.801558166742325E-002;1.742041640682146E-004;3.668660065159202E-003;
2.416000000000000E+009;2.008991837501526E-001;-3.872657567262650E-002;2.354412426939234E-004;3.752067917957902E-003;
2.416166666666667E+009;2.015460878610611E-001;-3.927100449800491E-002;3.711108292918652E-004;3.797455457970500E-003;
2.416333333333334E+009;2.020272016525269E-001;-3.972129523754120E-002;5.418749642558396E-004;3.654349129647017E-003;
2.416500000000000E+009;2.023376077413559E-001;-4.003977030515671E-002;7.360591553151608E-004;3.623938886448741E-003;
2.416666666666667E+009;2.024756968021393E-001;-4.054941982030869E-002;8.962888387031853E-004;3.548040054738522E-003;
2.416833333333334E+009;2.026377320289612E-001;-4.061066731810570E-002;1.096097985282540E-003;3.497111611068249E-003;
2.417000000000000E+009;2.025748044252396E-001;-4.096719250082970E-002;1.247755717486143E-003;3.382580121979117E-003;
2.417166666666667E+009;2.021648138761520E-001;-4.116854071617127E-002;1.609937055036426E-003;3.289009677246213E-003;
2.417333333333334E+009;2.018632441759110E-001;-4.109848663210869E-002;1.728353905491531E-003;3.171951277181506E-003;
2.417500000000000E+009;2.015509009361267E-001;-4.119240865111351E-002;1.774994772858918E-003;2.977044554427266E-003;
2.417666666666667E+009;2.010043561458588E-001;-4.118666425347328E-002;1.898583141155541E-003;2.950127236545086E-003;
2.417833333333334E+009;2.005036771297455E-001;-4.122344031929970E-002;1.947149983607233E-003;2.794679254293442E-003;
2.418000000000000E+009;1.998991668224335E-001;-4.110319539904594E-002;2.061614999547601E-003;2.652906114235520E-003;
2.418166666666667E+009;1.991735249757767E-001;-4.119670763611794E-002;2.180660376325250E-003;2.493911422789097E-003;
2.418333333333334E+009;1.982196420431137E-001;-4.122368246316910E-002;2.272429177537561E-003;2.376782242208719E-003;
2.418500000000000E+009;1.973039507865906E-001;-4.147304221987724E-002;2.290240256115794E-003;2.367441076785326E-003;
2.418666666666667E+009;1.963847130537033E-001;-4.153712466359139E-002;2.310287673026323E-003;2.022935310378671E-003;
2.418833333333334E+009;1.952675879001617E-001;-4.185809567570686E-002;2.261177869513631E-003;1.931971521116793E-003;
2.419000000000000E+009;1.939852535724640E-001;-4.210642352700234E-002;2.215262269601226E-003;1.912461128085852E-003;
2.419166666666667E+009;1.929095536470413E-001;-4.265301674604416E-002;2.346971072256565E-003;1.699814107269049E-003;
2.419333333333334E+009;1.915220320224762E-001;-4.339295253157616E-002;2.274929080158472E-003;1.711793825961649E-003;
2.419500000000000E+009;1.901270896196365E-001;-4.394600540399551E-002;2.225202042609453E-003;1.508467947132886E-003;
2.419666666666667E+009;1.887281984090805E-001;-4.472184926271439E-002;2.388109453022480E-003;1.422350876964629E-003;
2.419833333333334E+009;1.871853321790695E-001;-4.557782039046288E-002;2.343918662518263E-003;1.375570311211050E-003;
2.420000000000000E+009;1.858184039592743E-001;-4.641974344849587E-002;2.395357470959425E-003;1.235034782439470E-003;
2.420166666666667E+009;1.843096613883972E-001;-4.752483591437340E-002;2.398765645921230E-003;1.181581406854093E-003;
2.420333333333334E+009;1.829130947589874E-001;-4.872496053576469E-002;2.374874893575907E-003;1.000855583697557E-003;
2.420500000000000E+009;1.814424097537994E-001;-5.006144568324089E-002;2.495874185115099E-003;1.151485485024750E-003;
2.420666666666667E+009;1.799934506416321E-001;-5.118056759238243E-002;2.224568510428071E-003;9.250709554180503E-004;
2.420833333333334E+009;1.785145848989487E-001;-5.261370167136192E-002;2.255476778373122E-003;8.881375542841852E-004;
2.421000000000000E+009;1.772581487894058E-001;-5.413452163338661E-002;2.194032305851579E-003;9.098468581214547E-004;
2.421166666666667E+009;1.759517639875412E-001;-5.583849921822548E-002;2.282934961840510E-003;6.914171972312033E-004;
2.421333333333334E+009;1.742981374263763E-001;-5.728857219219208E-002;2.400271594524384E-003;6.968725938349962E-004;
2.421500000000000E+009;1.733740568161011E-001;-5.925138294696808E-002;2.192528452724218E-003;6.677470519207418E-004;
2.421666666666667E+009;1.720818579196930E-001;-6.076752766966820E-002;2.244005678221583E-003;4.633793723769486E-004;
2.421833333333334E+009;1.710558831691742E-001;-6.258073449134827E-002;2.234715037047863E-003;4.901500651612878E-004;
2.422000000000000E+009;1.700479835271835E-001;-6.434012204408646E-002;2.352827461436391E-003;5.494027282111347E-004;
2.422166666666667E+009;1.693496108055115E-001;-6.633755564689636E-002;2.139737131074071E-003;2.986066101584584E-004;
2.422333333333334E+009;1.682335287332535E-001;-6.812835484743118E-002;2.392804017290473E-003;2.644784108269960E-004;
2.422500000000000E+009;1.675899624824524E-001;-6.990389525890350E-002;2.355591394007206E-003;3.527251246850938E-004;
2.422666666666667E+009;1.669212281703949E-001;-7.186740636825562E-002;2.394811250269413E-003;1.509200665168464E-004;
2.422833333333334E+009;1.666830182075501E-001;-7.383449375629425E-002;2.293751342222095E-003;1.583064877195284E-004;
2.423000000000000E+009;1.660783588886261E-001;-7.565310597419739E-002;2.228504512459040E-003;4.679880657931790E-005;
2.423166666666667E+009;1.657267808914185E-001;-7.752052694559097E-002;2.225709147751331E-003;3.038314935110975E-005;
2.423333333333334E+009;1.655292510986328E-001;-7.928670942783356E-002;2.229669364169240E-003;2.278232386743184E-005;
2.423500000000000E+009;1.654819995164871E-001;-8.103745430707932E-002;2.139928750693798E-003;-2.855462080333382E-004;
2.423666666666667E+009;1.654759347438812E-001;-8.283882588148117E-002;2.080622129142284E-003;-1.483443338656798E-004;
2.423833333333334E+009;1.651775836944580E-001;-8.448801189661026E-002;2.051495946943760E-003;-3.432895173318684E-004;
2.424000000000000E+009;1.655101925134659E-001;-8.630641549825668E-002;1.824534381739795E-003;-3.303071425762028E-004;
2.424166666666667E+009;1.654561311006546E-001;-8.772075176239014E-002;1.988623756915331E-003;-3.903797187376767E-004;
2.424333333333334E+009;1.656060963869095E-001;-8.919066935777664E-002;1.864900928921998E-003;-4.539210349321365E-004;
2.424500000000000E+009;1.659782975912094E-001;-9.076413512229919E-002;1.993792131543160E-003;-5.587459891103208E-004;
2.424666666666667E+009;1.660910099744797E-001;-9.206705540418625E-002;1.991647528484464E-003;-3.588814870454371E-004;
2.424833333333334E+009;1.665223836898804E-001;-9.351500123739243E-002;1.814254792407155E-003;-5.276920273900032E-004;
2.425000000000000E+009;1.668987423181534E-001;-9.463561326265335E-002;1.866230508312583E-003;-5.268427194096148E-004;
2.425166666666667E+009;1.670197397470474E-001;-9.557317197322846E-002;1.799517543986440E-003;-6.755483918823302E-004;
2.425333333333334E+009;1.671645343303680E-001;-9.656449407339096E-002;1.744715846143663E-003;-7.739599095657468E-004;
2.425500000000000E+009;1.675481796264648E-001;-9.762505441904068E-002;1.805224339477718E-003;-6.997755845077336E-004;
2.425666666666667E+009;1.678819060325623E-001;-9.835948795080185E-002;1.763063832186163E-003;-8.497691596858203E-004;
2.425833333333334E+009;1.680080592632294E-001;-9.921104460954666E-002;1.542853307910264E-003;-8.929003961384296E-004;
2.426000000000000E+009;1.684694588184357E-001;-9.972681850194931E-002;1.497437013313174E-003;-8.627639035694301E-004;
2.426166666666667E+009;1.687176525592804E-001;-1.003004088997841E-001;1.582215772941709E-003;-8.858080254867673E-004;
2.426333333333334E+009;1.687775701284409E-001;-1.008006036281586E-001;1.366674201563001E-003;-7.826430955901742E-004;
2.426500000000000E+009;1.690613776445389E-001;-1.011614054441452E-001;1.435788115486503E-003;-1.028424245305359E-003;
2.426666666666667E+009;1.692130863666534E-001;-1.015361249446869E-001;1.416594837792218E-003;-8.901102119125426E-004;
2.426833333333334E+009;1.693460196256638E-001;-1.020150259137154E-001;1.315972069278359E-003;-9.842047002166510E-004;
2.427000000000000E+009;1.693136394023895E-001;-1.022406443953514E-001;1.217918586917222E-003;-8.657086291350424E-004;
2.427166666666667E+009;1.693970561027527E-001;-1.025403961539269E-001;1.325377030298114E-003;-8.189453510567546E-004;
2.427333333333334E+009;1.693486124277115E-001;-1.028433740139008E-001;1.175871584564447E-003;-9.878653800114989E-004;
2.427500000000000E+009;1.690063923597336E-001;-1.032693982124329E-001;1.358473673462868E-003;-1.055383589118719E-003;
2.427666666666667E+009;1.686411201953888E-001;-1.034431830048561E-001;1.266257720999420E-003;-9.948099032044411E-004;
2.427833333333334E+009;1.683705747127533E-001;-1.037078201770783E-001;1.185669912956655E-003;-9.486739290878177E-004;
