# Version 1.00
#
freq[Hz];re:Trc1_S11;im:Trc1_S11;re:Trc2_S21;im:Trc2_S21;
2.400000000000000E+009;1.566917598247528E-001;1.051091477274895E-001;2.487169695086777E-004;-2.435973146930337E-003;
2.400166666666667E+009;1.567051559686661E-001;1.028776466846466E-001;1.324433396803215E-004;-2.346599008888006E-003;
2.400333333333334E+009;1.567390412092209E-001;1.007408648729324E-001;1.662092586229846E-006;-2.537485910579562E-003;
2.400500000000000E+009;1.570424139499664E-001;9.800763428211212E-002;1.762593019520864E-004;-2.556426217779517E-003;
2.400666666666667E+009;1.571771055459976E-001;9.574038535356522E-002;-9.420747119293083E-006;-2.703820588067174E-003;
2.400833333333334E+009;1.572604328393936E-001;9.285104274749756E-002;-1.401998306391761E-004;-2.676510717719793E-003;
2.401000000000000E+009;1.577449738979340E-001;9.022899717092514E-002;-1.807184162316844E-004;-2.746149431914091E-003;
2.401166666666667E+009;1.579160690307617E-001;8.765012770891190E-002;-2.157220587832853E-004;-2.921761712059379E-003;
2.401333333333334E+009;1.584231406450272E-001;8.490630239248276E-002;-3.819764242507517E-004;-2.824523486196995E-003;
2.401500000000000E+009;1.589932292699814E-001;8.240266889333725E-002;-2.862922847270966E-004;-2.852397272363305E-003;
2.401666666666667E+009;1.592531502246857E-001;7.959510385990143E-002;-4.683986771851778E-004;-2.856726059690118E-003;
2.401833333333334E+009;1.598322987556458E-001;7.701326161623001E-002;-5.463662673719227E-004;-2.992346649989486E-003;
2.402000000000000E+009;1.607778966426849E-001;7.446033507585526E-002;-7.892719586379826E-004;-2.985977800562978E-003;
2.402166666666667E+009;1.614887267351151E-001;7.220436632633209E-002;-7.551313028670847E-004;-3.138854634016752E-003;
2.402333333333334E+009;1.623556166887283E-001;6.963276863098145E-002;-9.489749209024012E-004;-3.131391014903784E-003;
2.402500000000000E+009;1.635724306106567E-001;6.738963723182678E-002;-1.203143154270947E-003;-3.212065203115344E-003;
2.402666666666667E+009;1.644186228513718E-001;6.519629061222076E-002;-1.349768717773259E-003;-3.139247186481953E-003;
2.402833333333334E+009;1.657439321279526E-001;6.290327757596970E-002;-1.503757783211768E-003;-3.059405367821455E-003;
2.403000000000000E+009;1.668713837862015E-001;6.084680557250977E-002;-1.693670987151563E-003;-3.047825768589973E-003;
2.403166666666667E+009;1.685697585344315E-001;5.878043547272682E-002;-1.853836351074278E-003;-2.884770976379514E-003;
2.403333333333334E+009;1.696665734052658E-001;5.683450028300285E-002;-2.204829128459096E-003;-2.859378000721335E-003;
2.403500000000000E+009;1.713501662015915E-001;5.485059693455696E-002;-2.276458311825991E-003;-2.613100456073880E-003;
2.403666666666667E+009;1.729853153228760E-001;5.300699919462204E-002;-2.367284614592791E-003;-2.460691612213850E-003;
2.403833333333334E+009;1.744921803474426E-001;5.130747333168984E-002;-2.511404454708099E-003;-2.409545239061117E-003;
2.404000000000000E+009;1.758431494235992E-001;4.958479478955269E-002;-2.634363714605570E-003;-2.252515871077776E-003;
2.404166666666667E+009;1.774612218141556E-001;4.823020473122597E-002;-2.619193866848946E-003;-2.238398184999824E-003;
2.404333333333334E+009;1.787826269865036E-001;4.673329740762711E-002;-2.543851500377059E-003;-1.903547905385494E-003;
2.404500000000000E+009;1.801853179931641E-001;4.530210793018341E-002;-2.501056762412190E-003;-1.841179211623967E-003;
2.404666666666667E+009;1.816311776638031E-001;4.426300525665283E-002;-2.734894864261150E-003;-1.860157237388194E-003;
2.404833333333334E+009;1.830488741397858E-001;4.311960935592651E-002;-2.745617646723986E-003;-1.862923614680767E-003;
2.405000000000000E+009;1.842293888330460E-001;4.253777489066124E-002;-2.708811778575182E-003;-1.758236205205321E-003;
2.405166666666667E+009;1.855022311210632E-001;4.180305078625679E-002;-2.822688780725002E-003;-1.547431922517717E-003;
2.405333333333334E+009;1.866531372070313E-001;4.126885533332825E-002;-2.809718949720264E-003;-1.491902512498200E-003;
2.405500000000000E+009;1.877413839101791E-001;4.073626175522804E-002;-3.087466116994619E-003;-1.492341398261488E-003;
2.405666666666667E+009;1.889002025127411E-001;4.023467749357224E-002;-2.958824159577489E-003;-1.495456323027611E-003;
2.405833333333334E+009;1.900191456079483E-001;3.982715308666229E-002;-2.987133339047432E-003;-1.243954175151885E-003;
2.406000000000000E+009;1.907515525817871E-001;3.954757377505302E-002;-3.122984198853374E-003;-1.222861115820706E-003;
2.406166666666667E+009;1.916351467370987E-001;3.933281451463699E-002;-3.187528345733881E-003;-1.151409698650241E-003;
2.406333333333334E+009;1.923689544200897E-001;3.920089825987816E-002;-3.352908650413156E-003;-7.123812683857977E-004;
2.406500000000000E+009;1.929058283567429E-001;3.914236649870873E-002;-3.313171910122037E-003;-7.614148198626936E-004;
2.406666666666667E+009;1.935562640428543E-001;3.909360244870186E-002;-3.385414369404316E-003;-5.573374801315367E-004;
2.406833333333334E+009;1.939371973276138E-001;3.892174735665321E-002;-3.306018654257059E-003;-4.277550615370274E-004;
2.407000000000000E+009;1.941379457712174E-001;3.892211988568306E-002;-3.221614751964808E-003;-2.828715660143644E-004;
2.407166666666667E+009;1.945456713438034E-001;3.884973749518395E-002;-3.281086450442672E-003;-1.988788571907207E-004;
2.407333333333334E+009;1.944006234407425E-001;3.871684893965721E-002;-3.057426307350397E-003;-5.760963540524244E-005;
2.407500000000000E+009;1.943491399288178E-001;3.860509768128395E-002;-3.111513564363122E-003;-4.050085044582374E-005;
2.407666666666667E+009;1.945122778415680E-001;3.846201673150063E-002;-3.126475028693676E-003;1.415139558957890E-004;
2.407833333333334E+009;1.940604895353317E-001;3.813698515295982E-002;-3.067096229642630E-003;2.936138189397752E-004;
2.408000000000000E+009;1.940428018569946E-001;3.790941461920738E-002;-3.095586085692048E-003;3.937651636078954E-004;
2.408166666666667E+009;1.935639381408691E-001;3.748874366283417E-002;-2.896248828619719E-003;4.651515046134591E-004;
2.408333333333334E+009;1.932262331247330E-001;3.674503788352013E-002;-3.037656890228391E-003;5.702373455278575E-004;
2.408500000000000E+009;1.926682740449905E-001;3.644321486353874E-002;-3.005625214427710E-003;6.092544645071030E-004;
2.408666666666667E+009;1.921348571777344E-001;3.572741523385048E-002;-2.895516343414784E-003;7.589731249026954E-004;
2.408833333333334E+009;1.914994418621063E-001;3.494139388203621E-002;-2.685884712263942E-003;7.291728397831321E-004;
2.409000000000000E+009;1.909017413854599E-001;3.393352776765823E-002;-2.652778755873442E-003;8.943200809881091E-004;
2.409166666666667E+009;1.901876777410507E-001;3.293256089091301E-002;-2.704596146941185E-003;9.886701591312885E-004;
2.409333333333334E+009;1.894946396350861E-001;3.190169110894203E-002;-2.698850585147739E-003;9.850637288764119E-004;
2.409500000000000E+009;1.885925233364105E-001;3.046887740492821E-002;-2.529970603063703E-003;9.672330343164504E-004;
2.409666666666667E+009;1.877685636281967E-001;2.921751700341702E-002;-2.528650686144829E-003;1.139510655775666E-003;
2.409833333333334E+009;1.868564486503601E-001;2.765190601348877E-002;-2.454861067235470E-003;1.098242937587202E-003;
2.410000000000000E+009;1.862741708755493E-001;2.614785730838776E-002;-2.355408621951938E-003;9.925899794325233E-004;
2.410166666666667E+009;1.855219453573227E-001;2.425957843661308E-002;-2.414961578324437E-003;1.157412654720247E-003;
2.410333333333334E+009;1.845453381538391E-001;2.256312407553196E-002;-2.328938804566860E-003;1.066405093297362E-003;
2.410500000000000E+009;1.838871389627457E-001;2.075438573956490E-002;-2.271154429763556E-003;1.178560894913971E-003;
2.410666666666667E+009;1.832006126642227E-001;1.854407601058483E-002;-2.404313068836927E-003;1.248853281140328E-003;
2.410833333333334E+009;1.826702058315277E-001;1.655900664627552E-002;-2.311790594831109E-003;1.146305119618774E-003;
2.411000000000000E+009;1.822947263717651E-001;1.443635113537312E-002;-2.393318107351661E-003;1.128869946114719E-003;
2.411166666666667E+009;1.815933436155319E-001;1.252667792141438E-002;-2.439386909827590E-003;1.247657928615809E-003;
2.411333333333334E+009;1.814745217561722E-001;9.912430308759213E-003;-2.339207334443927E-003;1.325672841630876E-003;
2.411500000000000E+009;1.811477392911911E-001;7.854851894080639E-003;-2.383317798376083E-003;1.372600672766566E-003;
2.411666666666667E+009;1.810172796249390E-001;5.626569036394358E-003;-2.449584659188986E-003;1.485327375121415E-003;
2.411833333333334E+009;1.809759587049484E-001;3.550184657797217E-003;-2.483216347172856E-003;1.539904507808387E-003;
2.412000000000000E+009;1.811086833477020E-001;9.130522375926375E-004;-2.264110837131739E-003;1.468361471779645E-003;
2.412166666666667E+009;1.811933815479279E-001;-1.156990882009268E-003;-2.387402812018991E-003;1.727655413560569E-003;
2.412333333333334E+009;1.816236227750778E-001;-3.427251009270549E-003;-2.492748433724046E-003;1.564384088851512E-003;
2.412500000000000E+009;1.819874048233032E-001;-5.713853053748608E-003;-2.333862939849496E-003;1.775544835254550E-003;
2.412666666666667E+009;1.824481189250946E-001;-8.118638768792152E-003;-2.260952955111861E-003;1.872471999377012E-003;
2.412833333333334E+009;1.832489818334580E-001;-1.036203932017088E-002;-2.393954899162054E-003;1.980063272640109E-003;
2.413000000000000E+009;1.839341819286346E-001;-1.249490026384592E-002;-2.336099045351148E-003;2.189551712945104E-003;
2.413166666666667E+009;1.847081333398819E-001;-1.462616864591837E-002;-2.273833379149437E-003;2.201796742156148E-003;
2.413333333333334E+009;1.856235861778259E-001;-1.664005219936371E-002;-2.325262408703566E-003;2.444467274472117E-003;
2.413500000000000E+009;1.864489316940308E-001;-1.880001835525036E-002;-2.059280639514327E-003;2.637924859300256E-003;
2.413666666666667E+009;1.876099854707718E-001;-2.083676867187023E-002;-2.264298964291811E-003;2.826263196766377E-003;
2.413833333333334E+009;1.885853260755539E-001;-2.271519228816032E-002;-2.116316696628928E-003;3.012672765180469E-003;
2.414000000000000E+009;1.896362155675888E-001;-2.469829097390175E-002;-1.907013240270317E-003;3.306970233097673E-003;
2.414166666666667E+009;1.907722651958466E-001;-2.638602256774902E-002;-1.698390347883105E-003;3.463455243036151E-003;
2.414333333333334E+009;1.916233599185944E-001;-2.815820649266243E-002;-1.516388379968703E-003;3.455241210758686E-003;
2.414500000000000E+009;1.928747296333313E-001;-2.959849871695042E-002;-1.415576902218163E-003;3.614486427977681E-003;
2.414666666666667E+009;1.938219666481018E-001;-3.109525330364704E-002;-1.192052732221782E-003;3.637307789176703E-003;
2.414833333333334E+009;1.949534267187119E-001;-3.249391168355942E-002;-8.225104538723826E-004;3.685385687276721E-003;
2.415000000000000E+009;1.959109902381897E-001;-3.365050256252289E-002;-6.827901815995574E-004;3.510625334456563E-003;
2.415166666666667E+009;1.969040632247925E-001;-3.465625271201134E-002;-4.400378093123436E-004;3.561158897355199E-003;
2.415333333333334E+009;1.978500187397003E-001;-3.579147160053253E-002;-2.592858800198883E-004;3.630757331848145E-003;
2.415500000000000E+009;1.987878531217575E-001;-3.639154136180878E-002;-8.358208287972957E-005;3.578416071832180E-003;
2.415666666666667E+009;1.996334344148636E-001;-3.747357428073883E-002;-3.667272176244296E-005;3.583014709874988E-003;
2.415833333333334E+009;2.003084421157837E-001;-3.804003447294235E-002;5.501955456566066E-005;3.394775558263063E-003;
2.416000000000000E+009;2.009559124708176E-001;-3.880569338798523E-002;3.191613359376788E-004;3.364247968420386E-003;
2.416166666666667E+009;2.015098482370377E-001;-3.948860242962837E-002;3.624221135396510E-004;3.499209415167570E-003;
2.416333333333334E+009;2.020170241594315E-001;-3.982183709740639E-002;4.203635326121002E-004;3.638176713138819E-003;
2.416500000000000E+009;2.023917287588120E-001;-4.018830880522728E-002;7.578106014989317E-004;3.377350280061364E-003;
2.416666666666667E+009;2.025786638259888E-001;-4.064476117491722E-002;8.220819290727377E-004;3.517746226862073E-003;
2.416833333333334E+009;2.026366442441940E-001;-4.090058058500290E-002;9.679263457655907E-004;3.328881459310651E-003;
2.417000000000000E+009;2.026398628950119E-001;-4.102068021893501E-002;1.181744970381260E-003;3.381962189450860E-003;
2.417166666666667E+009;2.021796405315399E-001;-4.121474921703339E-002;1.255260431207717E-003;3.254599869251251E-003;
2.417333333333334E+009;2.019756734371185E-001;-4.121510684490204E-002;1.643449068069458E-003;3.189366078004241E-003;
2.417500000000000E+009;2.016976177692413E-001;-4.129579290747643E-002;1.811439055018127E-003;3.038370050489903E-003;
2.417666666666667E+009;2.010834515094757E-001;-4.134847968816757E-002;1.800132449716330E-003;2.791178412735462E-003;
2.417833333333334E+009;2.005675584077835E-001;-4.143768548965454E-002;1.949237077496946E-003;2.642109524458647E-003;
2.418000000000000E+009;2.000084072351456E-001;-4.125463590025902E-002;2.021583728492260E-003;2.728609833866358E-003;
2.418166666666667E+009;1.991839557886124E-001;-4.136335849761963E-002;2.073477720841765E-003;2.415196737274528E-003;
2.418333333333334E+009;1.982491612434387E-001;-4.132167249917984E-002;2.054043114185333E-003;2.374141477048397E-003;
2.418500000000000E+009;1.973643451929092E-001;-4.163733869791031E-002;2.105535240843892E-003;2.121664816513658E-003;
2.418666666666667E+009;1.964880973100662E-001;-4.169124364852905E-002;2.056829864159226E-003;2.043613465502858E-003;
2.418833333333334E+009;1.953208744525909E-001;-4.222108796238899E-002;2.178361173719168E-003;1.988994423300028E-003;
2.419000000000000E+009;1.940449029207230E-001;-4.230465367436409E-002;2.081656828522682E-003;1.948070130310953E-003;
2.419166666666667E+009;1.929271072149277E-001;-4.298953711986542E-002;2.163131721317768E-003;1.728702336549759E-003;
2.419333333333334E+009;1.915758550167084E-001;-4.351669549942017E-002;2.170906635001302E-003;1.714386860840023E-003;
2.419500000000000E+009;1.901650279760361E-001;-4.407218471169472E-002;2.300238003954291E-003;1.476438366807997E-003;
2.419666666666667E+009;1.887007951736450E-001;-4.504863917827606E-002;2.236871980130673E-003;1.475516939535737E-003;
2.419833333333334E+009;1.872743666172028E-001;-4.569263011217117E-002;2.345871180295944E-003;1.372576341964304E-003;
2.420000000000000E+009;1.857139617204666E-001;-4.662879556417465E-002;2.308086026459932E-003;1.258261268958449E-003;
2.420166666666667E+009;1.843210905790329E-001;-4.759062826633453E-002;2.293406054377556E-003;1.182093983516097E-003;
2.420333333333334E+009;1.830074340105057E-001;-4.901234805583954E-002;2.300861291587353E-003;1.083268318325281E-003;
2.420500000000000E+009;1.813769936561585E-001;-5.019180476665497E-002;2.218159381300211E-003;9.126747027039528E-004;
2.420666666666667E+009;1.798954308032990E-001;-5.136958509683609E-002;2.250840654596686E-003;9.650198626331985E-004;
2.420833333333334E+009;1.784435510635376E-001;-5.281281843781471E-002;2.216515829786658E-003;8.577825501561165E-004;
2.421000000000000E+009;1.771674305200577E-001;-5.425571650266647E-002;2.268261974677444E-003;1.007053069770336E-003;
2.421166666666667E+009;1.759411841630936E-001;-5.601600557565689E-002;2.205459168180823E-003;7.921862998045981E-004;
2.421333333333334E+009;1.743261814117432E-001;-5.747017264366150E-002;2.024659654125571E-003;7.066928083077073E-004;
2.421500000000000E+009;1.731390506029129E-001;-5.924597755074501E-002;2.251958707347512E-003;7.149413577280939E-004;
2.421666666666667E+009;1.719645708799362E-001;-6.093913689255714E-002;2.156486269086599E-003;6.492108805105090E-004;
2.421833333333334E+009;1.709253937005997E-001;-6.272282451391220E-002;2.131957560777664E-003;5.383419338613749E-004;
2.422000000000000E+009;1.699948161840439E-001;-6.450022757053375E-002;2.110412344336510E-003;5.825250409543514E-004;
2.422166666666667E+009;1.691851168870926E-001;-6.647209823131561E-002;2.062582178041339E-003;4.968139110133052E-004;
2.422333333333334E+009;1.682430654764175E-001;-6.837170571088791E-002;2.236428670585156E-003;3.511815157253295E-004;
2.422500000000000E+009;1.676184982061386E-001;-7.018800079822540E-002;2.160053700208664E-003;2.746083191595972E-004;
2.422666666666667E+009;1.669185459613800E-001;-7.210424542427063E-002;2.139073098078370E-003;2.831771853379905E-004;
2.422833333333334E+009;1.663811206817627E-001;-7.403965294361115E-002;2.046125940978527E-003;1.430133415851742E-004;
2.423000000000000E+009;1.659724563360214E-001;-7.588919997215271E-002;2.139439107850194E-003;8.474573405692354E-005;
2.423166666666667E+009;1.655882894992828E-001;-7.757994532585144E-002;2.181631280109286E-003;4.028258626931347E-005;
2.423333333333334E+009;1.652807593345642E-001;-7.968359440565109E-002;2.141186269000173E-003;8.990126661956310E-005;
2.423500000000000E+009;1.653036028146744E-001;-8.116786926984787E-002;2.124391961842775E-003;-1.465801615267992E-004;
2.423666666666667E+009;1.652747541666031E-001;-8.296534419059753E-002;1.984044443815947E-003;-1.096025225706399E-004;
2.423833333333334E+009;1.651515811681747E-001;-8.459981530904770E-002;1.972226426005364E-003;-1.957435451913625E-004;
2.424000000000000E+009;1.653584539890289E-001;-8.636701107025147E-002;1.888024620711803E-003;-3.421961737331003E-004;
2.424166666666667E+009;1.653231233358383E-001;-8.787383884191513E-002;1.829585060477257E-003;-3.360461851116270E-004;
2.424333333333334E+009;1.654341369867325E-001;-8.929221332073212E-002;1.783837564289570E-003;-3.451641241554171E-004;
2.424500000000000E+009;1.659159362316132E-001;-9.100209921598434E-002;1.867258106358349E-003;-3.145945665892214E-004;
2.424666666666667E+009;1.658269017934799E-001;-9.238214045763016E-002;1.852727495133877E-003;-2.464189892634749E-004;
2.424833333333334E+009;1.663008183240891E-001;-9.347718954086304E-002;1.741341315209866E-003;-3.310689644422382E-004;
2.425000000000000E+009;1.665866225957871E-001;-9.460096061229706E-002;1.792268478311598E-003;-3.771733317989856E-004;
2.425166666666667E+009;1.667309254407883E-001;-9.575367718935013E-002;1.705330563709140E-003;-4.395959840621799E-004;
2.425333333333334E+009;1.669774949550629E-001;-9.674002230167389E-002;1.685790834017098E-003;-5.848761065863073E-004;
2.425500000000000E+009;1.674312800168991E-001;-9.757281839847565E-002;1.841130317188799E-003;-5.638938164338470E-004;
2.425666666666667E+009;1.676432341337204E-001;-9.829016029834747E-002;1.677832566201687E-003;-7.128104334697127E-004;
2.425833333333334E+009;1.678420752286911E-001;-9.918396174907684E-002;1.651909085921943E-003;-5.664588534273207E-004;
2.426000000000000E+009;1.681788563728333E-001;-9.965839982032776E-002;1.609553932212293E-003;-6.289606681093574E-004;
2.426166666666667E+009;1.684594303369522E-001;-1.002910807728767E-001;1.542076352052391E-003;-7.457592291757464E-004;
2.426333333333334E+009;1.685141324996948E-001;-1.008540987968445E-001;1.519670593552291E-003;-7.402269402518868E-004;
2.426500000000000E+009;1.687837988138199E-001;-1.011398285627365E-001;1.395949628204107E-003;-8.817064226604998E-004;
2.426666666666667E+009;1.690540909767151E-001;-1.016259863972664E-001;1.388779026456177E-003;-8.799149654805660E-004;
2.426833333333334E+009;1.691969484090805E-001;-1.019055694341660E-001;1.353315194137394E-003;-8.425255073234439E-004;
2.427000000000000E+009;1.691236048936844E-001;-1.022776439785957E-001;1.448212307877839E-003;-8.196361595764756E-004;
2.427166666666667E+009;1.692371964454651E-001;-1.025630682706833E-001;1.251608016900718E-003;-8.186551858671010E-004;
2.427333333333334E+009;1.691185534000397E-001;-1.028452962636948E-001;1.356805209070444E-003;-7.240409031510353E-004;
2.427500000000000E+009;1.688404530286789E-001;-1.032032370567322E-001;1.373744104057550E-003;-8.609421784058213E-004;
2.427666666666667E+009;1.684768348932266E-001;-1.033322513103485E-001;1.397967687807977E-003;-1.091452781111002E-003;
2.427833333333334E+009;1.681922078132629E-001;-1.036629378795624E-001;1.365564763545990E-003;-1.125669339671731E-003;
