# Version 1.00
#
freq[Hz];re:Trc1_S11;im:Trc1_S11;re:Trc2_S21;im:Trc2_S21;
2.400000000000000E+009;1.688719391822815E-001;4.586455225944519E-002;-3.452329663559794E-003;5.892098124604672E-005;
2.400166666666667E+009;1.699282079935074E-001;4.509550333023071E-002;-3.423766931518912E-003;-4.986397470929660E-005;
2.400333333333334E+009;1.706618517637253E-001;4.373334348201752E-002;-3.555755363777280E-003;-7.197133982117521E-006;
2.400500000000000E+009;1.718928515911102E-001;4.289426282048225E-002;-3.467652015388012E-003;-3.445553738856688E-005;
2.400666666666667E+009;1.726241558790207E-001;4.166648164391518E-002;-3.524703439325094E-003;6.343780114548281E-005;
2.400833333333334E+009;1.735501587390900E-001;4.096126556396484E-002;-3.428172320127487E-003;1.027037214953452E-004;
2.401000000000000E+009;1.743174344301224E-001;4.039282724261284E-002;-3.606218146160245E-003;9.756530926097184E-005;
2.401166666666667E+009;1.750559210777283E-001;3.956319391727448E-002;-3.383023431524634E-003;9.825248707784340E-005;
2.401333333333334E+009;1.758593320846558E-001;3.875587880611420E-002;-3.682231064885855E-003;2.450720639899373E-004;
2.401500000000000E+009;1.769087910652161E-001;3.806247934699059E-002;-3.627398051321507E-003;1.374840940115973E-004;
2.401666666666667E+009;1.772229224443436E-001;3.756666556000710E-002;-3.863765858113766E-003;2.555351820774376E-004;
2.401833333333334E+009;1.779058724641800E-001;3.684683889150620E-002;-3.825085237622261E-003;2.609039656817913E-004;
2.402000000000000E+009;1.783547252416611E-001;3.644844889640808E-002;-4.025062546133995E-003;3.941718023270369E-004;
2.402166666666667E+009;1.786873489618301E-001;3.580126911401749E-002;-3.920322284102440E-003;3.704818955156952E-004;
2.402333333333334E+009;1.789016127586365E-001;3.488511592149735E-002;-4.106342326849699E-003;4.722709709312767E-004;
2.402500000000000E+009;1.795199811458588E-001;3.488650545477867E-002;-4.400061909109354E-003;7.512510637752712E-004;
2.402666666666667E+009;1.796657294034958E-001;3.396591916680336E-002;-4.331036936491728E-003;6.843941519036889E-004;
2.402833333333334E+009;1.796541661024094E-001;3.311923146247864E-002;-4.406285937875509E-003;1.122659305110574E-003;
2.403000000000000E+009;1.798171401023865E-001;3.257527202367783E-002;-4.486830905079842E-003;1.173724187538028E-003;
2.403166666666667E+009;1.798671931028366E-001;3.178435936570168E-002;-4.753971938043833E-003;1.319454633630812E-003;
2.403333333333334E+009;1.798919290304184E-001;3.111254423856735E-002;-4.660943057388067E-003;1.486063469201326E-003;
2.403500000000000E+009;1.796651631593704E-001;3.013970330357552E-002;-4.796998109668493E-003;1.760598621331155E-003;
2.403666666666667E+009;1.794787794351578E-001;2.931142784655094E-002;-4.805871285498142E-003;1.917121815495193E-003;
2.403833333333334E+009;1.792600899934769E-001;2.821095474064350E-002;-4.882803186774254E-003;2.095350995659828E-003;
2.404000000000000E+009;1.787403225898743E-001;2.705226279795170E-002;-4.901568405330181E-003;2.244266215711832E-003;
2.404166666666667E+009;1.784586608409882E-001;2.593640238046646E-002;-4.795406479388475E-003;2.468080492690206E-003;
2.404333333333334E+009;1.777956932783127E-001;2.475140802562237E-002;-4.760589916259050E-003;2.855125814676285E-003;
2.404500000000000E+009;1.774657517671585E-001;2.346888557076454E-002;-4.766962956637144E-003;3.058378817513585E-003;
2.404666666666667E+009;1.769856661558151E-001;2.210181578993797E-002;-4.633072298020124E-003;3.276596544310451E-003;
2.404833333333334E+009;1.764597892761231E-001;2.063331566751003E-002;-4.680455196648836E-003;3.577488241717219E-003;
2.405000000000000E+009;1.759552806615830E-001;1.891352236270905E-002;-4.381724167615175E-003;3.679151646792889E-003;
2.405166666666667E+009;1.755208969116211E-001;1.758488826453686E-002;-4.299876280128956E-003;4.193323664367199E-003;
2.405333333333334E+009;1.750557422637940E-001;1.571878604590893E-002;-4.022896289825440E-003;4.416442476212978E-003;
2.405500000000000E+009;1.745738685131073E-001;1.424899976700544E-002;-4.070258699357510E-003;4.409996792674065E-003;
2.405666666666667E+009;1.741378009319305E-001;1.252836920320988E-002;-3.916818648576737E-003;4.722448997199535E-003;
2.405833333333334E+009;1.736835986375809E-001;1.062186993658543E-002;-3.613844513893127E-003;4.703031387180090E-003;
2.406000000000000E+009;1.735577285289764E-001;8.651156909763813E-003;-3.466768423095346E-003;5.181183107197285E-003;
2.406166666666667E+009;1.731463819742203E-001;6.983793806284666E-003;-3.214630996808410E-003;5.196420475840569E-003;
2.406333333333334E+009;1.731967926025391E-001;5.047479644417763E-003;-2.905602799728513E-003;5.312353372573853E-003;
2.406500000000000E+009;1.730159372091293E-001;2.962783910334110E-003;-2.712892601266503E-003;5.390753969550133E-003;
2.406666666666667E+009;1.726756244897842E-001;1.083910814486444E-003;-2.350017894059420E-003;5.445024464279413E-003;
2.406833333333334E+009;1.728427410125732E-001;-1.110577723011375E-003;-2.265090355649591E-003;5.461950320750475E-003;
2.407000000000000E+009;1.730635613203049E-001;-3.162930021062493E-003;-2.043274464085698E-003;5.623670294880867E-003;
2.407166666666667E+009;1.730936020612717E-001;-5.309646483510733E-003;-1.867978251539171E-003;5.629654973745346E-003;
2.407333333333334E+009;1.730834096670151E-001;-7.348920218646526E-003;-1.600677031092346E-003;5.719207227230072E-003;
2.407500000000000E+009;1.734127700328827E-001;-9.574252180755138E-003;-1.376135158352554E-003;5.835806019604206E-003;
2.407666666666667E+009;1.737428456544876E-001;-1.159402262419462E-002;-1.048833830282092E-003;5.779123865067959E-003;
2.407833333333334E+009;1.739454120397568E-001;-1.391173433512449E-002;-1.007072627544403E-003;5.724505521357060E-003;
2.408000000000000E+009;1.741942167282105E-001;-1.597304642200470E-002;-7.127670687623322E-004;5.766406189650297E-003;
2.408166666666667E+009;1.746751368045807E-001;-1.793276146054268E-002;-5.517725949175656E-004;5.786341149359942E-003;
2.408333333333334E+009;1.751039028167725E-001;-1.990999467670918E-002;-3.071256796829402E-004;5.729037337005138E-003;
2.408500000000000E+009;1.754415631294251E-001;-2.194039337337017E-002;-1.906832767417654E-004;5.751394666731358E-003;
2.408666666666667E+009;1.757241040468216E-001;-2.405052445828915E-002;1.321682648267597E-004;5.652451887726784E-003;
2.408833333333334E+009;1.760614663362503E-001;-2.562777325510979E-002;1.059878704836592E-004;5.793795455247164E-003;
2.409000000000000E+009;1.764836907386780E-001;-2.722233533859253E-002;4.233861982356757E-004;5.844194442033768E-003;
2.409166666666667E+009;1.768203824758530E-001;-2.887363359332085E-002;4.103262035641819E-004;5.760735366493464E-003;
2.409333333333334E+009;1.773494035005570E-001;-3.018737211823463E-002;6.242270465008915E-004;5.592957139015198E-003;
2.409500000000000E+009;1.777893453836441E-001;-3.176702558994293E-002;7.724623428657651E-004;5.589131265878677E-003;
2.409666666666667E+009;1.780852377414703E-001;-3.297309949994087E-002;1.063697971403599E-003;5.676198750734329E-003;
2.409833333333334E+009;1.784437149763107E-001;-3.394480049610138E-002;1.158316037617624E-003;5.692820530384779E-003;
2.410000000000000E+009;1.789713948965073E-001;-3.481001779437065E-002;1.235655043274164E-003;5.703264847397804E-003;
2.410166666666667E+009;1.794033497571945E-001;-3.579799830913544E-002;1.354927080683410E-003;5.649692378938198E-003;
2.410333333333334E+009;1.797875761985779E-001;-3.665296733379364E-002;1.715707709081471E-003;5.659311078488827E-003;
2.410500000000000E+009;1.803150475025177E-001;-3.743755817413330E-002;1.778891426511109E-003;5.696367938071489E-003;
2.410666666666667E+009;1.804906576871872E-001;-3.829815238714218E-002;2.077772980555892E-003;5.778778344392777E-003;
2.410833333333334E+009;1.810364127159119E-001;-3.871610760688782E-002;2.202517352998257E-003;5.737420637160540E-003;
2.411000000000000E+009;1.811720877885819E-001;-3.938687965273857E-002;2.560893073678017E-003;5.681129638105631E-003;
2.411166666666667E+009;1.814613938331604E-001;-3.993669152259827E-002;2.760246396064758E-003;5.621475167572498E-003;
2.411333333333334E+009;1.817543655633926E-001;-4.050806537270546E-002;2.951646456494927E-003;5.608147010207176E-003;
2.411500000000000E+009;1.816861778497696E-001;-4.095416143536568E-002;3.174963407218456E-003;5.537890829145908E-003;
2.411666666666667E+009;1.816505044698715E-001;-4.134518653154373E-002;3.373954212293029E-003;5.543909966945648E-003;
2.411833333333334E+009;1.816587746143341E-001;-4.139501973986626E-002;3.775863442569971E-003;5.446283612400293E-003;
2.412000000000000E+009;1.815750002861023E-001;-4.213114082813263E-002;3.940350376069546E-003;5.338338203728199E-003;
2.412166666666667E+009;1.812274158000946E-001;-4.249170050024986E-002;4.138775169849396E-003;5.310706328600645E-003;
2.412333333333334E+009;1.809780001640320E-001;-4.255208373069763E-002;4.621732980012894E-003;5.055689252912998E-003;
2.412500000000000E+009;1.804609745740891E-001;-4.313243180513382E-002;4.623354878276587E-003;4.926100373268127E-003;
2.412666666666667E+009;1.798992753028870E-001;-4.356832802295685E-002;4.994311369955540E-003;4.734768066555262E-003;
2.412833333333334E+009;1.793154478073120E-001;-4.395784065127373E-002;5.210501141846180E-003;4.433424212038517E-003;
2.413000000000000E+009;1.786709427833557E-001;-4.424439743161202E-002;5.570229142904282E-003;4.314837977290154E-003;
2.413166666666667E+009;1.777227520942688E-001;-4.465334117412567E-002;5.594993010163307E-003;3.993732389062643E-003;
2.413333333333334E+009;1.767887622117996E-001;-4.504304379224777E-002;5.789985880255699E-003;3.946533892303705E-003;
2.413500000000000E+009;1.758137643337250E-001;-4.563871771097183E-002;5.976053420454264E-003;3.760641440749168E-003;
2.413666666666667E+009;1.748911440372467E-001;-4.630655422806740E-002;6.137917283922434E-003;3.296250244602561E-003;
2.413833333333334E+009;1.737130284309387E-001;-4.678202047944069E-002;6.192354485392571E-003;3.080038819462061E-003;
2.414000000000000E+009;1.724670976400375E-001;-4.737188294529915E-002;6.530954036861658E-003;2.748504979535937E-003;
2.414166666666667E+009;1.714774668216705E-001;-4.819036275148392E-002;6.368575617671013E-003;2.413738286122680E-003;
2.414333333333334E+009;1.702601015567780E-001;-4.908304661512375E-002;6.552703678607941E-003;2.255854662507772E-003;
2.414500000000000E+009;1.692886203527451E-001;-4.979962110519409E-002;6.512589752674103E-003;1.939811860211194E-003;
2.414666666666667E+009;1.679865121841431E-001;-5.055059120059013E-002;6.667632143944502E-003;1.624341239221394E-003;
2.414833333333334E+009;1.667674332857132E-001;-5.168149992823601E-002;6.638146471232176E-003;1.360537135042250E-003;
2.415000000000000E+009;1.654924303293228E-001;-5.284730717539787E-002;6.794933229684830E-003;1.100744237191975E-003;
2.415166666666667E+009;1.642489731311798E-001;-5.399471893906593E-002;6.653994321823120E-003;8.207564824260771E-004;
2.415333333333334E+009;1.631601303815842E-001;-5.539546906948090E-002;6.630550138652325E-003;4.540458030533046E-004;
2.415500000000000E+009;1.619794070720673E-001;-5.664462223649025E-002;6.653659045696259E-003;2.068314061034471E-004;
2.415666666666667E+009;1.608098000288010E-001;-5.822201818227768E-002;6.521516945213080E-003;4.317775528761558E-005;
2.415833333333334E+009;1.597519814968109E-001;-5.973106622695923E-002;6.573060993105173E-003;-2.467167505528778E-004;
2.416000000000000E+009;1.586765795946121E-001;-6.135985255241394E-002;6.337655708193779E-003;-5.512285861186683E-004;
2.416166666666667E+009;1.577329486608505E-001;-6.312401592731476E-002;6.354838609695435E-003;-9.172108839266002E-004;
2.416333333333334E+009;1.567029505968094E-001;-6.484239548444748E-002;6.319967564195395E-003;-1.121309818699956E-003;
2.416500000000000E+009;1.558504402637482E-001;-6.667017936706543E-002;5.934632383286953E-003;-1.340272487141192E-003;
2.416666666666667E+009;1.548751741647720E-001;-6.839933246374130E-002;5.969006102532148E-003;-1.515846350230277E-003;
2.416833333333334E+009;1.540314406156540E-001;-7.040071487426758E-002;5.896133370697498E-003;-1.607280573807657E-003;
2.417000000000000E+009;1.530815213918686E-001;-7.235056906938553E-002;5.632605869323015E-003;-1.853934489190579E-003;
2.417166666666667E+009;1.525220423936844E-001;-7.423888891935349E-002;5.476380698382855E-003;-1.932410756126046E-003;
2.417333333333334E+009;1.518732160329819E-001;-7.606457918882370E-002;5.385213997215033E-003;-1.918175374157727E-003;
2.417500000000000E+009;1.511752754449844E-001;-7.810568064451218E-002;5.239593796432018E-003;-2.091818489134312E-003;
2.417666666666667E+009;1.507410109043121E-001;-7.973793894052506E-002;5.147483665496111E-003;-2.201904775574803E-003;
2.417833333333334E+009;1.503584235906601E-001;-8.150117844343185E-002;4.931566771119833E-003;-2.202883362770081E-003;
2.418000000000000E+009;1.498935371637344E-001;-8.356580138206482E-002;4.991260822862387E-003;-2.210094360634685E-003;
2.418166666666667E+009;1.495324224233627E-001;-8.507876843214035E-002;4.746091086417437E-003;-2.475409768521786E-003;
2.418333333333334E+009;1.496463865041733E-001;-8.675739914178848E-002;4.806476645171642E-003;-2.283148933202028E-003;
2.418500000000000E+009;1.492840498685837E-001;-8.837746083736420E-002;4.683319944888353E-003;-2.521254820749164E-003;
2.418666666666667E+009;1.493951827287674E-001;-8.981755375862122E-002;4.608774557709694E-003;-2.461608964949846E-003;
2.418833333333334E+009;1.490965336561203E-001;-9.135083854198456E-002;4.674520809203386E-003;-2.668432425707579E-003;
2.419000000000000E+009;1.490754932165146E-001;-9.253521263599396E-002;4.601520486176014E-003;-2.726048696786165E-003;
2.419166666666667E+009;1.493293344974518E-001;-9.373047947883606E-002;4.692137241363525E-003;-2.823447342962027E-003;
2.419333333333334E+009;1.492768079042435E-001;-9.477436542510986E-002;4.562512505799532E-003;-2.993278903886676E-003;
2.419500000000000E+009;1.493943780660629E-001;-9.598510712385178E-002;4.546611104160547E-003;-3.060148330405355E-003;
2.419666666666667E+009;1.498241722583771E-001;-9.677065908908844E-002;4.468798171728849E-003;-3.249957691878080E-003;
2.419833333333334E+009;1.499985307455063E-001;-9.752684086561203E-002;4.504677839577198E-003;-3.448672126978636E-003;
2.420000000000000E+009;1.502734124660492E-001;-9.824632853269577E-002;4.501891322433949E-003;-3.597012022510171E-003;
2.420166666666667E+009;1.505988836288452E-001;-9.888564795255661E-002;4.445820115506649E-003;-3.727504285052419E-003;
2.420333333333334E+009;1.508312374353409E-001;-9.951987862586975E-002;4.387390334159136E-003;-4.107926040887833E-003;
2.420500000000000E+009;1.511532366275787E-001;-9.960661828517914E-002;4.375331569463015E-003;-4.013118334114552E-003;
2.420666666666667E+009;1.514629125595093E-001;-9.977631270885468E-002;4.253456369042397E-003;-4.438494332134724E-003;
2.420833333333334E+009;1.517730206251144E-001;-1.000047028064728E-001;3.977450542151928E-003;-4.721195902675390E-003;
2.421000000000000E+009;1.518359631299973E-001;-1.002172455191612E-001;3.963470924645662E-003;-4.960292018949986E-003;
2.421166666666667E+009;1.521712094545364E-001;-1.001973673701286E-001;3.915252164006233E-003;-5.124259274452925E-003;
2.421333333333334E+009;1.524143368005753E-001;-1.001616716384888E-001;3.659193869680166E-003;-5.425115581601858E-003;
2.421500000000000E+009;1.524195820093155E-001;-1.000994667410851E-001;3.403231967240572E-003;-5.565582308918238E-003;
2.421666666666667E+009;1.525369435548782E-001;-9.986039996147156E-002;3.366874298080802E-003;-5.800906568765640E-003;
2.421833333333334E+009;1.524653136730194E-001;-9.984024614095688E-002;3.115248167887330E-003;-6.003561429679394E-003;
2.422000000000000E+009;1.522144675254822E-001;-9.961608052253723E-002;2.950245747342706E-003;-6.217016838490963E-003;
2.422166666666667E+009;1.520114243030548E-001;-9.951207786798477E-002;2.563248388469219E-003;-6.332071963697672E-003;
2.422333333333334E+009;1.516208350658417E-001;-9.922779351472855E-002;2.328814473003149E-003;-6.455075461417437E-003;
2.422500000000000E+009;1.512187272310257E-001;-9.882109612226486E-002;1.851366483606398E-003;-6.532720290124416E-003;
2.422666666666667E+009;1.505047827959061E-001;-9.865099191665649E-002;1.616958645172417E-003;-6.724176462739706E-003;
2.422833333333334E+009;1.498656719923019E-001;-9.828799962997437E-002;1.400460954755545E-003;-6.695603486150503E-003;
2.423000000000000E+009;1.491446793079376E-001;-9.791740030050278E-002;8.480186224915087E-004;-6.746886763721705E-003;
2.423166666666667E+009;1.483779251575470E-001;-9.775173664093018E-002;4.874762089457363E-004;-6.858711596578360E-003;
2.423333333333334E+009;1.472409814596176E-001;-9.708995372056961E-002;3.592643188312650E-004;-6.728256586939097E-003;
2.423500000000000E+009;1.462840586900711E-001;-9.706725180149078E-002;-1.019220362650231E-004;-6.796672474592924E-003;
2.423666666666667E+009;1.448871195316315E-001;-9.686351567506790E-002;-3.866282640956342E-004;-6.692798808217049E-003;
2.423833333333334E+009;1.439477950334549E-001;-9.658004343509674E-002;-5.604978068731725E-004;-6.610014475882053E-003;
2.424000000000000E+009;1.424892544746399E-001;-9.614560753107071E-002;-9.545690845698118E-004;-6.488160230219364E-003;
2.424166666666667E+009;1.411016285419464E-001;-9.618684649467468E-002;-1.211567781865597E-003;-6.422387436032295E-003;
2.424333333333334E+009;1.397842019796372E-001;-9.597185999155045E-002;-1.507416600361466E-003;-6.217070389539003E-003;
2.424500000000000E+009;1.384561657905579E-001;-9.611536562442780E-002;-1.615629182197154E-003;-6.086127366870642E-003;
2.424666666666667E+009;1.370530575513840E-001;-9.590820223093033E-002;-1.701763481833041E-003;-5.966966040432453E-003;
2.424833333333334E+009;1.354539692401886E-001;-9.635237604379654E-002;-1.853195135481656E-003;-5.760592408478260E-003;
2.425000000000000E+009;1.341718435287476E-001;-9.666956216096878E-002;-1.958718057721853E-003;-5.619484931230545E-003;
2.425166666666667E+009;1.324604749679565E-001;-9.699484705924988E-002;-2.283561741933227E-003;-5.552397575229406E-003;
2.425333333333334E+009;1.311333775520325E-001;-9.760297089815140E-002;-2.515881089493632E-003;-5.464290268719196E-003;
2.425500000000000E+009;1.296578943729401E-001;-9.821432828903198E-002;-2.555309562012553E-003;-5.165249574929476E-003;
2.425666666666667E+009;1.280493587255478E-001;-9.890604019165039E-002;-2.737476490437985E-003;-5.117287859320641E-003;
2.425833333333334E+009;1.267519444227219E-001;-9.977865964174271E-002;-2.871286822482944E-003;-4.876200575381517E-003;
2.426000000000000E+009;1.252799183130264E-001;-1.008638143539429E-001;-3.109078621491790E-003;-4.847366362810135E-003;
2.426166666666667E+009;1.241925358772278E-001;-1.019914969801903E-001;-2.988904016092420E-003;-4.613185301423073E-003;
2.426333333333334E+009;1.226286441087723E-001;-1.031823307275772E-001;-3.096159547567368E-003;-4.423837643116713E-003;
2.426500000000000E+009;1.215793639421463E-001;-1.043563038110733E-001;-3.337992820888758E-003;-4.186867736279964E-003;
2.426666666666667E+009;1.204779893159866E-001;-1.056468784809113E-001;-3.314332570880652E-003;-3.995892126113176E-003;
2.426833333333334E+009;1.193262487649918E-001;-1.071703135967255E-001;-3.450018353760243E-003;-3.879252821207047E-003;
2.427000000000000E+009;1.182419061660767E-001;-1.087888106703758E-001;-3.358240006491542E-003;-3.686533775180578E-003;
2.427166666666667E+009;1.171677559614182E-001;-1.101113706827164E-001;-3.450954565778375E-003;-3.689696080982685E-003;
2.427333333333334E+009;1.163860186934471E-001;-1.118915453553200E-001;-3.482884028926492E-003;-3.367190714925528E-003;
2.427500000000000E+009;1.156043410301209E-001;-1.136368438601494E-001;-3.559218021109700E-003;-3.399049164727330E-003;
2.427666666666667E+009;1.148397400975227E-001;-1.153712421655655E-001;-3.559212433174253E-003;-3.208345966413617E-003;
