# Version 1.00
#
freq[Hz];re:Trc1_S11;im:Trc1_S11;re:Trc2_S21;im:Trc2_S21;
2.400000000000000E+009;1.689145565032959E-001;4.584617912769318E-002;-3.499154001474381E-003;-5.334512025001459E-005;
2.400166666666667E+009;1.698860377073288E-001;4.484282433986664E-002;-3.404426854103804E-003;-1.734257093630731E-004;
2.400333333333334E+009;1.707694679498673E-001;4.366573318839073E-002;-3.488192101940513E-003;9.448236232856289E-005;
2.400500000000000E+009;1.717975586652756E-001;4.277356714010239E-002;-3.510816721245647E-003;9.907154162647203E-005;
2.400666666666667E+009;1.725332885980606E-001;4.189342260360718E-002;-3.542721504345536E-003;-1.690208955551498E-005;
2.400833333333334E+009;1.735418885946274E-001;4.118157178163528E-002;-3.453604178503156E-003;-3.929678496206179E-005;
2.401000000000000E+009;1.743272244930267E-001;4.021194204688072E-002;-3.586703678593040E-003;4.975213596480899E-005;
2.401166666666667E+009;1.751378029584885E-001;3.948616608977318E-002;-3.516662865877152E-003;1.501663646195084E-004;
2.401333333333334E+009;1.759730577468872E-001;3.880066052079201E-002;-3.657736815512180E-003;9.440324356546626E-005;
2.401500000000000E+009;1.766348779201508E-001;3.807617723941803E-002;-3.775622928515077E-003;2.085530140902847E-004;
2.401666666666667E+009;1.772728860378265E-001;3.772938996553421E-002;-3.816548269242048E-003;2.222000039182603E-004;
2.401833333333334E+009;1.778435111045837E-001;3.692088276147842E-002;-3.944877069443464E-003;3.528129891492426E-004;
2.402000000000000E+009;1.783279925584793E-001;3.633986786007881E-002;-3.977647516876459E-003;3.242391394451261E-004;
2.402166666666667E+009;1.787665784358978E-001;3.566914424300194E-002;-4.078158177435398E-003;4.482463700696826E-004;
2.402333333333334E+009;1.789031326770783E-001;3.503288328647614E-002;-4.091307055205107E-003;5.064374417997897E-004;
2.402500000000000E+009;1.794184297323227E-001;3.460260108113289E-002;-4.298050422221422E-003;5.080359405837953E-004;
2.402666666666667E+009;1.796773225069046E-001;3.374028578400612E-002;-4.525287076830864E-003;7.588401203975081E-004;
2.402833333333334E+009;1.797412484884262E-001;3.327944874763489E-002;-4.575803875923157E-003;8.663996704854071E-004;
2.403000000000000E+009;1.797036379575729E-001;3.258882462978363E-002;-4.653685260564089E-003;9.851746726781130E-004;
2.403166666666667E+009;1.799748539924622E-001;3.175270929932594E-002;-4.634416662156582E-003;1.236316398717463E-003;
2.403333333333334E+009;1.798501312732697E-001;3.086889907717705E-002;-4.688904155045748E-003;1.304950332269073E-003;
2.403500000000000E+009;1.794329136610031E-001;3.003444150090218E-002;-4.814640618860722E-003;1.598246162757278E-003;
2.403666666666667E+009;1.792577356100082E-001;2.908093109726906E-002;-4.874072037637234E-003;1.812917995266616E-003;
2.403833333333334E+009;1.790904849767685E-001;2.816155552864075E-002;-4.836128558963537E-003;2.043280750513077E-003;
2.404000000000000E+009;1.788032054901123E-001;2.700064703822136E-002;-5.020474549382925E-003;2.492427127435803E-003;
2.404166666666667E+009;1.782695055007935E-001;2.576749958097935E-002;-4.775428213179112E-003;2.557202940806747E-003;
2.404333333333334E+009;1.778317689895630E-001;2.468075044453144E-002;-4.849230870604515E-003;2.950252499431372E-003;
2.404500000000000E+009;1.773038357496262E-001;2.319863997399807E-002;-4.820277448743582E-003;3.257398726418614E-003;
2.404666666666667E+009;1.769827306270599E-001;2.203310094773769E-002;-4.702970385551453E-003;3.356728004291654E-003;
2.404833333333334E+009;1.764669567346573E-001;2.047920040786266E-002;-4.446230363100767E-003;3.581647993996739E-003;
2.405000000000000E+009;1.759192943572998E-001;1.893243007361889E-002;-4.504278302192688E-003;4.012058489024639E-003;
2.405166666666667E+009;1.753828525543213E-001;1.756090484559536E-002;-4.315429367125034E-003;4.137087613344193E-003;
2.405333333333334E+009;1.751460582017899E-001;1.591760851442814E-002;-4.147634375840426E-003;4.338918253779411E-003;
2.405500000000000E+009;1.746919304132462E-001;1.422169432044029E-002;-4.082781728357077E-003;4.552232101559639E-003;
2.405666666666667E+009;1.742535978555679E-001;1.247270591557026E-002;-3.757510567083955E-003;4.698744509369135E-003;
2.405833333333334E+009;1.737929582595825E-001;1.073645334690809E-002;-3.499212441965938E-003;4.903899040073156E-003;
2.406000000000000E+009;1.736768782138825E-001;8.749957196414471E-003;-3.249945119023323E-003;5.172478966414928E-003;
2.406166666666667E+009;1.732694208621979E-001;7.018109783530235E-003;-2.951260423287749E-003;5.152240861207247E-003;
2.406333333333334E+009;1.731284856796265E-001;5.018536932766438E-003;-2.826131647452712E-003;5.366533063352108E-003;
2.406500000000000E+009;1.729305833578110E-001;2.916235476732254E-003;-2.690347610041499E-003;5.270344670861960E-003;
2.406666666666667E+009;1.727856844663620E-001;1.000489573925734E-003;-2.508181147277355E-003;5.503811407834292E-003;
2.406833333333334E+009;1.728563308715820E-001;-1.046566991135478E-003;-2.202856354415417E-003;5.599697120487690E-003;
2.407000000000000E+009;1.728836745023727E-001;-3.294339636340737E-003;-1.993770012632012E-003;5.530645139515400E-003;
2.407166666666667E+009;1.731372475624085E-001;-5.305036436766386E-003;-1.579280477017164E-003;5.777606740593910E-003;
2.407333333333334E+009;1.731991469860077E-001;-7.517539896070957E-003;-1.457303180359304E-003;5.614127032458782E-003;
2.407500000000000E+009;1.733220666646957E-001;-9.494900703430176E-003;-1.209463225677609E-003;5.806531757116318E-003;
2.407666666666667E+009;1.737837791442871E-001;-1.162709575146437E-002;-1.026512822136283E-003;5.887136328965426E-003;
2.407833333333334E+009;1.738511770963669E-001;-1.383633259683847E-002;-1.028763363137841E-003;5.697540473192930E-003;
2.408000000000000E+009;1.741799265146256E-001;-1.596320793032646E-002;-6.312337936833501E-004;5.838210694491863E-003;
2.408166666666667E+009;1.746037900447846E-001;-1.788114570081234E-002;-4.503765085246414E-004;5.770539864897728E-003;
2.408333333333334E+009;1.750344038009644E-001;-1.995724625885487E-002;-1.369953824905679E-004;5.689382553100586E-003;
2.408500000000000E+009;1.753542721271515E-001;-2.195795997977257E-002;-1.778090518200770E-004;5.697531625628471E-003;
2.408666666666667E+009;1.756609678268433E-001;-2.388587407767773E-002;4.920528226648457E-006;5.650218576192856E-003;
2.408833333333334E+009;1.759828329086304E-001;-2.558321505784988E-002;2.503036812413484E-004;5.640702322125435E-003;
2.409000000000000E+009;1.763790994882584E-001;-2.723568305373192E-002;3.818011900875717E-004;5.591644905507565E-003;
2.409166666666667E+009;1.767748296260834E-001;-2.883492596447468E-002;5.583519232459366E-004;5.647915415465832E-003;
2.409333333333334E+009;1.772099286317825E-001;-3.039486706256867E-002;6.026166374795139E-004;5.628434009850025E-003;
2.409500000000000E+009;1.774892807006836E-001;-3.165703266859055E-002;6.371719646267593E-004;5.753792356699705E-003;
2.409666666666667E+009;1.779713630676270E-001;-3.291472047567368E-002;9.104351629503071E-004;5.562990438193083E-003;
2.409833333333334E+009;1.783256977796555E-001;-3.394433856010437E-002;1.038584858179092E-003;5.678749177604914E-003;
2.410000000000000E+009;1.788464188575745E-001;-3.478588908910751E-002;1.166244503110647E-003;5.702428519725800E-003;
2.410166666666667E+009;1.793649792671204E-001;-3.569748252630234E-002;1.323265139944851E-003;5.754892248660326E-003;
2.410333333333334E+009;1.797582060098648E-001;-3.650769218802452E-002;1.580526470206678E-003;5.778500810265541E-003;
2.410500000000000E+009;1.801383197307587E-001;-3.739850595593453E-002;1.725806505419314E-003;5.766834132373333E-003;
2.410666666666667E+009;1.805588454008102E-001;-3.818968683481216E-002;2.012029523029923E-003;5.766216199845076E-003;
2.410833333333334E+009;1.809386163949966E-001;-3.869272768497467E-002;2.281174529343844E-003;5.656057037413120E-003;
2.411000000000000E+009;1.812890917062759E-001;-3.925804421305656E-002;2.490106271579862E-003;5.644765682518482E-003;
2.411166666666667E+009;1.814172118902206E-001;-3.988474607467651E-002;2.701009390875697E-003;5.712549202144146E-003;
2.411333333333334E+009;1.815557926893234E-001;-4.036713019013405E-002;2.808045828714967E-003;5.639738403260708E-003;
2.411500000000000E+009;1.816229969263077E-001;-4.088332876563072E-002;3.160953754559159E-003;5.711742211133242E-003;
2.411666666666667E+009;1.818055659532547E-001;-4.132944718003273E-002;3.393139457330108E-003;5.689179059118033E-003;
2.411833333333334E+009;1.817042827606201E-001;-4.159535840153694E-002;3.650003578513861E-003;5.613164510577917E-003;
2.412000000000000E+009;1.815432310104370E-001;-4.197128117084503E-002;3.985537681728602E-003;5.328140221536160E-003;
2.412166666666667E+009;1.812103986740112E-001;-4.246558994054794E-002;4.179603420197964E-003;5.266752559691668E-003;
2.412333333333334E+009;1.810759902000427E-001;-4.257957264780998E-002;4.528741352260113E-003;5.091730039566755E-003;
2.412500000000000E+009;1.804126203060150E-001;-4.284787178039551E-002;4.655142314732075E-003;5.069899838417769E-003;
2.412666666666667E+009;1.800470948219299E-001;-4.347789660096169E-002;4.919991362839937E-003;4.800893831998110E-003;
2.412833333333334E+009;1.794264763593674E-001;-4.387464374303818E-002;5.166895221918821E-003;4.579373635351658E-003;
2.413000000000000E+009;1.784750223159790E-001;-4.424230381846428E-002;5.167562048882246E-003;4.339728038758040E-003;
2.413166666666667E+009;1.777958720922470E-001;-4.453312605619431E-002;5.432404577732086E-003;4.251852165907621E-003;
2.413333333333334E+009;1.767933070659638E-001;-4.508058726787567E-002;5.596448667347431E-003;4.049777053296566E-003;
2.413500000000000E+009;1.757821440696716E-001;-4.554242268204689E-002;5.849312059581280E-003;3.671519923955202E-003;
2.413666666666667E+009;1.750311553478241E-001;-4.606983065605164E-002;5.986100062727928E-003;3.413021797314286E-003;
2.413833333333334E+009;1.738996207714081E-001;-4.671201854944229E-002;6.108860950917006E-003;3.153678262606263E-003;
2.414000000000000E+009;1.725955754518509E-001;-4.743935912847519E-002;6.198754999786615E-003;2.888800343498588E-003;
2.414166666666667E+009;1.715801954269409E-001;-4.803462326526642E-002;6.449864711612463E-003;2.538580680266023E-003;
2.414333333333334E+009;1.703124195337296E-001;-4.890492558479309E-002;6.536061875522137E-003;2.302701119333506E-003;
2.414500000000000E+009;1.692689955234528E-001;-4.961076751351357E-002;6.547885481268168E-003;2.081492682918906E-003;
2.414666666666667E+009;1.680014133453369E-001;-5.052826181054115E-002;6.652015727013350E-003;1.680681831203401E-003;
2.414833333333334E+009;1.667221486568451E-001;-5.158996209502220E-002;6.587964948266745E-003;1.357881468720734E-003;
2.415000000000000E+009;1.655255407094955E-001;-5.273845791816711E-002;6.708987057209015E-003;1.210778835229576E-003;
2.415166666666667E+009;1.643292009830475E-001;-5.406288802623749E-002;6.801138166338205E-003;8.464122074656189E-004;
2.415333333333334E+009;1.632449030876160E-001;-5.545651167631149E-002;6.632486823946238E-003;5.347728729248047E-004;
2.415500000000000E+009;1.620980799198151E-001;-5.660026520490646E-002;6.774043198674917E-003;2.268046082463116E-004;
2.415666666666667E+009;1.609295457601547E-001;-5.810177326202393E-002;6.566194351762533E-003;1.822478043322917E-005;
2.415833333333334E+009;1.599302291870117E-001;-5.975874140858650E-002;6.456520874053240E-003;-2.820981026161462E-004;
2.416000000000000E+009;1.585461050271988E-001;-6.142569705843926E-002;6.469139829277992E-003;-5.205894121900201E-004;
2.416166666666667E+009;1.577969640493393E-001;-6.313466280698776E-002;6.209151353687048E-003;-7.560147205367684E-004;
2.416333333333334E+009;1.567087769508362E-001;-6.479988992214203E-002;6.238329224288464E-003;-9.196880855597556E-004;
2.416500000000000E+009;1.557140797376633E-001;-6.674927473068237E-002;6.015998777002096E-003;-1.231059781275690E-003;
2.416666666666667E+009;1.547914892435074E-001;-6.848001480102539E-002;6.007899530231953E-003;-1.415548031218350E-003;
2.416833333333334E+009;1.541256606578827E-001;-7.052709162235260E-002;5.729138385504484E-003;-1.428733463399112E-003;
2.417000000000000E+009;1.530935466289520E-001;-7.230520248413086E-002;5.557168740779162E-003;-1.820364617742598E-003;
2.417166666666667E+009;1.524567604064941E-001;-7.411172240972519E-002;5.589032080024481E-003;-1.745444722473621E-003;
2.417333333333334E+009;1.518158018589020E-001;-7.598751783370972E-002;5.410551093518734E-003;-2.088207053020597E-003;
2.417500000000000E+009;1.512876749038696E-001;-7.817957550287247E-002;5.186349153518677E-003;-1.955687301233411E-003;
2.417666666666667E+009;1.508979350328445E-001;-7.982203364372253E-002;5.047820042818785E-003;-2.128148451447487E-003;
2.417833333333334E+009;1.503682285547257E-001;-8.158879727125168E-002;4.801975563168526E-003;-2.226164797320962E-003;
2.418000000000000E+009;1.497966051101685E-001;-8.345593512058258E-002;4.892108496278524E-003;-2.167604863643646E-003;
2.418166666666667E+009;1.496154069900513E-001;-8.508197218179703E-002;4.861242603510618E-003;-2.225093077868223E-003;
2.418333333333334E+009;1.496407240629196E-001;-8.685620129108429E-002;4.959086421877146E-003;-2.476562047377229E-003;
2.418500000000000E+009;1.493875533342362E-001;-8.833942562341690E-002;4.653989337384701E-003;-2.486447105184197E-003;
2.418666666666667E+009;1.493014246225357E-001;-8.994375914335251E-002;4.781921394169331E-003;-2.609712071716785E-003;
2.418833333333334E+009;1.491446942090988E-001;-9.138938039541245E-002;4.550770856440067E-003;-2.721916651353240E-003;
2.419000000000000E+009;1.491534411907196E-001;-9.258592128753662E-002;4.576062317937613E-003;-2.740242984145880E-003;
2.419166666666667E+009;1.491725742816925E-001;-9.382069110870361E-002;4.641801118850708E-003;-2.874004421755672E-003;
2.419333333333334E+009;1.491818279027939E-001;-9.487497806549072E-002;4.486078862100840E-003;-3.030743915587664E-003;
2.419500000000000E+009;1.495319753885269E-001;-9.595327824354172E-002;4.615407902747393E-003;-3.160814754664898E-003;
2.419666666666667E+009;1.496791094541550E-001;-9.682339429855347E-002;4.572577774524689E-003;-3.251943737268448E-003;
2.419833333333334E+009;1.499104648828507E-001;-9.751670062541962E-002;4.511376377195120E-003;-3.439961932599545E-003;
2.420000000000000E+009;1.503022760152817E-001;-9.829252213239670E-002;4.548556637018919E-003;-3.621978452429175E-003;
2.420166666666667E+009;1.505903750658035E-001;-9.888912737369537E-002;4.398715216666460E-003;-3.722484922036529E-003;
2.420333333333334E+009;1.509502977132797E-001;-9.927436709403992E-002;4.321386106312275E-003;-4.070934373885393E-003;
2.420500000000000E+009;1.513499021530151E-001;-9.952447563409805E-002;4.436503630131483E-003;-4.346820060163736E-003;
2.420666666666667E+009;1.514981091022492E-001;-9.975416958332062E-002;4.229473415762186E-003;-4.399196244776249E-003;
2.420833333333334E+009;1.516765803098679E-001;-1.000021696090698E-001;4.027218092232943E-003;-4.645106382668018E-003;
2.421000000000000E+009;1.519048064947128E-001;-1.001882404088974E-001;3.896558191627264E-003;-4.774625878781080E-003;
2.421166666666667E+009;1.522314548492432E-001;-1.003247052431107E-001;3.828764194622636E-003;-5.074168555438519E-003;
2.421333333333334E+009;1.524510383605957E-001;-1.001329272985458E-001;3.671692451462150E-003;-5.373811814934015E-003;
2.421500000000000E+009;1.525003463029862E-001;-1.000476628541946E-001;3.447467461228371E-003;-5.490269046276808E-003;
2.421666666666667E+009;1.524735242128372E-001;-9.990220516920090E-002;3.289697458967567E-003;-5.636620335280895E-003;
2.421833333333334E+009;1.525146514177322E-001;-9.995151311159134E-002;2.987930784001946E-003;-5.833283532410860E-003;
2.422000000000000E+009;1.522361338138580E-001;-9.949524700641632E-002;2.874695695936680E-003;-5.984509829431772E-003;
2.422166666666667E+009;1.520258486270905E-001;-9.957513958215714E-002;2.477516885846853E-003;-6.323089823126793E-003;
2.422333333333334E+009;1.517705470323563E-001;-9.922941029071808E-002;2.094773342832923E-003;-6.457995157688856E-003;
2.422500000000000E+009;1.511941403150559E-001;-9.882858395576477E-002;1.840855460613966E-003;-6.543518975377083E-003;
2.422666666666667E+009;1.505001932382584E-001;-9.851212799549103E-002;1.600904972292483E-003;-6.692536175251007E-003;
2.422833333333334E+009;1.500200927257538E-001;-9.825040400028229E-002;1.224691164679825E-003;-6.705949082970619E-003;
2.423000000000000E+009;1.490938216447830E-001;-9.795135259628296E-002;9.717605425976217E-004;-6.676152348518372E-003;
2.423166666666667E+009;1.483017504215241E-001;-9.762880206108093E-002;5.575797404162586E-004;-6.734945345669985E-003;
2.423333333333334E+009;1.473917067050934E-001;-9.718606621026993E-002;1.414800790371373E-004;-6.912270560860634E-003;
2.423500000000000E+009;1.462628990411758E-001;-9.700457751750946E-002;-4.595481368596666E-005;-6.661982741206884E-003;
2.423666666666667E+009;1.450085192918778E-001;-9.678789228200913E-002;-4.262121219653636E-004;-6.697852164506912E-003;
2.423833333333334E+009;1.439751833677292E-001;-9.658286720514298E-002;-5.130119388923049E-004;-6.424384191632271E-003;
2.424000000000000E+009;1.423842161893845E-001;-9.628549963235855E-002;-1.011974178254604E-003;-6.405128166079521E-003;
2.424166666666667E+009;1.410592943429947E-001;-9.624725580215454E-002;-1.098446780815721E-003;-6.298063788563013E-003;
2.424333333333334E+009;1.398870944976807E-001;-9.604375064373016E-002;-1.434773905202746E-003;-6.236252840608358E-003;
2.424500000000000E+009;1.384940445423126E-001;-9.610001742839813E-002;-1.456988393329084E-003;-6.112003698945046E-003;
2.424666666666667E+009;1.372056305408478E-001;-9.605341404676437E-002;-1.747029949910939E-003;-5.874864291399717E-003;
2.424833333333334E+009;1.354741007089615E-001;-9.625834971666336E-002;-1.856006565503776E-003;-5.722745321691036E-003;
2.425000000000000E+009;1.340498775243759E-001;-9.662183374166489E-002;-1.926196855492890E-003;-5.589549895375967E-003;
2.425166666666667E+009;1.324819624423981E-001;-9.696602821350098E-002;-2.204255200922489E-003;-5.611840635538101E-003;
2.425333333333334E+009;1.311530023813248E-001;-9.754047542810440E-002;-2.517379354685545E-003;-5.298350006341934E-003;
2.425500000000000E+009;1.298003196716309E-001;-9.830211848020554E-002;-2.451315289363265E-003;-5.259828176349402E-003;
2.425666666666667E+009;1.280760765075684E-001;-9.895173460245132E-002;-2.664146479219198E-003;-5.236925557255745E-003;
2.425833333333334E+009;1.267019063234329E-001;-9.981204569339752E-002;-2.892865333706141E-003;-4.941698629409075E-003;
2.426000000000000E+009;1.253145784139633E-001;-1.009360477328301E-001;-2.932596486061811E-003;-4.744197241961956E-003;
2.426166666666667E+009;1.240752190351486E-001;-1.019975543022156E-001;-3.109126351773739E-003;-4.472154658287764E-003;
2.426333333333334E+009;1.226647421717644E-001;-1.031654924154282E-001;-3.356079803779721E-003;-4.366559907793999E-003;
2.426500000000000E+009;1.215271800756455E-001;-1.043598577380180E-001;-3.263612976297736E-003;-4.240451846271753E-003;
2.426666666666667E+009;1.205473169684410E-001;-1.057017222046852E-001;-3.338676411658526E-003;-4.034940153360367E-003;
2.426833333333334E+009;1.192396804690361E-001;-1.071442291140556E-001;-3.441059961915016E-003;-3.848265623673797E-003;
2.427000000000000E+009;1.181864142417908E-001;-1.087784990668297E-001;-3.511588554829359E-003;-3.904150333255529E-003;
2.427166666666667E+009;1.172087639570236E-001;-1.102236807346344E-001;-3.558079712092876E-003;-3.512006253004074E-003;
2.427333333333334E+009;1.163490489125252E-001;-1.120333373546600E-001;-3.567761043086648E-003;-3.503695130348206E-003;
2.427500000000000E+009;1.155897155404091E-001;-1.136082783341408E-001;-3.681760746985674E-003;-3.333119675517082E-003;
2.427666666666667E+009;1.148390546441078E-001;-1.152835786342621E-001;-3.551142290234566E-003;-3.234231146052480E-003;
