# Version 1.00
#
freq[Hz];re:Trc1_S11;im:Trc1_S11;re:Trc2_S21;im:Trc2_S21;
2.400000000000000E+009;1.625757664442062E-001;5.221012234687805E-002;6.470874068327248E-004;2.985410625115037E-003;
2.400166666666667E+009;1.624900400638580E-001;5.079834163188934E-002;6.401467835530639E-004;2.853456186130643E-003;
2.400333333333334E+009;1.622744351625443E-001;4.884171485900879E-002;8.857144857756794E-004;2.849894342944026E-003;
2.400500000000000E+009;1.620844453573227E-001;4.715592041611671E-002;7.818350568413734E-004;2.675231546163559E-003;
2.400666666666667E+009;1.621205806732178E-001;4.504199698567390E-002;8.364461828023195E-004;2.756883390247822E-003;
2.400833333333334E+009;1.622938662767410E-001;4.314539581537247E-002;8.602217421866953E-004;2.837547101080418E-003;
2.401000000000000E+009;1.622130125761032E-001;4.120329767465591E-002;9.061045711860061E-004;2.655978547409177E-003;
2.401166666666667E+009;1.622507125139237E-001;3.895640373229981E-002;1.020874478854239E-003;2.785958349704742E-003;
2.401333333333334E+009;1.623763442039490E-001;3.712784126400948E-002;1.039373106323183E-003;2.809994621202350E-003;
2.401500000000000E+009;1.624922603368759E-001;3.493099659681320E-002;1.010169624350965E-003;2.661275211721659E-003;
2.401666666666667E+009;1.628666222095490E-001;3.300352767109871E-002;1.090286066755652E-003;2.707655075937510E-003;
2.401833333333334E+009;1.630129516124725E-001;3.099742345511913E-002;1.223933184519410E-003;2.649347297847271E-003;
2.402000000000000E+009;1.632739752531052E-001;2.887124381959438E-002;1.275705755688250E-003;2.670800080522895E-003;
2.402166666666667E+009;1.638079732656479E-001;2.699285000562668E-002;1.263284822925925E-003;2.546231262385845E-003;
2.402333333333334E+009;1.641003936529160E-001;2.508905343711376E-002;1.454630866646767E-003;2.542647998780012E-003;
2.402500000000000E+009;1.648188531398773E-001;2.324489876627922E-002;1.520200981758535E-003;2.288772026076913E-003;
2.402666666666667E+009;1.653701364994049E-001;2.162531018257141E-002;1.531893503852189E-003;2.381733851507306E-003;
2.402833333333334E+009;1.659464687108994E-001;1.997328549623489E-002;1.833326765336096E-003;2.222061157226563E-003;
2.403000000000000E+009;1.666663289070129E-001;1.837574876844883E-002;1.999515807256103E-003;2.365717198699713E-003;
2.403166666666667E+009;1.674874126911163E-001;1.660427637398243E-002;1.964468043297529E-003;2.334092045202851E-003;
2.403333333333334E+009;1.681877970695496E-001;1.519831642508507E-002;2.004783367738128E-003;2.082074061036110E-003;
2.403500000000000E+009;1.688647270202637E-001;1.371168531477451E-002;2.194484230130911E-003;2.052579540759325E-003;
2.403666666666667E+009;1.695507764816284E-001;1.233462058007717E-002;2.145192585885525E-003;1.947062904946506E-003;
2.403833333333334E+009;1.706251204013825E-001;1.093577034771442E-002;2.396576106548309E-003;1.722526969388127E-003;
2.404000000000000E+009;1.713712811470032E-001;9.647417813539505E-003;2.259591594338417E-003;1.628360711038113E-003;
2.404166666666667E+009;1.723735630512238E-001;8.656299673020840E-003;2.498714020475745E-003;1.495841774158180E-003;
2.404333333333334E+009;1.731335371732712E-001;7.611801382154226E-003;2.570990938693285E-003;1.517759636044502E-003;
2.404500000000000E+009;1.736807525157929E-001;6.518333218991756E-003;2.546787261962891E-003;1.276016701012850E-003;
2.404666666666667E+009;1.744997948408127E-001;5.619511008262634E-003;2.489147242158651E-003;1.065243035554886E-003;
2.404833333333334E+009;1.753930151462555E-001;4.930693656206131E-003;2.601365558803082E-003;8.859724621288478E-004;
2.405000000000000E+009;1.761479973793030E-001;4.038606304675341E-003;2.515579340979457E-003;8.410931332036853E-004;
2.405166666666667E+009;1.768651753664017E-001;3.415281884372234E-003;2.347498433664441E-003;6.956997094675899E-004;
2.405333333333334E+009;1.775522828102112E-001;2.801270689815283E-003;2.346568740904331E-003;4.223563882987946E-004;
2.405500000000000E+009;1.781992316246033E-001;2.374713774770498E-003;2.206904813647270E-003;3.565934021025896E-004;
2.405666666666667E+009;1.787013113498688E-001;1.937678200192750E-003;2.221005968749523E-003;1.511770969955251E-004;
2.405833333333334E+009;1.791139394044876E-001;1.422304543666542E-003;2.143267542123795E-003;1.638247631490231E-004;
2.406000000000000E+009;1.795403063297272E-001;1.059326925314963E-003;2.050065901130438E-003;-4.897646795143373E-005;
2.406166666666667E+009;1.800078302621841E-001;7.603482808917761E-004;1.790017937310040E-003;-8.054447243921459E-005;
2.406333333333334E+009;1.803412586450577E-001;4.914316232316196E-004;1.590836676768959E-003;-2.079435216728598E-004;
2.406500000000000E+009;1.805547177791596E-001;2.996967523358762E-004;1.530328532680869E-003;-2.835027116816491E-004;
2.406666666666667E+009;1.804744005203247E-001;9.658072667662054E-005;1.361444359645248E-003;-2.280427870573476E-004;
2.406833333333334E+009;1.807436645030975E-001;-2.744928060565144E-004;1.405476126819849E-003;-2.789885038509965E-004;
2.407000000000000E+009;1.807054281234741E-001;-6.489717634394765E-004;1.375127001665533E-003;-4.143440746702254E-004;
2.407166666666667E+009;1.808502525091171E-001;-8.219353621825576E-004;1.218173420056701E-003;-1.806043437682092E-004;
2.407333333333334E+009;1.805852353572846E-001;-1.299151917919517E-003;1.178795471787453E-003;-2.766689576674253E-004;
2.407500000000000E+009;1.802976429462433E-001;-1.488692243583500E-003;9.920884622260928E-004;-2.340587379876524E-004;
2.407666666666667E+009;1.801381409168243E-001;-1.861276454292238E-003;1.076568383723497E-003;-2.047110174316913E-004;
2.407833333333334E+009;1.795916557312012E-001;-2.361211227253079E-003;9.667788981460035E-004;-2.491849008947611E-004;
2.408000000000000E+009;1.791428774595261E-001;-3.008384956046939E-003;8.878804510459304E-004;-2.837958745658398E-004;
2.408166666666667E+009;1.787604391574860E-001;-3.299489850178361E-003;5.161648732610047E-004;-1.990192540688440E-004;
2.408333333333334E+009;1.783803999423981E-001;-4.091068636626005E-003;7.253856747411192E-004;-1.630376500543207E-004;
2.408500000000000E+009;1.776637881994247E-001;-4.838204476982355E-003;6.533202831633389E-004;-2.030400646617636E-004;
2.408666666666667E+009;1.770417541265488E-001;-5.575775634497404E-003;5.444757407531142E-004;3.823043880402111E-005;
2.408833333333334E+009;1.762349307537079E-001;-6.437182426452637E-003;4.467153048608452E-004;-1.297385315410793E-004;
2.409000000000000E+009;1.753487735986710E-001;-7.326271384954453E-003;6.622691871598363E-004;1.706970942905173E-004;
2.409166666666667E+009;1.748571991920471E-001;-8.415567688643932E-003;2.998670679517090E-004;1.403032511007041E-004;
2.409333333333334E+009;1.741425693035126E-001;-9.638894349336624E-003;3.136363811790943E-004;2.111288922606036E-004;
2.409500000000000E+009;1.731580644845963E-001;-1.101088710129261E-002;3.176060563419014E-004;4.238524415995926E-004;
2.409666666666667E+009;1.724842786788940E-001;-1.211447268724442E-002;2.187210920965299E-004;2.494001237209886E-004;
2.409833333333334E+009;1.716738641262054E-001;-1.328664179891348E-002;4.543729010038078E-004;4.209426406305283E-004;
2.410000000000000E+009;1.710913330316544E-001;-1.473026443272829E-002;3.007077320944518E-004;4.338488797657192E-004;
2.410166666666667E+009;1.702851653099060E-001;-1.635829359292984E-002;4.083565436303616E-004;7.120973896235228E-004;
2.410333333333334E+009;1.696606129407883E-001;-1.798546686768532E-002;3.551370755303651E-004;7.867339882068336E-004;
2.410500000000000E+009;1.689387112855911E-001;-1.962910220026970E-002;2.713078574743122E-004;7.601260440424085E-004;
2.410666666666667E+009;1.682287603616715E-001;-2.142578549683094E-002;4.101345257367939E-004;8.904487476684153E-004;
2.410833333333334E+009;1.679239869117737E-001;-2.320282347500324E-002;4.539825604297221E-004;1.043176511302590E-003;
2.411000000000000E+009;1.672717481851578E-001;-2.490664087235928E-002;4.788846126757562E-004;1.083202543668449E-003;
2.411166666666667E+009;1.669014096260071E-001;-2.698902599513531E-002;6.099180900491774E-004;1.109885750338435E-003;
2.411333333333334E+009;1.664569526910782E-001;-2.866944856941700E-002;6.794088403694332E-004;1.191996620036662E-003;
2.411500000000000E+009;1.662157773971558E-001;-3.094327449798584E-002;7.341463351622224E-004;1.263653975911439E-003;
2.411666666666667E+009;1.658855378627777E-001;-3.266765549778938E-002;8.942707790993154E-004;1.275538932532072E-003;
2.411833333333334E+009;1.656516492366791E-001;-3.452516719698906E-002;8.453577174805105E-004;1.255673356354237E-003;
2.412000000000000E+009;1.657741814851761E-001;-3.660691529512405E-002;8.692247793078423E-004;1.460426137782633E-003;
2.412166666666667E+009;1.657162010669708E-001;-3.860360756516457E-002;1.080853049643338E-003;1.504009705968201E-003;
2.412333333333334E+009;1.657228469848633E-001;-4.055291414260864E-002;1.254123402759433E-003;1.639165449887514E-003;
2.412500000000000E+009;1.656115651130676E-001;-4.258059710264206E-002;1.346964039839804E-003;1.696986961178482E-003;
2.412666666666667E+009;1.661045700311661E-001;-4.445498436689377E-002;1.512377173639834E-003;1.485779881477356E-003;
2.412833333333334E+009;1.663978695869446E-001;-4.641946777701378E-002;1.635807915590704E-003;1.609313534572721E-003;
2.413000000000000E+009;1.665486544370651E-001;-4.823172464966774E-002;1.924333628267050E-003;1.621839008294046E-003;
2.413166666666667E+009;1.666453927755356E-001;-4.996270313858986E-002;1.962623791769147E-003;1.423450419679284E-003;
2.413333333333334E+009;1.670096814632416E-001;-5.184278637170792E-002;2.130063716322184E-003;1.530613517388701E-003;
2.413500000000000E+009;1.674940288066864E-001;-5.345432460308075E-002;2.162582473829389E-003;1.346987555734813E-003;
2.413666666666667E+009;1.680284589529038E-001;-5.503461509943008E-002;2.343491185456514E-003;1.363773597404361E-003;
2.413833333333334E+009;1.684803366661072E-001;-5.654070153832436E-002;2.480124356225133E-003;1.277242321521044E-003;
2.414000000000000E+009;1.688225567340851E-001;-5.806211009621620E-002;2.677254611626267E-003;1.294071669690311E-003;
2.414166666666667E+009;1.694764792919159E-001;-5.930602177977562E-002;2.796680666506290E-003;1.021073432639241E-003;
2.414333333333334E+009;1.697936654090881E-001;-6.054476648569107E-002;2.939200261607766E-003;9.903543395921588E-004;
2.414500000000000E+009;1.706431210041046E-001;-6.175911799073219E-002;2.903566928580403E-003;8.665352943353355E-004;
2.414666666666667E+009;1.708945184946060E-001;-6.288015097379684E-002;3.040225710719824E-003;7.937552873045206E-004;
2.414833333333334E+009;1.715282797813416E-001;-6.384062021970749E-002;3.178801620379090E-003;5.526727763935924E-004;
2.415000000000000E+009;1.718932837247849E-001;-6.465883553028107E-002;3.261830192059279E-003;3.217703779228032E-004;
2.415166666666667E+009;1.722550690174103E-001;-6.546679884195328E-002;3.266680287197232E-003;2.677544252946973E-004;
2.415333333333334E+009;1.728587299585342E-001;-6.635735183954239E-002;3.443677211180329E-003;-4.956117663823534E-006;
2.415500000000000E+009;1.731717139482498E-001;-6.692362576723099E-002;3.360668662935495E-003;-2.037634840235114E-004;
2.415666666666667E+009;1.734364777803421E-001;-6.734725832939148E-002;3.368228906765580E-003;-2.985372266266495E-004;
2.415833333333334E+009;1.736249774694443E-001;-6.791708618402481E-002;3.574919886887074E-003;-4.063123487867415E-004;
2.416000000000000E+009;1.736914515495300E-001;-6.833422183990479E-002;3.495287382975221E-003;-6.880678702145815E-004;
2.416166666666667E+009;1.741670370101929E-001;-6.869571655988693E-002;3.370029153302312E-003;-7.795853307470679E-004;
2.416333333333334E+009;1.740042567253113E-001;-6.899380683898926E-002;3.364608390256763E-003;-1.025729696266353E-003;
2.416500000000000E+009;1.739422231912613E-001;-6.936162710189819E-002;3.364613978192210E-003;-1.160472980700433E-003;
2.416666666666667E+009;1.737097203731537E-001;-6.942117959260941E-002;3.455700818449259E-003;-1.144128153100610E-003;
2.416833333333334E+009;1.736025810241699E-001;-6.971127539873123E-002;3.351330291479826E-003;-1.438629697076976E-003;
2.417000000000000E+009;1.729666590690613E-001;-6.997804343700409E-002;3.359683556482196E-003;-1.471076509915292E-003;
2.417166666666667E+009;1.726998686790466E-001;-6.997644901275635E-002;3.166489070281386E-003;-1.807738794013858E-003;
2.417333333333334E+009;1.723091155290604E-001;-7.012004405260086E-002;3.167358459904790E-003;-1.819737837649882E-003;
2.417500000000000E+009;1.716765463352203E-001;-7.045634090900421E-002;3.112588776275516E-003;-1.894557848572731E-003;
2.417666666666667E+009;1.711354553699493E-001;-7.039346545934677E-002;3.136404324322939E-003;-1.931603299453855E-003;
2.417833333333334E+009;1.701810657978058E-001;-7.061827927827835E-002;3.004523925483227E-003;-2.042304025962949E-003;
2.418000000000000E+009;1.693856418132782E-001;-7.097110152244568E-002;3.154037520289421E-003;-2.187800593674183E-003;
2.418166666666667E+009;1.684316247701645E-001;-7.099180668592453E-002;2.969710854813457E-003;-2.236383501440287E-003;
2.418333333333334E+009;1.677146852016449E-001;-7.139858603477478E-002;2.701544202864170E-003;-2.468096558004618E-003;
2.418500000000000E+009;1.664030551910400E-001;-7.170180231332779E-002;2.757486887276173E-003;-2.545994240790606E-003;
2.418666666666667E+009;1.654487699270248E-001;-7.200422883033752E-002;2.658469369634986E-003;-2.572977449744940E-003;
2.418833333333334E+009;1.641402691602707E-001;-7.249675691127777E-002;2.714622067287564E-003;-2.650498179718852E-003;
2.419000000000000E+009;1.629660874605179E-001;-7.301956415176392E-002;2.572936937212944E-003;-2.821735572069883E-003;
2.419166666666667E+009;1.617458611726761E-001;-7.362476736307144E-002;2.650319831445813E-003;-2.923097927123308E-003;
2.419333333333334E+009;1.602922976016998E-001;-7.401958853006363E-002;2.498527988791466E-003;-2.942486666142941E-003;
2.419500000000000E+009;1.590977758169174E-001;-7.503149658441544E-002;2.506546676158905E-003;-3.184487344697118E-003;
2.419666666666667E+009;1.580085605382919E-001;-7.583678513765335E-002;2.333906712010503E-003;-3.188437316566706E-003;
2.419833333333334E+009;1.565832793712616E-001;-7.652366906404495E-002;2.382837701588869E-003;-3.256225259974599E-003;
2.420000000000000E+009;1.552930325269699E-001;-7.758387923240662E-002;2.291511045768857E-003;-3.532441565766931E-003;
2.420166666666667E+009;1.540917605161667E-001;-7.846246659755707E-002;2.187757985666394E-003;-3.648477606475353E-003;
2.420333333333334E+009;1.530438810586929E-001;-7.983827590942383E-002;2.175158588215709E-003;-3.710959805175662E-003;
2.420500000000000E+009;1.519157737493515E-001;-8.072300255298615E-002;2.094102324917913E-003;-3.802592866122723E-003;
2.420666666666667E+009;1.506116688251495E-001;-8.206794410943985E-002;1.952981809154153E-003;-4.068781621754170E-003;
2.420833333333334E+009;1.497161090373993E-001;-8.351217210292816E-002;1.861946075223386E-003;-4.157854709774256E-003;
2.421000000000000E+009;1.486079990863800E-001;-8.497297018766403E-002;1.802291488274932E-003;-4.297729581594467E-003;
2.421166666666667E+009;1.478834003210068E-001;-8.645645529031754E-002;1.622876152396202E-003;-4.373235162347555E-003;
2.421333333333334E+009;1.470138579607010E-001;-8.797792345285416E-002;1.479808473959565E-003;-4.474687855690718E-003;
2.421500000000000E+009;1.460539698600769E-001;-8.957169204950333E-002;1.260803896002471E-003;-4.579568281769753E-003;
2.421666666666667E+009;1.456408053636551E-001;-9.136056154966354E-002;1.041195006109774E-003;-4.686897154897451E-003;
2.421833333333334E+009;1.448349803686142E-001;-9.296503663063049E-002;9.436509571969509E-004;-4.896915052086115E-003;
2.422000000000000E+009;1.442323178052902E-001;-9.465010464191437E-002;6.244205869734287E-004;-5.005253013223410E-003;
2.422166666666667E+009;1.437759846448898E-001;-9.671965986490250E-002;7.072061998769641E-004;-4.990670364350081E-003;
2.422333333333334E+009;1.434405744075775E-001;-9.828955680131912E-002;4.676065873354673E-004;-5.274611990898848E-003;
2.422500000000000E+009;1.431457996368408E-001;-9.986680746078491E-002;2.354942989768460E-004;-5.278188269585371E-003;
2.422666666666667E+009;1.428992152214050E-001;-1.019206568598747E-001;-2.815923071466386E-004;-5.412528757005930E-003;
2.422833333333334E+009;1.428787708282471E-001;-1.035502851009369E-001;-2.711797133088112E-004;-5.434470251202583E-003;
2.423000000000000E+009;1.427199244499207E-001;-1.052713543176651E-001;-4.950043512508273E-004;-5.423672497272492E-003;
2.423166666666667E+009;1.428119689226151E-001;-1.071079671382904E-001;-8.694434072822332E-004;-5.451289471238852E-003;
2.423333333333334E+009;1.429254114627838E-001;-1.085358187556267E-001;-1.009888481348753E-003;-5.517576821148396E-003;
2.423500000000000E+009;1.432498544454575E-001;-1.103990972042084E-001;-1.275346730835736E-003;-5.533799063414335E-003;
2.423666666666667E+009;1.432106941938400E-001;-1.120377257466316E-001;-1.469277660362423E-003;-5.463073030114174E-003;
2.423833333333334E+009;1.437226682901382E-001;-1.135917529463768E-001;-1.743610482662916E-003;-5.199124105274677E-003;
2.424000000000000E+009;1.439353972673416E-001;-1.148262470960617E-001;-2.176529029384255E-003;-5.301172379404306E-003;
2.424166666666667E+009;1.441614329814911E-001;-1.164677962660790E-001;-2.521984977647662E-003;-5.173102952539921E-003;
2.424333333333334E+009;1.445903927087784E-001;-1.175034791231155E-001;-2.610829193145037E-003;-5.189165938645601E-003;
2.424500000000000E+009;1.450420022010803E-001;-1.188127622008324E-001;-2.955904230475426E-003;-4.940768238157034E-003;
2.424666666666667E+009;1.454471945762634E-001;-1.197337061166763E-001;-3.100044094026089E-003;-4.817476030439138E-003;
2.424833333333334E+009;1.458324491977692E-001;-1.208534091711044E-001;-3.330788109451532E-003;-4.823837894946337E-003;
2.425000000000000E+009;1.462193876504898E-001;-1.219582483172417E-001;-3.657110035419464E-003;-4.492193926125765E-003;
2.425166666666667E+009;1.464456468820572E-001;-1.226896643638611E-001;-3.812117734923959E-003;-4.460502881556749E-003;
2.425333333333334E+009;1.469305455684662E-001;-1.235276758670807E-001;-4.159580916166306E-003;-4.226446617394686E-003;
2.425500000000000E+009;1.473130136728287E-001;-1.242799758911133E-001;-4.171360284090042E-003;-4.068110603839159E-003;
2.425666666666667E+009;1.473578810691834E-001;-1.248030290007591E-001;-4.497320391237736E-003;-3.835261100903153E-003;
2.425833333333334E+009;1.478055268526077E-001;-1.253117322921753E-001;-4.587432835251093E-003;-3.530821530148387E-003;
2.426000000000000E+009;1.479875594377518E-001;-1.258105933666229E-001;-4.868559073656797E-003;-3.427624003961682E-003;
2.426166666666667E+009;1.483010500669479E-001;-1.260861158370972E-001;-4.979203455150127E-003;-3.163444111123681E-003;
2.426333333333334E+009;1.482754200696945E-001;-1.263468712568283E-001;-5.026083439588547E-003;-2.963680773973465E-003;
2.426500000000000E+009;1.482744365930557E-001;-1.263616383075714E-001;-5.134921986609697E-003;-2.700787736102939E-003;
2.426666666666667E+009;1.483116745948792E-001;-1.264572441577911E-001;-5.139342043548822E-003;-2.392499009147286E-003;
2.426833333333334E+009;1.481557637453079E-001;-1.264800727367401E-001;-5.244570784270763E-003;-2.083280822262168E-003;
2.427000000000000E+009;1.478654295206070E-001;-1.266436874866486E-001;-5.320131313055754E-003;-1.955054001882672E-003;
2.427166666666667E+009;1.475439518690109E-001;-1.264607012271881E-001;-5.195911042392254E-003;-1.715896069072187E-003;
2.427333333333334E+009;1.470666378736496E-001;-1.265233606100082E-001;-5.134481936693192E-003;-1.517736935056746E-003;
2.427500000000000E+009;1.466031074523926E-001;-1.264204531908035E-001;-5.261528305709362E-003;-1.238432247191668E-003;
2.427666666666667E+009;1.460296809673309E-001;-1.262839138507843E-001;-5.284319631755352E-003;-9.749054443091154E-004;
2.427833333333334E+009;1.451720446348190E-001;-1.262000203132629E-001;-5.274963565170765E-003;-8.927609887905419E-004;
