# Version 1.00
#
freq[Hz];re:Trc1_S11;im:Trc1_S11;re:Trc2_S21;im:Trc2_S21;
2.400000000000000E+009;1.557694822549820E-001;1.066941842436791E-001;-1.358911977149546E-003;-7.915106602013111E-003;
2.400166666666667E+009;1.555632948875427E-001;1.041569337248802E-001;-1.618949812836945E-003;-8.015296421945095E-003;
2.400333333333334E+009;1.555538922548294E-001;1.016831919550896E-001;-1.781366765499115E-003;-8.186414837837219E-003;
2.400500000000000E+009;1.556277126073837E-001;9.902964532375336E-002;-2.103183418512344E-003;-8.201937191188335E-003;
2.400666666666667E+009;1.556269079446793E-001;9.663487225770950E-002;-2.432649023830891E-003;-8.442251011729240E-003;
2.400833333333334E+009;1.556159108877182E-001;9.353295713663101E-002;-2.785481512546539E-003;-8.450012654066086E-003;
2.401000000000000E+009;1.558903306722641E-001;9.076819568872452E-002;-3.229858819395304E-003;-8.435617201030254E-003;
2.401166666666667E+009;1.556890606880188E-001;8.805184811353684E-002;-3.512231865897775E-003;-8.475160226225853E-003;
2.401333333333334E+009;1.561638265848160E-001;8.520034700632095E-002;-3.936444409191608E-003;-8.341819979250431E-003;
2.401500000000000E+009;1.565669029951096E-001;8.239253610372543E-002;-4.221417475491762E-003;-8.385701104998589E-003;
2.401666666666667E+009;1.570281684398651E-001;7.951625436544418E-002;-4.543296061456204E-003;-8.252887986600399E-003;
2.401833333333334E+009;1.573583185672760E-001;7.689783722162247E-002;-4.965604282915592E-003;-8.052919059991837E-003;
2.402000000000000E+009;1.583770364522934E-001;7.409396767616272E-002;-5.276337731629610E-003;-8.018321357667446E-003;
2.402166666666667E+009;1.590640544891357E-001;7.157479971647263E-002;-5.602532066404820E-003;-7.763097994029522E-003;
2.402333333333334E+009;1.600106954574585E-001;6.890221685171127E-002;-6.026362534612417E-003;-7.689243648201227E-003;
2.402500000000000E+009;1.611739993095398E-001;6.628076732158661E-002;-6.267425604164600E-003;-7.341550663113594E-003;
2.402666666666667E+009;1.623264551162720E-001;6.418553739786148E-002;-6.772049237042666E-003;-7.096780929714441E-003;
2.402833333333334E+009;1.637366265058518E-001;6.176963448524475E-002;-7.023025769740343E-003;-6.817787420004606E-003;
2.403000000000000E+009;1.649954319000244E-001;5.946225672960281E-002;-7.400021888315678E-003;-6.366763729602099E-003;
2.403166666666667E+009;1.668526679277420E-001;5.725027620792389E-002;-7.535793352872133E-003;-6.118591874837875E-003;
2.403333333333334E+009;1.682188510894775E-001;5.519049614667893E-002;-7.664819248020649E-003;-5.654158070683479E-003;
2.403500000000000E+009;1.699070185422897E-001;5.303405225276947E-002;-8.036573417484760E-003;-5.532300565391779E-003;
2.403666666666667E+009;1.716540008783341E-001;5.130802094936371E-002;-8.236883208155632E-003;-5.173976533114910E-003;
2.403833333333334E+009;1.732806116342545E-001;4.921804368495941E-002;-8.270276710391045E-003;-4.770551808178425E-003;
2.404000000000000E+009;1.748391836881638E-001;4.761063307523727E-002;-8.488781750202179E-003;-4.459954798221588E-003;
2.404166666666667E+009;1.765713840723038E-001;4.623432829976082E-002;-8.650807663798332E-003;-4.057490732520819E-003;
2.404333333333334E+009;1.781169623136520E-001;4.478032141923904E-002;-8.667853660881519E-003;-3.942099399864674E-003;
2.404500000000000E+009;1.796792000532150E-001;4.314960911870003E-002;-8.767430670559406E-003;-3.345122793689370E-003;
2.404666666666667E+009;1.813615113496780E-001;4.229265823960304E-002;-8.705423213541508E-003;-3.295646281912923E-003;
2.404833333333334E+009;1.830211132764816E-001;4.111929982900620E-002;-9.073225781321526E-003;-2.818548819050193E-003;
2.405000000000000E+009;1.843061000108719E-001;4.040798172354698E-002;-9.094376116991043E-003;-2.619249047711492E-003;
2.405166666666667E+009;1.857690960168839E-001;3.980683907866478E-002;-9.283525869250298E-003;-2.303037792444229E-003;
2.405333333333334E+009;1.871267706155777E-001;3.925396129488945E-002;-9.129308164119721E-003;-1.793878967873752E-003;
2.405500000000000E+009;1.884972304105759E-001;3.877969831228256E-002;-9.276555851101875E-003;-1.401392044499517E-003;
2.405666666666667E+009;1.897836923599243E-001;3.833849355578423E-002;-9.291342459619045E-003;-1.144339097663760E-003;
2.405833333333334E+009;1.909738332033157E-001;3.807840496301651E-002;-9.260554797947407E-003;-6.671284209005535E-004;
2.406000000000000E+009;1.919787228107452E-001;3.788705915212631E-002;-9.283106774091721E-003;-3.545791842043400E-004;
2.406166666666667E+009;1.928940862417221E-001;3.772278502583504E-002;-9.262781590223312E-003;-5.443749614642002E-005;
2.406333333333334E+009;1.937125027179718E-001;3.773314878344536E-002;-9.119861759245396E-003;3.979284083470702E-004;
2.406500000000000E+009;1.945642381906509E-001;3.770568966865540E-002;-9.138316847383976E-003;6.688453140668571E-004;
2.406666666666667E+009;1.950539797544479E-001;3.768928721547127E-002;-8.960480801761150E-003;1.043311436660588E-003;
2.406833333333334E+009;1.955843269824982E-001;3.765700757503510E-002;-8.742811158299446E-003;1.388226635754108E-003;
2.407000000000000E+009;1.958018988370895E-001;3.783589228987694E-002;-8.429083973169327E-003;1.695254351943731E-003;
2.407166666666667E+009;1.962452828884125E-001;3.768823295831680E-002;-8.482262492179871E-003;2.030188916251063E-003;
2.407333333333334E+009;1.961412429809570E-001;3.770109638571739E-002;-8.281623944640160E-003;2.132909605279565E-003;
2.407500000000000E+009;1.961687803268433E-001;3.787497058510780E-002;-8.251318708062172E-003;2.296584658324719E-003;
2.407666666666667E+009;1.961536556482315E-001;3.767546638846397E-002;-8.060932159423828E-003;2.633856842294335E-003;
2.407833333333334E+009;1.956889480352402E-001;3.747422620654106E-002;-7.748915348201990E-003;2.873022574931383E-003;
2.408000000000000E+009;1.955522298812866E-001;3.740942850708962E-002;-7.506030146032572E-003;3.070120699703693E-003;
2.408166666666667E+009;1.948922574520111E-001;3.702512755990028E-002;-7.493325043469667E-003;3.279926022514701E-003;
2.408333333333334E+009;1.946237236261368E-001;3.639311715960503E-002;-7.295258808881044E-003;3.577731084078550E-003;
2.408500000000000E+009;1.939010322093964E-001;3.601881861686707E-002;-7.138346321880817E-003;3.830148139968514E-003;
2.408666666666667E+009;1.932224333286285E-001;3.543240949511528E-002;-6.861537694931030E-003;3.932916559278965E-003;
2.408833333333334E+009;1.925420314073563E-001;3.471038490533829E-002;-6.669247057288885E-003;4.082342609763145E-003;
2.409000000000000E+009;1.915966570377350E-001;3.369466215372086E-002;-6.352876313030720E-003;4.169962834566832E-003;
2.409166666666667E+009;1.906025856733322E-001;3.266866877675057E-002;-6.198300514370203E-003;4.251309204846621E-003;
2.409333333333334E+009;1.896977871656418E-001;3.174453228712082E-002;-6.018889602273703E-003;4.360551014542580E-003;
2.409500000000000E+009;1.886416077613831E-001;3.036658279597759E-002;-5.965704098343849E-003;4.447699990123510E-003;
2.409666666666667E+009;1.876561045646668E-001;2.882589958608151E-002;-5.732140969485045E-003;4.567756783217192E-003;
2.409833333333334E+009;1.866245418787003E-001;2.723786234855652E-002;-5.462995730340481E-003;4.491475876420736E-003;
2.410000000000000E+009;1.856482028961182E-001;2.576402574777603E-002;-5.441001150757074E-003;4.724164493381977E-003;
2.410166666666667E+009;1.846247911453247E-001;2.383733540773392E-002;-5.236962344497442E-003;4.774731583893299E-003;
2.410333333333334E+009;1.835533380508423E-001;2.212176099419594E-002;-5.058078560978174E-003;4.853950813412666E-003;
2.410500000000000E+009;1.826701313257217E-001;2.004648745059967E-002;-5.001380573958159E-003;5.016556475311518E-003;
2.410666666666667E+009;1.817924231290817E-001;1.779457181692123E-002;-4.657934419810772E-003;5.019619129598141E-003;
2.410833333333334E+009;1.809830367565155E-001;1.562601700425148E-002;-4.586991388350725E-003;5.076751578599215E-003;
2.411000000000000E+009;1.803064793348312E-001;1.334041263908148E-002;-4.486361984163523E-003;5.153117701411247E-003;
2.411166666666667E+009;1.797351837158203E-001;1.122930273413658E-002;-4.200694151222706E-003;5.028290674090385E-003;
2.411333333333334E+009;1.792743802070618E-001;8.796909824013710E-003;-4.210751038044691E-003;5.264377687126398E-003;
2.411500000000000E+009;1.786461621522903E-001;6.432541180402041E-003;-3.879967145621777E-003;5.158603657037020E-003;
2.411666666666667E+009;1.783350557088852E-001;4.084048327058554E-003;-3.786560613662005E-003;5.231701303273439E-003;
2.411833333333334E+009;1.782721579074860E-001;1.705101574771106E-003;-3.498720703646541E-003;5.181286949664354E-003;
2.412000000000000E+009;1.782674789428711E-001;-9.235388715751469E-004;-3.474466968327761E-003;5.267193540930748E-003;
2.412166666666667E+009;1.785573661327362E-001;-3.130435012280941E-003;-3.235034178942442E-003;5.216643679887056E-003;
2.412333333333334E+009;1.786823272705078E-001;-5.515910685062408E-003;-3.179301973432303E-003;5.173421930521727E-003;
2.412500000000000E+009;1.789991110563278E-001;-7.991812191903591E-003;-3.077588509768248E-003;5.238653160631657E-003;
2.412666666666667E+009;1.795301139354706E-001;-1.039983797818422E-002;-2.905836794525385E-003;5.138277076184750E-003;
2.412833333333334E+009;1.802171617746353E-001;-1.278907060623169E-002;-2.848716452717781E-003;4.968604072928429E-003;
2.413000000000000E+009;1.807292848825455E-001;-1.508810743689537E-002;-3.028574632480741E-003;5.207698326557875E-003;
2.413166666666667E+009;1.815513521432877E-001;-1.722144894301891E-002;-2.952996408566833E-003;5.227260757237673E-003;
2.413333333333334E+009;1.826444566249847E-001;-1.947998441755772E-002;-2.756313420832157E-003;5.191919859498739E-003;
2.413500000000000E+009;1.835450828075409E-001;-2.165395207703114E-002;-2.761133713647723E-003;5.266536958515644E-003;
2.413666666666667E+009;1.846568286418915E-001;-2.385292947292328E-002;-2.724201651290059E-003;5.348215810954571E-003;
2.413833333333334E+009;1.857171207666397E-001;-2.567392401397228E-002;-2.613629214465618E-003;5.405189469456673E-003;
2.414000000000000E+009;1.868976950645447E-001;-2.773292362689972E-002;-2.495373366400600E-003;5.688693374395371E-003;
2.414166666666667E+009;1.880689561367035E-001;-2.940967679023743E-002;-2.515694359317422E-003;5.694702267646790E-003;
2.414333333333334E+009;1.890093535184860E-001;-3.121509589254856E-002;-2.056575380265713E-003;5.856919568032026E-003;
2.414500000000000E+009;1.902483850717545E-001;-3.258401155471802E-002;-2.043634653091431E-003;5.936944857239723E-003;
2.414666666666667E+009;1.914445310831070E-001;-3.420432284474373E-002;-1.899531227536500E-003;5.799685604870319E-003;
2.414833333333334E+009;1.925541609525681E-001;-3.547105193138123E-002;-1.857584575191140E-003;5.887915380299091E-003;
2.415000000000000E+009;1.935947835445404E-001;-3.663872182369232E-002;-1.755787408910692E-003;5.907865241169930E-003;
2.415166666666667E+009;1.947926729917526E-001;-3.783375769853592E-002;-1.553967478685081E-003;6.001392845064402E-003;
2.415333333333334E+009;1.958741396665573E-001;-3.851878270506859E-002;-1.447918475605547E-003;6.073508411645889E-003;
2.415500000000000E+009;1.970150768756867E-001;-3.925222530961037E-002;-1.410960685461760E-003;6.155973765999079E-003;
2.415666666666667E+009;1.980522871017456E-001;-4.000559076666832E-002;-1.196219585835934E-003;6.165408995002508E-003;
2.415833333333334E+009;1.989205628633499E-001;-4.057368263602257E-002;-1.185765722766519E-003;6.270568817853928E-003;
2.416000000000000E+009;1.995074599981308E-001;-4.119806364178658E-002;-9.544353233650327E-004;6.203536875545979E-003;
2.416166666666667E+009;2.003183066844940E-001;-4.159429296851158E-002;-9.370203479193151E-004;6.281030829995871E-003;
2.416333333333334E+009;2.009610831737518E-001;-4.186974465847015E-002;-6.304440321400762E-004;6.505471654236317E-003;
2.416500000000000E+009;2.013497203588486E-001;-4.224085807800293E-002;-5.377197521738708E-004;6.693993229418993E-003;
2.416666666666667E+009;2.016566842794418E-001;-4.247613996267319E-002;-5.014807684347034E-004;6.844531279057264E-003;
2.416833333333334E+009;2.018241733312607E-001;-4.254072532057762E-002;-2.804595278576016E-004;6.798140238970518E-003;
2.417000000000000E+009;2.019858211278915E-001;-4.269528761506081E-002;2.080683952954132E-005;6.846265867352486E-003;
2.417166666666667E+009;2.017363905906677E-001;-4.263814911246300E-002;2.216948196291924E-004;7.089577615261078E-003;
2.417333333333334E+009;2.012867033481598E-001;-4.255732148885727E-002;5.204434855841100E-004;7.079493254423142E-003;
2.417500000000000E+009;2.011099010705948E-001;-4.245560616254807E-002;6.600116612389684E-004;7.127776741981506E-003;
2.417666666666667E+009;2.006517499685288E-001;-4.231458529829979E-002;1.010683015920222E-003;7.381050381809473E-003;
2.417833333333334E+009;2.001727074384689E-001;-4.221655428409576E-002;1.207298249937594E-003;7.165885064750910E-003;
2.418000000000000E+009;1.995822936296463E-001;-4.191398620605469E-002;1.392020960338414E-003;7.134885992854834E-003;
2.418166666666667E+009;1.987017840147018E-001;-4.189682751893997E-002;1.603199285455048E-003;7.284227758646011E-003;
2.418333333333334E+009;1.978169083595276E-001;-4.187664762139320E-002;2.069499576464295E-003;7.208680734038353E-003;
2.418500000000000E+009;1.967163532972336E-001;-4.182127490639687E-002;2.302134875208139E-003;7.071726489812136E-003;
2.418666666666667E+009;1.958014965057373E-001;-4.171998426318169E-002;2.456265734508634E-003;6.984848063439131E-003;
2.418833333333334E+009;1.944969594478607E-001;-4.195825383067131E-002;2.879766747355461E-003;7.015387993305922E-003;
2.419000000000000E+009;1.932291239500046E-001;-4.216450452804565E-002;3.069554222747684E-003;6.844432093203068E-003;
2.419166666666667E+009;1.919418275356293E-001;-4.246510937809944E-002;3.085711039602757E-003;6.842143833637238E-003;
2.419333333333334E+009;1.907158643007278E-001;-4.299929365515709E-002;3.353609470650554E-003;6.636695936322212E-003;
2.419500000000000E+009;1.891172677278519E-001;-4.334834590554237E-002;3.636903828009963E-003;6.527383346110582E-003;
2.419666666666667E+009;1.875451207160950E-001;-4.417311772704125E-002;3.832387505099177E-003;6.450902204960585E-003;
2.419833333333334E+009;1.858955472707748E-001;-4.495141655206680E-002;3.867691848427057E-003;6.375666707754135E-003;
2.420000000000000E+009;1.844159811735153E-001;-4.568155109882355E-002;4.215082153677940E-003;6.323302630335093E-003;
2.420166666666667E+009;1.828712821006775E-001;-4.659660160541534E-002;4.470018669962883E-003;6.155597977340221E-003;
2.420333333333334E+009;1.813751012086868E-001;-4.784056916832924E-002;4.675166681408882E-003;6.025648675858975E-003;
2.420500000000000E+009;1.796808391809464E-001;-4.914838075637817E-002;4.869766067713499E-003;5.774045828729868E-003;
2.420666666666667E+009;1.780616343021393E-001;-5.027620866894722E-002;5.172317847609520E-003;5.745703354477882E-003;
2.420833333333334E+009;1.765372008085251E-001;-5.180916190147400E-002;5.567276850342751E-003;5.615595262497664E-003;
2.421000000000000E+009;1.750803589820862E-001;-5.325799062848091E-002;5.732083227485418E-003;5.393701605498791E-003;
2.421166666666667E+009;1.736772656440735E-001;-5.490333959460259E-002;5.892067216336727E-003;5.061752628535032E-003;
2.421333333333334E+009;1.720699369907379E-001;-5.635924637317658E-002;6.038301158696413E-003;4.971995018422604E-003;
2.421500000000000E+009;1.708218753337860E-001;-5.832642316818237E-002;6.187358405441046E-003;4.775008186697960E-003;
2.421666666666667E+009;1.696753948926926E-001;-6.010217964649200E-002;6.383715197443962E-003;4.419105127453804E-003;
2.421833333333334E+009;1.686407178640366E-001;-6.194548681378365E-002;6.490949075669050E-003;4.079315345734358E-003;
2.422000000000000E+009;1.674866676330566E-001;-6.395979970693588E-002;6.808360107243061E-003;3.767166053876281E-003;
2.422166666666667E+009;1.666975766420364E-001;-6.600972265005112E-002;6.723610218614340E-003;3.501484869047999E-003;
2.422333333333334E+009;1.658391952514648E-001;-6.788338720798492E-002;6.716807372868061E-003;3.239911980926991E-003;
2.422500000000000E+009;1.649593710899353E-001;-6.993199139833450E-002;6.766487844288349E-003;3.040065057575703E-003;
2.422666666666667E+009;1.643791049718857E-001;-7.175758481025696E-002;6.930986419320107E-003;2.624950138852000E-003;
2.422833333333334E+009;1.638707667589188E-001;-7.384018599987030E-002;6.820096634328365E-003;2.580090425908566E-003;
2.423000000000000E+009;1.635146290063858E-001;-7.585901021957398E-002;6.681120488792658E-003;2.146796556189656E-003;
2.423166666666667E+009;1.631322056055069E-001;-7.774259150028229E-002;6.715302355587483E-003;1.709510688669980E-003;
2.423333333333334E+009;1.630363911390305E-001;-7.973811775445938E-002;6.682840641587973E-003;1.589877065271139E-003;
2.423500000000000E+009;1.629163622856140E-001;-8.142117410898209E-002;6.746966391801834E-003;1.477058860473335E-003;
2.423666666666667E+009;1.629915982484818E-001;-8.323083817958832E-002;6.798412185162306E-003;1.194551354274154E-003;
2.423833333333334E+009;1.628189980983734E-001;-8.492271602153778E-002;6.621464621275663E-003;9.219071944244206E-004;
2.424000000000000E+009;1.631625443696976E-001;-8.678528666496277E-002;6.474315188825131E-003;8.157961419783533E-004;
2.424166666666667E+009;1.631051450967789E-001;-8.833540230989456E-002;6.473958026617765E-003;7.169719319790602E-004;
2.424333333333334E+009;1.633679270744324E-001;-8.987124264240265E-002;6.603419780731201E-003;5.105512100271881E-004;
2.424500000000000E+009;1.637505888938904E-001;-9.167762845754623E-002;6.506789010018110E-003;3.828973858617246E-004;
2.424666666666667E+009;1.639911383390427E-001;-9.282194823026657E-002;6.386715453118086E-003;3.067540819756687E-005;
2.424833333333334E+009;1.645597517490387E-001;-9.418001025915146E-002;6.423271726816893E-003;-1.791152462828904E-004;
2.425000000000000E+009;1.649230271577835E-001;-9.528032690286636E-002;6.280954927206039E-003;-2.794949105009437E-004;
2.425166666666667E+009;1.653347462415695E-001;-9.639439731836319E-002;6.399012170732021E-003;-5.649761296808720E-004;
2.425333333333334E+009;1.656059920787811E-001;-9.736416488885880E-002;6.177688948810101E-003;-7.812217227183282E-004;
2.425500000000000E+009;1.661235839128494E-001;-9.828734397888184E-002;6.049717310816050E-003;-1.031333813443780E-003;
2.425666666666667E+009;1.664498448371887E-001;-9.902474284172058E-002;5.928391590714455E-003;-1.158845145255327E-003;
2.425833333333334E+009;1.667884737253189E-001;-9.989166259765625E-002;5.833048373460770E-003;-1.390147255733609E-003;
2.426000000000000E+009;1.670809239149094E-001;-1.002819016575813E-001;5.811036564409733E-003;-1.447982271201909E-003;
2.426166666666667E+009;1.675463914871216E-001;-1.008279845118523E-001;5.642258562147617E-003;-1.467234687879682E-003;
2.426333333333334E+009;1.676294505596161E-001;-1.012810319662094E-001;5.642821546643972E-003;-1.582693890668452E-003;
2.426500000000000E+009;1.680117100477219E-001;-1.015470996499062E-001;5.513233598321676E-003;-1.660021138377488E-003;
2.426666666666667E+009;1.681635826826096E-001;-1.019088625907898E-001;5.359927657991648E-003;-1.842746161855757E-003;
2.426833333333334E+009;1.685067862272263E-001;-1.023288071155548E-001;5.379126872867346E-003;-1.982508460059762E-003;
2.427000000000000E+009;1.683174222707748E-001;-1.025173291563988E-001;5.194031633436680E-003;-2.113651949912310E-003;
2.427166666666667E+009;1.684074252843857E-001;-1.026373058557510E-001;5.169041920453310E-003;-2.045079134404659E-003;
2.427333333333334E+009;1.682412326335907E-001;-1.028903275728226E-001;4.965788684785366E-003;-2.173859393224120E-003;
2.427500000000000E+009;1.680134385824204E-001;-1.030874252319336E-001;4.918942227959633E-003;-2.237999346107245E-003;
2.427666666666667E+009;1.676277518272400E-001;-1.030810326337814E-001;4.789929371327162E-003;-2.244202420115471E-003;
2.427833333333334E+009;1.672556549310684E-001;-1.032945141196251E-001;4.702988080680370E-003;-2.481480361893773E-003;
