# Version 1.00
#
freq[Hz];re:Trc1_S11;im:Trc1_S11;re:Trc2_S21;im:Trc2_S21;
2.400000000000000E+009;1.555646657943726E-001;1.065340861678124E-001;-1.427127048373222E-003;-7.891510613262653E-003;
2.400166666666667E+009;1.555659770965576E-001;1.041019707918167E-001;-1.585014280863106E-003;-8.093385957181454E-003;
2.400333333333334E+009;1.555474996566773E-001;1.017563119530678E-001;-1.839533098973334E-003;-8.235464803874493E-003;
2.400500000000000E+009;1.554140001535416E-001;9.889009594917297E-002;-2.123976591974497E-003;-8.179398253560066E-003;
2.400666666666667E+009;1.555568426847458E-001;9.642762690782547E-002;-2.445672173053026E-003;-8.481940254569054E-003;
2.400833333333334E+009;1.555939763784409E-001;9.355126321315765E-002;-2.687443513423204E-003;-8.464976213872433E-003;
2.401000000000000E+009;1.558402627706528E-001;9.077246487140656E-002;-3.035639179870486E-003;-8.404567837715149E-003;
2.401166666666667E+009;1.557799130678177E-001;8.803172409534454E-002;-3.415021579712629E-003;-8.464328944683075E-003;
2.401333333333334E+009;1.561606526374817E-001;8.520608395338059E-002;-3.828690387308598E-003;-8.345043286681175E-003;
2.401500000000000E+009;1.565897315740585E-001;8.217929303646088E-002;-4.316054284572601E-003;-8.329586125910282E-003;
2.401666666666667E+009;1.569840013980866E-001;7.944572716951370E-002;-4.700830206274986E-003;-8.268569596111774E-003;
2.401833333333334E+009;1.574289053678513E-001;7.688895612955093E-002;-4.999007564038038E-003;-8.200485259294510E-003;
2.402000000000000E+009;1.582915335893631E-001;7.409348338842392E-002;-5.258898250758648E-003;-8.042650297284126E-003;
2.402166666666667E+009;1.591342538595200E-001;7.158607244491577E-002;-5.690104328095913E-003;-7.696784101426601E-003;
2.402333333333334E+009;1.600438505411148E-001;6.890605390071869E-002;-5.960732698440552E-003;-7.654146291315556E-003;
2.402500000000000E+009;1.612609624862671E-001;6.636808812618256E-002;-6.362905260175467E-003;-7.497670594602823E-003;
2.402666666666667E+009;1.622993797063828E-001;6.407008320093155E-002;-6.672550924122334E-003;-7.070188410580158E-003;
2.402833333333334E+009;1.635504812002182E-001;6.166825443506241E-002;-6.918894127011299E-003;-6.664738059043884E-003;
2.403000000000000E+009;1.650364100933075E-001;5.935319885611534E-002;-7.280497811734676E-003;-6.564781069755554E-003;
2.403166666666667E+009;1.668824702501297E-001;5.726015567779541E-002;-7.603880483657122E-003;-6.118899676948786E-003;
2.403333333333334E+009;1.681427806615830E-001;5.503689870238304E-002;-7.798138540238142E-003;-5.797465331852436E-003;
2.403500000000000E+009;1.698728352785111E-001;5.300011858344078E-002;-7.939686067402363E-003;-5.453132092952728E-003;
2.403666666666667E+009;1.716746240854263E-001;5.111335590481758E-002;-8.185285143554211E-003;-5.088203586637974E-003;
2.403833333333334E+009;1.732273697853088E-001;4.931577667593956E-002;-8.327683433890343E-003;-4.738600458949804E-003;
2.404000000000000E+009;1.748292595148087E-001;4.773871228098869E-002;-8.455493487417698E-003;-4.461872857064009E-003;
2.404166666666667E+009;1.766096204519272E-001;4.628778994083405E-002;-8.440220728516579E-003;-4.233524203300476E-003;
2.404333333333334E+009;1.781535595655441E-001;4.455575719475746E-002;-8.684608153998852E-003;-3.689478617161512E-003;
2.404500000000000E+009;1.797111183404923E-001;4.312162101268768E-002;-8.655604906380177E-003;-3.545519663020968E-003;
2.404666666666667E+009;1.811849027872086E-001;4.212534427642822E-002;-8.887415751814842E-003;-3.104913746938109E-003;
2.404833333333334E+009;1.831053942441940E-001;4.104284942150116E-002;-8.811308071017265E-003;-2.799273934215307E-003;
2.405000000000000E+009;1.842291206121445E-001;4.046591743826866E-002;-8.975381962954998E-003;-2.524166367948055E-003;
2.405166666666667E+009;1.857397705316544E-001;3.976488485932350E-002;-9.124046191573143E-003;-2.145159756764770E-003;
2.405333333333334E+009;1.870978474617004E-001;3.909635543823242E-002;-9.125784970819950E-003;-1.953046885319054E-003;
2.405500000000000E+009;1.884567290544510E-001;3.866552561521530E-002;-9.307799860835075E-003;-1.427847309969366E-003;
2.405666666666667E+009;1.897520124912262E-001;3.830544650554657E-002;-9.256867691874504E-003;-1.168675953522325E-003;
2.405833333333334E+009;1.910077631473541E-001;3.797085583209992E-002;-9.296890348196030E-003;-7.591383764520288E-004;
2.406000000000000E+009;1.919005364179611E-001;3.780600428581238E-002;-9.207196533679962E-003;-4.517577181104571E-004;
2.406166666666667E+009;1.929739713668823E-001;3.766502067446709E-002;-9.226802736520767E-003;5.131637954036705E-005;
2.406333333333334E+009;1.936998814344406E-001;3.764284029603005E-002;-9.061630815267563E-003;3.230725997127593E-004;
2.406500000000000E+009;1.944492161273956E-001;3.768084198236466E-002;-8.980764076113701E-003;6.684332038275898E-004;
2.406666666666667E+009;1.949331164360046E-001;3.774566948413849E-002;-8.992030285298824E-003;1.045313198119402E-003;
2.406833333333334E+009;1.954623758792877E-001;3.778292611241341E-002;-8.673259057104588E-003;1.502972445450723E-003;
2.407000000000000E+009;1.958458870649338E-001;3.774447739124298E-002;-8.640798740088940E-003;1.501085236668587E-003;
2.407166666666667E+009;1.962386965751648E-001;3.769889473915100E-002;-8.520924486219883E-003;2.021072432398796E-003;
2.407333333333334E+009;1.961665302515030E-001;3.780666366219521E-002;-8.305300958454609E-003;2.090623835101724E-003;
2.407500000000000E+009;1.960889846086502E-001;3.779955580830574E-002;-8.263876661658287E-003;2.401634817942977E-003;
2.407666666666667E+009;1.960841119289398E-001;3.765348345041275E-002;-8.011841215193272E-003;2.735683694481850E-003;
2.407833333333334E+009;1.956004202365875E-001;3.761331364512444E-002;-7.862075231969357E-003;2.938038669526577E-003;
2.408000000000000E+009;1.956979632377625E-001;3.742582350969315E-002;-7.778736297041178E-003;3.102403599768877E-003;
2.408166666666667E+009;1.948225051164627E-001;3.700685501098633E-002;-7.580195553600788E-003;3.362620016559959E-003;
2.408333333333334E+009;1.944294422864914E-001;3.648185729980469E-002;-7.258017547428608E-003;3.495982848107815E-003;
2.408500000000000E+009;1.938270032405853E-001;3.606434538960457E-002;-7.101106457412243E-003;3.764264984056354E-003;
2.408666666666667E+009;1.931725889444351E-001;3.543209284543991E-002;-6.836420856416225E-003;3.912453074008226E-003;
2.408833333333334E+009;1.924564838409424E-001;3.460730239748955E-002;-6.795718800276518E-003;3.984980285167694E-003;
2.409000000000000E+009;1.914579570293427E-001;3.372637927532196E-002;-6.447660736739636E-003;4.307298921048641E-003;
2.409166666666667E+009;1.905613690614700E-001;3.264088556170464E-002;-6.257135421037674E-003;4.096714779734612E-003;
2.409333333333334E+009;1.896344423294067E-001;3.175339475274086E-002;-6.209085229784250E-003;4.367466550320387E-003;
2.409500000000000E+009;1.885570436716080E-001;3.029148280620575E-002;-6.070679984986782E-003;4.352440126240253E-003;
2.409666666666667E+009;1.875533610582352E-001;2.878833934664726E-002;-5.729900207370520E-003;4.456467926502228E-003;
2.409833333333334E+009;1.865054368972778E-001;2.732552960515022E-002;-5.536663811653853E-003;4.613209515810013E-003;
2.410000000000000E+009;1.855908483266830E-001;2.577451430261135E-002;-5.318476352840662E-003;4.696202464401722E-003;
2.410166666666667E+009;1.845180988311768E-001;2.382442913949490E-002;-5.158126354217529E-003;4.799390677362680E-003;
2.410333333333334E+009;1.837081462144852E-001;2.203882113099098E-002;-5.089379381388426E-003;4.787266254425049E-003;
2.410500000000000E+009;1.825485080480576E-001;1.998832263052464E-002;-5.066070239990950E-003;4.866082221269608E-003;
2.410666666666667E+009;1.819175779819489E-001;1.768295094370842E-002;-4.779936745762825E-003;5.004277452826500E-003;
2.410833333333334E+009;1.810406744480133E-001;1.570608653128147E-002;-4.562557674944401E-003;5.149077624082565E-003;
2.411000000000000E+009;1.802329272031784E-001;1.341011840850115E-002;-4.583251196891069E-003;5.082763731479645E-003;
2.411166666666667E+009;1.797123551368713E-001;1.131119858473539E-002;-4.299109335988760E-003;5.191620439291000E-003;
2.411333333333334E+009;1.791283637285233E-001;8.803607895970345E-003;-4.086799453943968E-003;5.189624615013599E-003;
2.411500000000000E+009;1.785682886838913E-001;6.269202101975679E-003;-3.848157124593854E-003;5.083248484879732E-003;
2.411666666666667E+009;1.784216761589050E-001;3.999224863946438E-003;-3.726615337654948E-003;5.153473466634750E-003;
2.411833333333334E+009;1.781648099422455E-001;1.724388450384140E-003;-3.669135272502899E-003;5.289892200380564E-003;
2.412000000000000E+009;1.782552897930145E-001;-7.975214393809438E-004;-3.521272214129567E-003;5.232412368059158E-003;
2.412166666666667E+009;1.783754974603653E-001;-2.971916925162077E-003;-3.233484691008925E-003;5.062504205852747E-003;
2.412333333333334E+009;1.785829365253449E-001;-5.658589303493500E-003;-3.161341184750199E-003;5.272597540169954E-003;
2.412500000000000E+009;1.789294779300690E-001;-7.945797406136990E-003;-3.196133999153972E-003;5.159949418157339E-003;
2.412666666666667E+009;1.794877648353577E-001;-1.038555614650250E-002;-2.944814972579479E-003;5.132014863193035E-003;
2.412833333333334E+009;1.802212595939636E-001;-1.275030337274075E-002;-2.956781769171357E-003;5.142203997820616E-003;
2.413000000000000E+009;1.807844489812851E-001;-1.503553427755833E-002;-2.778404857963324E-003;5.125686991959810E-003;
2.413166666666667E+009;1.816190034151077E-001;-1.710310764610767E-002;-2.966834697872400E-003;5.245790351182222E-003;
2.413333333333334E+009;1.826176643371582E-001;-1.962833479046822E-002;-2.860835287719965E-003;5.331670865416527E-003;
2.413500000000000E+009;1.834238320589066E-001;-2.169342711567879E-002;-2.782615600153804E-003;5.331879016011953E-003;
2.413666666666667E+009;1.846903264522553E-001;-2.371947094798088E-002;-2.705805469304323E-003;5.380631424486637E-003;
2.413833333333334E+009;1.857368648052216E-001;-2.573471888899803E-002;-2.646694425493479E-003;5.390173289924860E-003;
2.414000000000000E+009;1.866189241409302E-001;-2.774631790816784E-002;-2.479100832715631E-003;5.494585260748863E-003;
2.414166666666667E+009;1.879462897777557E-001;-2.928291074931622E-002;-2.408161526545882E-003;5.628273356705904E-003;
2.414333333333334E+009;1.890853345394135E-001;-3.128311410546303E-002;-2.254726365208626E-003;5.786921828985214E-003;
2.414500000000000E+009;1.903451681137085E-001;-3.266107290983200E-002;-2.055221237242222E-003;5.921829026192427E-003;
2.414666666666667E+009;1.914628446102142E-001;-3.409126028418541E-002;-2.027482725679874E-003;5.893561523407698E-003;
2.414833333333334E+009;1.926034986972809E-001;-3.551898524165154E-002;-1.772538293153048E-003;5.946073681116104E-003;
2.415000000000000E+009;1.935975551605225E-001;-3.670433908700943E-002;-1.751603092998266E-003;5.993815138936043E-003;
2.415166666666667E+009;1.948399990797043E-001;-3.768237307667732E-002;-1.612400868907571E-003;6.000856403261423E-003;
2.415333333333334E+009;1.959408521652222E-001;-3.860760480165482E-002;-1.468931441195309E-003;6.136280950158835E-003;
2.415500000000000E+009;1.970150023698807E-001;-3.917990997433662E-002;-1.365646603517234E-003;6.059906445443630E-003;
2.415666666666667E+009;1.978888064622879E-001;-4.011480882763863E-002;-1.168613438494504E-003;6.144312676042318E-003;
2.415833333333334E+009;1.987646967172623E-001;-4.054668173193932E-002;-1.152210286818445E-003;6.169521249830723E-003;
2.416000000000000E+009;1.995426118373871E-001;-4.112202301621437E-002;-1.039078808389604E-003;6.440558936446905E-003;
2.416166666666667E+009;2.002594918012619E-001;-4.158725216984749E-002;-8.213276742026210E-004;6.409888621419668E-003;
2.416333333333334E+009;2.008846551179886E-001;-4.197633266448975E-002;-8.494491921737790E-004;6.555592641234398E-003;
2.416500000000000E+009;2.013746649026871E-001;-4.218189418315888E-002;-5.438882508315146E-004;6.658412516117096E-003;
2.416666666666667E+009;2.016447186470032E-001;-4.255017265677452E-002;-5.749373231083155E-004;6.750203669071198E-003;
2.416833333333334E+009;2.018761634826660E-001;-4.250052198767662E-002;-2.970974310301244E-004;6.813274696469307E-003;
2.417000000000000E+009;2.019536495208740E-001;-4.272565618157387E-002;-2.600080551928841E-005;7.058018352836371E-003;
2.417166666666667E+009;2.016851603984833E-001;-4.257509112358093E-002;9.014828538056463E-005;7.163996808230877E-003;
2.417333333333334E+009;2.014818638563156E-001;-4.254257678985596E-002;2.638862060848624E-004;7.068456150591373E-003;
2.417500000000000E+009;2.010841518640518E-001;-4.257531464099884E-002;6.761957774870098E-004;7.192513905465603E-003;
2.417666666666667E+009;2.005772888660431E-001;-4.230741038918495E-002;8.240877650678158E-004;7.192746270447969E-003;
2.417833333333334E+009;2.002004683017731E-001;-4.225652664899826E-002;1.205714535899460E-003;7.291714660823345E-003;
2.418000000000000E+009;1.994868218898773E-001;-4.183910787105560E-002;1.471562543883920E-003;7.301682140678167E-003;
2.418166666666667E+009;1.986738592386246E-001;-4.181584715843201E-002;1.775439013727009E-003;7.108899764716625E-003;
2.418333333333334E+009;1.977333873510361E-001;-4.174520447850227E-002;2.016364829614759E-003;7.167580537497997E-003;
2.418500000000000E+009;1.967350393533707E-001;-4.181874543428421E-002;2.385543892160058E-003;7.100373506546021E-003;
2.418666666666667E+009;1.957962363958359E-001;-4.170620441436768E-002;2.532582264393568E-003;7.030572742223740E-003;
2.418833333333334E+009;1.944310963153839E-001;-4.187591746449471E-002;2.715444657951593E-003;6.946505513042212E-003;
2.419000000000000E+009;1.931669861078262E-001;-4.219528287649155E-002;3.002171404659748E-003;7.025700993835926E-003;
2.419166666666667E+009;1.919499784708023E-001;-4.247845709323883E-002;3.222414990887046E-003;6.817947607487440E-003;
2.419333333333334E+009;1.906137466430664E-001;-4.286393895745277E-002;3.469578456133604E-003;6.652065087109804E-003;
2.419500000000000E+009;1.889991909265518E-001;-4.339330270886421E-002;3.495026845484972E-003;6.539286114275456E-003;
2.419666666666667E+009;1.874301433563232E-001;-4.422882944345474E-002;3.800264559686184E-003;6.450369022786617E-003;
2.419833333333334E+009;1.858942508697510E-001;-4.472764581441879E-002;4.018414299935103E-003;6.342290900647640E-003;
2.420000000000000E+009;1.845370084047318E-001;-4.568251222372055E-002;4.238469060510397E-003;6.198337767273188E-003;
2.420166666666667E+009;1.828494369983673E-001;-4.655103385448456E-002;4.485425539314747E-003;6.368396338075399E-003;
2.420333333333334E+009;1.812066882848740E-001;-4.776405170559883E-002;4.705280065536499E-003;6.083666346967220E-003;
2.420500000000000E+009;1.796237230300903E-001;-4.909098520874977E-002;4.946535453200340E-003;5.936232861131430E-003;
2.420666666666667E+009;1.780559867620468E-001;-5.019808933138847E-002;5.139146465808153E-003;5.887801758944988E-003;
2.420833333333334E+009;1.765217185020447E-001;-5.175435543060303E-002;5.444251000881195E-003;5.684192758053541E-003;
2.421000000000000E+009;1.749917715787888E-001;-5.321737751364708E-002;5.531737580895424E-003;5.418817512691021E-003;
2.421166666666667E+009;1.738439202308655E-001;-5.490529537200928E-002;5.892689339816570E-003;5.191660020500422E-003;
2.421333333333334E+009;1.719100326299667E-001;-5.630705878138542E-002;6.000428460538387E-003;5.002765450626612E-003;
2.421500000000000E+009;1.710453033447266E-001;-5.835978686809540E-002;6.124271079897881E-003;4.771899431943893E-003;
2.421666666666667E+009;1.697449237108231E-001;-6.001196801662445E-002;6.251275539398193E-003;4.474575165659189E-003;
2.421833333333334E+009;1.686350405216217E-001;-6.183356046676636E-002;6.561548914760351E-003;4.105911590158939E-003;
2.422000000000000E+009;1.674400418996811E-001;-6.390131264925003E-002;6.587561685591936E-003;3.900613170117140E-003;
2.422166666666667E+009;1.668529063463211E-001;-6.600327789783478E-002;6.704067811369896E-003;3.577095689252019E-003;
2.422333333333334E+009;1.657277792692184E-001;-6.789742410182953E-002;6.619025953114033E-003;3.348791040480137E-003;
2.422500000000000E+009;1.650418192148209E-001;-6.985896825790405E-002;6.769955623894930E-003;3.086333163082600E-003;
2.422666666666667E+009;1.644341498613358E-001;-7.173702120780945E-002;6.819584406912327E-003;2.682855818420649E-003;
2.422833333333334E+009;1.641206592321396E-001;-7.385831326246262E-002;6.816882174462080E-003;2.412122907117009E-003;
2.423000000000000E+009;1.634646654129028E-001;-7.588373124599457E-002;6.939041893929243E-003;2.268956275656819E-003;
2.423166666666667E+009;1.630634963512421E-001;-7.775345444679260E-002;6.898443680256605E-003;1.900288742035627E-003;
2.423333333333334E+009;1.629249006509781E-001;-7.969605922698975E-002;6.636620964854956E-003;1.568037550896406E-003;
2.423500000000000E+009;1.629431247711182E-001;-8.145190775394440E-002;6.763064302504063E-003;1.432507298886776E-003;
2.423666666666667E+009;1.628564447164536E-001;-8.327115327119827E-002;6.648947019129992E-003;1.145140035077930E-003;
2.423833333333334E+009;1.629611998796463E-001;-8.503721654415131E-002;6.684168241918087E-003;1.007474958896637E-003;
2.424000000000000E+009;1.629974246025085E-001;-8.685228228569031E-002;6.526807788759470E-003;8.214842528104782E-004;
2.424166666666667E+009;1.631384491920471E-001;-8.826472610235214E-002;6.523991934955120E-003;6.741496617905796E-004;
2.424333333333334E+009;1.634462177753449E-001;-8.977822214365006E-002;6.442733574658632E-003;5.273882416076958E-004;
2.424500000000000E+009;1.638686358928680E-001;-9.152324497699738E-002;6.463341880589724E-003;2.750927524175495E-004;
2.424666666666667E+009;1.640022248029709E-001;-9.299737960100174E-002;6.421865429729223E-003;4.779601658810861E-005;
2.424833333333334E+009;1.646783798933029E-001;-9.415331482887268E-002;6.560107227414846E-003;-1.382995251333341E-004;
2.425000000000000E+009;1.649831682443619E-001;-9.551490843296051E-002;6.382145453244448E-003;-3.323811979498714E-004;
2.425166666666667E+009;1.652764230966568E-001;-9.636581689119339E-002;6.285502109676600E-003;-5.683460040017963E-004;
2.425333333333334E+009;1.656884700059891E-001;-9.744615107774735E-002;6.234773900359869E-003;-6.657958147116005E-004;
2.425500000000000E+009;1.660227626562119E-001;-9.839309751987457E-002;6.165488623082638E-003;-9.607378160580993E-004;
2.425666666666667E+009;1.664862334728241E-001;-9.901594370603561E-002;5.975109059363604E-003;-1.181720290333033E-003;
2.425833333333334E+009;1.667589396238327E-001;-9.987016022205353E-002;5.830385722219944E-003;-1.211076742038131E-003;
2.426000000000000E+009;1.672013103961945E-001;-1.003936678171158E-001;5.778278224170208E-003;-1.391701283864677E-003;
2.426166666666667E+009;1.676453351974487E-001;-1.008413806557655E-001;5.688118748366833E-003;-1.557958079501987E-003;
2.426333333333334E+009;1.675773859024048E-001;-1.012985333800316E-001;5.543757695704699E-003;-1.655136118642986E-003;
2.426500000000000E+009;1.680439710617065E-001;-1.016902700066567E-001;5.542081780731678E-003;-1.687545678578317E-003;
2.426666666666667E+009;1.682096719741821E-001;-1.020293012261391E-001;5.403664894402027E-003;-1.719868858344853E-003;
2.426833333333334E+009;1.683664321899414E-001;-1.022189557552338E-001;5.216556601226330E-003;-1.913971733301878E-003;
2.427000000000000E+009;1.683513522148132E-001;-1.025352776050568E-001;5.126826930791140E-003;-2.053784439340234E-003;
2.427166666666667E+009;1.684059202671051E-001;-1.025932878255844E-001;4.910106305032969E-003;-2.090924885123968E-003;
2.427333333333334E+009;1.682147681713104E-001;-1.029600724577904E-001;4.932635929435492E-003;-2.193297958001494E-003;
2.427500000000000E+009;1.679803729057312E-001;-1.031203418970108E-001;4.909628070890904E-003;-2.184015698730946E-003;
2.427666666666667E+009;1.675927042961121E-001;-1.031597480177879E-001;4.809556063264608E-003;-2.403490943834186E-003;
2.427833333333334E+009;1.672747582197189E-001;-1.033040210604668E-001;4.748387262225151E-003;-2.307597547769547E-003;
