# Version 1.00
#
freq[Hz];re:Trc1_S11;im:Trc1_S11;re:Trc2_S21;im:Trc2_S21;
2.400000000000000E+009;1.561065018177033E-001;6.013853102922440E-002;-2.011752687394619E-003;-7.592644542455673E-004;
2.400166666666667E+009;1.561063230037689E-001;5.836016684770584E-002;-2.153818728402257E-003;-8.668290101923049E-004;
2.400333333333334E+009;1.562732309103012E-001;5.624207854270935E-002;-2.138464478775859E-003;-8.084506844170392E-004;
2.400500000000000E+009;1.564564406871796E-001;5.419209972023964E-002;-2.139603253453970E-003;-8.294938015751541E-004;
2.400666666666667E+009;1.566109061241150E-001;5.219124257564545E-002;-2.130772685632110E-003;-7.492619915865362E-004;
2.400833333333334E+009;1.570886522531509E-001;5.008493363857269E-002;-2.323683816939592E-003;-7.433732971549034E-004;
2.401000000000000E+009;1.575891822576523E-001;4.814694449305534E-002;-2.436163835227490E-003;-6.290944875217974E-004;
2.401166666666667E+009;1.579462140798569E-001;4.593566060066223E-002;-2.287864917889237E-003;-5.693631828762591E-004;
2.401333333333334E+009;1.583234965801239E-001;4.385391622781754E-002;-2.320505212992430E-003;-4.258433764334768E-004;
2.401500000000000E+009;1.589442491531372E-001;4.192692786455154E-002;-2.301995642483234E-003;-6.116447038948536E-004;
2.401666666666667E+009;1.595610529184341E-001;3.994457051157951E-002;-2.456704154610634E-003;-4.025558300781995E-004;
2.401833333333334E+009;1.603293865919113E-001;3.775594010949135E-002;-2.536834916099906E-003;-4.444113874342293E-004;
2.402000000000000E+009;1.607074439525604E-001;3.611107543110848E-002;-2.571489894762635E-003;-2.792622544802725E-004;
2.402166666666667E+009;1.615718007087708E-001;3.418894484639168E-002;-2.593116136267781E-003;-2.178956783609465E-004;
2.402333333333334E+009;1.622911244630814E-001;3.243422508239746E-002;-2.576190046966076E-003;-2.195652486989275E-004;
2.402500000000000E+009;1.634612828493118E-001;3.067956864833832E-002;-2.745195059105754E-003;-1.151405522250570E-004;
2.402666666666667E+009;1.640786975622177E-001;2.930586412549019E-002;-2.778844675049186E-003;-4.053268276038580E-005;
2.402833333333334E+009;1.649879366159439E-001;2.777057886123657E-002;-2.673635724931955E-003;1.026370300678536E-004;
2.403000000000000E+009;1.659278869628906E-001;2.656822837889195E-002;-2.758436836302280E-003;2.214977139374241E-004;
2.403166666666667E+009;1.670590937137604E-001;2.505709603428841E-002;-2.812764840200543E-003;1.981057284865528E-004;
2.403333333333334E+009;1.680361479520798E-001;2.388411946594715E-002;-2.925113076344132E-003;3.392128273844719E-004;
2.403500000000000E+009;1.689695566892624E-001;2.272292785346508E-002;-2.857593121007085E-003;5.363004165701568E-004;
2.403666666666667E+009;1.699920594692230E-001;2.141691185534000E-002;-2.805037191137672E-003;4.720891301985830E-004;
2.403833333333334E+009;1.711131036281586E-001;2.047863230109215E-002;-2.902245149016380E-003;6.463084719143808E-004;
2.404000000000000E+009;1.718863099813461E-001;1.974962651729584E-002;-2.892624353989959E-003;8.018118678592145E-004;
2.404166666666667E+009;1.729092895984650E-001;1.868716813623905E-002;-2.782623982056975E-003;7.483553490601480E-004;
2.404333333333334E+009;1.737233847379684E-001;1.810263097286224E-002;-2.976797521114349E-003;1.027417485602200E-003;
2.404500000000000E+009;1.745801866054535E-001;1.721243001520634E-002;-2.922834595665336E-003;9.956484427675605E-004;
2.404666666666667E+009;1.753032952547073E-001;1.658927462995052E-002;-2.810512203723192E-003;1.383232302032411E-003;
2.404833333333334E+009;1.761572808027268E-001;1.619382761418819E-002;-2.789995167404413E-003;1.408273819833994E-003;
2.405000000000000E+009;1.769180893898010E-001;1.550994347780943E-002;-2.941755577921867E-003;1.458195270970464E-003;
2.405166666666667E+009;1.775898784399033E-001;1.535618863999844E-002;-2.604705747216940E-003;1.773865777067840E-003;
2.405333333333334E+009;1.779219806194305E-001;1.452741399407387E-002;-2.857903949916363E-003;1.729149953462184E-003;
2.405500000000000E+009;1.786101162433624E-001;1.443102676421404E-002;-2.590970136225224E-003;1.938668428920209E-003;
2.405666666666667E+009;1.789568662643433E-001;1.410241611301899E-002;-2.491807797923684E-003;2.051671734079719E-003;
2.405833333333334E+009;1.791948080062866E-001;1.393684744834900E-002;-2.281150082126260E-003;2.021053340286017E-003;
2.406000000000000E+009;1.796442270278931E-001;1.341763697564602E-002;-2.344832289963961E-003;2.266753930598497E-003;
2.406166666666667E+009;1.796574592590332E-001;1.339193899184465E-002;-2.235590713098645E-003;2.433526329696178E-003;
2.406333333333334E+009;1.798792034387589E-001;1.302531640976667E-002;-2.070466522127390E-003;2.473810221999884E-003;
2.406500000000000E+009;1.799277812242508E-001;1.261398475617170E-002;-1.960034016519785E-003;2.511251484975219E-003;
2.406666666666667E+009;1.796308755874634E-001;1.243444439023733E-002;-1.833408954553306E-003;2.598417922854424E-003;
2.406833333333334E+009;1.797959059476852E-001;1.204077992588282E-002;-1.681210007518530E-003;2.794258994981647E-003;
2.407000000000000E+009;1.795766204595566E-001;1.173209492117167E-002;-1.703422400169075E-003;2.666151616722345E-003;
2.407166666666667E+009;1.793382614850998E-001;1.130045391619206E-002;-1.512185903266072E-003;2.894018078222871E-003;
2.407333333333334E+009;1.787688583135605E-001;1.074741967022419E-002;-1.431872602552176E-003;2.809753175824881E-003;
2.407500000000000E+009;1.785553693771362E-001;1.021432224661112E-002;-1.403214060701430E-003;2.801868831738830E-003;
2.407666666666667E+009;1.781163066625595E-001;9.710643440485001E-003;-1.146901748143137E-003;2.758349990472198E-003;
2.407833333333334E+009;1.774034500122070E-001;8.863628841936588E-003;-1.034696819260716E-003;2.803825773298740E-003;
2.408000000000000E+009;1.769019514322281E-001;8.023782633244991E-003;-1.040174160152674E-003;2.665694570168853E-003;
2.408166666666667E+009;1.763408035039902E-001;7.378431037068367E-003;-9.250532020814717E-004;2.743941731750965E-003;
2.408333333333334E+009;1.759610772132874E-001;6.277925334870815E-003;-7.174685597419739E-004;2.748109633103013E-003;
2.408500000000000E+009;1.750248074531555E-001;5.353218410164118E-003;-7.528684800490737E-004;2.765593118965626E-003;
2.408666666666667E+009;1.744277179241180E-001;4.058004822582007E-003;-6.334271747618914E-004;2.740835305303335E-003;
2.408833333333334E+009;1.736988574266434E-001;3.004312748089433E-003;-6.408345070667565E-004;2.758612856268883E-003;
2.409000000000000E+009;1.729098260402679E-001;1.687176758423448E-003;-3.802173014264554E-004;2.636149292811751E-003;
2.409166666666667E+009;1.722671240568161E-001;3.159003099426627E-004;-4.882237990386784E-004;2.617501420900226E-003;
2.409333333333334E+009;1.717388629913330E-001;-1.206536311656237E-003;-4.284417664166540E-004;2.628450514748693E-003;
2.409500000000000E+009;1.709381639957428E-001;-2.908264286816120E-003;-3.872014349326491E-004;2.712703077122569E-003;
2.409666666666667E+009;1.702254861593247E-001;-4.216273780912161E-003;-1.619115791982040E-004;2.691784175112844E-003;
2.409833333333334E+009;1.695144921541214E-001;-5.897809285670519E-003;-2.218100707978010E-004;2.758845686912537E-003;
2.410000000000000E+009;1.693395227193832E-001;-7.555099204182625E-003;4.281573637854308E-005;2.562026726081967E-003;
2.410166666666667E+009;1.688441038131714E-001;-9.405655786395073E-003;-1.214677031384781E-004;2.609655493870378E-003;
2.410333333333334E+009;1.682702600955963E-001;-1.118566468358040E-002;7.342699245782569E-005;2.673206385225058E-003;
2.410500000000000E+009;1.679487377405167E-001;-1.302737183868885E-002;2.581397129688412E-004;2.711047651246190E-003;
2.410666666666667E+009;1.675620377063751E-001;-1.508664526045322E-002;2.019669773289934E-004;2.602474298328161E-003;
2.410833333333334E+009;1.672604829072952E-001;-1.701751910150051E-002;3.023166791535914E-004;2.520165638998151E-003;
2.411000000000000E+009;1.672408431768417E-001;-1.894231140613556E-002;4.526725388132036E-004;2.543124835938215E-003;
2.411166666666667E+009;1.671159565448761E-001;-2.094144932925701E-002;4.127518914174289E-004;2.573821460828185E-003;
2.411333333333334E+009;1.671524345874786E-001;-2.287422120571137E-002;7.254243246279657E-004;2.414730144664645E-003;
2.411500000000000E+009;1.671654284000397E-001;-2.508425153791904E-002;4.517502966336906E-004;2.592522418126464E-003;
2.411666666666667E+009;1.674559563398361E-001;-2.696784958243370E-002;6.474941619671881E-004;2.380738966166973E-003;
2.411833333333334E+009;1.677632480859757E-001;-2.864784002304077E-002;5.874252528883517E-004;2.502291230484843E-003;
2.412000000000000E+009;1.680693775415421E-001;-3.078575432300568E-002;8.027310832403600E-004;2.377492608502507E-003;
2.412166666666667E+009;1.683577746152878E-001;-3.260009363293648E-002;8.133394876495004E-004;2.339973347261548E-003;
2.412333333333334E+009;1.688493341207504E-001;-3.434532880783081E-002;8.014512713998556E-004;2.373242052271962E-003;
2.412500000000000E+009;1.692098826169968E-001;-3.626424074172974E-002;9.653897723183036E-004;2.266180934384465E-003;
2.412666666666667E+009;1.698374599218369E-001;-3.819149732589722E-002;9.276728378608823E-004;2.192898187786341E-003;
2.412833333333334E+009;1.705082058906555E-001;-3.973923251032829E-002;9.095889981836081E-004;2.190496772527695E-003;
2.413000000000000E+009;1.711100935935974E-001;-4.149469733238220E-002;9.204524103552103E-004;2.222979674115777E-003;
2.413166666666667E+009;1.715682446956635E-001;-4.290426149964333E-002;1.112097292207182E-003;2.086234744638205E-003;
2.413333333333334E+009;1.721594631671906E-001;-4.451287910342217E-002;9.350465261377394E-004;1.948419492691755E-003;
2.413500000000000E+009;1.727631986141205E-001;-4.590076953172684E-002;1.166844740509987E-003;2.034952398389578E-003;
2.413666666666667E+009;1.735457926988602E-001;-4.722942039370537E-002;1.178354606963694E-003;2.059817546978593E-003;
2.413833333333334E+009;1.741991490125656E-001;-4.850702360272408E-002;1.120229018852115E-003;2.135762246325612E-003;
2.414000000000000E+009;1.746471822261810E-001;-4.974370077252388E-002;1.201667939312756E-003;2.084800275042653E-003;
2.414166666666667E+009;1.753675192594528E-001;-5.071051791310310E-002;1.295004389248788E-003;1.887204591184855E-003;
2.414333333333334E+009;1.759407222270966E-001;-5.167967826128006E-002;1.357800443656743E-003;2.001526532694697E-003;
2.414500000000000E+009;1.766403466463089E-001;-5.271971598267555E-002;1.304391073063016E-003;1.877617789432406E-003;
2.414666666666667E+009;1.770728379487991E-001;-5.336793884634972E-002;1.417490420863032E-003;1.851467881351709E-003;
2.414833333333334E+009;1.775397211313248E-001;-5.432687699794769E-002;1.389565994031727E-003;1.715004327706993E-003;
2.415000000000000E+009;1.778655499219894E-001;-5.479465797543526E-002;1.281102420762181E-003;1.841446617618203E-003;
2.415166666666667E+009;1.782864034175873E-001;-5.543904751539230E-002;1.446186914108694E-003;1.752705196850002E-003;
2.415333333333334E+009;1.785503327846527E-001;-5.601635202765465E-002;1.529178116470575E-003;1.820391276851296E-003;
2.415500000000000E+009;1.788277775049210E-001;-5.634644627571106E-002;1.560497097671032E-003;1.845272723585367E-003;
2.415666666666667E+009;1.788559406995773E-001;-5.675101280212402E-002;1.637747278437018E-003;1.967918127775192E-003;
2.415833333333334E+009;1.790009289979935E-001;-5.710572376847267E-002;1.623253570869565E-003;1.709562493488193E-003;
2.416000000000000E+009;1.786528527736664E-001;-5.742973461747170E-002;1.630961429327726E-003;1.855764072388411E-003;
2.416166666666667E+009;1.788688153028488E-001;-5.759243294596672E-002;1.905231154523790E-003;1.597415073774755E-003;
2.416333333333334E+009;1.784958094358444E-001;-5.774310231208801E-002;1.854775124229491E-003;1.818787772208452E-003;
2.416500000000000E+009;1.782435625791550E-001;-5.819142982363701E-002;1.929386169649661E-003;1.719218213111162E-003;
2.416666666666667E+009;1.777538061141968E-001;-5.827599391341209E-002;1.989432843402028E-003;1.629820209927857E-003;
2.416833333333334E+009;1.773408800363541E-001;-5.860954150557518E-002;2.013333374634385E-003;1.560571952722967E-003;
2.417000000000000E+009;1.764992773532867E-001;-5.867482349276543E-002;2.096964744850993E-003;1.454882905818522E-003;
2.417166666666667E+009;1.757559627294540E-001;-5.891579389572144E-002;2.119567478075624E-003;1.584505080245435E-003;
2.417333333333334E+009;1.752047240734100E-001;-5.901444330811501E-002;2.325412817299366E-003;1.503253704868257E-003;
2.417500000000000E+009;1.742786616086960E-001;-5.953812599182129E-002;2.378050703555346E-003;1.433570170775056E-003;
2.417666666666667E+009;1.734244525432587E-001;-5.964799597859383E-002;2.481207717210054E-003;1.315649133175612E-003;
2.417833333333334E+009;1.722833812236786E-001;-6.010000035166740E-002;2.380695194005966E-003;1.126009738072753E-003;
2.418000000000000E+009;1.711594313383102E-001;-6.053688004612923E-002;2.456353046000004E-003;1.237081480212510E-003;
2.418166666666667E+009;1.701243370771408E-001;-6.086573377251625E-002;2.462708391249180E-003;9.867140324786305E-004;
2.418333333333334E+009;1.691777855157852E-001;-6.142167374491692E-002;2.486886456608772E-003;8.606089977547526E-004;
2.418500000000000E+009;1.679497808218002E-001;-6.203075870871544E-002;2.704118145629764E-003;9.308209992013872E-004;
2.418666666666667E+009;1.667748838663101E-001;-6.270766258239746E-002;2.573304576799274E-003;8.644575718790293E-004;
2.418833333333334E+009;1.652807444334030E-001;-6.348032504320145E-002;2.567259594798088E-003;6.643843371421099E-004;
2.419000000000000E+009;1.640282422304153E-001;-6.426514685153961E-002;2.501789247617126E-003;5.669591482728720E-004;
2.419166666666667E+009;1.627448201179504E-001;-6.515059620141983E-002;2.701062709093094E-003;6.106680957600474E-004;
2.419333333333334E+009;1.614876389503479E-001;-6.594102829694748E-002;2.559756627306342E-003;3.826480533462018E-004;
2.419500000000000E+009;1.601398885250092E-001;-6.715094298124313E-002;2.401894191280007E-003;4.209971521049738E-004;
2.419666666666667E+009;1.590865254402161E-001;-6.830767542123795E-002;2.519915811717510E-003;2.482263953424990E-004;
2.419833333333334E+009;1.577454209327698E-001;-6.937693804502487E-002;2.597568323835731E-003;3.117817977908999E-004;
2.420000000000000E+009;1.567376255989075E-001;-7.061410695314407E-002;2.574233338236809E-003;2.355882315896452E-004;
2.420166666666667E+009;1.557515114545822E-001;-7.189660519361496E-002;2.544637769460678E-003;-1.689859709586017E-005;
2.420333333333334E+009;1.547856181859970E-001;-7.338535785675049E-002;2.563595306128264E-003;-6.121997284935787E-005;
2.420500000000000E+009;1.538473665714264E-001;-7.469406723976135E-002;2.511119702830911E-003;-3.971577461925335E-005;
2.420666666666667E+009;1.528094857931137E-001;-7.612963020801544E-002;2.552214078605175E-003;-1.184294378617778E-004;
2.420833333333334E+009;1.521816700696945E-001;-7.779537886381149E-002;2.505148528143764E-003;-1.969532313523814E-004;
2.421000000000000E+009;1.514448672533035E-001;-7.948860526084900E-002;2.471861196681857E-003;-3.656471089925617E-004;
2.421166666666667E+009;1.509575098752976E-001;-8.106988668441773E-002;2.541260560974479E-003;-4.559332446660847E-004;
2.421333333333334E+009;1.504266560077667E-001;-8.273255825042725E-002;2.311133313924074E-003;-4.042752843815833E-004;
2.421500000000000E+009;1.497157663106918E-001;-8.429159224033356E-002;2.355874748900533E-003;-4.508349520619959E-004;
2.421666666666667E+009;1.495414376258850E-001;-8.613748848438263E-002;2.393719973042607E-003;-7.275063544511795E-004;
2.421833333333334E+009;1.494093090295792E-001;-8.758416771888733E-002;2.237859647721052E-003;-5.869597080163658E-004;
2.422000000000000E+009;1.492266803979874E-001;-8.941519260406494E-002;2.292340621352196E-003;-6.553945713676512E-004;
2.422166666666667E+009;1.490741074085236E-001;-9.107545763254166E-002;2.241111593320966E-003;-5.001708050258458E-004;
2.422333333333334E+009;1.491827815771103E-001;-9.278456121683121E-002;2.244476228952408E-003;-6.660210783593357E-004;
2.422500000000000E+009;1.492899507284164E-001;-9.442751109600067E-002;2.007881645113230E-003;-8.148729102686048E-004;
2.422666666666667E+009;1.493669450283051E-001;-9.614316374063492E-002;2.066993387416005E-003;-8.196972194127739E-004;
2.422833333333334E+009;1.496857702732086E-001;-9.761651605367661E-002;2.014751313254237E-003;-8.768314728513360E-004;
2.423000000000000E+009;1.498567610979080E-001;-9.920917451381683E-002;2.015036530792713E-003;-1.006045611575246E-003;
2.423166666666667E+009;1.502884030342102E-001;-1.008922681212425E-001;2.066909102723002E-003;-8.305158116854727E-004;
2.423333333333334E+009;1.508841216564179E-001;-1.021002009510994E-001;1.880569616332650E-003;-9.027055348269641E-004;
2.423500000000000E+009;1.512938737869263E-001;-1.035853102803230E-001;1.832612440921366E-003;-9.499873849563301E-004;
2.423666666666667E+009;1.515458971261978E-001;-1.049205139279366E-001;1.728168223053217E-003;-9.461259469389916E-004;
2.423833333333334E+009;1.523010581731796E-001;-1.062822937965393E-001;1.837941934354603E-003;-1.089624594897032E-003;
2.424000000000000E+009;1.527626216411591E-001;-1.072714105248451E-001;1.934646745212376E-003;-9.655519388616085E-004;
2.424166666666667E+009;1.532303839921951E-001;-1.084844470024109E-001;1.796574797481298E-003;-9.859720012173057E-004;
2.424333333333334E+009;1.539393365383148E-001;-1.094794645905495E-001;1.802332815714181E-003;-1.041889307089150E-003;
2.424500000000000E+009;1.544975191354752E-001;-1.104734018445015E-001;1.785527216270566E-003;-1.081751310266554E-003;
2.424666666666667E+009;1.550585478544235E-001;-1.111482605338097E-001;1.805805135518313E-003;-1.018197392113507E-003;
2.424833333333334E+009;1.553593724966049E-001;-1.120230481028557E-001;1.797757693566382E-003;-1.037264592014253E-003;
2.425000000000000E+009;1.560149192810059E-001;-1.129265129566193E-001;1.791376736946404E-003;-9.817951358854771E-004;
2.425166666666667E+009;1.561402380466461E-001;-1.135348901152611E-001;1.946043223142624E-003;-1.113001606427133E-003;
2.425333333333334E+009;1.565665304660797E-001;-1.138821318745613E-001;1.768304617144167E-003;-1.198966987431049E-003;
2.425500000000000E+009;1.568944603204727E-001;-1.145095899701119E-001;1.794885378330946E-003;-1.233194838277996E-003;
2.425666666666667E+009;1.568612754344940E-001;-1.149111464619637E-001;1.817812211811543E-003;-1.136059523560107E-003;
2.425833333333334E+009;1.571979522705078E-001;-1.153243780136108E-001;1.796800177544355E-003;-1.368624856695533E-003;
2.426000000000000E+009;1.571662873029709E-001;-1.157925426959992E-001;1.939514069817960E-003;-1.248347805812955E-003;
2.426166666666667E+009;1.574840843677521E-001;-1.159976646304131E-001;1.779316109605134E-003;-1.259783166460693E-003;
2.426333333333334E+009;1.571821123361588E-001;-1.161344423890114E-001;1.995412632822990E-003;-1.368607045151293E-003;
2.426500000000000E+009;1.570589989423752E-001;-1.163319945335388E-001;1.748918555676937E-003;-1.448816270567477E-003;
2.426666666666667E+009;1.569310277700424E-001;-1.163502186536789E-001;1.833481597714126E-003;-1.530640874989331E-003;
2.426833333333334E+009;1.564970761537552E-001;-1.164699420332909E-001;1.903658034279943E-003;-1.617827685549855E-003;
2.427000000000000E+009;1.559905111789703E-001;-1.167403161525726E-001;1.705596456304193E-003;-1.632464467547834E-003;
2.427166666666667E+009;1.553589254617691E-001;-1.166295334696770E-001;1.804275787435472E-003;-1.540374243631959E-003;
2.427333333333334E+009;1.547035127878189E-001;-1.167987361550331E-001;1.829010667279363E-003;-1.847651437856257E-003;
2.427500000000000E+009;1.540989726781845E-001;-1.169453561306000E-001;1.756719662807882E-003;-1.811048481613398E-003;
2.427666666666667E+009;1.531248986721039E-001;-1.171819716691971E-001;1.726401736959815E-003;-1.834684400819242E-003;
2.427833333333334E+009;1.520738750696182E-001;-1.173591762781143E-001;1.791675924323499E-003;-1.820519217289984E-003;
