# Version 1.00
#
freq[Hz];re:Trc1_S11;im:Trc1_S11;re:Trc2_S21;im:Trc2_S21;
2.400000000000000E+009;1.558816581964493E-001;6.030716001987457E-002;-1.972978003323078E-003;-8.272795239463449E-004;
2.400166666666667E+009;1.561351567506790E-001;5.845372378826141E-002;-2.123184967786074E-003;-9.334829519502819E-004;
2.400333333333334E+009;1.562630534172058E-001;5.641809105873108E-002;-1.953776227310300E-003;-8.396109333261848E-004;
2.400500000000000E+009;1.564362347126007E-001;5.425306037068367E-002;-2.161696786060929E-003;-7.579539669677615E-004;
2.400666666666667E+009;1.565807461738586E-001;5.216401815414429E-002;-2.125402214005590E-003;-7.296554977074266E-004;
2.400833333333334E+009;1.569852828979492E-001;5.023025721311569E-002;-2.237163251265883E-003;-6.667239940725267E-004;
2.401000000000000E+009;1.573319584131241E-001;4.824713245034218E-002;-2.283260226249695E-003;-5.753549630753696E-004;
2.401166666666667E+009;1.578129380941391E-001;4.592221230268478E-002;-2.295897807925940E-003;-5.353518645279110E-004;
2.401333333333334E+009;1.583053469657898E-001;4.374643042683601E-002;-2.240299247205257E-003;-5.931168561801314E-004;
2.401500000000000E+009;1.589118838310242E-001;4.185048863291740E-002;-2.430444816127420E-003;-5.950019112788141E-004;
2.401666666666667E+009;1.595345288515091E-001;3.992823883891106E-002;-2.380062593147159E-003;-2.656885772012174E-004;
2.401833333333334E+009;1.602390706539154E-001;3.792821988463402E-002;-2.512846840545535E-003;-4.598414234351367E-004;
2.402000000000000E+009;1.607804447412491E-001;3.613932430744171E-002;-2.679054392501712E-003;-4.905213136225939E-004;
2.402166666666667E+009;1.613593995571137E-001;3.421835601329804E-002;-2.526070224121213E-003;-1.246405154233798E-004;
2.402333333333334E+009;1.622674614191055E-001;3.246530145406723E-002;-2.770847873762250E-003;-2.274472499266267E-004;
2.402500000000000E+009;1.633748561143875E-001;3.095131553709507E-002;-2.730455016717315E-003;-1.181499756057747E-004;
2.402666666666667E+009;1.640683412551880E-001;2.918985486030579E-002;-2.740621566772461E-003;-1.000762640614994E-004;
2.402833333333334E+009;1.652025878429413E-001;2.774694003164768E-002;-2.820630325004458E-003;2.085394953610376E-004;
2.403000000000000E+009;1.658822298049927E-001;2.628717385232449E-002;-2.819722983986139E-003;-1.823938987399743E-006;
2.403166666666667E+009;1.669524013996124E-001;2.491869591176510E-002;-2.820994239300489E-003;5.227756264503114E-005;
2.403333333333334E+009;1.680750548839569E-001;2.384391054511070E-002;-2.825508359819651E-003;3.635920293163508E-004;
2.403500000000000E+009;1.689050197601318E-001;2.259846776723862E-002;-3.068068297579885E-003;3.931059618480504E-004;
2.403666666666667E+009;1.698596924543381E-001;2.145688794553280E-002;-2.907907124608755E-003;4.390359681565315E-004;
2.403833333333334E+009;1.708558499813080E-001;2.047822251915932E-002;-2.887493465095758E-003;8.087168098427355E-004;
2.404000000000000E+009;1.718638986349106E-001;1.965742744505405E-002;-2.898129867389798E-003;7.803075714036822E-004;
2.404166666666667E+009;1.727151125669479E-001;1.879909448325634E-002;-2.876361133530736E-003;8.817553170956671E-004;
2.404333333333334E+009;1.736848801374435E-001;1.809847168624401E-002;-2.973348833620548E-003;1.152803888544440E-003;
2.404500000000000E+009;1.744673401117325E-001;1.721079088747501E-002;-3.003980498760939E-003;1.284642610698938E-003;
2.404666666666667E+009;1.751328706741333E-001;1.667817868292332E-002;-2.728420775383711E-003;1.340870279818773E-003;
2.404833333333334E+009;1.760890632867813E-001;1.608259603381157E-002;-2.846003975719214E-003;1.577013637870550E-003;
2.405000000000000E+009;1.768367588520050E-001;1.566136442124844E-002;-2.822346286848187E-003;1.576176029630005E-003;
2.405166666666667E+009;1.773627251386643E-001;1.513077877461910E-002;-2.595195313915610E-003;1.774200820364058E-003;
2.405333333333334E+009;1.779987066984177E-001;1.466881576925516E-002;-2.476173220202327E-003;1.848851563408971E-003;
2.405500000000000E+009;1.785650253295898E-001;1.438649836927652E-002;-2.584512345492840E-003;2.002168912440538E-003;
2.405666666666667E+009;1.789168268442154E-001;1.414670422673225E-002;-2.509563229978085E-003;1.990153919905424E-003;
2.405833333333334E+009;1.791057437658310E-001;1.389461755752564E-002;-2.325884765014052E-003;2.165484707802534E-003;
2.406000000000000E+009;1.795823127031326E-001;1.345895603299141E-002;-2.313541248440743E-003;2.253023209050298E-003;
2.406166666666667E+009;1.795764863491058E-001;1.343238074332476E-002;-2.271323930472136E-003;2.313646720722318E-003;
2.406333333333334E+009;1.798649877309799E-001;1.308784168213606E-002;-2.213559579104185E-003;2.418964402750135E-003;
2.406500000000000E+009;1.797853857278824E-001;1.275706198066473E-002;-1.954514533281326E-003;2.571627032011747E-003;
2.406666666666667E+009;1.796055287122726E-001;1.257454697042704E-002;-1.865676254965365E-003;2.614191500470042E-003;
2.406833333333334E+009;1.796761006116867E-001;1.223015505820513E-002;-1.747050089761615E-003;2.696346025913954E-003;
2.407000000000000E+009;1.794296205043793E-001;1.170442346483469E-002;-1.768869697116315E-003;2.841365523636341E-003;
2.407166666666667E+009;1.793355196714401E-001;1.146013196557760E-002;-1.569852116517723E-003;2.660975325852633E-003;
2.407333333333334E+009;1.789091974496841E-001;1.087861880660057E-002;-1.411438221111894E-003;2.786809112876654E-003;
2.407500000000000E+009;1.785716414451599E-001;1.022595912218094E-002;-1.233216375112534E-003;2.697017043828964E-003;
2.407666666666667E+009;1.780921816825867E-001;9.812423959374428E-003;-1.124851522035897E-003;2.824137220159173E-003;
2.407833333333334E+009;1.773585528135300E-001;8.973647840321064E-003;-1.116408151574433E-003;2.747495425865054E-003;
2.408000000000000E+009;1.768788695335388E-001;8.124737069010735E-003;-8.887428557500243E-004;2.848805626854301E-003;
2.408166666666667E+009;1.762953400611877E-001;7.377685979008675E-003;-9.148714598268271E-004;2.758872928097844E-003;
2.408333333333334E+009;1.758508086204529E-001;6.338430568575859E-003;-8.186764316633344E-004;2.841604407876730E-003;
2.408500000000000E+009;1.750642359256744E-001;5.475165788084269E-003;-6.237301859073341E-004;2.683721715584397E-003;
2.408666666666667E+009;1.744061559438705E-001;4.242199007421732E-003;-7.112898165360093E-004;2.858987078070641E-003;
2.408833333333334E+009;1.736804544925690E-001;2.965630264952779E-003;-5.721217603422701E-004;2.597495680674911E-003;
2.409000000000000E+009;1.727985590696335E-001;1.703644986264408E-003;-5.301582277752459E-004;2.696711104363203E-003;
2.409166666666667E+009;1.722246855497360E-001;3.693621256388724E-004;-3.897321585100144E-004;2.660667290911079E-003;
2.409333333333334E+009;1.716321557760239E-001;-1.024286146275699E-003;-3.236545890104026E-004;2.705170772969723E-003;
2.409500000000000E+009;1.709445863962174E-001;-2.781611867249012E-003;-2.314267476322129E-004;2.712823683395982E-003;
2.409666666666667E+009;1.702807694673538E-001;-4.333646502345800E-003;-2.382054808549583E-004;2.807389246299863E-003;
2.409833333333334E+009;1.697411835193634E-001;-5.842947401106358E-003;-2.865312271751463E-004;2.618678146973252E-003;
2.410000000000000E+009;1.692758649587631E-001;-7.554477546364069E-003;-7.243559230118990E-005;2.723927376791835E-003;
2.410166666666667E+009;1.686740517616272E-001;-9.418468922376633E-003;7.928194099804387E-005;2.715146634727716E-003;
2.410333333333334E+009;1.682467907667160E-001;-1.123408507555723E-002;1.290152722503990E-004;2.654104493558407E-003;
2.410500000000000E+009;1.679837405681610E-001;-1.311034057289362E-002;2.071819180855528E-004;2.590864431113005E-003;
2.410666666666667E+009;1.674804240465164E-001;-1.515695918351412E-002;3.131023258902133E-004;2.633636351674795E-003;
2.410833333333334E+009;1.673845648765564E-001;-1.684131845831871E-002;3.181873762514442E-004;2.723428653553128E-003;
2.411000000000000E+009;1.673186421394348E-001;-1.886479370296001E-002;3.117057494819164E-004;2.582118846476078E-003;
2.411166666666667E+009;1.671093851327896E-001;-2.108450606465340E-002;4.782288160640746E-004;2.442556200549007E-003;
2.411333333333334E+009;1.670852303504944E-001;-2.286002226173878E-002;4.854267172049731E-004;2.552693942561746E-003;
2.411500000000000E+009;1.672394871711731E-001;-2.499832399189472E-002;6.620116182602942E-004;2.517163753509522E-003;
2.411666666666667E+009;1.674942970275879E-001;-2.687561698257923E-002;5.966844619251788E-004;2.471081912517548E-003;
2.411833333333334E+009;1.676512658596039E-001;-2.879598177969456E-002;7.183640263974667E-004;2.367067150771618E-003;
2.412000000000000E+009;1.679628044366837E-001;-3.070030361413956E-002;6.805575103498995E-004;2.332272473722696E-003;
2.412166666666667E+009;1.682866066694260E-001;-3.260994330048561E-002;6.778094102628529E-004;2.400981495156884E-003;
2.412333333333334E+009;1.688546091318131E-001;-3.443174809217453E-002;8.165714680217207E-004;2.330677118152380E-003;
2.412500000000000E+009;1.691672652959824E-001;-3.622724860906601E-002;9.024542523548007E-004;2.206419594585896E-003;
2.412666666666667E+009;1.697070002555847E-001;-3.823168575763702E-002;9.998813038691878E-004;2.243811730295420E-003;
2.412833333333334E+009;1.703852713108063E-001;-3.986411914229393E-002;9.876450058072805E-004;2.184835961088538E-003;
2.413000000000000E+009;1.709069162607193E-001;-4.134804755449295E-002;1.069172169081867E-003;2.257392276078463E-003;
2.413166666666667E+009;1.716442704200745E-001;-4.293439164757729E-002;1.091671641916037E-003;2.100795507431030E-003;
2.413333333333334E+009;1.720102727413178E-001;-4.439503699541092E-002;9.673384483903647E-004;1.901105395518243E-003;
2.413500000000000E+009;1.728606969118118E-001;-4.587709903717041E-002;1.094857463613153E-003;2.184604294598103E-003;
2.413666666666667E+009;1.734281331300736E-001;-4.733082652091980E-002;1.195985358208418E-003;1.989381620660424E-003;
2.413833333333334E+009;1.740396469831467E-001;-4.845629259943962E-002;1.040346338413656E-003;1.962494570761919E-003;
2.414000000000000E+009;1.745634675025940E-001;-4.970904067158699E-002;1.138947904109955E-003;1.985890790820122E-003;
2.414166666666667E+009;1.753083169460297E-001;-5.076852068305016E-002;1.307647093199194E-003;1.955334097146988E-003;
2.414333333333334E+009;1.759903579950333E-001;-5.173292383551598E-002;1.241728081367910E-003;1.877963892184198E-003;
2.414500000000000E+009;1.766842901706696E-001;-5.257822200655937E-002;1.382689457386732E-003;1.800593454390764E-003;
2.414666666666667E+009;1.770697236061096E-001;-5.332542955875397E-002;1.321094692684710E-003;1.916250446811318E-003;
2.414833333333334E+009;1.773772090673447E-001;-5.413815751671791E-002;1.550105633214116E-003;1.898280112072825E-003;
2.415000000000000E+009;1.779264956712723E-001;-5.479058995842934E-002;1.571049913764000E-003;1.848402433097363E-003;
2.415166666666667E+009;1.783165335655212E-001;-5.538274720311165E-002;1.426951494067907E-003;1.746543333865702E-003;
2.415333333333334E+009;1.786132454872131E-001;-5.591186136007309E-002;1.656988635659218E-003;1.788022927939892E-003;
2.415500000000000E+009;1.787716895341873E-001;-5.626366287469864E-002;1.592584187164903E-003;1.694342005066574E-003;
2.415666666666667E+009;1.789377778768539E-001;-5.649676173925400E-002;1.584064913913608E-003;1.583911012858152E-003;
2.415833333333334E+009;1.788723319768906E-001;-5.705230683088303E-002;1.687471638433635E-003;1.642483635805547E-003;
2.416000000000000E+009;1.787817031145096E-001;-5.722570046782494E-002;1.868753577582538E-003;1.694868551567197E-003;
2.416166666666667E+009;1.788772642612457E-001;-5.757336318492889E-002;1.797411008737981E-003;1.687239389866591E-003;
2.416333333333334E+009;1.786013543605804E-001;-5.782753601670265E-002;1.814306364394724E-003;1.647970406338573E-003;
2.416500000000000E+009;1.782078295946121E-001;-5.801451951265335E-002;1.888134749606252E-003;1.706205890513957E-003;
2.416666666666667E+009;1.777491569519043E-001;-5.816498398780823E-002;1.979511231184006E-003;1.555722206830978E-003;
2.416833333333334E+009;1.773256063461304E-001;-5.855568498373032E-002;2.042691921815276E-003;1.626828568987548E-003;
2.417000000000000E+009;1.765137165784836E-001;-5.865419283509255E-002;2.221098402515054E-003;1.406577415764332E-003;
2.417166666666667E+009;1.760335713624954E-001;-5.890423804521561E-002;2.194042783230543E-003;1.584492740221322E-003;
2.417333333333334E+009;1.751602739095688E-001;-5.909670889377594E-002;2.319723600521684E-003;1.428159885108471E-003;
2.417500000000000E+009;1.742294281721115E-001;-5.944720655679703E-002;2.396872267127037E-003;1.376478467136622E-003;
2.417666666666667E+009;1.734658181667328E-001;-5.957412347197533E-002;2.325046807527542E-003;1.220868667587638E-003;
2.417833333333334E+009;1.724514961242676E-001;-6.002805009484291E-002;2.396456664428115E-003;1.194046693854034E-003;
2.418000000000000E+009;1.711911857128143E-001;-6.061285361647606E-002;2.409485634416342E-003;1.180267776362598E-003;
2.418166666666667E+009;1.701575070619583E-001;-6.091315299272537E-002;2.515125088393688E-003;1.113141770474613E-003;
2.418333333333334E+009;1.691880226135254E-001;-6.156634539365768E-002;2.576281316578388E-003;1.043388037942350E-003;
2.418500000000000E+009;1.677891761064529E-001;-6.204368546605110E-002;2.509382553398609E-003;7.565616397187114E-004;
2.418666666666667E+009;1.667823791503906E-001;-6.271963566541672E-002;2.542164642363787E-003;6.905842456035316E-004;
2.418833333333334E+009;1.652766466140747E-001;-6.338576227426529E-002;2.670780057087541E-003;7.820614264346659E-004;
2.419000000000000E+009;1.639502197504044E-001;-6.424854695796967E-002;2.643650397658348E-003;6.007804768159986E-004;
2.419166666666667E+009;1.627454757690430E-001;-6.519351154565811E-002;2.650631358847022E-003;5.967503529973328E-004;
2.419333333333334E+009;1.612589508295059E-001;-6.594196707010269E-002;2.609525807201862E-003;5.174737307243049E-004;
2.419500000000000E+009;1.601134389638901E-001;-6.718704849481583E-002;2.682217163965106E-003;2.280647604493424E-004;
2.419666666666667E+009;1.590113937854767E-001;-6.835164874792099E-002;2.607548376545310E-003;3.161336644552648E-004;
2.419833333333334E+009;1.577827632427216E-001;-6.936682015657425E-002;2.602238673716784E-003;1.520264049759135E-004;
2.420000000000000E+009;1.568076759576798E-001;-7.065650075674057E-002;2.563743386417627E-003;1.282389275729656E-004;
2.420166666666667E+009;1.556875109672546E-001;-7.194112241268158E-002;2.595538273453713E-003;1.663260482018814E-004;
2.420333333333334E+009;1.547367125749588E-001;-7.349420338869095E-002;2.537180669605732E-003;6.824624870205298E-005;
2.420500000000000E+009;1.537383645772934E-001;-7.469929754734039E-002;2.556493040174246E-003;-1.580805692356080E-004;
2.420666666666667E+009;1.529735773801804E-001;-7.627187669277191E-002;2.542320871725678E-003;-2.584192261565477E-004;
2.420833333333334E+009;1.521332710981369E-001;-7.784026116132736E-002;2.559853950515389E-003;-2.649492234922946E-004;
2.421000000000000E+009;1.512269675731659E-001;-7.959814369678497E-002;2.512486418709159E-003;-3.127026138827205E-004;
2.421166666666667E+009;1.506713181734085E-001;-8.103460073471069E-002;2.345903543755412E-003;-3.876178525388241E-004;
2.421333333333334E+009;1.504303216934204E-001;-8.268325775861740E-002;2.479469170793891E-003;-4.141054232604802E-004;
2.421500000000000E+009;1.498383432626724E-001;-8.429046720266342E-002;2.513572806492448E-003;-5.388305289670825E-004;
2.421666666666667E+009;1.495854258537293E-001;-8.609188348054886E-002;2.316004829481244E-003;-4.827312368433923E-004;
2.421833333333334E+009;1.491739004850388E-001;-8.788783848285675E-002;2.417176263406873E-003;-7.040909258648753E-004;
2.422000000000000E+009;1.491053402423859E-001;-8.956357091665268E-002;2.362308558076620E-003;-6.673830794170499E-004;
2.422166666666667E+009;1.489886343479157E-001;-9.119813144207001E-002;2.223634161055088E-003;-7.487644907087088E-004;
2.422333333333334E+009;1.490773111581802E-001;-9.281647205352783E-002;2.241237554699183E-003;-8.011175086721778E-004;
2.422500000000000E+009;1.490150690078735E-001;-9.439927339553833E-002;2.289818366989493E-003;-6.783842109143734E-004;
2.422666666666667E+009;1.492745876312256E-001;-9.622169286012650E-002;2.181845484301448E-003;-8.268671226687729E-004;
2.422833333333334E+009;1.495724320411682E-001;-9.772071242332459E-002;2.069968497380614E-003;-7.730860961601138E-004;
2.423000000000000E+009;1.497832834720612E-001;-9.937836974859238E-002;2.036390360444784E-003;-8.068193565122783E-004;
2.423166666666667E+009;1.503456681966782E-001;-1.008740589022636E-001;2.012941753491759E-003;-7.805064669810236E-004;
2.423333333333334E+009;1.508508622646332E-001;-1.021064817905426E-001;1.929382444359362E-003;-9.528267546556890E-004;
2.423500000000000E+009;1.512912511825562E-001;-1.035662367939949E-001;2.087305765599012E-003;-9.176189196296036E-004;
2.423666666666667E+009;1.514952629804611E-001;-1.049675866961479E-001;1.891602179966867E-003;-9.904912440106273E-004;
2.423833333333334E+009;1.522861868143082E-001;-1.062129363417625E-001;1.939624198712409E-003;-1.023074844852090E-003;
2.424000000000000E+009;1.527925431728363E-001;-1.073435693979263E-001;1.806457876227796E-003;-9.764383430592716E-004;
2.424166666666667E+009;1.533462405204773E-001;-1.085840389132500E-001;1.835423288866878E-003;-9.039737633429468E-004;
2.424333333333334E+009;1.538745462894440E-001;-1.093446686863899E-001;1.861628377810121E-003;-1.093644532375038E-003;
2.424500000000000E+009;1.544214040040970E-001;-1.104602739214897E-001;1.783750019967556E-003;-8.653347031213343E-004;
2.424666666666667E+009;1.550132632255554E-001;-1.111487150192261E-001;1.881282893009484E-003;-1.045154756866396E-003;
2.424833333333334E+009;1.552844643592835E-001;-1.120540052652359E-001;1.870665582828224E-003;-9.643149678595364E-004;
2.425000000000000E+009;1.559308022260666E-001;-1.127946451306343E-001;1.797801232896745E-003;-1.037778449244797E-003;
2.425166666666667E+009;1.562704592943192E-001;-1.134578660130501E-001;1.684309681877494E-003;-1.099983463063836E-003;
2.425333333333334E+009;1.566081345081329E-001;-1.140770614147186E-001;1.745196641422808E-003;-1.012425986118615E-003;
2.425500000000000E+009;1.569630056619644E-001;-1.145885735750198E-001;1.743563101626933E-003;-1.177837140858173E-003;
2.425666666666667E+009;1.569506525993347E-001;-1.149954274296761E-001;1.642180141061544E-003;-1.205080538056791E-003;
2.425833333333334E+009;1.572256833314896E-001;-1.153037101030350E-001;1.701703527942300E-003;-1.314851222559810E-003;
2.426000000000000E+009;1.572571694850922E-001;-1.157679781317711E-001;1.806644955649972E-003;-1.184842083603144E-003;
2.426166666666667E+009;1.573801785707474E-001;-1.160241290926933E-001;1.801100326701999E-003;-1.355026382952929E-003;
2.426333333333334E+009;1.572762876749039E-001;-1.161893680691719E-001;1.921285176649690E-003;-1.337586785666645E-003;
2.426500000000000E+009;1.571151763200760E-001;-1.162786930799484E-001;1.789149479009211E-003;-1.296033966355026E-003;
2.426666666666667E+009;1.569783389568329E-001;-1.163384318351746E-001;1.863729557953775E-003;-1.518890727311373E-003;
2.426833333333334E+009;1.564484387636185E-001;-1.166116744279862E-001;1.797913806512952E-003;-1.430102507583797E-003;
2.427000000000000E+009;1.560053229331970E-001;-1.167564392089844E-001;1.734420657157898E-003;-1.648970181122422E-003;
2.427166666666667E+009;1.554136127233505E-001;-1.166931539773941E-001;1.596775371581316E-003;-1.643052557483316E-003;
2.427333333333334E+009;1.547077596187592E-001;-1.169216781854630E-001;1.766065484844148E-003;-1.666693715378642E-003;
2.427500000000000E+009;1.541367471218109E-001;-1.169673427939415E-001;1.709870062768459E-003;-1.773960655555129E-003;
2.427666666666667E+009;1.530265212059021E-001;-1.171622127294540E-001;1.837773947045207E-003;-1.837319578044117E-003;
2.427833333333334E+009;1.520929187536240E-001;-1.172454729676247E-001;1.781648141331971E-003;-1.863258192315698E-003;
