# Version 1.00
#
freq[Hz];re:Trc1_S11;im:Trc1_S11;re:Trc2_S21;im:Trc2_S21;
2.400000000000000E+009;1.567807793617249E-001;1.057138666510582E-001;1.534811221063137E-003;4.774347878992558E-003;
2.400166666666667E+009;1.566258072853088E-001;1.036253422498703E-001;1.659514033235610E-003;4.467220511287451E-003;
2.400333333333334E+009;1.571172177791596E-001;1.014018952846527E-001;1.802878570742905E-003;4.150429740548134E-003;
2.400500000000000E+009;1.571287810802460E-001;9.887709468603134E-002;1.723140943795443E-003;3.713171230629087E-003;
2.400666666666667E+009;1.575232595205307E-001;9.665616601705551E-002;1.609288854524493E-003;3.556193783879280E-003;
2.400833333333334E+009;1.576286256313324E-001;9.387625008821487E-002;1.682909554801881E-003;3.243878250941634E-003;
2.401000000000000E+009;1.580304950475693E-001;9.134525060653687E-002;1.470225863158703E-003;3.026894526556134E-003;
2.401166666666667E+009;1.582849323749542E-001;8.869419246912003E-002;1.328590908087790E-003;2.807219279929996E-003;
2.401333333333334E+009;1.588397473096848E-001;8.622228354215622E-002;1.191118615679443E-003;2.686682390049100E-003;
2.401500000000000E+009;1.594266742467880E-001;8.347736299037933E-002;9.198660263791680E-004;2.568599535152316E-003;
2.401666666666667E+009;1.597996652126312E-001;8.084782212972641E-002;6.987761007621884E-004;2.581216162070632E-003;
2.401833333333334E+009;1.604096442461014E-001;7.840916514396668E-002;5.497488309629262E-004;2.836894942447543E-003;
2.402000000000000E+009;1.614050418138504E-001;7.575052231550217E-002;2.009417221415788E-004;2.733544679358602E-003;
2.402166666666667E+009;1.621382534503937E-001;7.341277599334717E-002;1.988572912523523E-004;2.966589992865920E-003;
2.402333333333334E+009;1.631859838962555E-001;7.074071466922760E-002;5.952445280854590E-005;3.043536096811295E-003;
2.402500000000000E+009;1.642389148473740E-001;6.855452805757523E-002;2.916947232733946E-005;3.180773928761482E-003;
2.402666666666667E+009;1.652474105358124E-001;6.628973037004471E-002;9.945675265043974E-005;3.324648598209024E-003;
2.402833333333334E+009;1.662658452987671E-001;6.411349028348923E-002;2.075986849376932E-004;3.505068598315120E-003;
2.403000000000000E+009;1.676836460828781E-001;6.195112317800522E-002;1.505907275713980E-004;3.768802387639880E-003;
2.403166666666667E+009;1.691896021366119E-001;5.991900339722633E-002;3.443357127252966E-004;3.921820316463709E-003;
2.403333333333334E+009;1.705937981605530E-001;5.786262825131416E-002;5.962943541817367E-004;4.076128825545311E-003;
2.403500000000000E+009;1.719628274440765E-001;5.583851411938667E-002;7.500806241296232E-004;3.985682502388954E-003;
2.403666666666667E+009;1.737643331289291E-001;5.402809381484985E-002;8.041313849389553E-004;3.986212424933910E-003;
2.403833333333334E+009;1.749970614910126E-001;5.222107842564583E-002;1.057406770996749E-003;4.248762037605047E-003;
2.404000000000000E+009;1.762443333864212E-001;5.053631588816643E-002;1.256837625987828E-003;4.281347617506981E-003;
2.404166666666667E+009;1.776807457208633E-001;4.917375743389130E-002;1.366713782772422E-003;4.161026794463396E-003;
2.404333333333334E+009;1.792781203985214E-001;4.762571677565575E-002;1.473434269428253E-003;4.266263451427221E-003;
2.404500000000000E+009;1.806439161300659E-001;4.601636156439781E-002;1.760693616233766E-003;4.406638443470001E-003;
2.404666666666667E+009;1.819818615913391E-001;4.497384279966354E-002;1.737853162921965E-003;4.216661211103201E-003;
2.404833333333334E+009;1.833562552928925E-001;4.391610994935036E-002;1.990433782339096E-003;4.357280209660530E-003;
2.405000000000000E+009;1.844866573810577E-001;4.312903061509132E-002;2.195666311308742E-003;4.236836917698383E-003;
2.405166666666667E+009;1.856577843427658E-001;4.245856404304504E-002;2.234045648947358E-003;4.376825876533985E-003;
2.405333333333334E+009;1.868617087602615E-001;4.177107661962509E-002;2.379954094067216E-003;4.264662973582745E-003;
2.405500000000000E+009;1.879545301198959E-001;4.113191366195679E-002;2.771262312307954E-003;4.174991976469755E-003;
2.405666666666667E+009;1.890715956687927E-001;4.073199629783630E-002;2.876607934013009E-003;4.071684554219246E-003;
2.405833333333334E+009;1.901162266731262E-001;4.011033847928047E-002;3.119295230135322E-003;4.158008843660355E-003;
2.406000000000000E+009;1.909475475549698E-001;3.993164375424385E-002;3.263270249590278E-003;4.048488568514586E-003;
2.406166666666667E+009;1.917851567268372E-001;3.957485407590866E-002;3.471721895039082E-003;4.021042026579380E-003;
2.406333333333334E+009;1.925294101238251E-001;3.950443863868713E-002;3.636777633801103E-003;3.929746802896261E-003;
2.406500000000000E+009;1.932051777839661E-001;3.915582597255707E-002;3.809125628322363E-003;3.783178050071001E-003;
2.406666666666667E+009;1.936190575361252E-001;3.902249783277512E-002;4.112416878342629E-003;3.755893791094422E-003;
2.406833333333334E+009;1.941147446632385E-001;3.888345882296562E-002;4.131485242396593E-003;3.611624473705888E-003;
2.407000000000000E+009;1.943041384220123E-001;3.882016241550446E-002;4.322314169257879E-003;3.478661645203829E-003;
2.407166666666667E+009;1.946878582239151E-001;3.843573480844498E-002;4.473090171813965E-003;3.447527997195721E-003;
2.407333333333334E+009;1.946225017309189E-001;3.848324343562126E-002;4.827425815165043E-003;3.134546335786581E-003;
2.407500000000000E+009;1.945215016603470E-001;3.818285465240479E-002;5.051268730312586E-003;2.973445923998952E-003;
2.407666666666667E+009;1.946046799421310E-001;3.790499269962311E-002;5.094625055789948E-003;2.668121829628944E-003;
2.407833333333334E+009;1.941186189651489E-001;3.758148476481438E-002;5.236200988292694E-003;2.598748309537768E-003;
2.408000000000000E+009;1.941127181053162E-001;3.721913322806358E-002;5.425530951470137E-003;2.388946013525128E-003;
2.408166666666667E+009;1.936371177434921E-001;3.676260635256767E-002;5.346585065126419E-003;2.026374451816082E-003;
2.408333333333334E+009;1.933992058038712E-001;3.612077236175537E-002;5.375402979552746E-003;1.889007282443345E-003;
2.408500000000000E+009;1.927593499422073E-001;3.573201224207878E-002;5.386141128838062E-003;1.827895757742226E-003;
2.408666666666667E+009;1.922891885042191E-001;3.488377854228020E-002;5.562514066696167E-003;1.497176359407604E-003;
2.408833333333334E+009;1.917962282896042E-001;3.418671712279320E-002;5.594092421233654E-003;1.255241688340902E-003;
2.409000000000000E+009;1.909636706113815E-001;3.317325562238693E-002;5.643475335091353E-003;1.193011761642993E-003;
2.409166666666667E+009;1.902854293584824E-001;3.212494775652885E-002;5.558456294238567E-003;1.034670043736696E-003;
2.409333333333334E+009;1.896265149116516E-001;3.112049959599972E-002;5.787165369838476E-003;6.958132726140320E-004;
2.409500000000000E+009;1.887027472257614E-001;2.978316880762577E-002;5.701282527297735E-003;4.967405111528933E-004;
2.409666666666667E+009;1.878178715705872E-001;2.845204621553421E-002;5.755487829446793E-003;2.835070772562176E-004;
2.409833333333334E+009;1.870936751365662E-001;2.704654447734356E-002;5.795504432171583E-003;1.834816648624837E-004;
2.410000000000000E+009;1.864907592535019E-001;2.536555752158165E-002;5.880518816411495E-003;-5.739382686442696E-005;
2.410166666666667E+009;1.855505406856537E-001;2.352056466042996E-002;5.833406466990709E-003;-2.586424816399813E-004;
2.410333333333334E+009;1.847799867391586E-001;2.201530337333679E-002;5.819837562739849E-003;-4.892753786407411E-004;
2.410500000000000E+009;1.840700060129166E-001;2.015999332070351E-002;5.801085382699966E-003;-7.315892144106329E-004;
2.410666666666667E+009;1.833625435829163E-001;1.818037964403629E-002;5.581395234912634E-003;-1.013897126540542E-003;
2.410833333333334E+009;1.830141395330429E-001;1.617485098540783E-002;5.516851320862770E-003;-1.240157056599855E-003;
2.411000000000000E+009;1.822128742933273E-001;1.405655033886433E-002;5.481323692947626E-003;-1.423132023774087E-003;
2.411166666666667E+009;1.818310171365738E-001;1.205844711512327E-002;5.297648720443249E-003;-1.589556923136115E-003;
2.411333333333334E+009;1.813963651657105E-001;9.741730988025665E-003;5.344368517398834E-003;-1.695000799372792E-003;
2.411500000000000E+009;1.812082827091217E-001;7.648578379303217E-003;5.176763981580734E-003;-1.802550745196641E-003;
2.411666666666667E+009;1.809693425893784E-001;5.590869113802910E-003;4.996335599571466E-003;-1.899621682241559E-003;
2.411833333333334E+009;1.808896809816361E-001;3.303546225652099E-003;4.986271727830172E-003;-2.036058576777577E-003;
2.412000000000000E+009;1.811386346817017E-001;1.077065942808986E-003;4.734614863991737E-003;-2.190822269767523E-003;
2.412166666666667E+009;1.811582148075104E-001;-1.136261969804764E-003;4.717672709375620E-003;-2.175527857616544E-003;
2.412333333333334E+009;1.814817488193512E-001;-3.242447273805738E-003;4.833201412111521E-003;-2.465135417878628E-003;
2.412500000000000E+009;1.818516701459885E-001;-5.435477942228317E-003;4.681555088609457E-003;-2.430627588182688E-003;
2.412666666666667E+009;1.821775585412979E-001;-7.695074658840895E-003;4.570841323584318E-003;-2.536285901442170E-003;
2.412833333333334E+009;1.829433292150497E-001;-9.868401102721691E-003;4.487446043640375E-003;-2.687602536752820E-003;
2.413000000000000E+009;1.835519075393677E-001;-1.210073474794626E-002;4.485465586185455E-003;-2.775494474917650E-003;
2.413166666666667E+009;1.841941475868225E-001;-1.390551961958408E-002;4.434232600033283E-003;-2.908638678491116E-003;
2.413333333333334E+009;1.851401180028915E-001;-1.600526459515095E-002;4.326989408582449E-003;-3.045568941161037E-003;
2.413500000000000E+009;1.859611421823502E-001;-1.807084120810032E-002;4.224434960633516E-003;-3.130757948383689E-003;
2.413666666666667E+009;1.870589852333069E-001;-2.009993977844715E-002;4.241952672600746E-003;-3.293126123026013E-003;
2.413833333333334E+009;1.879480928182602E-001;-2.190420404076576E-002;4.226133693009615E-003;-3.510743146762252E-003;
2.414000000000000E+009;1.888758540153503E-001;-2.366916649043560E-002;4.175351001322269E-003;-3.606086596846581E-003;
2.414166666666667E+009;1.900734305381775E-001;-2.535252831876278E-002;4.157772287726402E-003;-3.713003825396299E-003;
2.414333333333334E+009;1.908238232135773E-001;-2.727078460156918E-002;3.776998491957784E-003;-3.939922433346510E-003;
2.414500000000000E+009;1.920241117477417E-001;-2.862365357577801E-002;3.843579906970263E-003;-4.224625881761313E-003;
2.414666666666667E+009;1.929771751165390E-001;-3.010760806500912E-002;3.597248112782836E-003;-4.242355469614267E-003;
2.414833333333334E+009;1.939452141523361E-001;-3.145445138216019E-002;3.422157140448690E-003;-4.420809447765350E-003;
2.415000000000000E+009;1.948275566101074E-001;-3.258184343576431E-002;3.441748674958944E-003;-4.715421702712774E-003;
2.415166666666667E+009;1.959525048732758E-001;-3.375118225812912E-002;3.141876310110092E-003;-4.774999804794788E-003;
2.415333333333334E+009;1.968231499195099E-001;-3.467762842774391E-002;3.026046790182591E-003;-4.863385111093521E-003;
2.415500000000000E+009;1.977986991405487E-001;-3.551839292049408E-002;2.765215933322907E-003;-5.127354990690947E-003;
2.415666666666667E+009;1.985947936773300E-001;-3.636458143591881E-002;2.555393381044269E-003;-5.229632835835218E-003;
2.415833333333334E+009;1.992956399917603E-001;-3.708506003022194E-002;2.210659673437476E-003;-5.348492413759232E-003;
2.416000000000000E+009;1.998480111360550E-001;-3.784213960170746E-002;1.956560881808400E-003;-5.283486563712359E-003;
2.416166666666667E+009;2.004733532667160E-001;-3.836965560913086E-002;1.747985137626529E-003;-5.325039383023977E-003;
2.416333333333334E+009;2.009098529815674E-001;-3.885683789849281E-002;1.674216939136386E-003;-5.377141758799553E-003;
2.416500000000000E+009;2.012503594160080E-001;-3.927812352776527E-002;1.214811461977661E-003;-5.418246146291494E-003;
2.416666666666667E+009;2.014609277248383E-001;-3.983697295188904E-002;1.198845682665706E-003;-5.329451989382505E-003;
2.416833333333334E+009;2.014745175838471E-001;-4.001083597540855E-002;9.902095189318061E-004;-5.430659744888544E-003;
2.417000000000000E+009;2.015561610460281E-001;-4.028978943824768E-002;7.407710072584450E-004;-5.357472226023674E-003;
2.417166666666667E+009;2.013600766658783E-001;-4.022754356265068E-002;8.076936355791986E-004;-5.394033156335354E-003;
2.417333333333334E+009;2.009022682905197E-001;-4.030669480562210E-002;7.175614009611309E-004;-5.431471858173609E-003;
2.417500000000000E+009;2.007087916135788E-001;-4.058249667286873E-002;4.164603014942259E-004;-5.426524672657251E-003;
2.417666666666667E+009;2.002177685499191E-001;-4.066052287817001E-002;4.514646134339273E-004;-5.418411456048489E-003;
2.417833333333334E+009;1.997763216495514E-001;-4.079527407884598E-002;3.348886093590409E-004;-5.523508414626122E-003;
2.418000000000000E+009;1.991639584302902E-001;-4.063115641474724E-002;-1.066064487531548E-005;-5.465814378112555E-003;
2.418166666666667E+009;1.984022855758667E-001;-4.073803499341011E-002;-3.219892096240073E-004;-5.622989498078823E-003;
2.418333333333334E+009;1.975981891155243E-001;-4.088578745722771E-002;-5.093882791697979E-004;-5.540023557841778E-003;
2.418500000000000E+009;1.967703402042389E-001;-4.110867530107498E-002;-7.364334887824953E-004;-5.632320884615183E-003;
2.418666666666667E+009;1.959592700004578E-001;-4.125947877764702E-002;-1.024427590891719E-003;-5.501856561750174E-003;
2.418833333333334E+009;1.948158740997315E-001;-4.156186059117317E-002;-1.176871010102332E-003;-5.321569275110960E-003;
2.419000000000000E+009;1.936085075139999E-001;-4.194509983062744E-002;-1.493062940426171E-003;-5.376534070819616E-003;
2.419166666666667E+009;1.926169693470001E-001;-4.237794131040573E-002;-1.765350112691522E-003;-5.234572105109692E-003;
2.419333333333334E+009;1.912893950939179E-001;-4.312669485807419E-002;-1.915608998388052E-003;-4.963636863976717E-003;
2.419500000000000E+009;1.900421082973480E-001;-4.342071712017059E-002;-1.986226299777627E-003;-4.734346177428961E-003;
2.419666666666667E+009;1.884547621011734E-001;-4.448908567428589E-002;-2.282203640788794E-003;-4.539586603641510E-003;
2.419833333333334E+009;1.872138231992722E-001;-4.517144337296486E-002;-2.316110301762819E-003;-4.332497715950012E-003;
2.420000000000000E+009;1.859290450811386E-001;-4.634481668472290E-002;-2.506409538909793E-003;-4.036094062030315E-003;
2.420166666666667E+009;1.845261156558991E-001;-4.713340848684311E-002;-2.458403352648020E-003;-3.809345653280616E-003;
2.420333333333334E+009;1.830659061670303E-001;-4.822723940014839E-002;-2.403230872005224E-003;-3.673464059829712E-003;
2.420500000000000E+009;1.816278547048569E-001;-4.954205453395844E-002;-2.373153576627374E-003;-3.503040410578251E-003;
2.420666666666667E+009;1.802981942892075E-001;-5.068917572498322E-002;-2.090007765218616E-003;-3.417839528992772E-003;
2.420833333333334E+009;1.788378655910492E-001;-5.207822844386101E-002;-2.091693924739957E-003;-3.386248368769884E-003;
2.421000000000000E+009;1.777055561542511E-001;-5.355586856603622E-002;-2.128001768141985E-003;-3.187479684129357E-003;
2.421166666666667E+009;1.764034777879715E-001;-5.513422191143036E-002;-1.933460007421672E-003;-3.318407339975238E-003;
2.421333333333334E+009;1.747124642133713E-001;-5.650568380951881E-002;-1.848711515776813E-003;-3.274136921390891E-003;
2.421500000000000E+009;1.737703531980515E-001;-5.838873982429504E-002;-1.769752241671085E-003;-3.288205480203033E-003;
2.421666666666667E+009;1.726520359516144E-001;-5.992019549012184E-002;-1.927684876136482E-003;-3.425712697207928E-003;
2.421833333333334E+009;1.715476512908936E-001;-6.171981245279312E-002;-1.964597729966044E-003;-3.791893599554896E-003;
2.422000000000000E+009;1.705314218997955E-001;-6.346293538808823E-002;-2.040438121184707E-003;-3.687956137582660E-003;
2.422166666666667E+009;1.699835658073425E-001;-6.533955037593842E-002;-2.134257461875677E-003;-3.673614235594869E-003;
2.422333333333334E+009;1.689390987157822E-001;-6.716132164001465E-002;-2.196667715907097E-003;-3.790144808590412E-003;
2.422500000000000E+009;1.682774275541306E-001;-6.893812119960785E-002;-2.461282769218087E-003;-3.883392550051212E-003;
2.422666666666667E+009;1.675576120615006E-001;-7.087706774473190E-002;-2.570435404777527E-003;-3.915075678378344E-003;
2.422833333333334E+009;1.669827997684479E-001;-7.272616028785706E-002;-2.737686503678560E-003;-3.978103399276733E-003;
2.423000000000000E+009;1.666364520788193E-001;-7.461659610271454E-002;-3.005546284839511E-003;-3.947493154555559E-003;
2.423166666666667E+009;1.662920862436295E-001;-7.632344216108322E-002;-3.247390501201153E-003;-3.870564280077815E-003;
2.423333333333334E+009;1.658803671598434E-001;-7.804398238658905E-002;-3.297083778306842E-003;-3.772572381421924E-003;
2.423500000000000E+009;1.658990234136581E-001;-7.975246757268906E-002;-3.510202048346400E-003;-3.724309848621488E-003;
2.423666666666667E+009;1.658919900655747E-001;-8.151712268590927E-002;-3.751485608518124E-003;-3.607882186770439E-003;
2.423833333333334E+009;1.656308174133301E-001;-8.317971229553223E-002;-3.913979046046734E-003;-3.386277472600341E-003;
2.424000000000000E+009;1.656022816896439E-001;-8.481417596340179E-002;-4.159748088568449E-003;-3.200637409463525E-003;
2.424166666666667E+009;1.656572222709656E-001;-8.628868311643601E-002;-4.221453331410885E-003;-3.097192849963903E-003;
2.424333333333334E+009;1.656754612922669E-001;-8.766285330057144E-002;-4.339300561696291E-003;-2.951811533421278E-003;
2.424500000000000E+009;1.659222394227982E-001;-8.941722661256790E-002;-4.537332803010941E-003;-2.848383504897356E-003;
2.424666666666667E+009;1.659940481185913E-001;-9.061954170465469E-002;-4.618680104613304E-003;-2.775100991129875E-003;
2.424833333333334E+009;1.665350496768951E-001;-9.189396351575851E-002;-4.783704411238432E-003;-2.624659566208720E-003;
2.425000000000000E+009;1.667201220989227E-001;-9.308480471372604E-002;-4.818448796868324E-003;-2.437375951558352E-003;
2.425166666666667E+009;1.669857352972031E-001;-9.412634372711182E-002;-4.946675617247820E-003;-2.263578353449702E-003;
2.425333333333334E+009;1.670534312725067E-001;-9.517617523670197E-002;-4.987471271306276E-003;-2.081178594380617E-003;
2.425500000000000E+009;1.674452275037766E-001;-9.608484059572220E-002;-5.237159784883261E-003;-1.863982761278749E-003;
2.425666666666667E+009;1.676927804946899E-001;-9.683804214000702E-002;-5.177149549126625E-003;-1.651441445574164E-003;
2.425833333333334E+009;1.679514199495316E-001;-9.772912412881851E-002;-5.279937759041786E-003;-1.390584860928357E-003;
2.426000000000000E+009;1.681494116783142E-001;-9.826286137104034E-002;-5.512512754648924E-003;-1.203988096676767E-003;
2.426166666666667E+009;1.683551371097565E-001;-9.885179996490479E-002;-5.602359306067228E-003;-1.049375976435840E-003;
2.426333333333334E+009;1.683032661676407E-001;-9.948756545782089E-002;-5.600600503385067E-003;-8.485902217216790E-004;
2.426500000000000E+009;1.686289906501770E-001;-9.985388070344925E-002;-5.700340494513512E-003;-4.657159151975066E-004;
2.426666666666667E+009;1.688481867313385E-001;-1.004138663411140E-001;-5.517924670130014E-003;-4.113260074518621E-004;
2.426833333333334E+009;1.690018177032471E-001;-1.008126288652420E-001;-5.630512256175280E-003;-6.067383947083727E-005;
2.427000000000000E+009;1.690356433391571E-001;-1.011435389518738E-001;-5.619607400149107E-003;9.852223593043163E-005;
2.427166666666667E+009;1.689094305038452E-001;-1.013813614845276E-001;-5.627688951790333E-003;4.039214982185513E-004;
2.427333333333334E+009;1.688293516635895E-001;-1.019580885767937E-001;-5.576974246650934E-003;5.760790081694722E-004;
2.427500000000000E+009;1.686014980077744E-001;-1.022261679172516E-001;-5.472780205309391E-003;7.727474439889193E-004;
2.427666666666667E+009;1.682095974683762E-001;-1.025116518139839E-001;-5.552200134843588E-003;9.166281088255346E-004;
2.427833333333334E+009;1.679975986480713E-001;-1.028709858655930E-001;-5.359542090445757E-003;1.069670310243964E-003;
