# Version 1.00
#
freq[Hz];re:Trc1_S11;im:Trc1_S11;re:Trc2_S21;im:Trc2_S21;
2.400000000000000E+009;1.710501164197922E-001;4.002159088850021E-002;-1.862905919551849E-004;-2.791910199448466E-003;
2.400166666666667E+009;1.718555539846420E-001;3.982330858707428E-002;-2.135221875505522E-004;-2.831403631716967E-003;
2.400333333333334E+009;1.724470555782318E-001;3.902112692594528E-002;-3.689418372232467E-004;-2.917124656960368E-003;
2.400500000000000E+009;1.727700382471085E-001;3.835685178637505E-002;-5.259118624962866E-004;-2.909429837018251E-003;
2.400666666666667E+009;1.730867624282837E-001;3.780398517847061E-002;-5.926333251409233E-004;-2.906945999711752E-003;
2.400833333333334E+009;1.734255999326706E-001;3.717397153377533E-002;-8.138947305269539E-004;-3.146283561363816E-003;
2.401000000000000E+009;1.735416948795319E-001;3.670743852853775E-002;-9.423798765055835E-004;-2.996571362018585E-003;
2.401166666666667E+009;1.736050248146057E-001;3.591269627213478E-002;-9.194738813675940E-004;-3.006571670994163E-003;
2.401333333333334E+009;1.735738664865494E-001;3.530048206448555E-002;-1.037390087731183E-003;-3.123918548226357E-003;
2.401500000000000E+009;1.737225502729416E-001;3.453821688890457E-002;-1.307838014326990E-003;-3.078299574553967E-003;
2.401666666666667E+009;1.735695153474808E-001;3.398958966135979E-002;-1.499706646427512E-003;-2.826027572154999E-003;
2.401833333333334E+009;1.734251081943512E-001;3.322288766503334E-002;-1.584116253070533E-003;-2.900599269196391E-003;
2.402000000000000E+009;1.730486601591110E-001;3.243752196431160E-002;-1.657323562540114E-003;-2.843102207407355E-003;
2.402166666666667E+009;1.728372573852539E-001;3.160996362566948E-002;-1.797309261746705E-003;-2.981610363349319E-003;
2.402333333333334E+009;1.725723743438721E-001;3.056745044887066E-002;-1.956725493073463E-003;-2.906259149312973E-003;
2.402500000000000E+009;1.726073622703552E-001;2.988090552389622E-002;-2.056542551144958E-003;-2.716097515076399E-003;
2.402666666666667E+009;1.722292900085449E-001;2.911490201950073E-002;-2.300510415807366E-003;-2.696175826713443E-003;
2.402833333333334E+009;1.718893200159073E-001;2.805951237678528E-002;-2.388707827776671E-003;-2.443919191136956E-003;
2.403000000000000E+009;1.714448034763336E-001;2.704188413918018E-002;-2.499307738617063E-003;-2.467651152983308E-003;
2.403166666666667E+009;1.711531430482864E-001;2.573240734636784E-002;-2.515944186598063E-003;-2.257519401609898E-003;
2.403333333333334E+009;1.708106696605682E-001;2.466585300862789E-002;-2.621817169710994E-003;-2.064789645373821E-003;
2.403500000000000E+009;1.705153435468674E-001;2.345127239823341E-002;-2.583508845418692E-003;-2.058327663689852E-003;
2.403666666666667E+009;1.701802760362625E-001;2.204206958413124E-002;-2.620869083330035E-003;-1.783927204087377E-003;
2.403833333333334E+009;1.700264066457748E-001;2.074077539145947E-002;-2.644890453666449E-003;-1.681675552390516E-003;
2.404000000000000E+009;1.696183681488037E-001;1.916800066828728E-002;-2.589327283203602E-003;-1.405975781381130E-003;
2.404166666666667E+009;1.692708283662796E-001;1.767380163073540E-002;-2.680383855476975E-003;-1.402274123392999E-003;
2.404333333333334E+009;1.690229028463364E-001;1.620842330157757E-002;-2.578733488917351E-003;-1.256293733604252E-003;
2.404500000000000E+009;1.687364131212235E-001;1.459571253508329E-002;-2.548115560784936E-003;-1.493207644671202E-003;
2.404666666666667E+009;1.686626225709915E-001;1.282845437526703E-002;-2.534332452341914E-003;-1.345419557765126E-003;
2.404833333333334E+009;1.683792471885681E-001;1.116841658949852E-002;-2.558194566518068E-003;-1.336740795522928E-003;
2.405000000000000E+009;1.682773381471634E-001;9.376785717904568E-003;-2.523667411878705E-003;-1.329232589341700E-003;
2.405166666666667E+009;1.681352555751801E-001;7.566761225461960E-003;-2.466310746967793E-003;-1.270495704375207E-003;
2.405333333333334E+009;1.681311428546906E-001;5.536481738090515E-003;-2.491662744432688E-003;-1.121710985898972E-003;
2.405500000000000E+009;1.680925786495209E-001;3.877348033711314E-003;-2.655542921274900E-003;-1.075229723937810E-003;
2.405666666666667E+009;1.680666208267212E-001;2.007112838327885E-003;-2.831795951351523E-003;-9.267986752092838E-004;
2.405833333333334E+009;1.680111736059189E-001;2.851473691407591E-004;-2.838346874341369E-003;-8.328024996444583E-004;
2.406000000000000E+009;1.681014895439148E-001;-1.784832100383937E-003;-2.721158787608147E-003;-7.593329646624625E-004;
2.406166666666667E+009;1.678006500005722E-001;-3.414499340578914E-003;-2.693886402994394E-003;-7.854041759856045E-004;
2.406333333333334E+009;1.680286675691605E-001;-5.408009048551321E-003;-2.711702138185501E-003;-7.268433691933751E-004;
2.406500000000000E+009;1.680201292037964E-001;-7.172348909080029E-003;-2.706765430048108E-003;-5.818646168336272E-004;
2.406666666666667E+009;1.677900999784470E-001;-8.916854858398438E-003;-2.789875725284219E-003;-7.639027899131179E-004;
2.406833333333334E+009;1.680778414011002E-001;-1.072814222425222E-002;-2.715291222557426E-003;-5.909510073252022E-004;
2.407000000000000E+009;1.679174304008484E-001;-1.233346853405237E-002;-2.854053862392902E-003;-5.147641059011221E-004;
2.407166666666667E+009;1.681806445121765E-001;-1.374107878655195E-002;-2.730810781940818E-003;-5.319892079569399E-004;
2.407333333333334E+009;1.679938733577728E-001;-1.540269609540701E-002;-2.860701875761151E-003;-3.661328519228846E-004;
2.407500000000000E+009;1.680727601051331E-001;-1.670844666659832E-002;-3.045161720365286E-003;-5.916934460401535E-004;
2.407666666666667E+009;1.681974381208420E-001;-1.791050098836422E-002;-2.992435824126005E-003;-4.101986705791205E-004;
2.407833333333334E+009;1.681912541389465E-001;-1.919389143586159E-002;-3.011837136000395E-003;-2.307331596966833E-004;
2.408000000000000E+009;1.683987528085709E-001;-2.036210522055626E-002;-3.083309391513467E-003;-1.522545644547790E-004;
2.408166666666667E+009;1.684976369142532E-001;-2.130910381674767E-002;-3.178454469889402E-003;-8.190942025976256E-005;
2.408333333333334E+009;1.689002066850662E-001;-2.214338444173336E-002;-3.064651507884264E-003;1.731339580146596E-004;
2.408500000000000E+009;1.690814793109894E-001;-2.310237288475037E-002;-3.037560964003205E-003;2.746969985309988E-004;
2.408666666666667E+009;1.692135334014893E-001;-2.405637316405773E-002;-3.077631350606680E-003;3.363134455867112E-004;
2.408833333333334E+009;1.695270836353302E-001;-2.467585727572441E-002;-2.937284763902426E-003;3.280836972407997E-004;
2.409000000000000E+009;1.699241697788239E-001;-2.540674060583115E-002;-3.136522369459271E-003;5.101410788483918E-004;
2.409166666666667E+009;1.701712608337402E-001;-2.615976519882679E-002;-3.053779946640134E-003;5.634232074953616E-004;
2.409333333333334E+009;1.706662625074387E-001;-2.702653035521507E-002;-3.014897229149938E-003;7.523075910285115E-004;
2.409500000000000E+009;1.708830893039703E-001;-2.784368768334389E-002;-3.072466701269150E-003;6.853878148831427E-004;
2.409666666666667E+009;1.711844950914383E-001;-2.840543724596500E-002;-3.143856534734368E-003;9.056145208887756E-004;
2.409833333333334E+009;1.714033335447311E-001;-2.885973267257214E-002;-3.207002300769091E-003;1.011198852211237E-003;
2.410000000000000E+009;1.716018766164780E-001;-2.966579608619213E-002;-3.014370100572705E-003;1.043314114212990E-003;
2.410166666666667E+009;1.718335300683975E-001;-3.034769184887409E-002;-3.070698585361242E-003;1.050720922648907E-003;
2.410333333333334E+009;1.717061996459961E-001;-3.116153739392757E-002;-3.123796777799726E-003;1.221099519170821E-003;
2.410500000000000E+009;1.717566698789597E-001;-3.161710500717163E-002;-3.113946877419949E-003;1.233809278346598E-003;
2.410666666666667E+009;1.715204715728760E-001;-3.246343508362770E-002;-3.003390040248632E-003;1.387594966217876E-003;
2.410833333333334E+009;1.715917289257050E-001;-3.283904865384102E-002;-3.100982867181301E-003;1.469010836444795E-003;
2.411000000000000E+009;1.712209135293961E-001;-3.359048068523407E-002;-3.190184943377972E-003;1.771404873579741E-003;
2.411166666666667E+009;1.710635274648666E-001;-3.414162993431091E-002;-3.097540931776166E-003;1.868449384346604E-003;
2.411333333333334E+009;1.707331389188767E-001;-3.461441025137901E-002;-3.075554501265287E-003;1.922541065141559E-003;
2.411500000000000E+009;1.703236103057861E-001;-3.550262376666069E-002;-2.869574120268226E-003;2.181647578254342E-003;
2.411666666666667E+009;1.701999604701996E-001;-3.610256686806679E-002;-2.987438114359975E-003;2.277879044413567E-003;
2.411833333333334E+009;1.698191463947296E-001;-3.674124553799629E-002;-3.167903749272227E-003;2.279359847307205E-003;
2.412000000000000E+009;1.694354265928268E-001;-3.750791028141975E-002;-2.968217013403773E-003;2.615343546494842E-003;
2.412166666666667E+009;1.688704192638397E-001;-3.834324330091476E-002;-2.813164610415697E-003;2.765948884189129E-003;
2.412333333333334E+009;1.684888005256653E-001;-3.893781453371048E-002;-2.786129247397184E-003;2.960112644359469E-003;
2.412500000000000E+009;1.679023653268814E-001;-3.968054428696632E-002;-2.483275020495057E-003;3.171655349433422E-003;
2.412666666666667E+009;1.673181205987930E-001;-4.088182374835014E-002;-2.387913642451167E-003;3.279024735093117E-003;
2.412833333333334E+009;1.667859703302383E-001;-4.163761064410210E-002;-2.168550621718168E-003;3.459101775661111E-003;
2.413000000000000E+009;1.659971028566361E-001;-4.249904304742813E-002;-2.026112750172615E-003;3.727632574737072E-003;
2.413166666666667E+009;1.654086858034134E-001;-4.360336810350418E-002;-1.652520033530891E-003;3.729993244633079E-003;
2.413333333333334E+009;1.647819280624390E-001;-4.455637559294701E-002;-1.616696827113628E-003;3.850581124424934E-003;
2.413500000000000E+009;1.639189273118973E-001;-4.562911391258240E-002;-1.351842656731606E-003;3.933894913643599E-003;
2.413666666666667E+009;1.632433384656906E-001;-4.670166596770287E-002;-1.086578937247396E-003;3.929035272449255E-003;
2.413833333333334E+009;1.623941212892532E-001;-4.769922792911530E-002;-9.995264699682593E-004;3.966118209064007E-003;
2.414000000000000E+009;1.618615239858627E-001;-4.883413016796112E-002;-6.937420112080872E-004;4.007682204246521E-003;
2.414166666666667E+009;1.611849218606949E-001;-4.992963373661041E-002;-3.714061749633402E-004;4.010919947177172E-003;
2.414333333333334E+009;1.607790440320969E-001;-5.103879421949387E-002;-1.831759291235358E-004;3.699712920933962E-003;
2.414500000000000E+009;1.602783203125000E-001;-5.221943184733391E-002;1.597117661731318E-004;3.671577200293541E-003;
2.414666666666667E+009;1.596426665782929E-001;-5.329555273056030E-002;3.605614765547216E-004;3.572027431800962E-003;
2.414833333333334E+009;1.592557430267334E-001;-5.464673787355423E-002;3.811877104453743E-004;3.604131052270532E-003;
2.415000000000000E+009;1.589273065328598E-001;-5.564771592617035E-002;6.766933365724981E-004;3.391790436580777E-003;
2.415166666666667E+009;1.584444642066956E-001;-5.698376893997192E-002;8.294796571135521E-004;3.286578226834536E-003;
2.415333333333334E+009;1.583953797817230E-001;-5.847846716642380E-002;8.274253923445940E-004;3.249890170991421E-003;
2.415500000000000E+009;1.581146717071533E-001;-5.973279103636742E-002;9.369496256113052E-004;2.946136053651571E-003;
2.415666666666667E+009;1.578650325536728E-001;-6.114730238914490E-002;1.071956590749323E-003;2.604453125968576E-003;
2.415833333333334E+009;1.578093469142914E-001;-6.265331059694290E-002;1.152937766164541E-003;2.686738502234221E-003;
2.416000000000000E+009;1.574348360300064E-001;-6.415394693613052E-002;1.139834290370345E-003;2.522152382880449E-003;
2.416166666666667E+009;1.573550701141357E-001;-6.549777090549469E-002;1.109333010390401E-003;2.279775915667415E-003;
2.416333333333334E+009;1.572124809026718E-001;-6.695085763931274E-002;1.049529877491295E-003;2.083476400002837E-003;
2.416500000000000E+009;1.569693833589554E-001;-6.842281669378281E-002;1.073675812222064E-003;2.055833116173744E-003;
2.416666666666667E+009;1.567124575376511E-001;-6.976944953203201E-002;1.160648651421070E-003;1.987678464502096E-003;
2.416833333333334E+009;1.566997766494751E-001;-7.130601257085800E-002;1.016397611238062E-003;1.957725966349244E-003;
2.417000000000000E+009;1.563607901334763E-001;-7.262311875820160E-002;1.026179525069892E-003;1.727361697703600E-003;
2.417166666666667E+009;1.561587303876877E-001;-7.372288405895233E-002;7.954036118462682E-004;1.721846638247371E-003;
2.417333333333334E+009;1.559801250696182E-001;-7.488503307104111E-002;7.142492686398327E-004;1.602850272320211E-003;
2.417500000000000E+009;1.558654457330704E-001;-7.613483816385269E-002;7.908710394985974E-004;1.646820222958922E-003;
2.417666666666667E+009;1.557687968015671E-001;-7.701791822910309E-002;6.553609855473042E-004;1.694547012448311E-003;
2.417833333333334E+009;1.556872874498367E-001;-7.799217849969864E-002;7.335790432989597E-004;1.617635018192232E-003;
2.418000000000000E+009;1.554443389177322E-001;-7.906565815210342E-002;6.174421287141740E-004;1.675644190981984E-003;
2.418166666666667E+009;1.553569436073303E-001;-7.979781925678253E-002;5.471633630804718E-004;1.801255159080029E-003;
2.418333333333334E+009;1.556577533483505E-001;-8.064033836126328E-002;4.341324965935201E-004;1.662167487666011E-003;
2.418500000000000E+009;1.553813517093658E-001;-8.140167593955994E-002;3.365773300174624E-004;1.896995818242431E-003;
2.418666666666667E+009;1.554803699254990E-001;-8.219174295663834E-002;5.206859204918146E-004;1.983871683478355E-003;
2.418833333333334E+009;1.551885008811951E-001;-8.288189768791199E-002;3.446414484642446E-004;1.947726123034954E-003;
2.419000000000000E+009;1.550958454608917E-001;-8.353421092033386E-002;1.989896991290152E-004;2.179158385843039E-003;
2.419166666666667E+009;1.550996601581574E-001;-8.416393399238586E-002;4.880183259956539E-004;2.253964776173234E-003;
2.419333333333334E+009;1.548159420490265E-001;-8.442229777574539E-002;5.602419842034578E-004;2.290277741849423E-003;
2.419500000000000E+009;1.547763347625732E-001;-8.529071509838104E-002;6.429404020309448E-004;2.530490513890982E-003;
2.419666666666667E+009;1.546560674905777E-001;-8.565046638250351E-002;6.751324399374425E-004;2.393724629655480E-003;
2.419833333333334E+009;1.544698327779770E-001;-8.585438877344132E-002;9.470380027778447E-004;2.663215156644583E-003;
2.420000000000000E+009;1.543760448694229E-001;-8.638557791709900E-002;1.144391251727939E-003;2.586188027635217E-003;
2.420166666666667E+009;1.539329290390015E-001;-8.674997091293335E-002;1.225814805366099E-003;2.590409945696592E-003;
2.420333333333334E+009;1.538742035627365E-001;-8.717900514602661E-002;1.428226358257234E-003;2.649307949468494E-003;
2.420500000000000E+009;1.534749418497086E-001;-8.726911246776581E-002;1.469983952119947E-003;2.630317350849509E-003;
2.420666666666667E+009;1.532540321350098E-001;-8.762618899345398E-002;1.610314473509789E-003;2.608366077765822E-003;
2.420833333333334E+009;1.528743058443070E-001;-8.815586566925049E-002;1.748083159327507E-003;2.386463340371847E-003;
2.421000000000000E+009;1.524358242750168E-001;-8.855860680341721E-002;1.956205349415541E-003;2.535028150305152E-003;
2.421166666666667E+009;1.520443260669708E-001;-8.889595419168472E-002;2.149746986106038E-003;2.416944364085794E-003;
2.421333333333334E+009;1.516226381063461E-001;-8.931809663772583E-002;2.100173151120544E-003;2.266798866912723E-003;
2.421500000000000E+009;1.510326415300369E-001;-8.982354402542114E-002;2.198792295530438E-003;2.325436798855662E-003;
2.421666666666667E+009;1.506740301847458E-001;-9.035463631153107E-002;2.233839360997081E-003;2.248975681141019E-003;
2.421833333333334E+009;1.499487906694412E-001;-9.090045094490051E-002;2.338598715141416E-003;2.012791112065315E-003;
2.422000000000000E+009;1.491085737943649E-001;-9.136172384023666E-002;2.304033841937780E-003;2.049604663625360E-003;
2.422166666666667E+009;1.484153419733048E-001;-9.215193986892700E-002;2.398605458438397E-003;1.814489834941924E-003;
2.422333333333334E+009;1.477658599615097E-001;-9.250750392675400E-002;2.511947648599744E-003;1.793174655176699E-003;
2.422500000000000E+009;1.467647105455399E-001;-9.318812936544418E-002;2.645177766680718E-003;1.915969420224428E-003;
2.422666666666667E+009;1.459807157516480E-001;-9.394083172082901E-002;2.808053046464920E-003;1.717721112072468E-003;
2.422833333333334E+009;1.453378349542618E-001;-9.471578896045685E-002;2.822788897901774E-003;1.810024026781321E-003;
2.423000000000000E+009;1.443460285663605E-001;-9.558248519897461E-002;2.722335979342461E-003;1.796719268895686E-003;
2.423166666666667E+009;1.435538232326508E-001;-9.651966392993927E-002;2.990027423948050E-003;1.732634380459786E-003;
2.423333333333334E+009;1.427918821573257E-001;-9.705391526222229E-002;3.052573185414076E-003;1.698537496849895E-003;
2.423500000000000E+009;1.416629254817963E-001;-9.816104918718338E-002;3.034790046513081E-003;1.702888868749142E-003;
2.423666666666667E+009;1.408295929431915E-001;-9.915071725845337E-002;3.323265351355076E-003;1.649276702664793E-003;
2.423833333333334E+009;1.401487290859222E-001;-1.000597849488258E-001;3.403519513085485E-003;1.565907266922295E-003;
2.424000000000000E+009;1.389694958925247E-001;-1.011479049921036E-001;3.588235238566995E-003;1.198429497890174E-003;
2.424166666666667E+009;1.379151344299316E-001;-1.021914482116699E-001;3.838361939415336E-003;1.223444705829024E-003;
2.424333333333334E+009;1.372447311878204E-001;-1.030334234237671E-001;3.850657260045409E-003;1.265604747459292E-003;
2.424500000000000E+009;1.364891529083252E-001;-1.043298393487930E-001;4.064033739268780E-003;8.351063588634133E-004;
2.424666666666667E+009;1.357122659683228E-001;-1.051593348383904E-001;4.092392511665821E-003;7.273204973898828E-004;
2.424833333333334E+009;1.349306255578995E-001;-1.063528954982758E-001;4.093480296432972E-003;4.917769692838192E-004;
2.425000000000000E+009;1.341520249843597E-001;-1.074896529316902E-001;4.185754805803299E-003;2.094111841870472E-004;
2.425166666666667E+009;1.333007961511612E-001;-1.086945831775665E-001;4.412746988236904E-003;4.166092185187154E-005;
2.425333333333334E+009;1.327910572290421E-001;-1.096775084733963E-001;4.338873084634543E-003;-3.671522426884621E-004;
2.425500000000000E+009;1.321978718042374E-001;-1.109897866845131E-001;4.483999684453011E-003;-4.972498281858861E-004;
2.425666666666667E+009;1.315198242664337E-001;-1.122069507837296E-001;4.422353114932776E-003;-8.650595555081964E-004;
2.425833333333334E+009;1.310590058565140E-001;-1.133674606680870E-001;4.393866285681725E-003;-1.324178301729262E-003;
2.426000000000000E+009;1.305586844682694E-001;-1.146122515201569E-001;4.308632574975491E-003;-1.572149922139943E-003;
2.426166666666667E+009;1.302799582481384E-001;-1.159069985151291E-001;4.217232577502728E-003;-1.870319596491754E-003;
2.426333333333334E+009;1.295976787805557E-001;-1.170123592019081E-001;3.943081013858318E-003;-2.158414805307984E-003;
2.426500000000000E+009;1.295021474361420E-001;-1.179574579000473E-001;3.668158082291484E-003;-2.266791183501482E-003;
2.426666666666667E+009;1.291584223508835E-001;-1.190060824155808E-001;3.245038911700249E-003;-2.542314585298300E-003;
2.426833333333334E+009;1.287522166967392E-001;-1.201581656932831E-001;3.107500495389104E-003;-2.778651425614953E-003;
2.427000000000000E+009;1.283890902996063E-001;-1.211995333433151E-001;2.795956563204527E-003;-2.840867033228278E-003;
2.427166666666667E+009;1.281729787588120E-001;-1.220340952277184E-001;2.504805568605661E-003;-2.986223902553320E-003;
2.427333333333334E+009;1.279212981462479E-001;-1.229892224073410E-001;2.159961266443133E-003;-2.944267122074962E-003;
2.427500000000000E+009;1.278994679450989E-001;-1.237776428461075E-001;1.920883194543421E-003;-3.013244830071926E-003;
2.427666666666667E+009;1.277415454387665E-001;-1.246458292007446E-001;1.732530072331429E-003;-2.847911091521382E-003;
