# Version 1.00
#
freq[Hz];re:Trc1_S11;im:Trc1_S11;re:Trc2_S21;im:Trc2_S21;
2.400000000000000E+009;1.558234244585037E-001;1.108421310782433E-001;1.483730156905949E-003;5.020795855671167E-003;
2.400166666666667E+009;1.552574485540390E-001;1.085419431328774E-001;1.450569019652903E-003;4.909494426101446E-003;
2.400333333333334E+009;1.549755483865738E-001;1.063197702169418E-001;1.782152685336769E-003;4.717377480119467E-003;
2.400500000000000E+009;1.545277386903763E-001;1.036269143223763E-001;1.633110223338008E-003;4.483925178647041E-003;
2.400666666666667E+009;1.546497344970703E-001;1.011841818690300E-001;1.700535533018410E-003;4.420788027346134E-003;
2.400833333333334E+009;1.542738378047943E-001;9.821870177984238E-002;1.780635910108686E-003;4.413293208926916E-003;
2.401000000000000E+009;1.541405022144318E-001;9.538537263870239E-002;1.660529640503228E-003;4.288763273507357E-003;
2.401166666666667E+009;1.540499180555344E-001;9.247070550918579E-002;1.758860889822245E-003;4.242044407874346E-003;
2.401333333333334E+009;1.542289108037949E-001;8.958094567060471E-002;1.886086654849351E-003;4.223204217851162E-003;
2.401500000000000E+009;1.541361063718796E-001;8.639333397150040E-002;2.023818669840694E-003;3.991316072642803E-003;
2.401666666666667E+009;1.544330269098282E-001;8.355104923248291E-002;1.986245857551694E-003;4.279527347534895E-003;
2.401833333333334E+009;1.546222269535065E-001;8.049416542053223E-002;2.058452693745494E-003;4.081924445927143E-003;
2.402000000000000E+009;1.555679291486740E-001;7.765994220972061E-002;2.371793612837791E-003;4.142059478908777E-003;
2.402166666666667E+009;1.560485661029816E-001;7.473793625831604E-002;2.441708464175463E-003;3.924587275832892E-003;
2.402333333333334E+009;1.568851768970490E-001;7.183357328176498E-002;2.435428323224187E-003;4.022497683763504E-003;
2.402500000000000E+009;1.576602607965469E-001;6.906297057867050E-002;2.510809106752276E-003;3.778187790885568E-003;
2.402666666666667E+009;1.588894575834274E-001;6.648157536983490E-002;2.625252120196819E-003;3.805679269134998E-003;
2.402833333333334E+009;1.599716544151306E-001;6.389981508255005E-002;2.647858578711748E-003;3.760223044082522E-003;
2.403000000000000E+009;1.613154262304306E-001;6.122010573744774E-002;2.768866484984756E-003;3.642159746959806E-003;
2.403166666666667E+009;1.630231589078903E-001;5.890331789851189E-002;2.967015141621232E-003;3.766783513128758E-003;
2.403333333333334E+009;1.644830107688904E-001;5.619420483708382E-002;2.981210360303521E-003;3.576189279556274E-003;
2.403500000000000E+009;1.663791090250015E-001;5.406219512224197E-002;3.208569949492812E-003;3.471256932243705E-003;
2.403666666666667E+009;1.680003702640533E-001;5.177266150712967E-002;3.264612983912230E-003;3.183044493198395E-003;
2.403833333333334E+009;1.697155833244324E-001;4.960783943533897E-002;3.364319447427988E-003;3.277682699263096E-003;
2.404000000000000E+009;1.714856773614883E-001;4.761446267366409E-002;3.532231785356998E-003;3.209488233551383E-003;
2.404166666666667E+009;1.732743084430695E-001;4.590798541903496E-002;3.591999178752303E-003;3.224103711545467E-003;
2.404333333333334E+009;1.751103699207306E-001;4.418098926544190E-002;3.618427086621523E-003;2.842380898073316E-003;
2.404500000000000E+009;1.768466979265213E-001;4.259843379259110E-002;3.704417962580919E-003;2.743065124377608E-003;
2.404666666666667E+009;1.787555068731308E-001;4.148847982287407E-002;3.676710650324822E-003;2.666029147803783E-003;
2.404833333333334E+009;1.806751042604446E-001;4.018883034586906E-002;3.762540873140097E-003;2.469870960339904E-003;
2.405000000000000E+009;1.821257621049881E-001;3.936677426099777E-002;3.871345892548561E-003;2.227389253675938E-003;
2.405166666666667E+009;1.838789731264114E-001;3.796996548771858E-002;4.208312369883061E-003;2.145838923752308E-003;
2.405333333333334E+009;1.853687465190888E-001;3.895071893930435E-002;3.695026272907853E-003;2.221916569396853E-003;
2.405500000000000E+009;1.864946335554123E-001;3.760740160942078E-002;3.881749697029591E-003;1.762973610311747E-003;
2.405666666666667E+009;1.889728158712387E-001;3.758147731423378E-002;3.864544210955501E-003;2.378037897869945E-003;
2.405833333333334E+009;1.900552511215210E-001;3.677146881818771E-002;4.211811348795891E-003;1.914012129418552E-003;
2.406000000000000E+009;1.908748596906662E-001;3.650274500250816E-002;4.307167138904333E-003;1.321244752034545E-003;
2.406166666666667E+009;1.927910000085831E-001;3.690181672573090E-002;4.231750499457121E-003;1.870736829005182E-003;
2.406333333333334E+009;1.941308826208115E-001;3.725278377532959E-002;4.113604314625263E-003;1.977722160518169E-003;
2.406500000000000E+009;1.943592578172684E-001;3.771547600626946E-002;3.913453314453363E-003;1.450857496820390E-003;
2.406666666666667E+009;1.961228549480438E-001;3.704909607768059E-002;4.747102502733469E-003;1.896202447824180E-003;
2.406833333333334E+009;1.964698135852814E-001;3.751175105571747E-002;4.497831221669912E-003;1.474164309911430E-003;
2.407000000000000E+009;1.970086544752121E-001;3.801468759775162E-002;4.652771633118391E-003;1.342939445748925E-003;
2.407166666666667E+009;1.975846290588379E-001;3.807515650987625E-002;4.781468771398068E-003;1.201657811179757E-003;
2.407333333333334E+009;1.976274102926254E-001;3.848990797996521E-002;4.857259336858988E-003;1.070740865543485E-003;
2.407500000000000E+009;1.978356689214706E-001;3.897622600197792E-002;4.894292913377285E-003;1.004345132969320E-003;
2.407666666666667E+009;1.980486214160919E-001;3.912711143493652E-002;4.945073742419481E-003;9.033583919517696E-004;
2.407833333333334E+009;1.976405978202820E-001;3.933146968483925E-002;5.045861471444368E-003;7.081414805725217E-004;
2.408000000000000E+009;1.976158767938614E-001;3.950744867324829E-002;5.137449596077204E-003;6.582543719559908E-004;
2.408166666666667E+009;1.971704512834549E-001;3.954977169632912E-002;5.174277350306511E-003;4.992965841665864E-004;
2.408333333333334E+009;1.967779248952866E-001;3.948745131492615E-002;5.204568151384592E-003;4.138527147006244E-004;
2.408500000000000E+009;1.957841515541077E-001;3.956910222768784E-002;5.257114768028259E-003;2.459082170389593E-004;
2.408666666666667E+009;1.954500973224640E-001;3.929590061306953E-002;5.316120106726885E-003;-1.350268848909764E-005;
2.408833333333334E+009;1.946010440587997E-001;3.890151530504227E-002;5.590980872511864E-003;-2.461110998410732E-004;
2.409000000000000E+009;1.936198323965073E-001;3.827314078807831E-002;5.641906987875700E-003;-3.910155210178345E-004;
2.409166666666667E+009;1.925504207611084E-001;3.766022995114327E-002;5.744635127484798E-003;-6.914723780937493E-004;
2.409333333333334E+009;1.917081773281097E-001;3.715915232896805E-002;5.710304249078035E-003;-8.458903175778687E-004;
2.409500000000000E+009;1.904362291097641E-001;3.607060015201569E-002;5.753562320023775E-003;-9.424575255252421E-004;
2.409666666666667E+009;1.892796605825424E-001;3.499506041407585E-002;5.808729678392410E-003;-1.350683858618140E-003;
2.409833333333334E+009;1.880199164152145E-001;3.382225334644318E-002;5.766027141362429E-003;-1.691341749392450E-003;
2.410000000000000E+009;1.869228184223175E-001;3.237419202923775E-002;5.676675122231245E-003;-1.871889340691268E-003;
2.410166666666667E+009;1.857347041368485E-001;3.075457923114300E-002;5.539627280086279E-003;-2.262543188408017E-003;
2.410333333333334E+009;1.846085190773010E-001;2.925555408000946E-002;5.456489510834217E-003;-2.484464552253485E-003;
2.410500000000000E+009;1.834432631731033E-001;2.749700285494328E-002;5.353448912501335E-003;-2.583207329735160E-003;
2.410666666666667E+009;1.824032515287399E-001;2.526442334055901E-002;5.186228081583977E-003;-2.828643657267094E-003;
2.410833333333334E+009;1.814335137605667E-001;2.320361323654652E-002;5.066547542810440E-003;-3.022223478183150E-003;
2.411000000000000E+009;1.806204020977020E-001;2.108776755630970E-002;4.745551850646734E-003;-3.105960320681334E-003;
2.411166666666667E+009;1.797502487897873E-001;1.883815228939056E-002;4.620184656232595E-003;-3.231938229873776E-003;
2.411333333333334E+009;1.789462417364121E-001;1.634433679282665E-002;4.567111376672983E-003;-3.519547404721379E-003;
2.411500000000000E+009;1.784149855375290E-001;1.394495554268360E-002;4.403448197990656E-003;-3.524024505168200E-003;
2.411666666666667E+009;1.781547963619232E-001;1.139873825013638E-002;4.159632138907909E-003;-3.757942467927933E-003;
2.411833333333334E+009;1.774532198905945E-001;8.915884420275688E-003;3.992795012891293E-003;-3.762808628380299E-003;
2.412000000000000E+009;1.774068176746368E-001;6.352223455905914E-003;4.001335706561804E-003;-3.823900129646063E-003;
2.412166666666667E+009;1.774477958679199E-001;3.752912394702435E-003;3.817756893113256E-003;-4.109304863959551E-003;
2.412333333333334E+009;1.775560379028320E-001;1.065288204699755E-003;3.580882214009762E-003;-4.116643220186234E-003;
2.412500000000000E+009;1.777549386024475E-001;-1.713801175355911E-003;3.569210413843393E-003;-4.285408649593592E-003;
2.412666666666667E+009;1.780350804328919E-001;-4.370586480945349E-003;3.427554620429874E-003;-4.464315250515938E-003;
2.412833333333334E+009;1.788331121206284E-001;-6.995907519012690E-003;3.421373665332794E-003;-4.403487313538790E-003;
2.413000000000000E+009;1.795508414506912E-001;-9.510737843811512E-003;3.108219942077994E-003;-4.279724322259426E-003;
2.413166666666667E+009;1.801528930664063E-001;-1.202251203358173E-002;3.079907270148397E-003;-4.540771245956421E-003;
2.413333333333334E+009;1.811910122632980E-001;-1.470617018640041E-002;2.950910245999694E-003;-4.551712889224291E-003;
2.413500000000000E+009;1.821438074111939E-001;-1.707733608782291E-002;2.720504766330123E-003;-4.828326869755983E-003;
2.413666666666667E+009;1.833278685808182E-001;-1.955067925155163E-002;2.777411835268140E-003;-4.790505394339562E-003;
2.413833333333334E+009;1.844947934150696E-001;-2.193706110119820E-002;2.458170987665653E-003;-4.801566246896982E-003;
2.414000000000000E+009;1.855216622352600E-001;-2.412065118551254E-002;2.367489272728562E-003;-5.020671058446169E-003;
2.414166666666667E+009;1.868805140256882E-001;-2.629332430660725E-002;2.150550018996000E-003;-5.062347277998924E-003;
2.414333333333334E+009;1.882159858942032E-001;-2.845080383121967E-002;2.076243516057730E-003;-5.263454280793667E-003;
2.414500000000000E+009;1.895623505115509E-001;-3.020683676004410E-002;1.851349021308124E-003;-5.358352325856686E-003;
2.414666666666667E+009;1.910609006881714E-001;-3.170405700802803E-002;1.666263677179813E-003;-5.332174710929394E-003;
2.414833333333334E+009;1.923836618661881E-001;-3.356576338410378E-002;1.518151490017772E-003;-5.475166719406843E-003;
2.415000000000000E+009;1.936517953872681E-001;-3.498642891645432E-002;1.349810860119760E-003;-5.716805346310139E-003;
2.415166666666667E+009;1.950779408216476E-001;-3.633574768900871E-002;1.091350684873760E-003;-5.719047505408526E-003;
2.415333333333334E+009;1.964900791645050E-001;-3.745469078421593E-002;8.106703753583133E-004;-5.768749862909317E-003;
2.415500000000000E+009;1.977577656507492E-001;-3.823376819491386E-002;5.773103912360966E-004;-5.814342293888331E-003;
2.415666666666667E+009;1.991728395223618E-001;-3.935147821903229E-002;4.408565873745829E-004;-5.594687070697546E-003;
2.415833333333334E+009;2.002921253442764E-001;-3.994221612811089E-002;2.293176221428439E-004;-5.782436579465866E-003;
2.416000000000000E+009;2.013102173805237E-001;-4.066421464085579E-002;-7.605753489769995E-005;-5.853475537151098E-003;
2.416166666666667E+009;2.024948596954346E-001;-4.136856272816658E-002;-2.188798534916714E-004;-5.561937112361193E-003;
2.416333333333334E+009;2.034142315387726E-001;-4.160585254430771E-002;-4.171119071543217E-004;-5.584419704973698E-003;
2.416500000000000E+009;2.041354179382324E-001;-4.194090515375137E-002;-7.394063286483288E-004;-5.688522942364216E-003;
2.416666666666667E+009;2.047788947820664E-001;-4.221761971712112E-002;-8.764538797549903E-004;-5.811267532408238E-003;
2.416833333333334E+009;2.051155418157578E-001;-4.229004681110382E-002;-1.039325841702521E-003;-5.608338396996260E-003;
2.417000000000000E+009;2.056219130754471E-001;-4.236875474452972E-002;-1.175573910586536E-003;-5.567227490246296E-003;
2.417166666666667E+009;2.055784165859222E-001;-4.219798371195793E-002;-1.454237499274313E-003;-5.392098333686590E-003;
2.417333333333334E+009;2.055470347404480E-001;-4.196946695446968E-002;-1.660868758335710E-003;-5.364513024687767E-003;
2.417500000000000E+009;2.054600119590759E-001;-4.178206622600555E-002;-1.791635761037469E-003;-5.411645397543907E-003;
2.417666666666667E+009;2.052291333675385E-001;-4.142802581191063E-002;-2.089423127472401E-003;-5.380251444876194E-003;
2.417833333333334E+009;2.049140781164169E-001;-4.110527783632278E-002;-2.300475491210818E-003;-5.132825579494238E-003;
2.418000000000000E+009;2.044412493705750E-001;-4.073801264166832E-002;-2.457776106894016E-003;-4.965109750628471E-003;
2.418166666666667E+009;2.038358002901077E-001;-4.046372324228287E-002;-2.463661134243012E-003;-4.907591268420219E-003;
2.418333333333334E+009;2.030766904354096E-001;-4.005568474531174E-002;-2.659866586327553E-003;-4.685252439230681E-003;
2.418500000000000E+009;2.021244019269943E-001;-3.984816372394562E-002;-2.709822030737996E-003;-4.470479208976030E-003;
2.418666666666667E+009;2.013523131608963E-001;-3.953310474753380E-002;-3.068826394155622E-003;-4.470382351428270E-003;
2.418833333333334E+009;2.001031935214996E-001;-3.950102627277374E-002;-3.130465978756547E-003;-4.237094428390265E-003;
2.419000000000000E+009;1.988793015480042E-001;-3.945200517773628E-002;-3.183757653459907E-003;-4.189308732748032E-003;
2.419166666666667E+009;1.976668238639832E-001;-3.957938030362129E-002;-3.285526065155864E-003;-3.907713573426008E-003;
2.419333333333334E+009;1.961628943681717E-001;-3.988625481724739E-002;-3.361152019351721E-003;-3.831980749964714E-003;
2.419500000000000E+009;1.947305351495743E-001;-3.994503989815712E-002;-3.393620252609253E-003;-3.834967268630862E-003;
2.419666666666667E+009;1.930593252182007E-001;-4.068487510085106E-002;-3.381831338629127E-003;-3.647655947133899E-003;
2.419833333333334E+009;1.914469301700592E-001;-4.115431755781174E-002;-3.345248755067587E-003;-3.600740572437644E-003;
2.420000000000000E+009;1.896677762269974E-001;-4.196290671825409E-002;-3.583922749385238E-003;-3.462329041212797E-003;
2.420166666666667E+009;1.879198700189591E-001;-4.289336875081062E-002;-3.492571180686355E-003;-3.376667154952884E-003;
2.420333333333334E+009;1.861475706100464E-001;-4.379512742161751E-002;-3.585100173950195E-003;-3.329860977828503E-003;
2.420500000000000E+009;1.843311339616776E-001;-4.504329711198807E-002;-3.774237819015980E-003;-3.340313443914056E-003;
2.420666666666667E+009;1.823432147502899E-001;-4.596167057752609E-002;-3.786146175116301E-003;-3.209305927157402E-003;
2.420833333333334E+009;1.806175559759140E-001;-4.738747328519821E-002;-3.900944488123059E-003;-3.086525248363614E-003;
2.421000000000000E+009;1.789380162954330E-001;-4.891332611441612E-002;-4.013693891465664E-003;-2.971581881865859E-003;
2.421166666666667E+009;1.773060411214829E-001;-5.072687566280365E-002;-3.985317889600992E-003;-2.764000324532390E-003;
2.421333333333334E+009;1.755751222372055E-001;-5.218921229243279E-002;-4.090599715709686E-003;-2.843940164893866E-003;
2.421500000000000E+009;1.738306730985642E-001;-5.423505976796150E-002;-4.311329685151577E-003;-2.620277227833867E-003;
2.421666666666667E+009;1.723725944757462E-001;-5.606283247470856E-002;-4.239168483763933E-003;-2.498341258615255E-003;
2.421833333333334E+009;1.710197478532791E-001;-5.814621224999428E-002;-4.351170733571053E-003;-2.376420190557838E-003;
2.422000000000000E+009;1.696099340915680E-001;-6.017871946096420E-002;-4.370574373751879E-003;-2.177983056753874E-003;
2.422166666666667E+009;1.683831363916397E-001;-6.232824921607971E-002;-4.365705884993076E-003;-2.039445796981454E-003;
2.422333333333334E+009;1.671516746282578E-001;-6.471657752990723E-002;-4.348703660070896E-003;-1.940010231919587E-003;
2.422500000000000E+009;1.663498282432556E-001;-6.661792844533920E-002;-4.324238747358322E-003;-1.949799596332014E-003;
2.422666666666667E+009;1.654637902975082E-001;-6.872037053108215E-002;-4.307508934289217E-003;-1.778650097548962E-003;
2.422833333333334E+009;1.646574884653091E-001;-7.116883248090744E-002;-4.401924088597298E-003;-1.598301809281111E-003;
2.423000000000000E+009;1.639841794967651E-001;-7.351368665695190E-002;-4.497511778026819E-003;-1.711574033834040E-003;
2.423166666666667E+009;1.636908501386643E-001;-7.541221380233765E-002;-4.532989580184221E-003;-1.577358110807836E-003;
2.423333333333334E+009;1.631959527730942E-001;-7.780465483665466E-002;-4.631391726434231E-003;-1.505624619312584E-003;
2.423500000000000E+009;1.629243493080139E-001;-7.990465313196182E-002;-4.534357693046331E-003;-1.418793690390885E-003;
2.423666666666667E+009;1.630362421274185E-001;-8.192381262779236E-002;-4.666026216000319E-003;-1.208650064654648E-003;
2.423833333333334E+009;1.629301160573959E-001;-8.397439122200012E-002;-4.787286743521690E-003;-1.063151168636978E-003;
2.424000000000000E+009;1.630113124847412E-001;-8.606649190187454E-002;-4.932658746838570E-003;-1.026019919663668E-003;
2.424166666666667E+009;1.629742980003357E-001;-8.790579438209534E-002;-4.949800204485655E-003;-1.027132500894368E-003;
2.424333333333334E+009;1.633671969175339E-001;-8.978961408138275E-002;-5.034618079662323E-003;-8.343820227310062E-004;
2.424500000000000E+009;1.636666357517242E-001;-9.161850810050964E-002;-5.000882782042027E-003;-5.982557195238769E-004;
2.424666666666667E+009;1.639640927314758E-001;-9.325317293405533E-002;-5.171406082808971E-003;-4.028583934996277E-004;
2.424833333333334E+009;1.647169291973114E-001;-9.469046443700790E-002;-5.272103939205408E-003;-1.658221881370992E-004;
2.425000000000000E+009;1.652318090200424E-001;-9.617535024881363E-002;-5.338819231837988E-003;-8.761479875829537E-006;
2.425166666666667E+009;1.656260937452316E-001;-9.753387421369553E-002;-5.357973743230104E-003;2.562593144830316E-004;
2.425333333333334E+009;1.661185324192047E-001;-9.863276034593582E-002;-5.292156711220741E-003;4.727990599349141E-004;
2.425500000000000E+009;1.667221188545227E-001;-9.968101233243942E-002;-5.458586383610964E-003;6.078060832805932E-004;
2.425666666666667E+009;1.672620773315430E-001;-1.005301624536514E-001;-5.273232236504555E-003;8.397498168051243E-004;
2.425833333333334E+009;1.678234189748764E-001;-1.015523672103882E-001;-5.430459044873714E-003;9.339065873064101E-004;
2.426000000000000E+009;1.684988439083099E-001;-1.019258052110672E-001;-5.226868204772472E-003;1.180744613520801E-003;
2.426166666666667E+009;1.690839529037476E-001;-1.025796532630920E-001;-5.361136049032211E-003;1.353103667497635E-003;
2.426333333333334E+009;1.695614755153656E-001;-1.031488925218582E-001;-5.251394119113684E-003;1.435675076209009E-003;
2.426500000000000E+009;1.701979637145996E-001;-1.034810766577721E-001;-5.160996690392494E-003;1.530582667328417E-003;
2.426666666666667E+009;1.707044243812561E-001;-1.039060652256012E-001;-5.057817324995995E-003;1.970071112737060E-003;
2.426833333333334E+009;1.711712330579758E-001;-1.040597110986710E-001;-4.878452513366938E-003;2.032406162470579E-003;
2.427000000000000E+009;1.713176816701889E-001;-1.043050140142441E-001;-4.797337576746941E-003;2.173021901398897E-003;
2.427166666666667E+009;1.716650426387787E-001;-1.043171212077141E-001;-4.697826225310564E-003;2.448213053867221E-003;
2.427333333333334E+009;1.717785000801086E-001;-1.044758111238480E-001;-4.908390808850527E-003;2.482180483639240E-003;
2.427500000000000E+009;1.717706620693207E-001;-1.045422032475472E-001;-4.648289177566767E-003;2.665809355676174E-003;
2.427666666666667E+009;1.716878712177277E-001;-1.044318601489067E-001;-4.608476068824530E-003;2.832357073202729E-003;
2.427833333333334E+009;1.715625822544098E-001;-1.045292690396309E-001;-4.603428766131401E-003;2.980959368869662E-003;
