# Version 1.00
#
freq[Hz];re:Trc1_S11;im:Trc1_S11;re:Trc2_S21;im:Trc2_S21;
2.400000000000000E+009;1.559608131647110E-001;1.110420152544975E-001;1.360525609925389E-003;4.814861342310906E-003;
2.400166666666667E+009;1.555336564779282E-001;1.086740419268608E-001;1.211407477967441E-003;4.694683942943811E-003;
2.400333333333334E+009;1.551152616739273E-001;1.065239980816841E-001;1.434159232303500E-003;4.612215794622898E-003;
2.400500000000000E+009;1.548058241605759E-001;1.038910597562790E-001;1.549834152683616E-003;4.349994473159313E-003;
2.400666666666667E+009;1.544811278581619E-001;1.013677120208740E-001;1.650540740229189E-003;4.323201254010201E-003;
2.400833333333334E+009;1.542526781558991E-001;9.842883795499802E-002;1.455495366826654E-003;4.204589407891035E-003;
2.401000000000000E+009;1.543130129575729E-001;9.549269080162048E-002;1.607425627298653E-003;4.266134928911924E-003;
2.401166666666667E+009;1.540967971086502E-001;9.266507625579834E-002;1.693328958936036E-003;4.305362701416016E-003;
2.401333333333334E+009;1.541689932346344E-001;8.963850885629654E-002;1.616132911294699E-003;4.354456439614296E-003;
2.401500000000000E+009;1.542852371931076E-001;8.672706037759781E-002;1.769926166161895E-003;4.227309022098780E-003;
2.401666666666667E+009;1.544553190469742E-001;8.368200808763504E-002;1.904343371279538E-003;4.146944731473923E-003;
2.401833333333334E+009;1.549496650695801E-001;8.092083781957626E-002;2.038538921624422E-003;4.165813792496920E-003;
2.402000000000000E+009;1.554547548294067E-001;7.788445055484772E-002;2.037491882219911E-003;4.129949025809765E-003;
2.402166666666667E+009;1.560347080230713E-001;7.500612735748291E-002;2.065319567918778E-003;4.030237905681133E-003;
2.402333333333334E+009;1.569093018770218E-001;7.209860533475876E-002;2.390334149822593E-003;4.095859359949827E-003;
2.402500000000000E+009;1.580340117216110E-001;6.924348324537277E-002;2.288002520799637E-003;3.928503487259150E-003;
2.402666666666667E+009;1.589511483907700E-001;6.672123074531555E-002;2.553700702264905E-003;3.867503721266985E-003;
2.402833333333334E+009;1.602179855108261E-001;6.393706798553467E-002;2.628010232001543E-003;3.840694902464747E-003;
2.403000000000000E+009;1.617009639739990E-001;6.149623915553093E-002;2.656292868778110E-003;3.811991773545742E-003;
2.403166666666667E+009;1.633669734001160E-001;5.889906734228134E-002;2.816953696310520E-003;3.772589378058910E-003;
2.403333333333334E+009;1.647699177265167E-001;5.647967383265495E-002;2.941657090559602E-003;3.634659806266427E-003;
2.403500000000000E+009;1.665924191474915E-001;5.404256284236908E-002;3.130404278635979E-003;3.496407298371196E-003;
2.403666666666667E+009;1.683316677808762E-001;5.199428275227547E-002;3.158203093335033E-003;3.531830385327339E-003;
2.403833333333334E+009;1.701275259256363E-001;4.976437240839005E-002;3.336729714646936E-003;3.422908484935761E-003;
2.404000000000000E+009;1.717675030231476E-001;4.790039733052254E-002;3.373057814314961E-003;3.330045845359564E-003;
2.404166666666667E+009;1.737451404333115E-001;4.593868926167488E-002;3.630073741078377E-003;3.187062684446573E-003;
2.404333333333334E+009;1.754178702831268E-001;4.433538019657135E-002;3.671612124890089E-003;3.077322850003839E-003;
2.404500000000000E+009;1.771783828735352E-001;4.266908764839172E-002;3.723005531355739E-003;2.980767516419292E-003;
2.404666666666667E+009;1.790841817855835E-001;4.151799529790878E-002;3.769196569919586E-003;2.825660631060600E-003;
2.404833333333334E+009;1.808112114667893E-001;4.022969678044319E-002;3.829307155683637E-003;2.523774746805430E-003;
2.405000000000000E+009;1.824225634336472E-001;3.934999555349350E-002;4.087376873940229E-003;2.462841104716063E-003;
2.405166666666667E+009;1.842231154441834E-001;3.868113458156586E-002;3.852926660329104E-003;2.486738841980696E-003;
2.405333333333334E+009;1.857618838548660E-001;3.811717033386231E-002;3.943851683288813E-003;2.270205644890666E-003;
2.405500000000000E+009;1.875803470611572E-001;3.750049322843552E-002;4.204671364277601E-003;2.275058068335056E-003;
2.405666666666667E+009;1.890401244163513E-001;3.709248825907707E-002;4.183064214885235E-003;2.002873225137591E-003;
2.405833333333334E+009;1.905856579542160E-001;3.699899837374687E-002;4.132790956646204E-003;2.093652728945017E-003;
2.406000000000000E+009;1.918352544307709E-001;3.679486736655235E-002;4.133204929530621E-003;1.966999145224690E-003;
2.406166666666667E+009;1.931594163179398E-001;3.668118268251419E-002;4.272121936082840E-003;1.955694984644651E-003;
2.406333333333334E+009;1.942178905010223E-001;3.690129145979881E-002;4.284972790628672E-003;1.770250615663827E-003;
2.406500000000000E+009;1.953281611204147E-001;3.690491616725922E-002;4.373229108750820E-003;1.745129004120827E-003;
2.406666666666667E+009;1.961411237716675E-001;3.713983669877052E-002;4.520658403635025E-003;1.638501184061170E-003;
2.406833333333334E+009;1.968687027692795E-001;3.731562197208405E-002;4.550618119537830E-003;1.573097542859614E-003;
2.407000000000000E+009;1.973627954721451E-001;3.777434304356575E-002;4.600827582180500E-003;1.366025535389781E-003;
2.407166666666667E+009;1.979455202817917E-001;3.787871450185776E-002;4.869398195296526E-003;1.354787498712540E-003;
2.407333333333334E+009;1.980124562978745E-001;3.820937871932983E-002;5.010879598557949E-003;1.410447759553790E-003;
2.407500000000000E+009;1.981380730867386E-001;3.866549953818321E-002;4.880494903773069E-003;1.037485431879759E-003;
2.407666666666667E+009;1.983002573251724E-001;3.883880376815796E-002;5.086041521281004E-003;9.633254958316684E-004;
2.407833333333334E+009;1.978862285614014E-001;3.901821747422218E-002;5.054273176938295E-003;7.567095453850925E-004;
2.408000000000000E+009;1.979294568300247E-001;3.920574858784676E-002;5.202724598348141E-003;5.613744142465293E-004;
2.408166666666667E+009;1.974530667066574E-001;3.936677053570747E-002;5.290687084197998E-003;4.610524920281023E-004;
2.408333333333334E+009;1.970654726028442E-001;3.905988484621048E-002;5.184074398130179E-003;4.393678682390600E-004;
2.408500000000000E+009;1.963203847408295E-001;3.924333676695824E-002;5.343511234968901E-003;3.039296134375036E-004;
2.408666666666667E+009;1.955539286136627E-001;3.889856114983559E-002;5.500774830579758E-003;1.203229985549115E-004;
2.408833333333334E+009;1.949936151504517E-001;3.867713734507561E-002;5.524774082005024E-003;-3.124179202131927E-004;
2.409000000000000E+009;1.938886940479279E-001;3.806804493069649E-002;5.703316070139408E-003;-3.875389229506254E-004;
2.409166666666667E+009;1.929690241813660E-001;3.753636032342911E-002;5.699710454791784E-003;-7.121333619579673E-004;
2.409333333333334E+009;1.919019967317581E-001;3.676917031407356E-002;5.797731224447489E-003;-9.173253783956170E-004;
2.409500000000000E+009;1.907367259263992E-001;3.580740839242935E-002;5.616143811494112E-003;-1.131642493419349E-003;
2.409666666666667E+009;1.895579844713211E-001;3.472040593624115E-002;5.764476489275694E-003;-1.409694785252214E-003;
2.409833333333334E+009;1.882484406232834E-001;3.352038934826851E-002;5.869016516953707E-003;-1.725433510728180E-003;
2.410000000000000E+009;1.870130896568298E-001;3.219595178961754E-002;5.583657883107662E-003;-2.029761439189315E-003;
2.410166666666667E+009;1.858711540699005E-001;3.054126352071762E-002;5.624684970825911E-003;-2.118676900863648E-003;
2.410333333333334E+009;1.845421493053436E-001;2.890779450535774E-002;5.567707121372223E-003;-2.365947701036930E-003;
2.410500000000000E+009;1.835658550262451E-001;2.706931531429291E-002;5.370331928133965E-003;-2.559843938797712E-003;
2.410666666666667E+009;1.824012398719788E-001;2.500309050083160E-002;5.134186241775751E-003;-2.742057666182518E-003;
2.410833333333334E+009;1.816032826900482E-001;2.298219688236713E-002;4.990058019757271E-003;-2.953582908958197E-003;
2.411000000000000E+009;1.804937422275543E-001;2.078055590391159E-002;4.908340983092785E-003;-3.197827609255910E-003;
2.411166666666667E+009;1.797437816858292E-001;1.843597926199436E-002;4.542772658169270E-003;-3.326135454699397E-003;
2.411333333333334E+009;1.789166182279587E-001;1.589905470609665E-002;4.398830235004425E-003;-3.284390550106764E-003;
2.411500000000000E+009;1.783833801746368E-001;1.351301558315754E-002;4.413568414747715E-003;-3.635644679889083E-003;
2.411666666666667E+009;1.779725700616837E-001;1.115684304386377E-002;4.272919613867998E-003;-3.613959765061736E-003;
2.411833333333334E+009;1.776291280984879E-001;8.679307065904141E-003;4.119386430829763E-003;-3.846394596621394E-003;
2.412000000000000E+009;1.774158626794815E-001;5.828435067087412E-003;3.887658705934882E-003;-3.896058304235339E-003;
2.412166666666667E+009;1.772417575120926E-001;3.436463419348002E-003;3.845813684165478E-003;-3.929695114493370E-003;
2.412333333333334E+009;1.773176491260529E-001;7.737420382909477E-004;3.799687372520566E-003;-4.032404627650976E-003;
2.412500000000000E+009;1.776720881462097E-001;-1.839696662500501E-003;3.538226708769798E-003;-4.111398011445999E-003;
2.412666666666667E+009;1.780197620391846E-001;-4.622103180736303E-003;3.616942325606942E-003;-4.203675314784050E-003;
2.412833333333334E+009;1.786356568336487E-001;-7.193842902779579E-003;3.357638604938984E-003;-4.313571844249964E-003;
2.413000000000000E+009;1.792315393686295E-001;-9.827767498791218E-003;3.270298009738326E-003;-4.557507578283548E-003;
2.413166666666667E+009;1.800314188003540E-001;-1.216407772153616E-002;3.071508137509227E-003;-4.597061779350042E-003;
2.413333333333334E+009;1.808660626411438E-001;-1.486220676451922E-002;2.964544110000134E-003;-4.567035008221865E-003;
2.413500000000000E+009;1.819953471422195E-001;-1.746857538819313E-002;2.882278990000486E-003;-4.671092610806227E-003;
2.413666666666667E+009;1.832038909196854E-001;-1.992747932672501E-002;2.711987588554621E-003;-4.731739405542612E-003;
2.413833333333334E+009;1.844169497489929E-001;-2.205804362893105E-002;2.693861955776811E-003;-5.039603915065527E-003;
2.414000000000000E+009;1.853815168142319E-001;-2.424131333827972E-002;2.496761037036777E-003;-4.975200165063143E-003;
2.414166666666667E+009;1.869903951883316E-001;-2.627109736204147E-002;2.261754125356674E-003;-5.022842437028885E-003;
2.414333333333334E+009;1.879941970109940E-001;-2.866912446916103E-002;2.186086494475603E-003;-5.177599377930164E-003;
2.414500000000000E+009;1.895284801721573E-001;-3.032143414020538E-002;2.015847014263272E-003;-5.202987696975470E-003;
2.414666666666667E+009;1.907816976308823E-001;-3.198752924799919E-002;1.749745220877230E-003;-5.545791704207659E-003;
2.414833333333334E+009;1.922019124031067E-001;-3.369140625000000E-002;1.545080565847457E-003;-5.557588301599026E-003;
2.415000000000000E+009;1.934936791658402E-001;-3.505842387676239E-002;1.297003938816488E-003;-5.714037455618382E-003;
2.415166666666667E+009;1.949861943721771E-001;-3.643342480063438E-002;1.074856729246676E-003;-5.642199888825417E-003;
2.415333333333334E+009;1.963357180356979E-001;-3.759372979402542E-002;9.465119801461697E-004;-5.668600555509329E-003;
2.415500000000000E+009;1.978012025356293E-001;-3.843709453940392E-002;4.854420258197933E-004;-5.588128697127104E-003;
2.415666666666667E+009;1.990712881088257E-001;-3.936202079057694E-002;3.840004501398653E-004;-5.653340369462967E-003;
2.415833333333334E+009;2.001792043447495E-001;-4.011242464184761E-002;1.569928426761180E-004;-5.583616904914379E-003;
2.416000000000000E+009;2.013545185327530E-001;-4.087574407458305E-002;-9.003158629639074E-005;-5.530569702386856E-003;
2.416166666666667E+009;2.023605704307556E-001;-4.146263003349304E-002;-2.222054172307253E-004;-5.645490251481533E-003;
2.416333333333334E+009;2.033109813928604E-001;-4.174125939607620E-002;-3.453101671766490E-004;-5.564731080085039E-003;
2.416500000000000E+009;2.040225118398666E-001;-4.209448769688606E-002;-6.603409419767559E-004;-5.673921667039394E-003;
2.416666666666667E+009;2.046957612037659E-001;-4.235466942191124E-002;-8.291935664601624E-004;-5.543639417737722E-003;
2.416833333333334E+009;2.050519734621048E-001;-4.238060489296913E-002;-9.549212991259992E-004;-5.538028664886951E-003;
2.417000000000000E+009;2.054407596588135E-001;-4.249312356114388E-002;-1.348382444120944E-003;-5.278944969177246E-003;
2.417166666666667E+009;2.054529935121536E-001;-4.231260716915131E-002;-1.423483947291970E-003;-5.399071611464024E-003;
2.417333333333334E+009;2.054156363010407E-001;-4.203014075756073E-002;-1.585850492119789E-003;-5.268103443086147E-003;
2.417500000000000E+009;2.055071145296097E-001;-4.191020503640175E-002;-1.851353328675032E-003;-5.121296737343073E-003;
2.417666666666667E+009;2.050856798887253E-001;-4.155003279447556E-002;-2.006097231060267E-003;-5.121342372149229E-003;
2.417833333333334E+009;2.049171626567841E-001;-4.128063470125198E-002;-2.154890680685639E-003;-5.066716577857733E-003;
2.418000000000000E+009;2.044184654951096E-001;-4.080131649971008E-002;-2.307645976543427E-003;-4.870413336902857E-003;
2.418166666666667E+009;2.037643641233444E-001;-4.056051746010780E-002;-2.518368186429143E-003;-4.830149933695793E-003;
2.418333333333334E+009;2.029979377985001E-001;-4.023945704102516E-002;-2.745321486145258E-003;-4.529134370386601E-003;
2.418500000000000E+009;2.020042091608048E-001;-4.006247222423554E-002;-2.458849223330617E-003;-4.402699880301952E-003;
2.418666666666667E+009;2.012090533971787E-001;-3.960427269339562E-002;-2.962855622172356E-003;-4.231476690620184E-003;
2.418833333333334E+009;2.000449299812317E-001;-3.966855257749558E-002;-3.045320278033614E-003;-4.165670368820429E-003;
2.419000000000000E+009;1.987466663122177E-001;-3.967531025409699E-002;-3.157108556479216E-003;-4.093868192285299E-003;
2.419166666666667E+009;1.975015550851822E-001;-3.978027030825615E-002;-3.220985876396298E-003;-3.942682873457670E-003;
2.419333333333334E+009;1.959928721189499E-001;-4.002217575907707E-002;-3.237876109778881E-003;-3.779946360737085E-003;
2.419500000000000E+009;1.945417821407318E-001;-4.027989879250526E-002;-3.245716914534569E-003;-3.536592004820705E-003;
2.419666666666667E+009;1.929020881652832E-001;-4.091987386345863E-002;-3.237866330891848E-003;-3.609321312978864E-003;
2.419833333333334E+009;1.912683844566345E-001;-4.122093319892883E-002;-3.281217999756336E-003;-3.469488350674510E-003;
2.420000000000000E+009;1.896303147077560E-001;-4.213711246848106E-002;-3.334310604259372E-003;-3.485126420855522E-003;
2.420166666666667E+009;1.878024786710739E-001;-4.271399602293968E-002;-3.488541347905994E-003;-3.267732914537191E-003;
2.420333333333334E+009;1.860370188951492E-001;-4.388798400759697E-002;-3.540998790413141E-003;-3.361982991918922E-003;
2.420500000000000E+009;1.839984655380249E-001;-4.494977742433548E-002;-3.593720961362124E-003;-3.269529668614268E-003;
2.420666666666667E+009;1.823351234197617E-001;-4.622748866677284E-002;-3.702915040776134E-003;-3.204980632290244E-003;
2.420833333333334E+009;1.804935634136200E-001;-4.769719764590263E-002;-3.665950614959002E-003;-2.931595081463456E-003;
2.421000000000000E+009;1.789991110563278E-001;-4.917982593178749E-002;-3.813178976997733E-003;-2.886600792407990E-003;
2.421166666666667E+009;1.770863682031632E-001;-5.083606392145157E-002;-3.929561004042625E-003;-2.843177411705256E-003;
2.421333333333334E+009;1.752005964517593E-001;-5.241417139768601E-002;-4.004806280136108E-003;-2.706166822463274E-003;
2.421500000000000E+009;1.736333817243576E-001;-5.443852022290230E-002;-4.034941084682941E-003;-2.493619220331311E-003;
2.421666666666667E+009;1.722140312194824E-001;-5.635799467563629E-002;-4.050330724567175E-003;-2.425990300253034E-003;
2.421833333333334E+009;1.708375960588455E-001;-5.838743224740028E-002;-4.217108245939016E-003;-2.413415117189288E-003;
2.422000000000000E+009;1.692074239253998E-001;-6.020015478134155E-002;-4.246110096573830E-003;-2.338496036827564E-003;
2.422166666666667E+009;1.682640016078949E-001;-6.241808086633682E-002;-4.249948076903820E-003;-2.207709476351738E-003;
2.422333333333334E+009;1.670721769332886E-001;-6.461150944232941E-002;-4.227743018418551E-003;-2.005439717322588E-003;
2.422500000000000E+009;1.660163551568985E-001;-6.664474308490753E-002;-4.312284290790558E-003;-1.905380515381694E-003;
2.422666666666667E+009;1.652773767709732E-001;-6.888956576585770E-002;-4.261552821844816E-003;-1.731545780785382E-003;
2.422833333333334E+009;1.644271165132523E-001;-7.119660824537277E-002;-4.337899386882782E-003;-1.735547673888505E-003;
2.423000000000000E+009;1.637831330299377E-001;-7.349470257759094E-002;-4.427338484674692E-003;-1.767251407727599E-003;
2.423166666666667E+009;1.632882356643677E-001;-7.557809352874756E-002;-4.371540620923042E-003;-1.763910870067775E-003;
2.423333333333334E+009;1.629128009080887E-001;-7.772956788539887E-002;-4.532128572463989E-003;-1.455577556043863E-003;
2.423500000000000E+009;1.627456247806549E-001;-7.992169260978699E-002;-4.603606648743153E-003;-1.520191319286823E-003;
2.423666666666667E+009;1.627677530050278E-001;-8.200284093618393E-002;-4.581934772431850E-003;-1.472563599236310E-003;
2.423833333333334E+009;1.624654978513718E-001;-8.397262543439865E-002;-4.620264749974012E-003;-1.225391519255936E-003;
2.424000000000000E+009;1.628188490867615E-001;-8.597648143768311E-002;-4.741087090224028E-003;-1.171868760138750E-003;
2.424166666666667E+009;1.628397554159164E-001;-8.784622699022293E-002;-4.872715100646019E-003;-1.117559848353267E-003;
2.424333333333334E+009;1.630809307098389E-001;-8.968454599380493E-002;-4.939332604408264E-003;-9.439948480576277E-004;
2.424500000000000E+009;1.635536700487137E-001;-9.154423326253891E-002;-4.918487276881933E-003;-7.202530978247523E-004;
2.424666666666667E+009;1.639396697282791E-001;-9.317565709352493E-002;-5.080059170722961E-003;-5.553705268539488E-004;
2.424833333333334E+009;1.643672585487366E-001;-9.466175734996796E-002;-5.149022210389376E-003;-5.218915175646544E-004;
2.425000000000000E+009;1.649985909461975E-001;-9.597590565681458E-002;-5.232366267591715E-003;-1.762544416124001E-004;
2.425166666666667E+009;1.654477119445801E-001;-9.725630283355713E-002;-5.238980986177921E-003;-7.246714085340500E-005;
2.425333333333334E+009;1.658893972635269E-001;-9.845381975173950E-002;-5.151201039552689E-003;1.416180020896718E-004;
2.425500000000000E+009;1.665663868188858E-001;-9.955076128244400E-002;-5.353863351047039E-003;2.760400529950857E-004;
2.425666666666667E+009;1.671355217695236E-001;-1.003830656409264E-001;-5.181080661714077E-003;4.051869909744710E-004;
2.425833333333334E+009;1.677236855030060E-001;-1.013025119900703E-001;-5.378512665629387E-003;6.710240850225091E-004;
2.426000000000000E+009;1.684007197618485E-001;-1.017952561378479E-001;-5.386925768107176E-003;9.494330734014511E-004;
2.426166666666667E+009;1.689811795949936E-001;-1.024560108780861E-001;-5.152620840817690E-003;1.189053640700877E-003;
2.426333333333334E+009;1.694042831659317E-001;-1.029918938875198E-001;-5.257689394056797E-003;1.285468693822622E-003;
2.426500000000000E+009;1.699992716312408E-001;-1.033617928624153E-001;-5.070275627076626E-003;1.554378075525165E-003;
2.426666666666667E+009;1.704345345497131E-001;-1.036562994122505E-001;-4.990519024431706E-003;1.751542673446238E-003;
2.426833333333334E+009;1.709965169429779E-001;-1.039178296923637E-001;-4.899333231151104E-003;1.923115924000740E-003;
2.427000000000000E+009;1.712083369493485E-001;-1.041139736771584E-001;-5.043672397732735E-003;2.102391794323921E-003;
2.427166666666667E+009;1.714681982994080E-001;-1.041950657963753E-001;-4.836518317461014E-003;2.242892049252987E-003;
2.427333333333334E+009;1.716594249010086E-001;-1.044446825981140E-001;-4.781307652592659E-003;2.370490226894617E-003;
2.427500000000000E+009;1.716430336236954E-001;-1.044555231928825E-001;-4.852685146033764E-003;2.511378610506654E-003;
2.427666666666667E+009;1.716244220733643E-001;-1.043778583407402E-001;-4.786223638802767E-003;2.746085403487086E-003;
2.427833333333334E+009;1.714181005954742E-001;-1.044153571128845E-001;-4.673543386161327E-003;2.705910708755255E-003;
