# Version 1.00
#
freq[Hz];re:Trc1_S11;im:Trc1_S11;re:Trc2_S21;im:Trc2_S21;
2.400000000000000E+009;1.500302404165268E-001;1.136183068156242E-001;2.919940743595362E-003;-7.818367521394976E-006;
2.400166666666667E+009;1.498403549194336E-001;1.112134009599686E-001;3.081496106460691E-003;-2.360726939514279E-004;
2.400333333333334E+009;1.498143225908279E-001;1.091062724590302E-001;3.358554560691118E-003;-4.671848728321493E-004;
2.400500000000000E+009;1.501076370477676E-001;1.065465509891510E-001;3.378607332706451E-003;-6.942424224689603E-004;
2.400666666666667E+009;1.501863896846771E-001;1.041308566927910E-001;3.491137409582734E-003;-9.597640018910170E-004;
2.400833333333334E+009;1.504039764404297E-001;1.011806353926659E-001;3.612633328884840E-003;-1.234457828104496E-003;
2.401000000000000E+009;1.507111936807632E-001;9.841865301132202E-002;3.507260000333190E-003;-1.644345466047525E-003;
2.401166666666667E+009;1.509675830602646E-001;9.571956098079681E-002;3.494293661788106E-003;-1.969816861674190E-003;
2.401333333333334E+009;1.513591855764389E-001;9.295560419559479E-002;3.241194644942880E-003;-2.137395087629557E-003;
2.401500000000000E+009;1.520218104124069E-001;8.989245444536209E-002;3.251175163313747E-003;-2.466892125084996E-003;
2.401666666666667E+009;1.523608863353729E-001;8.722457289695740E-002;2.795650390908122E-003;-2.701329998672009E-003;
2.401833333333334E+009;1.531356722116470E-001;8.452650904655457E-002;2.552275545895100E-003;-2.948353532701731E-003;
2.402000000000000E+009;1.540606766939163E-001;8.180274814367294E-002;2.271301578730345E-003;-2.930391347035766E-003;
2.402166666666667E+009;1.550342738628388E-001;7.923576980829239E-002;2.169620944187045E-003;-3.027046797797084E-003;
2.402333333333334E+009;1.561997383832932E-001;7.649233192205429E-002;1.811908558011055E-003;-3.099698806181550E-003;
2.402500000000000E+009;1.575122326612473E-001;7.418734580278397E-002;1.615547691471875E-003;-3.010085318237543E-003;
2.402666666666667E+009;1.586862206459045E-001;7.166907936334610E-002;1.668692566454411E-003;-3.017049515619874E-003;
2.402833333333334E+009;1.602983474731445E-001;6.950921565294266E-002;1.346050994470716E-003;-2.981201279908419E-003;
2.403000000000000E+009;1.618244349956513E-001;6.714618951082230E-002;1.232255250215530E-003;-2.964386017993093E-003;
2.403166666666667E+009;1.637717783451080E-001;6.499825417995453E-002;9.952990803867579E-004;-2.724784426391125E-003;
2.403333333333334E+009;1.656298786401749E-001;6.253341585397720E-002;1.041971030645073E-003;-2.758141607046127E-003;
2.403500000000000E+009;1.674486994743347E-001;6.054105982184410E-002;9.624362573958933E-004;-2.744917292147875E-003;
2.403666666666667E+009;1.694387346506119E-001;5.859912931919098E-002;9.957132861018181E-004;-2.818852663040161E-003;
2.403833333333334E+009;1.713245362043381E-001;5.678229406476021E-002;9.638033225201070E-004;-2.681266283616424E-003;
2.404000000000000E+009;1.731483787298203E-001;5.487104132771492E-002;9.050508961081505E-004;-2.737587550655007E-003;
2.404166666666667E+009;1.749511659145355E-001;5.333857983350754E-002;8.481909753754735E-004;-2.816360443830490E-003;
2.404333333333334E+009;1.770353019237518E-001;5.186499655246735E-002;9.856579126790166E-004;-2.964868210256100E-003;
2.404500000000000E+009;1.786634325981140E-001;5.039568617939949E-002;7.599580567330122E-004;-3.111501690000296E-003;
2.404666666666667E+009;1.806104630231857E-001;4.911129176616669E-002;7.058023475110531E-004;-3.307089675217867E-003;
2.404833333333334E+009;1.825582236051559E-001;4.801443964242935E-002;5.471404292620719E-004;-3.439542138949037E-003;
2.405000000000000E+009;1.840597838163376E-001;4.741051793098450E-002;3.542419581208378E-004;-3.373729065060616E-003;
2.405166666666667E+009;1.857706606388092E-001;4.649809747934341E-002;1.281665608985350E-004;-3.638947149738669E-003;
2.405333333333334E+009;1.872547566890717E-001;4.603853449225426E-002;2.017447150137741E-005;-3.508786205202341E-003;
2.405500000000000E+009;1.888813674449921E-001;4.534384235739708E-002;-3.025722689926624E-004;-3.553871531039476E-003;
2.405666666666667E+009;1.902445703744888E-001;4.507966339588165E-002;-6.141453632153571E-004;-3.524776082485914E-003;
2.405833333333334E+009;1.916158646345139E-001;4.469747468829155E-002;-5.351101281121373E-004;-3.454070771113038E-003;
2.406000000000000E+009;1.927755922079086E-001;4.456508159637451E-002;-1.071559963747859E-003;-3.472043201327324E-003;
2.406166666666667E+009;1.939034312963486E-001;4.431962966918945E-002;-1.238402561284602E-003;-3.440142842009664E-003;
2.406333333333334E+009;1.949443966150284E-001;4.424869641661644E-002;-1.434522215276957E-003;-3.163077635690570E-003;
2.406500000000000E+009;1.958248317241669E-001;4.416275769472122E-002;-1.512813149020076E-003;-3.128701355308294E-003;
2.406666666666667E+009;1.966545432806015E-001;4.404104128479958E-002;-1.863303943537176E-003;-2.937901765108109E-003;
2.406833333333334E+009;1.973907053470612E-001;4.409924149513245E-002;-1.873796805739403E-003;-2.717518946155906E-003;
2.407000000000000E+009;1.975680142641068E-001;4.424602538347244E-002;-1.935654785484076E-003;-2.519402420148253E-003;
2.407166666666667E+009;1.981425285339356E-001;4.397038742899895E-002;-2.101620193570852E-003;-2.358682919293642E-003;
2.407333333333334E+009;1.980375498533249E-001;4.399408400058746E-002;-2.281512599438429E-003;-2.246897201985121E-003;
2.407500000000000E+009;1.980510652065277E-001;4.410401731729507E-002;-2.151835476979613E-003;-1.906222314573824E-003;
2.407666666666667E+009;1.981672942638397E-001;4.380970820784569E-002;-2.157039009034634E-003;-1.872495864517987E-003;
2.407833333333334E+009;1.975731402635574E-001;4.363843053579330E-002;-2.064464846625924E-003;-1.699567306786776E-003;
2.408000000000000E+009;1.975659728050232E-001;4.344666004180908E-002;-2.056819852441549E-003;-1.714776270091534E-003;
2.408166666666667E+009;1.969553232192993E-001;4.312070831656456E-002;-1.933045801706612E-003;-1.501465798355639E-003;
2.408333333333334E+009;1.963513940572739E-001;4.256558418273926E-002;-2.073652110993862E-003;-1.435915241017938E-003;
2.408500000000000E+009;1.955285221338272E-001;4.214962199330330E-002;-1.995930681005120E-003;-1.280706492252648E-003;
2.408666666666667E+009;1.948545128107071E-001;4.166154935956001E-002;-1.950012054294348E-003;-1.164684421382844E-003;
2.408833333333334E+009;1.940648108720779E-001;4.091922566294670E-002;-1.858425792306662E-003;-1.029948121868074E-003;
2.409000000000000E+009;1.931362301111221E-001;3.985497727990151E-002;-1.840592245571315E-003;-1.157527673058212E-003;
2.409166666666667E+009;1.920098513364792E-001;3.894578665494919E-002;-1.701126573607326E-003;-1.081886119209230E-003;
2.409333333333334E+009;1.909385770559311E-001;3.796659409999847E-002;-1.726873568259180E-003;-1.109298435039818E-003;
2.409500000000000E+009;1.898133158683777E-001;3.658186271786690E-002;-1.761072780936956E-003;-1.108809257857502E-003;
2.409666666666667E+009;1.887314319610596E-001;3.533741086721420E-002;-1.654721796512604E-003;-9.897653944790363E-004;
2.409833333333334E+009;1.874935030937195E-001;3.375987708568573E-002;-1.705540693365037E-003;-1.044384203851223E-003;
2.410000000000000E+009;1.864938437938690E-001;3.203563392162323E-002;-1.741398125886917E-003;-1.116291270591319E-003;
2.410166666666667E+009;1.853059977293015E-001;3.031870722770691E-002;-1.547965221107006E-003;-1.074367435649037E-003;
2.410333333333334E+009;1.844309270381928E-001;2.858559601008892E-002;-1.669173128902912E-003;-9.717742213979363E-004;
2.410500000000000E+009;1.832825690507889E-001;2.667209133505821E-002;-1.714242505840957E-003;-1.023838296532631E-003;
2.410666666666667E+009;1.822520047426224E-001;2.446821331977844E-002;-1.729320269078016E-003;-1.117095816880465E-003;
2.410833333333334E+009;1.814987510442734E-001;2.220326103270054E-002;-1.862269011326134E-003;-1.012650900520384E-003;
2.411000000000000E+009;1.807280033826828E-001;2.003192342817783E-002;-1.893926411867142E-003;-1.150652067735791E-003;
2.411166666666667E+009;1.801615655422211E-001;1.781783439218998E-002;-1.990756485611200E-003;-1.214741496369243E-003;
2.411333333333334E+009;1.793865859508514E-001;1.522599160671234E-002;-2.120893681421876E-003;-1.122731599025428E-003;
2.411500000000000E+009;1.790825873613358E-001;1.299197878688574E-002;-2.261184388771653E-003;-1.095820218324661E-003;
2.411666666666667E+009;1.787767410278320E-001;1.058307103812695E-002;-2.204813295975328E-003;-1.040524803102016E-003;
2.411833333333334E+009;1.783560812473297E-001;8.254695683717728E-003;-2.287056762725115E-003;-9.883884340524674E-004;
2.412000000000000E+009;1.783344596624374E-001;5.655249580740929E-003;-2.435397356748581E-003;-8.805006509646773E-004;
2.412166666666667E+009;1.786421388387680E-001;3.272962523624301E-003;-2.497299807146192E-003;-8.033803896978498E-004;
2.412333333333334E+009;1.787389069795609E-001;5.961325950920582E-004;-2.585653681308031E-003;-7.406955119222403E-004;
2.412500000000000E+009;1.791466921567917E-001;-1.723465509712696E-003;-2.629469381645322E-003;-6.293561891652644E-004;
2.412666666666667E+009;1.795832514762878E-001;-4.464432131499052E-003;-2.762244548648596E-003;-4.137333598919213E-004;
2.412833333333334E+009;1.804258525371552E-001;-6.626157555729151E-003;-2.824430819600821E-003;-1.496148470323533E-004;
2.413000000000000E+009;1.811988502740860E-001;-9.035329334437847E-003;-2.896409947425127E-003;-1.913388696266338E-004;
2.413166666666667E+009;1.819637715816498E-001;-1.111094560474157E-002;-2.950577065348625E-003;5.415032865130343E-005;
2.413333333333334E+009;1.829730123281479E-001;-1.359237171709538E-002;-2.936488250270486E-003;3.284518024884164E-004;
2.413500000000000E+009;1.840225905179977E-001;-1.602764241397381E-002;-2.959941746667028E-003;4.768670187331736E-004;
2.413666666666667E+009;1.850899308919907E-001;-1.801216788589954E-002;-3.083786461502314E-003;7.203431450761855E-004;
2.413833333333334E+009;1.862771362066269E-001;-2.021151781082153E-002;-2.771976171061397E-003;8.077504462562501E-004;
2.414000000000000E+009;1.873854547739029E-001;-2.212050929665566E-002;-2.695583738386631E-003;1.021629665046930E-003;
2.414166666666667E+009;1.885950863361359E-001;-2.394653484225273E-002;-2.571548102423549E-003;1.053496380336583E-003;
2.414333333333334E+009;1.896969825029373E-001;-2.597205527126789E-002;-2.447116654366255E-003;1.306891557760537E-003;
2.414500000000000E+009;1.910583078861237E-001;-2.751460857689381E-002;-2.310282550752163E-003;1.273765228688717E-003;
2.414666666666667E+009;1.922543197870255E-001;-2.896055765450001E-002;-2.078587422147393E-003;1.380833098664880E-003;
2.414833333333334E+009;1.935232430696487E-001;-3.034332580864430E-002;-2.027526963502169E-003;1.385001931339502E-003;
2.415000000000000E+009;1.946015954017639E-001;-3.166803717613220E-002;-1.962279435247183E-003;1.465832116082311E-003;
2.415166666666667E+009;1.960291862487793E-001;-3.269160538911820E-002;-1.943137496709824E-003;1.583177363499999E-003;
2.415333333333334E+009;1.970847547054291E-001;-3.366106003522873E-002;-1.707106013782322E-003;1.352764084003866E-003;
2.415500000000000E+009;1.982437670230866E-001;-3.425334021449089E-002;-1.743557397276163E-003;1.475322293117642E-003;
2.415666666666667E+009;1.994242072105408E-001;-3.524883091449738E-002;-1.731544034555554E-003;1.549526466988027E-003;
2.415833333333334E+009;2.002742588520050E-001;-3.574636951088905E-002;-1.683186739683151E-003;1.559845986776054E-003;
2.416000000000000E+009;2.010735869407654E-001;-3.622511774301529E-002;-1.742044580169022E-003;1.627675490453839E-003;
2.416166666666667E+009;2.018794417381287E-001;-3.683053702116013E-002;-1.655546133406460E-003;1.826989231631160E-003;
2.416333333333334E+009;2.026590853929520E-001;-3.706132993102074E-002;-1.569163519889116E-003;1.832775189541280E-003;
2.416500000000000E+009;2.032191157341003E-001;-3.735077753663063E-002;-1.618722453713417E-003;1.858802163042128E-003;
2.416666666666667E+009;2.035601735115051E-001;-3.762219473719597E-002;-1.428044866770506E-003;1.979807624593377E-003;
2.416833333333334E+009;2.037196457386017E-001;-3.753757476806641E-002;-1.346130971796811E-003;2.066605025902391E-003;
2.417000000000000E+009;2.038233727216721E-001;-3.766569122672081E-002;-1.178555074147880E-003;2.304780064150691E-003;
2.417166666666667E+009;2.037662118673325E-001;-3.742551803588867E-002;-9.851527865976095E-004;2.252454636618495E-003;
2.417333333333334E+009;2.034453004598618E-001;-3.728633001446724E-002;-8.261355105787516E-004;2.400991506874561E-003;
2.417500000000000E+009;2.032141089439392E-001;-3.715599700808525E-002;-8.094679214991629E-004;2.297598635777831E-003;
2.417666666666667E+009;2.027702778577805E-001;-3.687805682420731E-002;-4.411675035953522E-004;2.287085866555572E-003;
2.417833333333334E+009;2.024838030338287E-001;-3.670058771967888E-002;-3.676205815281719E-004;2.194921486079693E-003;
2.418000000000000E+009;2.018340826034546E-001;-3.628163039684296E-002;-9.993447747547180E-005;2.076010918244720E-003;
2.418166666666667E+009;2.010038793087006E-001;-3.615918383002281E-002;-9.720877278596163E-005;2.109154826030135E-003;
2.418333333333334E+009;2.001087367534638E-001;-3.601855039596558E-002;6.607431714655832E-005;1.901883049868047E-003;
2.418500000000000E+009;1.993046253919601E-001;-3.583444654941559E-002;2.240163157694042E-004;1.766776316799223E-003;
2.418666666666667E+009;1.985187381505966E-001;-3.573884069919586E-002;1.276898547075689E-004;1.879789051599801E-003;
2.418833333333334E+009;1.973210126161575E-001;-3.583425283432007E-002;2.207010984420776E-004;1.684628077782691E-003;
2.419000000000000E+009;1.959537118673325E-001;-3.608760237693787E-002;2.032709307968617E-004;1.512375893071294E-003;
2.419166666666667E+009;1.948423534631729E-001;-3.627992048859596E-002;1.646478049224243E-004;1.363096409477294E-003;
2.419333333333334E+009;1.934709250926971E-001;-3.665564209222794E-002;5.151626464794390E-005;1.325002987869084E-003;
2.419500000000000E+009;1.920116990804672E-001;-3.724849596619606E-002;1.064308380591683E-004;1.273892004974186E-003;
2.419666666666667E+009;1.904716044664383E-001;-3.810601681470871E-002;4.503381205722690E-005;1.201944076456130E-003;
2.419833333333334E+009;1.888175904750824E-001;-3.874537721276283E-002;-1.269122294615954E-004;1.197009813040495E-003;
2.420000000000000E+009;1.873769909143448E-001;-3.965556994080544E-002;-2.854799095075578E-004;1.158666564151645E-003;
2.420166666666667E+009;1.858603954315186E-001;-4.058277979493141E-002;-1.882800570456311E-004;1.298701739870012E-003;
2.420333333333334E+009;1.842503249645233E-001;-4.184966534376144E-002;-2.260456822114065E-004;1.347526093013585E-003;
2.420500000000000E+009;1.824923306703568E-001;-4.322899505496025E-002;-3.275472845416516E-004;1.532063004560769E-003;
2.420666666666667E+009;1.809133142232895E-001;-4.451764002442360E-002;-2.329691051272675E-004;1.797852106392384E-003;
2.420833333333334E+009;1.791449189186096E-001;-4.596152156591415E-002;-3.545535146258771E-004;1.710804761387408E-003;
2.421000000000000E+009;1.778252869844437E-001;-4.760515689849854E-002;-2.027596638072282E-004;1.846652710810304E-003;
2.421166666666667E+009;1.762117892503738E-001;-4.954743012785912E-002;-5.089347178000026E-005;1.976715633645654E-003;
2.421333333333334E+009;1.745034605264664E-001;-5.097872391343117E-002;3.327217418700457E-004;2.075061667710543E-003;
2.421500000000000E+009;1.731955707073212E-001;-5.288017168641090E-002;4.930112045258284E-004;2.128807594999671E-003;
2.421666666666667E+009;1.717474907636643E-001;-5.464446917176247E-002;5.854183109477162E-004;2.066160319373012E-003;
2.421833333333334E+009;1.708291023969650E-001;-5.649207904934883E-002;8.704944048076868E-004;1.952302642166615E-003;
2.422000000000000E+009;1.694771349430084E-001;-5.846288055181503E-002;1.040129573084414E-003;1.913979998789728E-003;
2.422166666666667E+009;1.686598807573319E-001;-6.045679375529289E-002;1.177054364234209E-003;1.764858723618090E-003;
2.422333333333334E+009;1.676501482725143E-001;-6.252378225326538E-002;1.411300967447460E-003;1.626284676603973E-003;
2.422500000000000E+009;1.669460833072662E-001;-6.436896324157715E-002;1.278632786124945E-003;1.468681497499347E-003;
2.422666666666667E+009;1.662034541368485E-001;-6.639109551906586E-002;1.355985412374139E-003;1.277295290492475E-003;
2.422833333333334E+009;1.657442152500153E-001;-6.852611899375916E-002;1.254009432159364E-003;1.109975622966886E-003;
2.423000000000000E+009;1.652444154024124E-001;-7.063812762498856E-002;1.352695864625275E-003;9.459468419663608E-004;
2.423166666666667E+009;1.650003492832184E-001;-7.247933000326157E-002;1.073333667591214E-003;9.383809519931674E-004;
2.423333333333334E+009;1.646679788827896E-001;-7.460080087184906E-002;1.294090063311160E-003;7.397014996968210E-004;
2.423500000000000E+009;1.649270355701447E-001;-7.620839774608612E-002;1.207697088830173E-003;9.049662621691823E-004;
2.423666666666667E+009;1.648838967084885E-001;-7.830020785331726E-002;1.264072721824050E-003;5.730083794333041E-004;
2.423833333333334E+009;1.647905111312866E-001;-8.004723489284515E-002;9.390658233314753E-004;6.427410989999771E-004;
2.424000000000000E+009;1.650318056344986E-001;-8.181896060705185E-002;1.124050933867693E-003;7.655078661628068E-004;
2.424166666666667E+009;1.650656163692474E-001;-8.350061625242233E-002;1.048125792294741E-003;6.741333636455238E-004;
2.424333333333334E+009;1.655219793319702E-001;-8.495763689279556E-002;1.202740473672748E-003;5.997168482281268E-004;
2.424500000000000E+009;1.659686416387558E-001;-8.659300208091736E-002;1.022578217089176E-003;5.947208264842629E-004;
2.424666666666667E+009;1.663103848695755E-001;-8.801089972257614E-002;1.068248064257205E-003;4.994974588043988E-004;
2.424833333333334E+009;1.669665277004242E-001;-8.934350311756134E-002;1.050296006724238E-003;4.683081060647965E-004;
2.425000000000000E+009;1.673983186483383E-001;-9.041448682546616E-002;1.125178416259587E-003;4.823156632483006E-004;
2.425166666666667E+009;1.679408103227615E-001;-9.155713766813278E-002;1.098240027204156E-003;4.203808784950525E-004;
2.425333333333334E+009;1.684324443340302E-001;-9.248882532119751E-002;1.186199137009680E-003;3.747348091565073E-004;
2.425500000000000E+009;1.689983755350113E-001;-9.357765316963196E-002;1.188067020848393E-003;3.619792696554214E-004;
2.425666666666667E+009;1.695696413516998E-001;-9.417005628347397E-002;1.060862676240504E-003;3.549872490111738E-004;
2.425833333333334E+009;1.700169146060944E-001;-9.505346417427063E-002;1.204913249239326E-003;3.473488905001432E-004;
2.426000000000000E+009;1.706706881523132E-001;-9.547238796949387E-002;1.103189308196306E-003;2.111142384819686E-004;
2.426166666666667E+009;1.711444556713104E-001;-9.602106362581253E-002;1.033998327329755E-003;1.188715541502461E-004;
2.426333333333334E+009;1.714958250522614E-001;-9.653387963771820E-002;1.229408895596862E-003;9.378411778016016E-005;
2.426500000000000E+009;1.719925850629807E-001;-9.691490978002548E-002;1.085665775462985E-003;-4.204135257168673E-005;
2.426666666666667E+009;1.724105179309845E-001;-9.725011140108109E-002;1.125036622397602E-003;5.536125536309555E-005;
2.426833333333334E+009;1.727884262800217E-001;-9.749196469783783E-002;1.074254745617509E-003;-5.559060446103104E-005;
2.427000000000000E+009;1.729639172554016E-001;-9.778274595737457E-002;9.558536694385111E-004;-1.129047741414979E-004;
2.427166666666667E+009;1.731354445219040E-001;-9.796173870563507E-002;1.027513528242707E-003;-1.314488472416997E-004;
2.427333333333334E+009;1.731749922037125E-001;-9.828841686248779E-002;9.386849123984575E-004;-2.641270693857223E-004;
2.427500000000000E+009;1.730768829584122E-001;-9.856920689344406E-002;8.305526571348310E-004;-2.787963021546602E-004;
2.427666666666667E+009;1.728440225124359E-001;-9.862297773361206E-002;7.969094440340996E-004;-4.049538692925125E-004;
2.427833333333334E+009;1.726063191890717E-001;-9.883145987987518E-002;8.200482698157430E-004;-5.180838052183390E-004;
