# Version 1.00
#
freq[Hz];re:Trc1_S11;im:Trc1_S11;re:Trc2_S21;im:Trc2_S21;
2.400000000000000E+009;1.499652564525604E-001;1.136544495820999E-001;2.918017795309424E-003;-4.515246837399900E-005;
2.400166666666667E+009;1.497539281845093E-001;1.113515049219132E-001;3.197896061465144E-003;-9.699854854261503E-005;
2.400333333333334E+009;1.499351412057877E-001;1.091586425900459E-001;3.293559420853853E-003;-3.625172248575836E-004;
2.400500000000000E+009;1.500692367553711E-001;1.063567474484444E-001;3.450049087405205E-003;-5.839730147272348E-004;
2.400666666666667E+009;1.501608639955521E-001;1.039207428693771E-001;3.508563386276364E-003;-8.679364109411836E-004;
2.400833333333334E+009;1.503394097089768E-001;1.011864766478539E-001;3.564496757462621E-003;-1.235336530953646E-003;
2.401000000000000E+009;1.507360488176346E-001;9.840466827154160E-002;3.666181582957506E-003;-1.658642198890448E-003;
2.401166666666667E+009;1.509621739387512E-001;9.584149718284607E-002;3.557236632332206E-003;-1.868274295702577E-003;
2.401333333333334E+009;1.513071805238724E-001;9.294439852237701E-002;3.315638517960906E-003;-2.246622927486897E-003;
2.401500000000000E+009;1.520345658063889E-001;9.010877460241318E-002;3.183528548106551E-003;-2.505318960174918E-003;
2.401666666666667E+009;1.523664146661758E-001;8.725198358297348E-002;2.926517045125365E-003;-2.661202102899551E-003;
2.401833333333334E+009;1.530577093362808E-001;8.457996696233749E-002;2.714504022151232E-003;-2.789248712360859E-003;
2.402000000000000E+009;1.541420668363571E-001;8.180415630340576E-002;2.388516906648874E-003;-2.997944597154856E-003;
2.402166666666667E+009;1.550930589437485E-001;7.935570925474167E-002;2.224494004622102E-003;-3.215815406292677E-003;
2.402333333333334E+009;1.563052386045456E-001;7.657087594270706E-002;1.803082064725459E-003;-3.134873462840915E-003;
2.402500000000000E+009;1.574845761060715E-001;7.411579042673111E-002;1.690286095254123E-003;-3.179633524268866E-003;
2.402666666666667E+009;1.589266806840897E-001;7.182956486940384E-002;1.378298387862742E-003;-3.097281092777848E-003;
2.402833333333334E+009;1.602926850318909E-001;6.935231387615204E-002;1.369469100609422E-003;-3.030979307368398E-003;
2.403000000000000E+009;1.620737761259079E-001;6.715822964906693E-002;1.278591342270374E-003;-2.775960834696889E-003;
2.403166666666667E+009;1.640480458736420E-001;6.494538486003876E-002;1.129160169512034E-003;-2.780023729428649E-003;
2.403333333333334E+009;1.656791269779205E-001;6.254616379737854E-002;9.406278259120882E-004;-2.794081345200539E-003;
2.403500000000000E+009;1.675595939159393E-001;6.057623401284218E-002;1.041905255988240E-003;-2.746320096775889E-003;
2.403666666666667E+009;1.696383953094482E-001;5.868332833051682E-002;1.037051086314023E-003;-2.893766155466437E-003;
2.403833333333334E+009;1.714851558208466E-001;5.681312829256058E-002;9.938064031302929E-004;-2.819464076310396E-003;
2.404000000000000E+009;1.732894182205200E-001;5.483634024858475E-002;9.794543730095029E-004;-2.713172696530819E-003;
2.404166666666667E+009;1.753212064504623E-001;5.331746116280556E-002;8.886932628229260E-004;-2.841896144673228E-003;
2.404333333333334E+009;1.771084666252136E-001;5.170045047998428E-002;9.381845011375845E-004;-2.938936464488506E-003;
2.404500000000000E+009;1.789025664329529E-001;5.044379457831383E-002;8.668035152368248E-004;-3.103627124801278E-003;
2.404666666666667E+009;1.807747334241867E-001;4.927210882306099E-002;7.189977914094925E-004;-3.317737020552158E-003;
2.404833333333334E+009;1.827002167701721E-001;4.778890311717987E-002;4.785102501045913E-004;-3.276043338701129E-003;
2.405000000000000E+009;1.840075403451920E-001;4.729602485895157E-002;4.418861062731594E-004;-3.536124015226960E-003;
2.405166666666667E+009;1.858017593622208E-001;4.638545215129852E-002;1.709129719529301E-004;-3.629550337791443E-003;
2.405333333333334E+009;1.874809712171555E-001;4.596838355064392E-002;2.969291017507203E-005;-3.501496510580182E-003;
2.405500000000000E+009;1.889389604330063E-001;4.540810361504555E-002;-2.937297686003149E-004;-3.724912879988551E-003;
2.405666666666667E+009;1.904749423265457E-001;4.491967707872391E-002;-5.107509787194431E-004;-3.651409177109599E-003;
2.405833333333334E+009;1.917749345302582E-001;4.460434988141060E-002;-8.135770913213491E-004;-3.558802651241422E-003;
2.406000000000000E+009;1.929128021001816E-001;4.443893209099770E-002;-8.610044606029987E-004;-3.481882391497493E-003;
2.406166666666667E+009;1.939643770456314E-001;4.408261552453041E-002;-1.208731671795249E-003;-3.504413180053234E-003;
2.406333333333334E+009;1.950171440839768E-001;4.405810683965683E-002;-1.362819923087955E-003;-3.346171928569675E-003;
2.406500000000000E+009;1.959235966205597E-001;4.399814829230309E-002;-1.535167684778571E-003;-3.117020474746823E-003;
2.406666666666667E+009;1.965183168649674E-001;4.401840269565582E-002;-1.741678337566555E-003;-3.037853166460991E-003;
2.406833333333334E+009;1.972846835851669E-001;4.390588402748108E-002;-1.935731386765838E-003;-2.841449575498700E-003;
2.407000000000000E+009;1.976141482591629E-001;4.403274133801460E-002;-1.973162870854139E-003;-2.521223854273558E-003;
2.407166666666667E+009;1.980539262294769E-001;4.392433911561966E-002;-2.151186577975750E-003;-2.416228642687202E-003;
2.407333333333334E+009;1.978822201490402E-001;4.398506879806519E-002;-2.133908681571484E-003;-2.269439399242401E-003;
2.407500000000000E+009;1.979049146175385E-001;4.406184330582619E-002;-1.983713125810027E-003;-2.056235680356622E-003;
2.407666666666667E+009;1.979812085628510E-001;4.379949346184731E-002;-2.154044341295958E-003;-1.963674090802670E-003;
2.407833333333334E+009;1.975217759609222E-001;4.367730394005776E-002;-2.136016031727195E-003;-1.658489694818854E-003;
2.408000000000000E+009;1.973161548376083E-001;4.351454973220825E-002;-2.106701955199242E-003;-1.565183163620532E-003;
2.408166666666667E+009;1.967794895172119E-001;4.315005615353584E-002;-1.941974856890738E-003;-1.528092660009861E-003;
2.408333333333334E+009;1.961364299058914E-001;4.244735464453697E-002;-2.043780870735645E-003;-1.584151410497725E-003;
2.408500000000000E+009;1.954450607299805E-001;4.211399704217911E-002;-2.046117791905999E-003;-1.270867069251835E-003;
2.408666666666667E+009;1.947274059057236E-001;4.164003208279610E-002;-2.005767077207565E-003;-1.215750817209482E-003;
2.408833333333334E+009;1.939103156328201E-001;4.080952331423760E-002;-1.958703389391303E-003;-1.225324231199920E-003;
2.409000000000000E+009;1.928496062755585E-001;3.998186811804771E-002;-1.923054805956781E-003;-1.136490027420223E-003;
2.409166666666667E+009;1.918573230504990E-001;3.905582055449486E-002;-1.724090310744941E-003;-9.462619200348854E-004;
2.409333333333334E+009;1.908624768257141E-001;3.800229728221893E-002;-1.664587762206793E-003;-1.095751416869462E-003;
2.409500000000000E+009;1.895356774330139E-001;3.670115396380425E-002;-1.843764330260456E-003;-1.055536908097565E-003;
2.409666666666667E+009;1.885507106781006E-001;3.532232344150543E-002;-1.750277704559267E-003;-9.783670539036393E-004;
2.409833333333334E+009;1.873618066310883E-001;3.381226584315300E-002;-1.696744468063116E-003;-1.024942146614194E-003;
2.410000000000000E+009;1.862869411706924E-001;3.213900327682495E-002;-1.732721342705190E-003;-9.563293424434960E-004;
2.410166666666667E+009;1.850166022777557E-001;3.045310080051422E-002;-1.696222345344722E-003;-1.099225599318743E-003;
2.410333333333334E+009;1.841104775667191E-001;2.866414934396744E-002;-1.772601739503443E-003;-1.091550569981337E-003;
2.410500000000000E+009;1.831762790679932E-001;2.673581987619400E-002;-1.619569608010352E-003;-9.488379582762718E-004;
2.410666666666667E+009;1.821541041135788E-001;2.461752109229565E-002;-1.697339001111686E-003;-1.041887677274644E-003;
2.410833333333334E+009;1.813560277223587E-001;2.248141728341579E-002;-1.744936103932560E-003;-1.072528073564172E-003;
2.411000000000000E+009;1.805790662765503E-001;2.010400965809822E-002;-1.937520806677640E-003;-1.078597386367619E-003;
2.411166666666667E+009;1.799472421407700E-001;1.806470751762390E-002;-2.030786359682679E-003;-1.115450286306441E-003;
2.411333333333334E+009;1.793231219053268E-001;1.533662527799606E-002;-2.064911648631096E-003;-1.097576925531030E-003;
2.411500000000000E+009;1.789964139461517E-001;1.304366067051888E-002;-2.308178227394819E-003;-1.135011552833021E-003;
2.411666666666667E+009;1.787306666374207E-001;1.082310453057289E-002;-2.181680407375097E-003;-1.075953943654895E-003;
2.411833333333334E+009;1.784290522336960E-001;8.335376158356667E-003;-2.415013732388616E-003;-9.200827917084098E-004;
2.412000000000000E+009;1.784024089574814E-001;5.758197046816349E-003;-2.549774711951613E-003;-8.591741789132357E-004;
2.412166666666667E+009;1.785792857408524E-001;3.417011816054583E-003;-2.700659213587642E-003;-7.615664508193731E-004;
2.412333333333334E+009;1.786840409040451E-001;8.427227730862796E-004;-2.698906930163503E-003;-6.730674067512155E-004;
2.412500000000000E+009;1.792836338281632E-001;-1.536729629151523E-003;-2.763811731711030E-003;-4.450198030099273E-004;
2.412666666666667E+009;1.796199977397919E-001;-4.267876036465168E-003;-2.874457510188222E-003;-4.175324866082519E-004;
2.412833333333334E+009;1.804468780755997E-001;-6.490556988865137E-003;-2.851886907592416E-003;-2.416846255073324E-004;
2.413000000000000E+009;1.811545193195343E-001;-8.965475484728813E-003;-2.938819117844105E-003;1.897248807836149E-006;
2.413166666666667E+009;1.819858849048615E-001;-1.115199830383062E-002;-2.889885799959302E-003;1.979209337150678E-004;
2.413333333333334E+009;1.830846965312958E-001;-1.359183900058270E-002;-2.791702747344971E-003;3.192327858414501E-004;
2.413500000000000E+009;1.838103234767914E-001;-1.582831889390945E-002;-2.859368920326233E-003;4.857288149651140E-004;
2.413666666666667E+009;1.850142478942871E-001;-1.805136352777481E-002;-2.933051204308868E-003;7.167040021158755E-004;
2.413833333333334E+009;1.861790567636490E-001;-2.019090391695499E-002;-2.752172295004129E-003;9.187145624309778E-004;
2.414000000000000E+009;1.873481124639511E-001;-2.214074507355690E-002;-2.648432506248355E-003;1.099849352613092E-003;
2.414166666666667E+009;1.887164860963821E-001;-2.383429743349552E-002;-2.439648611471057E-003;1.116975559853017E-003;
2.414333333333334E+009;1.898211240768433E-001;-2.584980428218842E-002;-2.239043358713388E-003;1.242914469912648E-003;
2.414500000000000E+009;1.911491453647614E-001;-2.745629101991653E-002;-2.300811232998967E-003;1.170957228168845E-003;
2.414666666666667E+009;1.923044919967651E-001;-2.880428172647953E-002;-2.049217000603676E-003;1.417703111656010E-003;
2.414833333333334E+009;1.935487985610962E-001;-3.020088747143745E-002;-2.044958295300603E-003;1.454030978493393E-003;
2.415000000000000E+009;1.946821063756943E-001;-3.148122504353523E-002;-2.079919911921024E-003;1.515534939244390E-003;
2.415166666666667E+009;1.960938572883606E-001;-3.265468403697014E-002;-1.717859413474798E-003;1.511254697106779E-003;
2.415333333333334E+009;1.972111761569977E-001;-3.351585566997528E-002;-1.696262857876718E-003;1.629973994567990E-003;
2.415500000000000E+009;1.984296292066574E-001;-3.427130728960037E-002;-1.839690841734409E-003;1.492026727646589E-003;
2.415666666666667E+009;1.994479596614838E-001;-3.513836115598679E-002;-1.780269201844931E-003;1.728150062263012E-003;
2.415833333333334E+009;2.003162503242493E-001;-3.571657836437225E-002;-1.632729428820312E-003;1.750424620695412E-003;
2.416000000000000E+009;2.013326436281204E-001;-3.609404340386391E-002;-1.763316337019205E-003;1.684920745901763E-003;
2.416166666666667E+009;2.020112276077271E-001;-3.667687997221947E-002;-1.512824674136937E-003;1.763684209436178E-003;
2.416333333333334E+009;2.026669234037399E-001;-3.690586611628532E-002;-1.473843352869153E-003;1.796543831005693E-003;
2.416500000000000E+009;2.033199816942215E-001;-3.720002621412277E-002;-1.534736948087812E-003;2.035553799942136E-003;
2.416666666666667E+009;2.036432623863220E-001;-3.740002214908600E-002;-1.284405589103699E-003;1.918352558277547E-003;
2.416833333333334E+009;2.037844210863113E-001;-3.738901764154434E-002;-1.319158123806119E-003;2.103236969560385E-003;
2.417000000000000E+009;2.039662003517151E-001;-3.747624903917313E-002;-1.136663951911032E-003;2.229498233646154E-003;
2.417166666666667E+009;2.038206756114960E-001;-3.733647242188454E-002;-8.886319701559842E-004;2.356320386752486E-003;
2.417333333333334E+009;2.036007642745972E-001;-3.720910474658012E-002;-6.377885001711547E-004;2.336442004889250E-003;
2.417500000000000E+009;2.035030275583267E-001;-3.704049438238144E-002;-6.431611254811287E-004;2.334068762138486E-003;
2.417666666666667E+009;2.030398845672607E-001;-3.676425293087959E-002;-4.018115578219295E-004;2.399760298430920E-003;
2.417833333333334E+009;2.024876028299332E-001;-3.652957454323769E-002;-2.284063812112436E-004;2.228124765679240E-003;
2.418000000000000E+009;2.018779069185257E-001;-3.622808679938316E-002;-1.544940460007638E-004;2.224917057901621E-003;
2.418166666666667E+009;2.012429237365723E-001;-3.613848984241486E-002;-1.198789504996967E-005;2.107161795720458E-003;
2.418333333333334E+009;2.003059536218643E-001;-3.592696040868759E-002;3.566812665667385E-005;2.021887339651585E-003;
2.418500000000000E+009;1.993894726037979E-001;-3.579105064272881E-002;2.298807667102665E-004;1.788524794392288E-003;
2.418666666666667E+009;1.984359920024872E-001;-3.575493022799492E-002;2.097062097163871E-004;1.743177766911686E-003;
2.418833333333334E+009;1.973118185997009E-001;-3.584409132599831E-002;2.143330639228225E-004;1.661044079810381E-003;
2.419000000000000E+009;1.961710155010223E-001;-3.604476153850555E-002;2.650240494403988E-004;1.491501578129828E-003;
2.419166666666667E+009;1.948702484369278E-001;-3.627352043986321E-002;3.679092915263027E-004;1.257907017134130E-003;
2.419333333333334E+009;1.937030255794525E-001;-3.678739815950394E-002;1.661269780015573E-004;1.381907262839377E-003;
2.419500000000000E+009;1.921528130769730E-001;-3.707619756460190E-002;5.991293801344000E-005;9.936776477843523E-004;
2.419666666666667E+009;1.906449645757675E-001;-3.801342099905014E-002;6.125056097516790E-005;1.115726190619171E-003;
2.419833333333334E+009;1.889769285917282E-001;-3.864753991365433E-002;2.424111698928755E-006;1.161805470474064E-003;
2.420000000000000E+009;1.875760704278946E-001;-3.957051783800125E-002;-2.661600301507860E-004;1.251951674930751E-003;
2.420166666666667E+009;1.857853829860687E-001;-4.059591144323349E-002;-1.944545510923490E-004;1.189065049402416E-003;
2.420333333333334E+009;1.843977719545364E-001;-4.195761308073998E-002;-2.713229914661497E-004;1.392990350723267E-003;
2.420500000000000E+009;1.825984567403793E-001;-4.310698062181473E-002;-2.907465386670083E-004;1.573747838847339E-003;
2.420666666666667E+009;1.810434013605118E-001;-4.426628723740578E-002;-3.401231369934976E-004;1.654934138059616E-003;
2.420833333333334E+009;1.794165223836899E-001;-4.605015739798546E-002;-5.273499482427724E-005;1.870957552455366E-003;
2.421000000000000E+009;1.778916716575623E-001;-4.750298336148262E-002;-1.010428095469251E-004;2.110103843733668E-003;
2.421166666666667E+009;1.763855814933777E-001;-4.920467361807823E-002;3.438079875195399E-005;1.898953341878951E-003;
2.421333333333334E+009;1.746248900890350E-001;-5.075319856405258E-002;3.067468060180545E-004;2.056940924376249E-003;
2.421500000000000E+009;1.733729988336563E-001;-5.286373570561409E-002;5.082878051325679E-004;2.018875442445278E-003;
2.421666666666667E+009;1.720470339059830E-001;-5.453611910343170E-002;7.033483707346022E-004;2.067799679934979E-003;
2.421833333333334E+009;1.708453595638275E-001;-5.650685355067253E-002;7.392084226012230E-004;1.978999469429255E-003;
2.422000000000000E+009;1.695470064878464E-001;-5.832866951823235E-002;1.145746442489326E-003;1.757566817104816E-003;
2.422166666666667E+009;1.687707006931305E-001;-6.053376942873001E-002;1.165891182608903E-003;1.734591787680984E-003;
2.422333333333334E+009;1.677800118923187E-001;-6.262829899787903E-002;1.015317742712796E-003;1.559677766636014E-003;
2.422500000000000E+009;1.668822765350342E-001;-6.450641900300980E-002;1.352553372271359E-003;1.466715708374977E-003;
2.422666666666667E+009;1.662749201059341E-001;-6.658397614955902E-002;1.346021424978972E-003;1.422256929799914E-003;
2.422833333333334E+009;1.659606993198395E-001;-6.869899481534958E-002;1.334611442871392E-003;1.154183526523411E-003;
2.423000000000000E+009;1.652395278215408E-001;-7.071619480848312E-002;1.259338925592601E-003;9.601280908100307E-004;
2.423166666666667E+009;1.651706844568253E-001;-7.274846732616425E-002;1.226627617143095E-003;9.130081743933260E-004;
2.423333333333334E+009;1.648774743080139E-001;-7.472436130046845E-002;1.274416805244982E-003;7.476514438167214E-004;
2.423500000000000E+009;1.649349182844162E-001;-7.647939026355743E-002;1.156723359599710E-003;6.310214521363378E-004;
2.423666666666667E+009;1.648481339216232E-001;-7.834228873252869E-002;1.076272688806057E-003;5.685384385287762E-004;
2.423833333333334E+009;1.649340689182282E-001;-8.018682152032852E-002;1.173009281046689E-003;6.130287656560540E-004;
2.424000000000000E+009;1.650548428297043E-001;-8.199116587638855E-002;9.843921288847923E-004;6.125950021669269E-004;
2.424166666666667E+009;1.653043627738953E-001;-8.363475650548935E-002;1.054484280757606E-003;8.043026318773627E-004;
2.424333333333334E+009;1.657053679227829E-001;-8.519653975963593E-002;8.777282200753689E-004;6.388350739143789E-004;
2.424500000000000E+009;1.660633236169815E-001;-8.673126995563507E-002;1.095945714041591E-003;6.023827590979636E-004;
2.424666666666667E+009;1.662932038307190E-001;-8.819333463907242E-002;1.012982451356947E-003;5.679170135408640E-004;
2.424833333333334E+009;1.670973896980286E-001;-8.956561237573624E-002;1.116221537813544E-003;5.091053899377585E-004;
2.425000000000000E+009;1.675832271575928E-001;-9.061824530363083E-002;1.211640192195773E-003;4.342865140642971E-004;
2.425166666666667E+009;1.679456979036331E-001;-9.168435633182526E-002;1.193900243379176E-003;5.355249741114676E-004;
2.425333333333334E+009;1.684262603521347E-001;-9.270971268415451E-002;1.145333633758128E-003;5.216012941673398E-004;
2.425500000000000E+009;1.690009087324143E-001;-9.371875971555710E-002;1.034050597809255E-003;4.539469664450735E-004;
2.425666666666667E+009;1.696217209100723E-001;-9.432353824377060E-002;1.249263761565089E-003;3.601592325139791E-004;
2.425833333333334E+009;1.699696630239487E-001;-9.521127492189407E-002;1.103947171941400E-003;1.432928984286264E-004;
2.426000000000000E+009;1.706225872039795E-001;-9.562591463327408E-002;1.285462640225887E-003;2.407837600912899E-004;
2.426166666666667E+009;1.712317913770676E-001;-9.613216668367386E-002;1.115744584240019E-003;1.383375492878258E-004;
2.426333333333334E+009;1.714620143175125E-001;-9.671375900506973E-002;1.155766076408327E-003;1.267535262741149E-004;
2.426500000000000E+009;1.719916015863419E-001;-9.692844003438950E-002;1.048487843945622E-003;7.201744301710278E-005;
2.426666666666667E+009;1.724608391523361E-001;-9.737139195203781E-002;1.111412304453552E-003;-7.166832074290142E-005;
2.426833333333334E+009;1.728554815053940E-001;-9.765871614217758E-002;1.025937381200492E-003;-9.852307994151488E-005;
2.427000000000000E+009;1.729785203933716E-001;-9.786753356456757E-002;1.096496707759798E-003;-1.185881483252160E-004;
2.427166666666667E+009;1.730994433164597E-001;-9.802892059087753E-002;1.035319641232491E-003;-4.614939462044276E-005;
2.427333333333334E+009;1.731680184602737E-001;-9.834326058626175E-002;9.730638121254742E-004;-2.475473447702825E-004;
2.427500000000000E+009;1.730304658412933E-001;-9.855648875236511E-002;8.960207342170179E-004;-2.740337222348899E-004;
2.427666666666667E+009;1.728530079126358E-001;-9.873192012310028E-002;8.325217058882117E-004;-2.863646077457815E-004;
2.427833333333334E+009;1.725459545850754E-001;-9.889298677444458E-002;7.618322269991040E-004;-3.779029066208750E-004;
