# Version 1.00
#
freq[Hz];re:Trc1_S11;im:Trc1_S11;re:Trc2_S21;im:Trc2_S21;
2.400000000000000E+009;1.498612761497498E-001;1.136093884706497E-001;2.951874164864421E-003;-1.109668519347906E-004;
2.400166666666667E+009;1.498674303293228E-001;1.112763956189156E-001;3.094438696280122E-003;-2.634167030919343E-004;
2.400333333333334E+009;1.500520110130310E-001;1.090525090694428E-001;3.345834789797664E-003;-4.757204151246697E-004;
2.400500000000000E+009;1.499931961297989E-001;1.064566299319267E-001;3.420685185119510E-003;-6.283819093368948E-004;
2.400666666666667E+009;1.503039300441742E-001;1.039544641971588E-001;3.616526490077376E-003;-9.287844877690077E-004;
2.400833333333334E+009;1.503238230943680E-001;1.010707989335060E-001;3.609467763453722E-003;-1.253548660315573E-003;
2.401000000000000E+009;1.504989862442017E-001;9.857777506113052E-002;3.581383731216192E-003;-1.605415134690702E-003;
2.401166666666667E+009;1.507814377546310E-001;9.567125141620636E-002;3.532629227265716E-003;-1.909485668875277E-003;
2.401333333333334E+009;1.512446701526642E-001;9.297462552785873E-002;3.326999489217997E-003;-2.216270659118891E-003;
2.401500000000000E+009;1.518353670835495E-001;9.008855372667313E-002;3.238131757825613E-003;-2.533917082473636E-003;
2.401666666666667E+009;1.523766666650772E-001;8.734763413667679E-002;2.863397356122732E-003;-2.706666244193912E-003;
2.401833333333334E+009;1.530583351850510E-001;8.461695164442062E-002;2.621804829686880E-003;-2.939888276159763E-003;
2.402000000000000E+009;1.542035341262817E-001;8.173432201147080E-002;2.320077503100038E-003;-3.005021251738071E-003;
2.402166666666667E+009;1.549950242042542E-001;7.924003899097443E-002;2.141354838386178E-003;-3.101877868175507E-003;
2.402333333333334E+009;1.562928408384323E-001;7.675708830356598E-002;1.826999126933515E-003;-3.059924347326160E-003;
2.402500000000000E+009;1.575731933116913E-001;7.404420524835587E-002;1.531308400444686E-003;-2.982105128467083E-003;
2.402666666666667E+009;1.587508320808411E-001;7.176131010055542E-002;1.443244284018874E-003;-2.962838159874082E-003;
2.402833333333334E+009;1.604550033807755E-001;6.942296028137207E-002;1.230450463481247E-003;-2.934528514742851E-003;
2.403000000000000E+009;1.620296239852905E-001;6.710506230592728E-002;1.209207577630878E-003;-2.772305626422167E-003;
2.403166666666667E+009;1.640385389328003E-001;6.497465074062347E-002;1.089982804842293E-003;-2.886873437091708E-003;
2.403333333333334E+009;1.656756550073624E-001;6.253973394632340E-002;1.004543271847069E-003;-2.763703931123018E-003;
2.403500000000000E+009;1.676087677478790E-001;6.070542708039284E-002;1.030824496410787E-003;-2.835310064256191E-003;
2.403666666666667E+009;1.696353554725647E-001;5.858212336897850E-002;9.292974718846381E-004;-2.835181076079607E-003;
2.403833333333334E+009;1.714549064636231E-001;5.677563324570656E-002;1.084403600543737E-003;-2.775501227006316E-003;
2.404000000000000E+009;1.732662618160248E-001;5.488057807087898E-002;8.833485189825296E-004;-2.759106224402785E-003;
2.404166666666667E+009;1.751615703105927E-001;5.338079109787941E-002;1.013128086924553E-003;-2.742636483162642E-003;
2.404333333333334E+009;1.771209686994553E-001;5.181234702467918E-002;9.124618954956532E-004;-3.065734636038542E-003;
2.404500000000000E+009;1.788439005613327E-001;5.022696778178215E-002;8.169656503014267E-004;-3.108143107965589E-003;
2.404666666666667E+009;1.806848645210266E-001;4.912143200635910E-002;6.465982296504080E-004;-3.241591854020953E-003;
2.404833333333334E+009;1.825879812240601E-001;4.809192940592766E-002;4.368929076008499E-004;-3.486725036054850E-003;
2.405000000000000E+009;1.841274797916412E-001;4.719614237546921E-002;2.756598696578294E-004;-3.286212449893355E-003;
2.405166666666667E+009;1.857979744672775E-001;4.660390689969063E-002;1.711206714389846E-004;-3.542385995388031E-003;
2.405333333333334E+009;1.871991902589798E-001;4.598856717348099E-002;-1.211595736094751E-005;-3.507968038320541E-003;
2.405500000000000E+009;1.888746768236160E-001;4.546812176704407E-002;-3.064755583181977E-004;-3.784259082749486E-003;
2.405666666666667E+009;1.902906447649002E-001;4.495050758123398E-002;-5.388918216340244E-004;-3.570658853277564E-003;
2.405833333333334E+009;1.917401999235153E-001;4.488359764218330E-002;-6.864668102934957E-004;-3.623188240453601E-003;
2.406000000000000E+009;1.927345991134644E-001;4.446154087781906E-002;-1.016119727864862E-003;-3.455736441537738E-003;
2.406166666666667E+009;1.939995139837265E-001;4.435829073190689E-002;-1.319491886533797E-003;-3.252361668273807E-003;
2.406333333333334E+009;1.950090974569321E-001;4.429102316498756E-002;-1.445965724997222E-003;-3.279470838606358E-003;
2.406500000000000E+009;1.958574950695038E-001;4.418531432747841E-002;-1.597579102963209E-003;-3.203741507604718E-003;
2.406666666666667E+009;1.965710371732712E-001;4.419616609811783E-002;-1.724242931231856E-003;-2.949198707938194E-003;
2.406833333333334E+009;1.972018480300903E-001;4.418386518955231E-002;-1.848356565460563E-003;-2.637655707076192E-003;
2.407000000000000E+009;1.976912766695023E-001;4.421120509505272E-002;-1.982900081202388E-003;-2.656025812029839E-003;
2.407166666666667E+009;1.981584280729294E-001;4.391459003090859E-002;-2.175794448703528E-003;-2.340623876079917E-003;
2.407333333333334E+009;1.979766786098480E-001;4.406598955392838E-002;-2.107775537297130E-003;-2.154041314497590E-003;
2.407500000000000E+009;1.980492025613785E-001;4.404785484075546E-002;-2.129355678334832E-003;-2.000298583880067E-003;
2.407666666666667E+009;1.981162130832672E-001;4.391124844551086E-002;-2.303933259099722E-003;-1.782587263733149E-003;
2.407833333333334E+009;1.975741237401962E-001;4.364143684506416E-002;-2.039466751739383E-003;-1.662819064222276E-003;
2.408000000000000E+009;1.975630372762680E-001;4.349803552031517E-002;-2.161299576982856E-003;-1.708718831650913E-003;
2.408166666666667E+009;1.968536823987961E-001;4.312567412853241E-002;-2.091071102768183E-003;-1.510077971033752E-003;
2.408333333333334E+009;1.963944137096405E-001;4.250558838248253E-002;-1.988800009712577E-003;-1.332657295279205E-003;
2.408500000000000E+009;1.955156773328781E-001;4.210950806736946E-002;-2.040661405771971E-003;-1.242198399268091E-003;
2.408666666666667E+009;1.948767900466919E-001;4.166707396507263E-002;-1.964779337868094E-003;-1.208812696859241E-003;
2.408833333333334E+009;1.940852552652359E-001;4.069143533706665E-002;-2.000997541472316E-003;-1.167524489574134E-003;
2.409000000000000E+009;1.930304616689682E-001;3.980347886681557E-002;-1.771880663000047E-003;-1.105065806768835E-003;
2.409166666666667E+009;1.920866966247559E-001;3.894960135221481E-002;-1.864356221631169E-003;-9.354817448183894E-004;
2.409333333333334E+009;1.909370422363281E-001;3.794587031006813E-002;-1.725141890347004E-003;-9.538953891023994E-004;
2.409500000000000E+009;1.898265331983566E-001;3.664325177669525E-002;-1.690864562988281E-003;-1.184229739010334E-003;
2.409666666666667E+009;1.886896044015884E-001;3.534489497542381E-002;-1.656923675909638E-003;-9.903778554871678E-004;
2.409833333333334E+009;1.875277310609818E-001;3.379590809345245E-002;-1.647366443648934E-003;-1.117671141400933E-003;
2.410000000000000E+009;1.865178942680359E-001;3.206584602594376E-002;-1.692806719802320E-003;-9.701377130113542E-004;
2.410166666666667E+009;1.854922175407410E-001;3.042629733681679E-002;-1.741119660437107E-003;-1.020936062559485E-003;
2.410333333333334E+009;1.842790842056274E-001;2.872975170612335E-002;-1.676086103543639E-003;-1.086983247660101E-003;
2.410500000000000E+009;1.832764148712158E-001;2.667298540472984E-002;-1.752420677803457E-003;-1.058285124599934E-003;
2.410666666666667E+009;1.822136193513870E-001;2.431583404541016E-002;-1.729163457639515E-003;-9.967522928491235E-004;
2.410833333333334E+009;1.816699504852295E-001;2.234515547752380E-002;-1.837939023971558E-003;-1.054503489285708E-003;
2.411000000000000E+009;1.806437373161316E-001;1.997592486441135E-002;-1.882915734313428E-003;-1.044639502651990E-003;
2.411166666666667E+009;1.800628155469894E-001;1.788524352014065E-002;-1.777719939127564E-003;-1.110687851905823E-003;
2.411333333333334E+009;1.795129030942917E-001;1.539687067270279E-002;-2.078661462292075E-003;-1.089614699594677E-003;
2.411500000000000E+009;1.789572983980179E-001;1.302350778132677E-002;-2.144151134416461E-003;-1.048290752805769E-003;
2.411666666666667E+009;1.787824034690857E-001;1.062185037881136E-002;-2.264591865241528E-003;-9.910751832649112E-004;
2.411833333333334E+009;1.783261597156525E-001;8.182513527572155E-003;-2.415703842416406E-003;-1.008102786727250E-003;
2.412000000000000E+009;1.786168813705444E-001;5.492999218404293E-003;-2.440151758491993E-003;-8.626263006590307E-004;
2.412166666666667E+009;1.786306053400040E-001;3.246370702981949E-003;-2.555307699367404E-003;-6.742527475580573E-004;
2.412333333333334E+009;1.786340028047562E-001;4.823876370210201E-004;-2.578401006758213E-003;-7.016278104856610E-004;
2.412500000000000E+009;1.792657524347305E-001;-1.759840175509453E-003;-2.751903375610709E-003;-5.635438137687743E-004;
2.412666666666667E+009;1.796660572290421E-001;-4.235362634062767E-003;-2.872485201805830E-003;-3.725429705809802E-004;
2.412833333333334E+009;1.803308874368668E-001;-6.754071451723576E-003;-2.879755571484566E-003;-2.409593580523506E-004;
2.413000000000000E+009;1.810012608766556E-001;-9.206988848745823E-003;-2.906582551077008E-003;-6.725265848217532E-005;
2.413166666666667E+009;1.819972991943359E-001;-1.136901974678040E-002;-3.026581369340420E-003;1.766017885529436E-005;
2.413333333333334E+009;1.828456819057465E-001;-1.374315377324820E-002;-2.865990158170462E-003;3.176849568262696E-004;
2.413500000000000E+009;1.838290691375732E-001;-1.592245139181614E-002;-2.930947579443455E-003;5.150270881131291E-004;
2.413666666666667E+009;1.850282251834869E-001;-1.826527900993824E-002;-2.783131785690785E-003;6.380130071192980E-004;
2.413833333333334E+009;1.863300800323486E-001;-2.023784816265106E-002;-2.748226281255484E-003;7.870224071666598E-004;
2.414000000000000E+009;1.873089075088501E-001;-2.217147685587406E-002;-2.672522794455290E-003;9.863594314083457E-004;
2.414166666666667E+009;1.886961311101914E-001;-2.407217025756836E-002;-2.531573874875903E-003;1.211227732710540E-003;
2.414333333333334E+009;1.898542791604996E-001;-2.598737180233002E-002;-2.386841922998428E-003;1.160592655651271E-003;
2.414500000000000E+009;1.910761445760727E-001;-2.737717889249325E-002;-2.362402155995369E-003;1.373930252157152E-003;
2.414666666666667E+009;1.924629062414169E-001;-2.905532717704773E-002;-2.157113282009959E-003;1.346230041235685E-003;
2.414833333333334E+009;1.934941709041596E-001;-3.028246574103832E-002;-2.036396181210876E-003;1.360048307105899E-003;
2.415000000000000E+009;1.947318166494370E-001;-3.157078474760056E-002;-1.882306649349630E-003;1.496548997238278E-003;
2.415166666666667E+009;1.960442811250687E-001;-3.262088820338249E-002;-1.821467303670943E-003;1.566534512676299E-003;
2.415333333333334E+009;1.972588449716568E-001;-3.352505341172218E-002;-1.816018717363477E-003;1.508364686742425E-003;
2.415500000000000E+009;1.983591169118881E-001;-3.426945582032204E-002;-1.780877122655511E-003;1.447607763111591E-003;
2.415666666666667E+009;1.994810402393341E-001;-3.516711667180061E-002;-1.721642445772886E-003;1.425498980097473E-003;
2.415833333333334E+009;2.003628760576248E-001;-3.568163514137268E-002;-1.768351299688220E-003;1.541121164336801E-003;
2.416000000000000E+009;2.011221945285797E-001;-3.639087453484535E-002;-1.788103254511952E-003;1.700480119325221E-003;
2.416166666666667E+009;2.018888741731644E-001;-3.675296530127525E-002;-1.686055911704898E-003;1.742398599162698E-003;
2.416333333333334E+009;2.026617825031281E-001;-3.703836351633072E-002;-1.626793295145035E-003;1.946019125171006E-003;
2.416500000000000E+009;2.031444758176804E-001;-3.715210780501366E-002;-1.512826420366764E-003;2.025561407208443E-003;
2.416666666666667E+009;2.034982293844223E-001;-3.757459670305252E-002;-1.510307774879038E-003;2.140338532626629E-003;
2.416833333333334E+009;2.038204967975617E-001;-3.754894435405731E-002;-1.276241731829941E-003;2.160426694899797E-003;
2.417000000000000E+009;2.039414048194885E-001;-3.767197206616402E-002;-1.107867923565209E-003;2.104716375470161E-003;
2.417166666666667E+009;2.036138176918030E-001;-3.757793083786964E-002;-9.182550129480660E-004;2.336869481950998E-003;
2.417333333333334E+009;2.035575211048126E-001;-3.716951236128807E-002;-8.144044550135732E-004;2.326727844774723E-003;
2.417500000000000E+009;2.033138275146484E-001;-3.719010949134827E-002;-6.061187596060336E-004;2.408497501164675E-003;
2.417666666666667E+009;2.028730064630508E-001;-3.688051551580429E-002;-4.987210268154740E-004;2.388939261436462E-003;
2.417833333333334E+009;2.024264782667160E-001;-3.663164749741554E-002;-2.989090862683952E-004;2.301727421581745E-003;
2.418000000000000E+009;2.018737643957138E-001;-3.627562522888184E-002;-2.535657549742609E-004;2.242305781692267E-003;
2.418166666666667E+009;2.011293768882752E-001;-3.622462227940559E-002;-5.554221934289672E-005;1.977017614990473E-003;
2.418333333333334E+009;2.001363188028336E-001;-3.596494719386101E-002;3.442422530497424E-005;1.915940083563328E-003;
2.418500000000000E+009;1.993222534656525E-001;-3.580296412110329E-002;1.511435693828389E-004;1.856280723586679E-003;
2.418666666666667E+009;1.985260248184204E-001;-3.579583764076233E-002;1.392827980453149E-004;1.640119939111173E-003;
2.418833333333334E+009;1.972573995590210E-001;-3.588080406188965E-002;1.751632371451706E-004;1.584882382303476E-003;
2.419000000000000E+009;1.959656327962875E-001;-3.611709922552109E-002;2.756317844614387E-004;1.458566868677735E-003;
2.419166666666667E+009;1.949086338281632E-001;-3.626548126339912E-002;1.937358028953895E-004;1.332629355601966E-003;
2.419333333333334E+009;1.934522688388825E-001;-3.684164583683014E-002;2.488720056135207E-004;1.276467693969607E-003;
2.419500000000000E+009;1.919414103031158E-001;-3.724457323551178E-002;1.128852745750919E-004;1.117251696996391E-003;
2.419666666666667E+009;1.905544996261597E-001;-3.805278614163399E-002;1.304666511714459E-004;1.092611229978502E-003;
2.419833333333334E+009;1.889475584030151E-001;-3.871337324380875E-002;-7.223580178106204E-005;1.337552559562028E-003;
2.420000000000000E+009;1.874795258045197E-001;-3.970048576593399E-002;-6.286692951107398E-005;1.158346538431943E-003;
2.420166666666667E+009;1.857372224330902E-001;-4.049473255872726E-002;-3.095394931733608E-004;1.286170911043882E-003;
2.420333333333334E+009;1.841451823711395E-001;-4.182656481862068E-002;-4.188966413494200E-004;1.407204428687692E-003;
2.420500000000000E+009;1.825959831476212E-001;-4.322146624326706E-002;-3.359170514158905E-004;1.462446991354227E-003;
2.420666666666667E+009;1.808890104293823E-001;-4.445240274071693E-002;-1.989686134038493E-004;1.594451256096363E-003;
2.420833333333334E+009;1.791535466909409E-001;-4.588702321052551E-002;-1.742204476613551E-004;1.884889672510326E-003;
2.421000000000000E+009;1.778656691312790E-001;-4.770985990762711E-002;-2.474169741617516E-005;2.006173133850098E-003;
2.421166666666667E+009;1.763094365596771E-001;-4.935407638549805E-002;2.645369968377054E-004;2.063242951408029E-003;
2.421333333333334E+009;1.745138913393021E-001;-5.094986781477928E-002;2.367404667893425E-004;2.099250908941031E-003;
2.421500000000000E+009;1.731455624103546E-001;-5.287832766771317E-002;5.078885005787015E-004;2.251671859994531E-003;
2.421666666666667E+009;1.718961149454117E-001;-5.475972965359688E-002;6.768302991986275E-004;1.961768371984363E-003;
2.421833333333334E+009;1.708217710256577E-001;-5.675730481743813E-002;9.216836187988520E-004;1.852740417234600E-003;
2.422000000000000E+009;1.695342063903809E-001;-5.854212492704392E-002;8.969348273240030E-004;1.879755291156471E-003;
2.422166666666667E+009;1.686652302742004E-001;-6.057512387633324E-002;1.117716543376446E-003;1.834493130445480E-003;
2.422333333333334E+009;1.676189005374908E-001;-6.263817101716995E-002;1.260340795852244E-003;1.560261240229011E-003;
2.422500000000000E+009;1.668894141912460E-001;-6.447859853506088E-002;1.359896268695593E-003;1.312030013650656E-003;
2.422666666666667E+009;1.662175655364990E-001;-6.660207360982895E-002;1.534768263809383E-003;1.293362933211029E-003;
2.422833333333334E+009;1.658156663179398E-001;-6.868787109851837E-002;1.351343700662255E-003;1.185862347483635E-003;
2.423000000000000E+009;1.653623133897781E-001;-7.056056708097458E-002;1.310066320002079E-003;8.955397643148899E-004;
2.423166666666667E+009;1.647963523864746E-001;-7.259555906057358E-002;1.322987140156329E-003;8.411724702455103E-004;
2.423333333333334E+009;1.647966653108597E-001;-7.459672540426254E-002;1.339808222837746E-003;8.253068663179874E-004;
2.423500000000000E+009;1.647517383098602E-001;-7.641145586967468E-002;1.275115064345300E-003;8.121374994516373E-004;
2.423666666666667E+009;1.648636013269424E-001;-7.825824618339539E-002;1.045889104716480E-003;7.206466398201883E-004;
2.423833333333334E+009;1.647158265113831E-001;-8.000233024358749E-002;1.124181202612817E-003;6.779515533708036E-004;
2.424000000000000E+009;1.650125384330750E-001;-8.191165328025818E-002;1.122564426623285E-003;6.318792002275586E-004;
2.424166666666667E+009;1.652599573135376E-001;-8.343017846345902E-002;1.060158712789416E-003;4.820642061531544E-004;
2.424333333333334E+009;1.654862612485886E-001;-8.499675989151001E-002;1.067014643922448E-003;4.691383510362357E-004;
2.424500000000000E+009;1.660175621509552E-001;-8.673437684774399E-002;1.113864476792514E-003;6.270132143981755E-004;
2.424666666666667E+009;1.661887317895889E-001;-8.803167194128037E-002;1.121169887483120E-003;4.693232767749578E-004;
2.424833333333334E+009;1.669760495424271E-001;-8.934236317873001E-002;1.093344530090690E-003;4.276476392988116E-004;
2.425000000000000E+009;1.674332469701767E-001;-9.047555923461914E-002;1.126721035689116E-003;5.039113457314670E-004;
2.425166666666667E+009;1.678542345762253E-001;-9.161573648452759E-002;9.942791657522321E-004;4.092355084139854E-004;
2.425333333333334E+009;1.683707982301712E-001;-9.254830330610275E-002;1.105461618863046E-003;4.069870337843895E-004;
2.425500000000000E+009;1.688809394836426E-001;-9.354220330715179E-002;9.856849210336804E-004;3.543852071743459E-004;
2.425666666666667E+009;1.695241779088974E-001;-9.417141973972321E-002;1.079844194464386E-003;3.501468454487622E-004;
2.425833333333334E+009;1.700819879770279E-001;-9.498920291662216E-002;9.925375925377011E-004;2.786894619930536E-004;
2.426000000000000E+009;1.705690026283264E-001;-9.547956287860870E-002;1.037165638990700E-003;2.450996835250408E-004;
2.426166666666667E+009;1.711630821228027E-001;-9.601987898349762E-002;1.035964582115412E-003;1.526747655589134E-004;
2.426333333333334E+009;1.714961677789688E-001;-9.660758078098297E-002;1.075997017323971E-003;1.013884466374293E-004;
2.426500000000000E+009;1.719471514225006E-001;-9.687906503677368E-002;1.173612195998430E-003;-1.902509211504366E-006;
2.426666666666667E+009;1.723307073116303E-001;-9.728340059518814E-002;1.016521942801774E-003;4.551368692773394E-005;
2.426833333333334E+009;1.727816015481949E-001;-9.761417657136917E-002;1.154805882833898E-003;-1.264457823708654E-004;
2.427000000000000E+009;1.729507297277451E-001;-9.781691431999207E-002;9.844355517998338E-004;-3.556236333679408E-005;
2.427166666666667E+009;1.731250286102295E-001;-9.809646010398865E-002;9.101171162910759E-004;-1.248534244950861E-004;
2.427333333333334E+009;1.731601655483246E-001;-9.828352928161621E-002;8.555335807614029E-004;-2.244562783744186E-004;
2.427500000000000E+009;1.730614453554153E-001;-9.864796698093414E-002;9.360173135064542E-004;-3.219846985302866E-004;
2.427666666666667E+009;1.727933734655380E-001;-9.858103096485138E-002;6.370568880811334E-004;-3.946831857319921E-004;
2.427833333333334E+009;1.724651306867600E-001;-9.878139197826386E-002;7.382560870610178E-004;-4.410679393913597E-004;
