# Version 1.00
#
freq[Hz];re:Trc1_S11;im:Trc1_S11;re:Trc2_S21;im:Trc2_S21;
2.400000000000000E+009;1.499104499816895E-001;1.133216023445129E-001;2.904622117057443E-003;-1.842036144807935E-004;
2.400166666666667E+009;1.497469842433929E-001;1.111162602901459E-001;3.238461911678314E-003;-3.534712886903435E-004;
2.400333333333334E+009;1.498591154813767E-001;1.088380590081215E-001;3.281636629253626E-003;-3.900678129866719E-004;
2.400500000000000E+009;1.499062627553940E-001;1.061869710683823E-001;3.498927224427462E-003;-5.320917116478086E-004;
2.400666666666667E+009;1.500543653964996E-001;1.038339287042618E-001;3.306757425889373E-003;-9.535584831610322E-004;
2.400833333333334E+009;1.501837521791458E-001;1.009965538978577E-001;3.604582743719220E-003;-1.311886939220130E-003;
2.401000000000000E+009;1.506571620702744E-001;9.827881306409836E-002;3.575903596356511E-003;-1.609105849638581E-003;
2.401166666666667E+009;1.506187170743942E-001;9.546995162963867E-002;3.593988018110395E-003;-2.027717651799321E-003;
2.401333333333334E+009;1.511273682117462E-001;9.270165115594864E-002;3.376107662916184E-003;-2.228476805612445E-003;
2.401500000000000E+009;1.518156975507736E-001;8.997694402933121E-002;3.126939758658409E-003;-2.471319865435362E-003;
2.401666666666667E+009;1.523086726665497E-001;8.705376088619232E-002;2.858354942873120E-003;-2.845547161996365E-003;
2.401833333333334E+009;1.528828144073486E-001;8.439588546752930E-002;2.489613369107246E-003;-2.829469740390778E-003;
2.402000000000000E+009;1.539211720228195E-001;8.188200742006302E-002;2.196922432631254E-003;-3.055344102904201E-003;
2.402166666666667E+009;1.548659354448319E-001;7.928105443716049E-002;2.010114490985870E-003;-3.076614113524556E-003;
2.402333333333334E+009;1.559120565652847E-001;7.640785723924637E-002;1.756336539983749E-003;-3.085156437009573E-003;
2.402500000000000E+009;1.572342067956924E-001;7.386767864227295E-002;1.613649190403521E-003;-3.142309375107288E-003;
2.402666666666667E+009;1.587170809507370E-001;7.165790349245071E-002;1.408542622812092E-003;-3.176199970766902E-003;
2.402833333333334E+009;1.602293401956558E-001;6.930829584598541E-002;1.124754548072815E-003;-2.846860093995929E-003;
2.403000000000000E+009;1.619213968515396E-001;6.690759956836700E-002;1.172166084870696E-003;-2.963772742077708E-003;
2.403166666666667E+009;1.636378318071365E-001;6.482391059398651E-002;1.139751984737814E-003;-2.775554312393069E-003;
2.403333333333334E+009;1.655003279447556E-001;6.263502687215805E-002;1.010201289318502E-003;-2.740272320806980E-003;
2.403500000000000E+009;1.673880815505981E-001;6.048550456762314E-002;9.414965170435607E-004;-2.760008443146944E-003;
2.403666666666667E+009;1.693964600563049E-001;5.859966203570366E-002;1.048629987053573E-003;-2.655198331922293E-003;
2.403833333333334E+009;1.712506115436554E-001;5.675325542688370E-002;9.578175377100706E-004;-2.679963363334537E-003;
2.404000000000000E+009;1.729271858930588E-001;5.479080975055695E-002;9.920255979523063E-004;-2.830990822985768E-003;
2.404166666666667E+009;1.751467436552048E-001;5.329542607069016E-002;7.047014078125358E-004;-2.899161772802472E-003;
2.404333333333334E+009;1.769465506076813E-001;5.168386176228523E-002;8.308265241794288E-004;-2.918645972386003E-003;
2.404500000000000E+009;1.786929666996002E-001;5.033502727746964E-002;6.618322222493589E-004;-3.140027867630124E-003;
2.404666666666667E+009;1.806920617818832E-001;4.905669391155243E-002;7.119561778381467E-004;-3.320997348055244E-003;
2.404833333333334E+009;1.824876815080643E-001;4.805095121264458E-002;4.962331149727106E-004;-3.320073941722512E-003;
2.405000000000000E+009;1.839383095502853E-001;4.720671102404594E-002;3.218296333216131E-004;-3.444044152274728E-003;
2.405166666666667E+009;1.856610476970673E-001;4.657493904232979E-002;2.225855860160664E-004;-3.495892276987433E-003;
2.405333333333334E+009;1.871833056211472E-001;4.585941508412361E-002;-7.715226092841476E-005;-3.471760312095285E-003;
2.405500000000000E+009;1.887781769037247E-001;4.542309790849686E-002;-4.456809547264129E-004;-3.430022858083248E-003;
2.405666666666667E+009;1.902030110359192E-001;4.495031759142876E-002;-5.186240887269378E-004;-3.604351310059428E-003;
2.405833333333334E+009;1.914831101894379E-001;4.463266953825951E-002;-6.737616495229304E-004;-3.663004143163562E-003;
2.406000000000000E+009;1.926998645067215E-001;4.442575573921204E-002;-9.583726641722024E-004;-3.502399893477559E-003;
2.406166666666667E+009;1.938713639974594E-001;4.421300441026688E-002;-1.302113174460828E-003;-3.382893279194832E-003;
2.406333333333334E+009;1.949480772018433E-001;4.432363808155060E-002;-1.545928884297609E-003;-3.208649111911655E-003;
2.406500000000000E+009;1.957974731922150E-001;4.419245198369026E-002;-1.542981481179595E-003;-3.041584743186832E-003;
2.406666666666667E+009;1.964489668607712E-001;4.416038095951080E-002;-1.760595594532788E-003;-2.936854492872953E-003;
2.406833333333334E+009;1.971384882926941E-001;4.401442408561707E-002;-1.847044914029539E-003;-2.643245039507747E-003;
2.407000000000000E+009;1.974245756864548E-001;4.423621669411659E-002;-1.959590939804912E-003;-2.580305095762014E-003;
2.407166666666667E+009;1.978612989187241E-001;4.386764764785767E-002;-1.823198981583118E-003;-2.372060203924775E-003;
2.407333333333334E+009;1.979300081729889E-001;4.406188428401947E-002;-2.090417547151446E-003;-2.229937352240086E-003;
2.407500000000000E+009;1.979119628667831E-001;4.397467523813248E-002;-2.127925632521510E-003;-2.031031996011734E-003;
2.407666666666667E+009;1.978653073310852E-001;4.397087916731834E-002;-1.996799604967237E-003;-1.881786156445742E-003;
2.407833333333334E+009;1.974993199110031E-001;4.366440325975418E-002;-1.989710843190551E-003;-1.625781529583037E-003;
2.408000000000000E+009;1.973890364170075E-001;4.347493126988411E-002;-2.157482784241438E-003;-1.596598536707461E-003;
2.408166666666667E+009;1.965653151273727E-001;4.307856783270836E-002;-2.077583922073245E-003;-1.529876026324928E-003;
2.408333333333334E+009;1.961804032325745E-001;4.260095953941345E-002;-2.004893263801932E-003;-1.371076446957886E-003;
2.408500000000000E+009;1.953956186771393E-001;4.224839434027672E-002;-1.849985565058887E-003;-1.265498809516430E-003;
2.408666666666667E+009;1.947652697563171E-001;4.162568971514702E-002;-1.958166249096394E-003;-1.228121225722134E-003;
2.408833333333334E+009;1.938131004571915E-001;4.090147465467453E-002;-1.891604159027338E-003;-1.088040298782289E-003;
2.409000000000000E+009;1.928258389234543E-001;3.995718434453011E-002;-1.803238876163960E-003;-1.155355712398887E-003;
2.409166666666667E+009;1.918473392724991E-001;3.903876990079880E-002;-1.745318062603474E-003;-9.503654437139630E-004;
2.409333333333334E+009;1.907805800437927E-001;3.803301602602005E-002;-1.722218468785286E-003;-9.179578628391028E-004;
2.409500000000000E+009;1.895349025726318E-001;3.668493032455444E-002;-1.702825888060033E-003;-9.419659036211669E-004;
2.409666666666667E+009;1.885318160057068E-001;3.525614738464356E-002;-1.620887662284076E-003;-1.016947673633695E-003;
2.409833333333334E+009;1.873688399791718E-001;3.379216045141220E-002;-1.714095938950777E-003;-1.126219169236720E-003;
2.410000000000000E+009;1.862608790397644E-001;3.208511322736740E-002;-1.646946300752461E-003;-1.014690264128149E-003;
2.410166666666667E+009;1.852118968963623E-001;3.046112693846226E-002;-1.683442969806492E-003;-9.882579324766994E-004;
2.410333333333334E+009;1.841095536947250E-001;2.861409634351730E-002;-1.681993599049747E-003;-9.429964702576399E-004;
2.410500000000000E+009;1.831886321306229E-001;2.669354900717735E-002;-1.671301433816552E-003;-1.081177615560591E-003;
2.410666666666667E+009;1.821511238813400E-001;2.433549240231514E-002;-1.688182470388711E-003;-1.065541640855372E-003;
2.410833333333334E+009;1.813984662294388E-001;2.229801192879677E-002;-1.874348381534219E-003;-1.079443027265370E-003;
2.411000000000000E+009;1.805587261915207E-001;2.013279125094414E-002;-1.720871776342392E-003;-1.149813178926706E-003;
2.411166666666667E+009;1.799358576536179E-001;1.783212088048458E-002;-1.895845169201493E-003;-1.168246031738818E-003;
2.411333333333334E+009;1.793311983346939E-001;1.530430931597948E-002;-2.047308022156358E-003;-1.276096329092979E-003;
2.411500000000000E+009;1.789103150367737E-001;1.308599859476090E-002;-2.009110758081079E-003;-1.039039460010827E-003;
2.411666666666667E+009;1.787006705999374E-001;1.058993395417929E-002;-2.252594800665975E-003;-1.076715067028999E-003;
2.411833333333334E+009;1.782159358263016E-001;8.219757117331028E-003;-2.477008849382401E-003;-1.063392148353159E-003;
2.412000000000000E+009;1.785737574100494E-001;5.492068827152252E-003;-2.366153523325920E-003;-9.322583791799843E-004;
2.412166666666667E+009;1.783944964408875E-001;3.284455509856343E-003;-2.601992804557085E-003;-6.756731308996677E-004;
2.412333333333334E+009;1.785888224840164E-001;6.541864131577313E-004;-2.572141354903579E-003;-7.418334134854376E-004;
2.412500000000000E+009;1.790209263563156E-001;-1.792630529962480E-003;-2.710303990170360E-003;-6.184075027704239E-004;
2.412666666666667E+009;1.796543896198273E-001;-4.156729206442833E-003;-2.785499440506101E-003;-4.443438665475696E-004;
2.412833333333334E+009;1.802509874105454E-001;-6.611447781324387E-003;-2.835654420778155E-003;-2.648846129886806E-004;
2.413000000000000E+009;1.810274422168732E-001;-8.969064801931381E-003;-2.720162272453308E-003;1.564929152664263E-005;
2.413166666666667E+009;1.817970275878906E-001;-1.124793104827404E-002;-2.944794017821550E-003;7.109143189154565E-005;
2.413333333333334E+009;1.829262971878052E-001;-1.355728693306446E-002;-2.801886526867747E-003;3.635708708316088E-004;
2.413500000000000E+009;1.836339086294174E-001;-1.580921001732349E-002;-2.931631868705154E-003;4.109782748855650E-004;
2.413666666666667E+009;1.848818212747574E-001;-1.820148900151253E-002;-2.697074087336659E-003;7.334440015256405E-004;
2.413833333333334E+009;1.860866099596024E-001;-2.012675441801548E-002;-2.717120107263327E-003;8.377315825782716E-004;
2.414000000000000E+009;1.872778534889221E-001;-2.195707336068153E-002;-2.665842184796929E-003;9.784987196326256E-004;
2.414166666666667E+009;1.884137541055679E-001;-2.390590682625771E-002;-2.493218285962939E-003;1.245005289092660E-003;
2.414333333333334E+009;1.897088736295700E-001;-2.578017674386501E-002;-2.339448314160109E-003;1.302480115555227E-003;
2.414500000000000E+009;1.909195482730866E-001;-2.726556733250618E-002;-2.279466949403286E-003;1.305167214013636E-003;
2.414666666666667E+009;1.922512501478195E-001;-2.876103669404984E-002;-2.034999197348952E-003;1.275664079003036E-003;
2.414833333333334E+009;1.935186088085175E-001;-3.029222600162029E-002;-2.089070854708552E-003;1.550100743770599E-003;
2.415000000000000E+009;1.946218162775040E-001;-3.142483904957771E-002;-1.936272718012333E-003;1.562183839268982E-003;
2.415166666666667E+009;1.959628015756607E-001;-3.263926133513451E-002;-1.824389211833477E-003;1.559974392876029E-003;
2.415333333333334E+009;1.970655769109726E-001;-3.354646638035774E-002;-1.830185065045953E-003;1.619458664208651E-003;
2.415500000000000E+009;1.983351856470108E-001;-3.419159725308418E-002;-1.745545072481036E-003;1.557621173560619E-003;
2.415666666666667E+009;1.994690448045731E-001;-3.501260653138161E-002;-1.789729576557875E-003;1.562203979119659E-003;
2.415833333333334E+009;2.002501338720322E-001;-3.550602123141289E-002;-1.694264938123524E-003;1.628305530175567E-003;
2.416000000000000E+009;2.011427134275436E-001;-3.613423928618431E-002;-1.749607385136187E-003;1.499259728007019E-003;
2.416166666666667E+009;2.019118070602417E-001;-3.668939322233200E-002;-1.618649112060666E-003;1.754133612848818E-003;
2.416333333333334E+009;2.025909721851349E-001;-3.689563274383545E-002;-1.545944716781378E-003;1.752339652739465E-003;
2.416500000000000E+009;2.031928300857544E-001;-3.710126504302025E-002;-1.576006645336747E-003;1.862935489043593E-003;
2.416666666666667E+009;2.035539895296097E-001;-3.741828352212906E-002;-1.373907085508108E-003;2.062628977000713E-003;
2.416833333333334E+009;2.036256939172745E-001;-3.730638325214386E-002;-1.227814354933798E-003;2.161097945645452E-003;
2.417000000000000E+009;2.039908468723297E-001;-3.744522482156754E-002;-1.178775099106133E-003;2.239845227450132E-003;
2.417166666666667E+009;2.035905569791794E-001;-3.729483857750893E-002;-9.881921578198671E-004;2.244671573862433E-003;
2.417333333333334E+009;2.035107165575028E-001;-3.710485249757767E-002;-7.303558522835374E-004;2.157624810934067E-003;
2.417500000000000E+009;2.033251225948334E-001;-3.712053596973419E-002;-6.107173976488411E-004;2.211970742791891E-003;
2.417666666666667E+009;2.027178555727005E-001;-3.672784566879273E-002;-5.341435316950083E-004;2.269320888444781E-003;
2.417833333333334E+009;2.024413049221039E-001;-3.652829676866531E-002;-2.754450833890587E-004;2.162480494007468E-003;
2.418000000000000E+009;2.018668502569199E-001;-3.610437735915184E-002;-5.500229235622101E-005;2.062657615169883E-003;
2.418166666666667E+009;2.011858522891998E-001;-3.600510582327843E-002;-5.840120502398349E-005;1.988363452255726E-003;
2.418333333333334E+009;2.002979665994644E-001;-3.568449988961220E-002;9.944688645191491E-005;1.810708781704307E-003;
2.418500000000000E+009;1.993020027875900E-001;-3.578584641218185E-002;1.540733646834269E-004;1.736718113534153E-003;
2.418666666666667E+009;1.983832120895386E-001;-3.564199060201645E-002;2.108693297486752E-004;1.766627305187285E-003;
2.418833333333334E+009;1.972803026437759E-001;-3.568393737077713E-002;2.858204825315625E-004;1.673026126809418E-003;
2.419000000000000E+009;1.960852891206741E-001;-3.585181385278702E-002;2.201334282290191E-004;1.478571561165154E-003;
2.419166666666667E+009;1.949117630720139E-001;-3.619727864861488E-002;1.913566957227886E-004;1.455988152883947E-003;
2.419333333333334E+009;1.935772746801376E-001;-3.668316081166267E-002;1.125327107729390E-004;1.172990654595196E-003;
2.419500000000000E+009;1.920930743217468E-001;-3.721822798252106E-002;7.228519825730473E-005;1.182332634925842E-003;
2.419666666666667E+009;1.905518621206284E-001;-3.795441985130310E-002;-1.597633490746375E-005;1.091419719159603E-003;
2.419833333333334E+009;1.889819055795670E-001;-3.865709528326988E-002;-1.007338360068388E-004;1.144252484664321E-003;
2.420000000000000E+009;1.874467134475708E-001;-3.953684493899345E-002;-1.002997596515343E-004;1.226063235662878E-003;
2.420166666666667E+009;1.857390403747559E-001;-4.050438106060028E-002;-2.578127896413207E-004;1.247830688953400E-003;
2.420333333333334E+009;1.842094212770462E-001;-4.165815189480782E-002;-3.725862479768693E-004;1.221908372826874E-003;
2.420500000000000E+009;1.824060976505280E-001;-4.310387372970581E-002;-3.733577905222774E-004;1.441037049517036E-003;
2.420666666666667E+009;1.808682531118393E-001;-4.429215192794800E-002;-3.614293236751109E-004;1.577820163220167E-003;
2.420833333333334E+009;1.792669594287872E-001;-4.572817310690880E-002;-2.447862061671913E-004;1.718468149192631E-003;
2.421000000000000E+009;1.777283549308777E-001;-4.745897278189659E-002;-7.875112351030111E-005;1.917406683787704E-003;
2.421166666666667E+009;1.763306409120560E-001;-4.924419522285461E-002;3.993274003732950E-005;2.051639836281538E-003;
2.421333333333334E+009;1.747320443391800E-001;-5.068346112966538E-002;2.653250994626433E-004;2.090933965519071E-003;
2.421500000000000E+009;1.733506917953491E-001;-5.274568125605583E-002;5.058764945715666E-004;2.131942659616470E-003;
2.421666666666667E+009;1.719908118247986E-001;-5.446052923798561E-002;5.685953074134886E-004;2.150234999135137E-003;
2.421833333333334E+009;1.708871573209763E-001;-5.644470825791359E-002;7.711033686064184E-004;1.919973525218666E-003;
2.422000000000000E+009;1.696614474058151E-001;-5.826792493462563E-002;9.008580818772316E-004;1.681151799857616E-003;
2.422166666666667E+009;1.687984764575958E-001;-6.055620685219765E-002;1.196501776576042E-003;1.652174629271030E-003;
2.422333333333334E+009;1.677581071853638E-001;-6.233283877372742E-002;1.410895609296858E-003;1.653647748753429E-003;
2.422500000000000E+009;1.670085042715073E-001;-6.444148719310761E-002;1.237367512658238E-003;1.303021912463009E-003;
2.422666666666667E+009;1.662849187850952E-001;-6.651043891906738E-002;1.411028672009707E-003;1.155575853772461E-003;
2.422833333333334E+009;1.658802181482315E-001;-6.866014003753662E-002;1.148308627307415E-003;1.066722092218697E-003;
2.423000000000000E+009;1.653851121664047E-001;-7.068675011396408E-002;1.242860220372677E-003;9.697701898403466E-004;
2.423166666666667E+009;1.650798171758652E-001;-7.251085340976715E-002;1.285350299440324E-003;8.707061060704291E-004;
2.423333333333334E+009;1.649703979492188E-001;-7.455328106880188E-002;1.081633497960866E-003;7.774201221764088E-004;
2.423500000000000E+009;1.647076904773712E-001;-7.650667428970337E-002;1.160035608336330E-003;6.808917387388647E-004;
2.423666666666667E+009;1.649398803710938E-001;-7.833764702081680E-002;9.587884414941073E-004;6.532641709782183E-004;
2.423833333333334E+009;1.649386584758759E-001;-8.005241304636002E-002;9.467001073062420E-004;5.888965097256005E-004;
2.424000000000000E+009;1.652179807424545E-001;-8.185624331235886E-002;9.380292030982673E-004;5.994789535179734E-004;
2.424166666666667E+009;1.653874069452286E-001;-8.355196565389633E-002;9.494306868873537E-004;6.304754060693085E-004;
2.424333333333334E+009;1.656623631715775E-001;-8.501829206943512E-002;1.000510761514306E-003;5.808752612210810E-004;
2.424500000000000E+009;1.661783754825592E-001;-8.673504739999771E-002;9.876779513433576E-004;6.877869600430131E-004;
2.424666666666667E+009;1.664939522743225E-001;-8.799229562282562E-002;1.033147331327200E-003;6.085808854550123E-004;
2.424833333333334E+009;1.670664250850678E-001;-8.942849934101105E-002;9.168331744149327E-004;6.568712415173650E-004;
2.425000000000000E+009;1.676716655492783E-001;-9.039877355098724E-002;1.160843297839165E-003;5.471767508424819E-004;
2.425166666666667E+009;1.679579317569733E-001;-9.161106497049332E-002;1.057410379871726E-003;4.192792112007737E-004;
2.425333333333334E+009;1.685197204351425E-001;-9.254096448421478E-002;9.591188863851130E-004;5.144084570929408E-004;
2.425500000000000E+009;1.690748631954193E-001;-9.357757121324539E-002;9.949798695743084E-004;4.162302357144654E-004;
2.425666666666667E+009;1.697229444980621E-001;-9.426758438348770E-002;1.063465955667198E-003;3.201999352313578E-004;
2.425833333333334E+009;1.701204627752304E-001;-9.505306184291840E-002;1.019305433146656E-003;1.283947494812310E-004;
2.426000000000000E+009;1.706670969724655E-001;-9.549247473478317E-002;9.838562691584230E-004;1.957559579750523E-004;
2.426166666666667E+009;1.712960153818131E-001;-9.602015465497971E-002;1.069007907062769E-003;2.371164882788435E-004;
2.426333333333334E+009;1.715836077928543E-001;-9.660266339778900E-002;9.312899783253670E-004;1.687056210357696E-004;
2.426500000000000E+009;1.721585690975189E-001;-9.686698019504547E-002;1.090619945898652E-003;-1.455657456972404E-005;
2.426666666666667E+009;1.725838035345078E-001;-9.724526107311249E-002;1.163697335869074E-003;8.672186595504172E-007;
2.426833333333334E+009;1.728842109441757E-001;-9.763479232788086E-002;1.029775361530483E-003;-8.944430010160431E-005;
2.427000000000000E+009;1.730589419603348E-001;-9.787641465663910E-002;9.850831702351570E-004;-6.615689198952168E-005;
2.427166666666667E+009;1.731931716203690E-001;-9.796451777219772E-002;9.622163488529623E-004;-1.286719343625009E-004;
2.427333333333334E+009;1.732267886400223E-001;-9.828501194715500E-002;9.233572636730969E-004;-3.107877855654806E-004;
2.427500000000000E+009;1.731201857328415E-001;-9.850941598415375E-002;9.028903441503644E-004;-2.592928067315370E-004;
2.427666666666667E+009;1.728448420763016E-001;-9.864836186170578E-002;6.119259633123875E-004;-3.080932947341353E-004;
2.427833333333334E+009;1.726391613483429E-001;-9.878081083297730E-002;7.814296986907721E-004;-4.257259133737534E-004;
