# Version 1.00
#
freq[Hz];re:Trc1_S11;im:Trc1_S11;re:Trc2_S21;im:Trc2_S21;
2.400000000000000E+009;1.554121375083923E-001;6.157200038433075E-002;-2.628803486004472E-003;6.747479783371091E-004;
2.400166666666667E+009;1.555500775575638E-001;5.981247499585152E-002;-2.673059934750199E-003;5.901526892557740E-004;
2.400333333333334E+009;1.554024666547775E-001;5.765024200081825E-002;-2.508418634533882E-003;6.296049105003476E-004;
2.400500000000000E+009;1.555415987968445E-001;5.545320361852646E-002;-2.646698150783777E-003;8.654524572193623E-004;
2.400666666666667E+009;1.556459665298462E-001;5.319654569029808E-002;-2.568381838500500E-003;9.281836100853980E-004;
2.400833333333334E+009;1.559789627790451E-001;5.111267417669296E-002;-2.311387099325657E-003;9.174669394269586E-004;
2.401000000000000E+009;1.561527848243713E-001;4.901988804340363E-002;-2.346363151445985E-003;9.824753506109119E-004;
2.401166666666667E+009;1.565479040145874E-001;4.653687030076981E-002;-2.401985460892320E-003;1.168650458566845E-003;
2.401333333333334E+009;1.569131910800934E-001;4.446876049041748E-002;-2.131913322955370E-003;1.078251167200506E-003;
2.401500000000000E+009;1.574709713459015E-001;4.227001592516899E-002;-1.894921995699406E-003;9.904467733576894E-004;
2.401666666666667E+009;1.580441296100617E-001;4.015749320387840E-002;-1.897625159472227E-003;1.068036886863411E-003;
2.401833333333334E+009;1.585266888141632E-001;3.807043656706810E-002;-1.794237294234335E-003;1.169446855783463E-003;
2.402000000000000E+009;1.591216772794724E-001;3.594352304935455E-002;-1.769426511600614E-003;1.321901683695614E-003;
2.402166666666667E+009;1.600502878427506E-001;3.389424458146095E-002;-1.546574174426496E-003;1.242087688297033E-003;
2.402333333333334E+009;1.608782559633255E-001;3.198860213160515E-002;-1.511541544459760E-003;1.119079999625683E-003;
2.402500000000000E+009;1.617955714464188E-001;3.039995394647121E-002;-1.510799163952470E-003;1.200354541651905E-003;
2.402666666666667E+009;1.626916974782944E-001;2.879466675221920E-002;-1.263317652046681E-003;1.108651864342392E-003;
2.402833333333334E+009;1.637228131294251E-001;2.706216275691986E-002;-1.306168735027313E-003;1.134300488047302E-003;
2.403000000000000E+009;1.645514518022537E-001;2.536679804325104E-002;-1.266693929210305E-003;1.071832259185612E-003;
2.403166666666667E+009;1.657105386257172E-001;2.403979375958443E-002;-1.101457746699452E-003;1.047928119078279E-003;
2.403333333333334E+009;1.668669134378433E-001;2.269667387008667E-002;-1.095673302188516E-003;8.200709125958383E-004;
2.403500000000000E+009;1.679248213768005E-001;2.154844999313355E-002;-1.046967576257885E-003;9.312935289926827E-004;
2.403666666666667E+009;1.690240800380707E-001;2.037525922060013E-002;-9.328171145170927E-004;1.029836828820407E-003;
2.403833333333334E+009;1.702584475278854E-001;1.920694299042225E-002;-7.658264948986471E-004;8.401345112361014E-004;
2.404000000000000E+009;1.714332997798920E-001;1.820523478090763E-002;-8.884673006832600E-004;8.510082261636853E-004;
2.404166666666667E+009;1.722752004861832E-001;1.740420237183571E-002;-9.138640598393977E-004;8.167867781594396E-004;
2.404333333333334E+009;1.732316166162491E-001;1.648583635687828E-002;-8.343829540535808E-004;7.119970978237689E-004;
2.404500000000000E+009;1.742989867925644E-001;1.565188355743885E-002;-9.135193540714681E-004;5.979699781164527E-004;
2.404666666666667E+009;1.752246171236038E-001;1.514205615967512E-002;-8.665019413456321E-004;5.840116646140814E-004;
2.404833333333334E+009;1.761711686849594E-001;1.460909377783537E-002;-9.606272797100246E-004;5.878129159100354E-004;
2.405000000000000E+009;1.770474016666412E-001;1.405360735952854E-002;-7.971300510689616E-004;6.507494836114347E-004;
2.405166666666667E+009;1.778421550989151E-001;1.379847526550293E-002;-9.152674465440214E-004;4.291475052013993E-004;
2.405333333333334E+009;1.785176694393158E-001;1.325643155723810E-002;-7.415788131766021E-004;6.548672099597752E-004;
2.405500000000000E+009;1.792417466640472E-001;1.319283153861761E-002;-9.714522748254240E-004;5.291928537189961E-004;
2.405666666666667E+009;1.797942817211151E-001;1.303782779723406E-002;-9.844773449003696E-004;4.759422736242414E-004;
2.405833333333334E+009;1.801304519176483E-001;1.283176895231009E-002;-9.393307846039534E-004;4.855980514548719E-004;
2.406000000000000E+009;1.806189566850662E-001;1.260042376816273E-002;-8.712394046597183E-004;5.077463574707508E-004;
2.406166666666667E+009;1.808469295501709E-001;1.248036976903677E-002;-8.677183068357408E-004;5.424355622380972E-004;
2.406333333333334E+009;1.811821609735489E-001;1.232267078012228E-002;-9.183697984553874E-004;3.913677937816829E-004;
2.406500000000000E+009;1.811893433332443E-001;1.207645796239376E-002;-8.845575503073633E-004;4.601220134645701E-004;
2.406666666666667E+009;1.811362355947495E-001;1.193985715508461E-002;-8.940781699493527E-004;3.057022695429623E-004;
2.406833333333334E+009;1.812203526496887E-001;1.166678592562676E-002;-8.598044514656067E-004;2.843038819264621E-004;
2.407000000000000E+009;1.810488253831863E-001;1.154514495283365E-002;-1.074534608051181E-003;1.862633798737079E-004;
2.407166666666667E+009;1.809350550174713E-001;1.128157693892717E-002;-8.770172717049718E-004;3.773412609007210E-004;
2.407333333333334E+009;1.804623007774353E-001;1.078577991575003E-002;-1.049694255925715E-003;4.280048015061766E-004;
2.407500000000000E+009;1.799659281969070E-001;1.044718921184540E-002;-9.992773411795497E-004;2.371714945184067E-004;
2.407666666666667E+009;1.795898377895355E-001;9.989009238779545E-003;-9.285275009460747E-004;2.924714644905180E-004;
2.407833333333334E+009;1.789937764406204E-001;9.325319901108742E-003;-1.185369095765054E-003;3.340115363243967E-004;
2.408000000000000E+009;1.783283948898315E-001;8.618564344942570E-003;-1.110909390263259E-003;1.616662630112842E-004;
2.408166666666667E+009;1.776423603296280E-001;8.135591633617878E-003;-1.121166278608143E-003;2.786554396152496E-004;
2.408333333333334E+009;1.771901249885559E-001;7.307980675250292E-003;-1.332650426775217E-003;3.628694685176015E-004;
2.408500000000000E+009;1.762783378362656E-001;6.334439385682344E-003;-1.169429393485189E-003;2.375925105297938E-004;
2.408666666666667E+009;1.754014045000076E-001;5.275611765682697E-003;-1.170651405118406E-003;4.176318761892617E-004;
2.408833333333334E+009;1.743312478065491E-001;4.168438259512186E-003;-1.315941102802753E-003;4.377115692477673E-004;
2.409000000000000E+009;1.736074388027191E-001;3.050102852284908E-003;-1.171675743535161E-003;2.907005255110562E-004;
2.409166666666667E+009;1.730030328035355E-001;1.698131090961397E-003;-1.291431370191276E-003;3.594533773139119E-004;
2.409333333333334E+009;1.721622794866562E-001;1.798300072550774E-004;-1.244070241227746E-003;3.476972633507103E-004;
2.409500000000000E+009;1.713036000728607E-001;-1.487127738073468E-003;-1.357663422822952E-003;4.926949040964246E-004;
2.409666666666667E+009;1.704674065113068E-001;-2.796601969748735E-003;-1.333240652456880E-003;3.379018453415483E-004;
2.409833333333334E+009;1.697989553213120E-001;-4.521998576819897E-003;-1.365348580293357E-003;4.080376820638776E-004;
2.410000000000000E+009;1.691464483737946E-001;-6.168846972286701E-003;-1.207563444040716E-003;2.401431847829372E-004;
2.410166666666667E+009;1.685177534818649E-001;-7.953335531055927E-003;-1.589217106811702E-003;4.114923940505832E-004;
2.410333333333334E+009;1.679049879312515E-001;-9.932234883308411E-003;-1.650699530728161E-003;5.238992162048817E-004;
2.410500000000000E+009;1.673663854598999E-001;-1.179719157516956E-002;-1.621891278773546E-003;3.227643610443920E-004;
2.410666666666667E+009;1.670038998126984E-001;-1.396026182919741E-002;-1.642128918319941E-003;5.639028968289495E-004;
2.410833333333334E+009;1.666583716869354E-001;-1.565451920032501E-002;-1.633336883969605E-003;5.816691555082798E-004;
2.411000000000000E+009;1.663613617420197E-001;-1.776748523116112E-002;-1.593975466676056E-003;6.630144198425114E-004;
2.411166666666667E+009;1.662662476301193E-001;-1.998080126941204E-002;-1.789505942724645E-003;7.470916025340557E-004;
2.411333333333334E+009;1.661344021558762E-001;-2.187893167138100E-002;-1.867143786512315E-003;7.167149451561272E-004;
2.411500000000000E+009;1.660730987787247E-001;-2.418308332562447E-002;-1.800745376385748E-003;6.803030264563859E-004;
2.411666666666667E+009;1.662078946828842E-001;-2.602497301995754E-002;-1.970070647075772E-003;8.727294043637812E-004;
2.411833333333334E+009;1.663823574781418E-001;-2.812595851719379E-002;-1.962043577805162E-003;8.527437457814813E-004;
2.412000000000000E+009;1.666678935289383E-001;-3.018291667103767E-002;-1.988653093576431E-003;1.179979997687042E-003;
2.412166666666667E+009;1.668767035007477E-001;-3.230954334139824E-002;-1.954715698957443E-003;1.178437261842191E-003;
2.412333333333334E+009;1.673866361379623E-001;-3.428676351904869E-002;-2.005656482651830E-003;1.181336119771004E-003;
2.412500000000000E+009;1.677879393100739E-001;-3.619252145290375E-002;-1.960979774594307E-003;1.418392756022513E-003;
2.412666666666667E+009;1.683950573205948E-001;-3.812148049473763E-002;-2.093494636937976E-003;1.609566854313016E-003;
2.412833333333334E+009;1.688945889472961E-001;-3.983614966273308E-002;-1.885314704850316E-003;1.631724881008267E-003;
2.413000000000000E+009;1.697201132774353E-001;-4.171791672706604E-002;-1.919996575452387E-003;1.700512715615332E-003;
2.413166666666667E+009;1.701817661523819E-001;-4.336949437856674E-002;-2.106694970279932E-003;1.799476798623800E-003;
2.413333333333334E+009;1.710842698812485E-001;-4.484714195132256E-002;-2.003795234486461E-003;1.977924257516861E-003;
2.413500000000000E+009;1.716507971286774E-001;-4.664895683526993E-002;-1.763673149980605E-003;2.040960825979710E-003;
2.413666666666667E+009;1.726970225572586E-001;-4.806740954518318E-002;-1.956122461706400E-003;2.192908432334662E-003;
2.413833333333334E+009;1.730934232473373E-001;-4.934459924697876E-002;-1.840120181441307E-003;2.404230646789074E-003;
2.414000000000000E+009;1.737312376499176E-001;-5.077686160802841E-002;-1.755703706294298E-003;2.336681354790926E-003;
2.414166666666667E+009;1.746412664651871E-001;-5.181057006120682E-002;-1.500926679000258E-003;2.577519742771983E-003;
2.414333333333334E+009;1.753478646278381E-001;-5.296709015965462E-002;-1.527819316834211E-003;2.743247896432877E-003;
2.414500000000000E+009;1.761153191328049E-001;-5.380792170763016E-002;-1.278426731005311E-003;2.790987957268953E-003;
2.414666666666667E+009;1.767076253890991E-001;-5.461957305669785E-002;-1.259561278857291E-003;2.861821791157126E-003;
2.414833333333334E+009;1.772603839635849E-001;-5.546118691563606E-002;-1.099777524359524E-003;2.881970023736358E-003;
2.415000000000000E+009;1.776862740516663E-001;-5.617216601967812E-002;-9.597381576895714E-004;3.151603508740664E-003;
2.415166666666667E+009;1.782330870628357E-001;-5.683284997940064E-002;-9.668661514297128E-004;2.976200776174665E-003;
2.415333333333334E+009;1.786671131849289E-001;-5.727774277329445E-002;-6.483864272013307E-004;3.039435949176550E-003;
2.415500000000000E+009;1.790538877248764E-001;-5.772877112030983E-002;-7.100664661265910E-004;3.188132541254163E-003;
2.415666666666667E+009;1.792506277561188E-001;-5.787041410803795E-002;-6.475051050074399E-004;3.175071673467755E-003;
2.415833333333334E+009;1.794151514768601E-001;-5.825368687510490E-002;-3.727671282831579E-004;3.293625311926007E-003;
2.416000000000000E+009;1.794068664312363E-001;-5.860332027077675E-002;-2.822412061505020E-004;3.175759920850396E-003;
2.416166666666667E+009;1.795230507850647E-001;-5.868951603770256E-002;-9.937996219377965E-005;3.085467731580138E-003;
2.416333333333334E+009;1.793393492698669E-001;-5.877996608614922E-002;-6.003075031912886E-005;3.149791155010462E-003;
2.416500000000000E+009;1.791743934154511E-001;-5.891587212681770E-002;5.822859020554461E-005;3.076849505305290E-003;
2.416666666666667E+009;1.788013279438019E-001;-5.897362530231476E-002;2.002890687435865E-004;3.081100760027766E-003;
2.416833333333334E+009;1.782932430505753E-001;-5.919006094336510E-002;2.279905020259321E-004;3.054032102227211E-003;
2.417000000000000E+009;1.777190864086151E-001;-5.923889204859734E-002;4.761388117913157E-004;3.060307819396257E-003;
2.417166666666667E+009;1.771279573440552E-001;-5.935803055763245E-002;5.677044973708689E-004;3.039733739569783E-003;
2.417333333333334E+009;1.764381825923920E-001;-5.943131446838379E-002;6.070770323276520E-004;3.015641123056412E-003;
2.417500000000000E+009;1.756100803613663E-001;-5.966164171695709E-002;7.464551599696279E-004;2.973771188408136E-003;
2.417666666666667E+009;1.747162640094757E-001;-5.970551073551178E-002;7.036337046884000E-004;3.058737376704812E-003;
2.417833333333334E+009;1.735890656709671E-001;-5.993926525115967E-002;7.281524594873190E-004;2.796604996547103E-003;
2.418000000000000E+009;1.724375933408737E-001;-6.029672548174858E-002;9.581110207363963E-004;2.894320758059621E-003;
2.418166666666667E+009;1.713089942932129E-001;-6.045598909258843E-002;9.888577042147517E-004;2.846613060683012E-003;
2.418333333333334E+009;1.703240573406220E-001;-6.093232333660126E-002;9.993441635742784E-004;2.818133216351271E-003;
2.418500000000000E+009;1.690114885568619E-001;-6.134865805506706E-002;1.047374214977026E-003;2.748514758422971E-003;
2.418666666666667E+009;1.676857918500900E-001;-6.192599609494209E-002;1.161033404059708E-003;2.761998446658254E-003;
2.418833333333334E+009;1.663209348917007E-001;-6.259784102439880E-002;1.331889769062400E-003;2.680347068235278E-003;
2.419000000000000E+009;1.648560315370560E-001;-6.327961385250092E-002;1.351458602584899E-003;2.647421555593610E-003;
2.419166666666667E+009;1.635991930961609E-001;-6.400378048419952E-002;1.369975158013403E-003;2.537957392632961E-003;
2.419333333333334E+009;1.620707809925079E-001;-6.484450399875641E-002;1.355784130282700E-003;2.515062689781189E-003;
2.419500000000000E+009;1.606951951980591E-001;-6.595034897327423E-002;1.486037624999881E-003;2.472814172506332E-003;
2.419666666666667E+009;1.596525609493256E-001;-6.709358096122742E-002;1.571407308802009E-003;2.360771642997861E-003;
2.419833333333334E+009;1.582145094871521E-001;-6.792562454938889E-002;1.533364877104759E-003;2.388974884524941E-003;
2.420000000000000E+009;1.570688933134079E-001;-6.912645697593689E-002;1.663499511778355E-003;2.418878953903914E-003;
2.420166666666667E+009;1.555879861116409E-001;-7.069356739521027E-002;1.802933053113520E-003;2.341389656066895E-003;
2.420333333333334E+009;1.546986252069473E-001;-7.205266505479813E-002;1.851132838055491E-003;2.321423729881644E-003;
2.420500000000000E+009;1.537202149629593E-001;-7.341764867305756E-002;1.946146250702441E-003;2.245357725769281E-003;
2.420666666666667E+009;1.525674462318420E-001;-7.479278743267059E-002;2.043988555669785E-003;2.068270463496447E-003;
2.420833333333334E+009;1.519861966371536E-001;-7.641448080539703E-002;2.036499790847302E-003;2.058487851172686E-003;
2.421000000000000E+009;1.508282572031021E-001;-7.826951146125794E-002;2.148304134607315E-003;2.009152434766293E-003;
2.421166666666667E+009;1.502132415771484E-001;-7.977293431758881E-002;2.106567146256566E-003;1.948914374224842E-003;
2.421333333333334E+009;1.497468501329422E-001;-8.154502511024475E-002;2.153994049876928E-003;1.809302135370672E-003;
2.421500000000000E+009;1.490554958581924E-001;-8.333536982536316E-002;2.132458379492164E-003;1.748050213791430E-003;
2.421666666666667E+009;1.489005833864212E-001;-8.516559004783630E-002;2.120320452377200E-003;1.753752934746444E-003;
2.421833333333334E+009;1.484887301921845E-001;-8.694108575582504E-002;2.117131603881717E-003;1.820827485062182E-003;
2.422000000000000E+009;1.481758952140808E-001;-8.880291134119034E-002;2.399345859885216E-003;1.691115787252784E-003;
2.422166666666667E+009;1.479246169328690E-001;-9.069705009460449E-002;2.407463965937495E-003;1.633769716136158E-003;
2.422333333333334E+009;1.480723917484283E-001;-9.228074550628662E-002;2.331770490854979E-003;1.551160821691155E-003;
2.422500000000000E+009;1.480181962251663E-001;-9.412599354982376E-002;2.464358927682042E-003;1.354897161945701E-003;
2.422666666666667E+009;1.481986641883850E-001;-9.594219923019409E-002;2.491301158443093E-003;1.238743891008198E-003;
2.422833333333334E+009;1.484071314334869E-001;-9.775643050670624E-002;2.362775616347790E-003;1.336383516900241E-003;
2.423000000000000E+009;1.488183736801148E-001;-9.949753433465958E-002;2.450501313433051E-003;1.172677963040769E-003;
2.423166666666667E+009;1.492280066013336E-001;-1.011029034852982E-001;2.612095326185226E-003;1.094696228392422E-003;
2.423333333333334E+009;1.498048156499863E-001;-1.025477275252342E-001;2.521210117265582E-003;1.015451154671609E-003;
2.423500000000000E+009;1.503268629312515E-001;-1.040652915835381E-001;2.740105381235480E-003;1.070915372110903E-003;
2.423666666666667E+009;1.506258696317673E-001;-1.057465299963951E-001;2.461587777361274E-003;7.962475647218525E-004;
2.423833333333334E+009;1.511650979518890E-001;-1.070420667529106E-001;2.704995218664408E-003;8.851354359649122E-004;
2.424000000000000E+009;1.517203599214554E-001;-1.081716492772102E-001;2.686492633074522E-003;6.612762226723135E-004;
2.424166666666667E+009;1.522814482450485E-001;-1.095062345266342E-001;2.706848084926605E-003;7.361299940384924E-004;
2.424333333333334E+009;1.529953777790070E-001;-1.104291528463364E-001;2.497715409845114E-003;5.367410485632718E-004;
2.424500000000000E+009;1.536792963743210E-001;-1.115790456533432E-001;2.403814345598221E-003;6.331952754408121E-004;
2.424666666666667E+009;1.543126106262207E-001;-1.122190207242966E-001;2.578715560957789E-003;4.549558507278562E-004;
2.424833333333334E+009;1.547831147909164E-001;-1.132129207253456E-001;2.486327663064003E-003;2.854005433619022E-004;
2.425000000000000E+009;1.555449962615967E-001;-1.140997633337975E-001;2.508596982806921E-003;4.749833315145224E-004;
2.425166666666667E+009;1.557860672473908E-001;-1.146611124277115E-001;2.441182499751449E-003;2.685899962671101E-004;
2.425333333333334E+009;1.564027070999146E-001;-1.151878386735916E-001;2.344630425795913E-003;1.588136947248131E-004;
2.425500000000000E+009;1.567937582731247E-001;-1.156985312700272E-001;2.439434640109539E-003;7.749836368020624E-005;
2.425666666666667E+009;1.569396257400513E-001;-1.161356717348099E-001;2.460273914039135E-003;-6.140710320323706E-005;
2.425833333333334E+009;1.573874205350876E-001;-1.164821386337280E-001;2.465099561959505E-003;-1.139869345934130E-004;
2.426000000000000E+009;1.575085669755936E-001;-1.168574392795563E-001;2.311470452696085E-003;-3.905080666299909E-005;
2.426166666666667E+009;1.578185260295868E-001;-1.170033365488052E-001;2.322557847946882E-003;-2.540105488151312E-004;
2.426333333333334E+009;1.576660126447678E-001;-1.171263828873634E-001;2.260003471747041E-003;-3.113186685368419E-004;
2.426500000000000E+009;1.576853394508362E-001;-1.172184944152832E-001;2.296068938449025E-003;-2.083736035274342E-004;
2.426666666666667E+009;1.575839072465897E-001;-1.171521991491318E-001;2.311254385858774E-003;-3.407307376619428E-004;
2.426833333333334E+009;1.572666615247726E-001;-1.173717826604843E-001;2.272247103974223E-003;-3.165939997415990E-004;
2.427000000000000E+009;1.568236649036408E-001;-1.173640787601471E-001;2.127317711710930E-003;-2.757042529992759E-004;
2.427166666666667E+009;1.563197821378708E-001;-1.172656863927841E-001;2.187049482017756E-003;-4.756739072035998E-004;
2.427333333333334E+009;1.557178497314453E-001;-1.172746792435646E-001;2.103658625856042E-003;-3.481000021565706E-004;
2.427500000000000E+009;1.551471501588821E-001;-1.173584833741188E-001;2.094892552122474E-003;-4.746472695842385E-004;
2.427666666666667E+009;1.542651504278183E-001;-1.173881366848946E-001;1.998158404603601E-003;-4.764256591442972E-004;
2.427833333333334E+009;1.532173156738281E-001;-1.174665763974190E-001;2.154385205358267E-003;-4.191758634988219E-004;
