# Version 1.00
#
freq[Hz];re:Trc1_S11;im:Trc1_S11;re:Trc2_S21;im:Trc2_S21;
2.400000000000000E+009;1.553065031766892E-001;6.162897869944572E-002;-2.758270828053355E-003;6.463652243837714E-004;
2.400166666666667E+009;1.554229855537415E-001;5.988242849707604E-002;-2.665127860382199E-003;6.007456104271114E-004;
2.400333333333334E+009;1.555580049753189E-001;5.743690580129623E-002;-2.534413943067193E-003;7.969625294208527E-004;
2.400500000000000E+009;1.554785668849945E-001;5.548994243144989E-002;-2.483143704012036E-003;8.085592999123037E-004;
2.400666666666667E+009;1.556521654129028E-001;5.313678830862045E-002;-2.472304739058018E-003;8.656079880893230E-004;
2.400833333333334E+009;1.559259742498398E-001;5.115648359060288E-002;-2.353575080633164E-003;1.044377335347235E-003;
2.401000000000000E+009;1.560868173837662E-001;4.899695143103600E-002;-2.269359771162272E-003;1.024690922349691E-003;
2.401166666666667E+009;1.563769131898880E-001;4.663842916488648E-002;-2.210700418800116E-003;1.198079204186797E-003;
2.401333333333334E+009;1.568443179130554E-001;4.449387639760971E-002;-2.202986739575863E-003;1.205832930281758E-003;
2.401500000000000E+009;1.574481576681137E-001;4.231134057044983E-002;-2.092652488499880E-003;1.182745094411075E-003;
2.401666666666667E+009;1.580041795969009E-001;4.021746665239334E-002;-1.865722239017487E-003;1.117121893912554E-003;
2.401833333333334E+009;1.587516367435455E-001;3.805471211671829E-002;-1.699117594398558E-003;1.316777314059436E-003;
2.402000000000000E+009;1.591805070638657E-001;3.600382804870606E-002;-1.563564641401172E-003;1.218719175085425E-003;
2.402166666666667E+009;1.599979698657990E-001;3.385198861360550E-002;-1.668828423134983E-003;1.277149538509548E-003;
2.402333333333334E+009;1.607688069343567E-001;3.210683912038803E-002;-1.448430120944977E-003;1.250414992682636E-003;
2.402500000000000E+009;1.618315577507019E-001;3.042542561888695E-002;-1.398389344103634E-003;1.196342636831105E-003;
2.402666666666667E+009;1.625109910964966E-001;2.856631577014923E-002;-1.284660771489143E-003;1.062249182723463E-003;
2.402833333333334E+009;1.635653227567673E-001;2.707327529788017E-002;-1.238843076862395E-003;1.102996640838683E-003;
2.403000000000000E+009;1.644973605871201E-001;2.543618902564049E-002;-1.105614122934640E-003;1.145955873653293E-003;
2.403166666666667E+009;1.657901555299759E-001;2.400526963174343E-002;-1.069246442057192E-003;1.021314412355423E-003;
2.403333333333334E+009;1.668596863746643E-001;2.285703644156456E-002;-9.455736726522446E-004;9.729309822432697E-004;
2.403500000000000E+009;1.678496450185776E-001;2.133780717849731E-002;-1.017252565361559E-003;8.896931540220976E-004;
2.403666666666667E+009;1.688762009143829E-001;2.028102427721024E-002;-9.917994029819965E-004;8.073615026660264E-004;
2.403833333333334E+009;1.700100898742676E-001;1.923094689846039E-002;-9.354273206554353E-004;9.026748011820018E-004;
2.404000000000000E+009;1.713521629571915E-001;1.821161434054375E-002;-9.612067369744182E-004;6.160452030599117E-004;
2.404166666666667E+009;1.722859293222427E-001;1.734427735209465E-002;-9.035022230818868E-004;6.978290621191263E-004;
2.404333333333334E+009;1.731242686510086E-001;1.653433777391911E-002;-8.112703217193484E-004;6.785276927985251E-004;
2.404500000000000E+009;1.742381006479263E-001;1.577655225992203E-002;-8.433451876044273E-004;6.363830761983991E-004;
2.404666666666667E+009;1.752374470233917E-001;1.535131409764290E-002;-7.728792261332274E-004;7.922134245745838E-004;
2.404833333333334E+009;1.761112511157990E-001;1.464042253792286E-002;-8.989613270387054E-004;4.835964937228710E-004;
2.405000000000000E+009;1.769441962242127E-001;1.420142222195864E-002;-8.745254599489272E-004;7.058563060127199E-004;
2.405166666666667E+009;1.777301281690598E-001;1.377508323639631E-002;-8.348870323970914E-004;6.132868584245443E-004;
2.405333333333334E+009;1.784434616565704E-001;1.336763054132462E-002;-9.059897856786847E-004;5.688462988473475E-004;
2.405500000000000E+009;1.792477816343308E-001;1.313516777008772E-002;-7.916291942819953E-004;6.440650322474539E-004;
2.405666666666667E+009;1.797846406698227E-001;1.289998553693295E-002;-7.450586417689920E-004;6.298620719462633E-004;
2.405833333333334E+009;1.799969375133514E-001;1.284075807780027E-002;-7.811586838215590E-004;5.598448915407062E-004;
2.406000000000000E+009;1.806922703981400E-001;1.244274992495775E-002;-8.019559318199754E-004;4.115921328775585E-004;
2.406166666666667E+009;1.806687265634537E-001;1.254737563431263E-002;-7.532504387199879E-004;4.659189435187727E-004;
2.406333333333334E+009;1.810901015996933E-001;1.230980921536684E-002;-7.784431800246239E-004;4.325458139646798E-004;
2.406500000000000E+009;1.812519133090973E-001;1.216955762356520E-002;-9.325900464318693E-004;4.869818512815982E-004;
2.406666666666667E+009;1.810394525527954E-001;1.198324374854565E-002;-7.771974778734148E-004;4.467735707294196E-004;
2.406833333333334E+009;1.811426579952240E-001;1.180659141391516E-002;-9.246534900739789E-004;3.919982118532062E-004;
2.407000000000000E+009;1.809928119182587E-001;1.157732121646404E-002;-9.156450978480279E-004;3.675673506222665E-004;
2.407166666666667E+009;1.808590441942215E-001;1.138825621455908E-002;-7.947764242999256E-004;3.595145826693624E-004;
2.407333333333334E+009;1.804077327251434E-001;1.089630555361509E-002;-8.866501157172024E-004;4.301528388168663E-004;
2.407500000000000E+009;1.799821257591248E-001;1.059377007186413E-002;-8.084219298325479E-004;2.741217031143606E-004;
2.407666666666667E+009;1.795973032712936E-001;1.013883668929339E-002;-8.337898179888725E-004;2.032837510341778E-004;
2.407833333333334E+009;1.787382513284683E-001;9.494078345596790E-003;-1.026989542879164E-003;3.582744393497706E-004;
2.408000000000000E+009;1.782578080892563E-001;8.964131586253643E-003;-1.033461652696133E-003;3.514249110594392E-004;
2.408166666666667E+009;1.775502264499664E-001;8.291061036288738E-003;-1.115808379836381E-003;3.331773914396763E-004;
2.408333333333334E+009;1.770789772272110E-001;7.420890498906374E-003;-1.034986227750778E-003;4.434991569723934E-004;
2.408500000000000E+009;1.760882586240768E-001;6.379532627761364E-003;-1.105971983633936E-003;3.544540377333760E-004;
2.408666666666667E+009;1.755114048719406E-001;5.353531334549189E-003;-1.211672788485885E-003;3.105940122622997E-004;
2.408833333333334E+009;1.746269613504410E-001;4.225609358400106E-003;-1.198354410007596E-003;5.121278809383512E-004;
2.409000000000000E+009;1.737677603960037E-001;3.238887991756201E-003;-1.156137674115598E-003;3.779382386710495E-004;
2.409166666666667E+009;1.730179041624069E-001;1.710077165625989E-003;-1.139073749072850E-003;4.604525456670672E-004;
2.409333333333334E+009;1.723481565713882E-001;3.329744213260710E-004;-1.218772260472179E-003;3.321607073303312E-004;
2.409500000000000E+009;1.712854355573654E-001;-1.329684397205710E-003;-1.277146628126502E-003;3.981312038376927E-004;
2.409666666666667E+009;1.706550270318985E-001;-2.874884987249970E-003;-1.367147779092193E-003;2.963344741147012E-004;
2.409833333333334E+009;1.697847098112106E-001;-4.399063996970654E-003;-1.450434792786837E-003;5.160229629836977E-004;
2.410000000000000E+009;1.692612469196320E-001;-6.131404079496861E-003;-1.435513142496347E-003;4.586490395013243E-004;
2.410166666666667E+009;1.684943437576294E-001;-7.936566136777401E-003;-1.363351941108704E-003;3.925424243789166E-004;
2.410333333333334E+009;1.680802106857300E-001;-9.861338883638382E-003;-1.494947588071227E-003;3.854138776659966E-004;
2.410500000000000E+009;1.674519628286362E-001;-1.184023544192314E-002;-1.688145450316370E-003;3.574971342459321E-004;
2.410666666666667E+009;1.670239865779877E-001;-1.384201087057591E-002;-1.523344311863184E-003;4.035666643176228E-004;
2.410833333333334E+009;1.666539609432221E-001;-1.578323729336262E-002;-1.726751215755940E-003;5.059884861111641E-004;
2.411000000000000E+009;1.663855612277985E-001;-1.785350032150745E-002;-1.637628651224077E-003;5.367065314203501E-004;
2.411166666666667E+009;1.661756187677383E-001;-1.995029672980309E-002;-1.801819191314280E-003;6.536791333928704E-004;
2.411333333333334E+009;1.659303903579712E-001;-2.198477275669575E-002;-1.748005044646561E-003;7.696609245613217E-004;
2.411500000000000E+009;1.660613268613815E-001;-2.428558468818665E-002;-1.893012551590800E-003;7.267014589160681E-004;
2.411666666666667E+009;1.662483960390091E-001;-2.620295062661171E-002;-1.758660655468702E-003;9.093065164051950E-004;
2.411833333333334E+009;1.663896888494492E-001;-2.823709882795811E-002;-1.979505177587271E-003;1.018875278532505E-003;
2.412000000000000E+009;1.667539775371552E-001;-3.025094419717789E-002;-2.021991182118654E-003;9.941015159711242E-004;
2.412166666666667E+009;1.667421609163284E-001;-3.230318054556847E-002;-1.947620068676770E-003;1.083604875020683E-003;
2.412333333333334E+009;1.675528287887573E-001;-3.429627791047096E-002;-2.062824089080095E-003;1.290986081585288E-003;
2.412500000000000E+009;1.677575409412384E-001;-3.605625778436661E-002;-2.026162808761001E-003;1.254633883945644E-003;
2.412666666666667E+009;1.683814674615860E-001;-3.807033225893974E-002;-1.931884791702032E-003;1.366654876619577E-003;
2.412833333333334E+009;1.690415740013123E-001;-3.982120007276535E-002;-1.905486918985844E-003;1.557972049340606E-003;
2.413000000000000E+009;1.695660650730133E-001;-4.178997129201889E-002;-1.882552984170616E-003;1.715317484922707E-003;
2.413166666666667E+009;1.702390909194946E-001;-4.335707426071167E-002;-1.887222169898450E-003;1.863533165305853E-003;
2.413333333333334E+009;1.710069626569748E-001;-4.502912983298302E-002;-1.877002883702517E-003;2.095027826726437E-003;
2.413500000000000E+009;1.718035042285919E-001;-4.653550311923027E-002;-1.991416793316603E-003;2.128892112523317E-003;
2.413666666666667E+009;1.727389395236969E-001;-4.804408922791481E-002;-1.779569778591394E-003;2.310196170583367E-003;
2.413833333333334E+009;1.730506122112274E-001;-4.931991919875145E-002;-1.845004851929843E-003;2.100403420627117E-003;
2.414000000000000E+009;1.737844645977020E-001;-5.077657848596573E-002;-1.796429743990302E-003;2.411895897239447E-003;
2.414166666666667E+009;1.745836585760117E-001;-5.178551003336906E-002;-1.582268741913140E-003;2.496615983545780E-003;
2.414333333333334E+009;1.753637194633484E-001;-5.292630568146706E-002;-1.335222041234374E-003;2.806823235005140E-003;
2.414500000000000E+009;1.761952489614487E-001;-5.381567031145096E-002;-1.451134565286338E-003;2.656387398019433E-003;
2.414666666666667E+009;1.766516417264938E-001;-5.460699647665024E-002;-1.140824868343771E-003;2.719055861234665E-003;
2.414833333333334E+009;1.772400438785553E-001;-5.556548014283180E-002;-1.116039115004242E-003;2.955558709800243E-003;
2.415000000000000E+009;1.778292655944824E-001;-5.612951144576073E-002;-1.056431327015162E-003;2.973606111481786E-003;
2.415166666666667E+009;1.782693713903427E-001;-5.687345191836357E-002;-9.755219798535109E-004;3.136039944365621E-003;
2.415333333333334E+009;1.786013394594193E-001;-5.732052773237228E-002;-8.214900153689086E-004;3.164835507050157E-003;
2.415500000000000E+009;1.789771914482117E-001;-5.761095136404038E-002;-6.597685278393328E-004;3.166023641824722E-003;
2.415666666666667E+009;1.792414188385010E-001;-5.790323764085770E-002;-4.573890182655305E-004;3.101395210251212E-003;
2.415833333333334E+009;1.795362532138825E-001;-5.824645608663559E-002;-3.383058065082878E-004;3.157565835863352E-003;
2.416000000000000E+009;1.792737096548080E-001;-5.847041308879852E-002;-1.867983519332483E-004;2.996186027303338E-003;
2.416166666666667E+009;1.794436722993851E-001;-5.869797244668007E-002;-1.462579530198127E-004;3.148121293634176E-003;
2.416333333333334E+009;1.793548613786697E-001;-5.870043858885765E-002;-1.305410987697542E-004;2.997566480189562E-003;
2.416500000000000E+009;1.790904849767685E-001;-5.887391790747643E-002;7.406836812151596E-005;3.253780538216233E-003;
2.416666666666667E+009;1.787407249212265E-001;-5.897225812077522E-002;2.390760782873258E-004;3.018986433744431E-003;
2.416833333333334E+009;1.784448474645615E-001;-5.924285203218460E-002;3.692835744004697E-004;2.984959166496992E-003;
2.417000000000000E+009;1.775964796543121E-001;-5.935725569725037E-002;3.643983800429851E-004;2.986738225445151E-003;
2.417166666666667E+009;1.771228164434433E-001;-5.926546081900597E-002;5.192419630475342E-004;2.815177664160729E-003;
2.417333333333334E+009;1.764289140701294E-001;-5.945525690913200E-002;5.098584224469960E-004;2.854987280443311E-003;
2.417500000000000E+009;1.755126863718033E-001;-5.976761877536774E-002;6.627328693866730E-004;2.877794904634357E-003;
2.417666666666667E+009;1.746773868799210E-001;-5.969442799687386E-002;7.188362651504576E-004;2.826096024364233E-003;
2.417833333333334E+009;1.736046820878983E-001;-5.992081388831139E-002;7.819437887519598E-004;2.792921150103211E-003;
2.418000000000000E+009;1.723783016204834E-001;-6.033228710293770E-002;8.925768779590726E-004;2.710742410272360E-003;
2.418166666666667E+009;1.713661104440689E-001;-6.053947657346726E-002;8.708492969162762E-004;2.619515405967832E-003;
2.418333333333334E+009;1.703652739524841E-001;-6.094283238053322E-002;1.019636518321931E-003;2.746988553553820E-003;
2.418500000000000E+009;1.689614504575729E-001;-6.137247011065483E-002;1.102367648854852E-003;2.696025650948286E-003;
2.418666666666667E+009;1.677892953157425E-001;-6.193440034985542E-002;1.203824067488313E-003;2.731833141297102E-003;
2.418833333333334E+009;1.662293523550034E-001;-6.274779140949249E-002;1.140119624324143E-003;2.571520861238241E-003;
2.419000000000000E+009;1.649182885885239E-001;-6.328596919775009E-002;1.400737906806171E-003;2.576394705101848E-003;
2.419166666666667E+009;1.635560393333435E-001;-6.411647796630859E-002;1.281520235352218E-003;2.546072006225586E-003;
2.419333333333334E+009;1.619933545589447E-001;-6.485408544540405E-002;1.315457047894597E-003;2.473148982971907E-003;
2.419500000000000E+009;1.608264148235321E-001;-6.584058701992035E-002;1.404309878125787E-003;2.589931478723884E-003;
2.419666666666667E+009;1.595943123102188E-001;-6.708785891532898E-002;1.552297617308796E-003;2.451902022585273E-003;
2.419833333333334E+009;1.582797616720200E-001;-6.814901530742645E-002;1.485897111706436E-003;2.307271584868431E-003;
2.420000000000000E+009;1.571413427591324E-001;-6.941133737564087E-002;1.622618990950286E-003;2.373992698267102E-003;
2.420166666666667E+009;1.558032631874085E-001;-7.062770426273346E-002;1.667067874222994E-003;2.328703645616770E-003;
2.420333333333334E+009;1.547941863536835E-001;-7.200439274311066E-002;1.653492567129433E-003;2.138608135282993E-003;
2.420500000000000E+009;1.535570770502091E-001;-7.333737611770630E-002;1.931712147779763E-003;2.128306310623884E-003;
2.420666666666667E+009;1.525486558675766E-001;-7.478103041648865E-002;1.967838965356350E-003;2.086399821564555E-003;
2.420833333333334E+009;1.518453955650330E-001;-7.644718885421753E-002;1.944393967278302E-003;2.012335928156972E-003;
2.421000000000000E+009;1.507900506258011E-001;-7.800196111202240E-002;1.918862573802471E-003;1.933610066771507E-003;
2.421166666666667E+009;1.501750349998474E-001;-7.973442226648331E-002;2.024663379415870E-003;1.871945336461067E-003;
2.421333333333334E+009;1.496005654335022E-001;-8.162277936935425E-002;2.035899553447962E-003;1.967916497960687E-003;
2.421500000000000E+009;1.490609645843506E-001;-8.335734903812408E-002;2.130413427948952E-003;1.835604663938284E-003;
2.421666666666667E+009;1.487130671739578E-001;-8.524797856807709E-002;2.172223292291164E-003;1.752074575051665E-003;
2.421833333333334E+009;1.482911705970764E-001;-8.696959912776947E-002;2.322221174836159E-003;1.748128095641732E-003;
2.422000000000000E+009;1.481769680976868E-001;-8.872202783823013E-002;2.208859892562032E-003;1.610439154319465E-003;
2.422166666666667E+009;1.480176150798798E-001;-9.065426886081696E-002;2.182864118367434E-003;1.516118994913995E-003;
2.422333333333334E+009;1.480264365673065E-001;-9.226279705762863E-002;2.393320668488741E-003;1.426201080903411E-003;
2.422500000000000E+009;1.480310112237930E-001;-9.400157630443573E-002;2.345915185287595E-003;1.537250238470733E-003;
2.422666666666667E+009;1.479704678058624E-001;-9.609416872262955E-002;2.382675651460886E-003;1.468583475798369E-003;
2.422833333333334E+009;1.483903229236603E-001;-9.758003801107407E-002;2.289141062647104E-003;1.249550608918071E-003;
2.423000000000000E+009;1.487058997154236E-001;-9.924739599227905E-002;2.437704708427191E-003;1.193168922327459E-003;
2.423166666666667E+009;1.492391526699066E-001;-1.010366827249527E-001;2.573926234617829E-003;1.112220808863640E-003;
2.423333333333334E+009;1.495916694402695E-001;-1.023672521114349E-001;2.444733399897814E-003;9.834310039877892E-004;
2.423500000000000E+009;1.499677449464798E-001;-1.038557812571526E-001;2.589069306850433E-003;9.407988400198519E-004;
2.423666666666667E+009;1.504161506891251E-001;-1.055125743150711E-001;2.579665975645185E-003;8.906206930987537E-004;
2.423833333333334E+009;1.511351466178894E-001;-1.069312095642090E-001;2.515806816518307E-003;9.487842326052487E-004;
2.424000000000000E+009;1.518327891826630E-001;-1.078827157616615E-001;2.527325879782438E-003;7.580355159007013E-004;
2.424166666666667E+009;1.523516029119492E-001;-1.092716753482819E-001;2.562319161370397E-003;5.765148671343923E-004;
2.424333333333334E+009;1.530495285987854E-001;-1.103121638298035E-001;2.432682085782290E-003;6.443492020480335E-004;
2.424500000000000E+009;1.537123471498489E-001;-1.114548444747925E-001;2.456917660310864E-003;5.426903953775764E-004;
2.424666666666667E+009;1.543728262186050E-001;-1.121815741062164E-001;2.467322628945112E-003;4.588556184899062E-004;
2.424833333333334E+009;1.548777967691422E-001;-1.131416410207748E-001;2.480519004166126E-003;5.740195047110319E-004;
2.425000000000000E+009;1.554207801818848E-001;-1.137995272874832E-001;2.424908336251974E-003;3.244157996959984E-004;
2.425166666666667E+009;1.557846069335938E-001;-1.144958809018135E-001;2.614420605823398E-003;2.377666096435860E-004;
2.425333333333334E+009;1.563881486654282E-001;-1.151142120361328E-001;2.337748650461435E-003;1.256984687643126E-004;
2.425500000000000E+009;1.568731814622879E-001;-1.157248243689537E-001;2.496889326721430E-003;5.561595389735885E-005;
2.425666666666667E+009;1.569040268659592E-001;-1.160773932933807E-001;2.461294410750270E-003;-4.027776594739407E-005;
2.425833333333334E+009;1.573078036308289E-001;-1.164537519216538E-001;2.405703999102116E-003;-3.511392787913792E-005;
2.426000000000000E+009;1.574575304985046E-001;-1.167775020003319E-001;2.378397854045034E-003;-1.436999591533095E-004;
2.426166666666667E+009;1.577437520027161E-001;-1.169500499963760E-001;2.278351457789540E-003;-2.375928597757593E-004;
2.426333333333334E+009;1.577534526586533E-001;-1.170757263898850E-001;2.358658937737346E-003;-1.983423280762509E-004;
2.426500000000000E+009;1.576983332633972E-001;-1.172454282641411E-001;2.381110563874245E-003;-2.671605616342276E-004;
2.426666666666667E+009;1.575552076101303E-001;-1.171638667583466E-001;2.143745077773929E-003;-3.089942620135844E-004;
2.426833333333334E+009;1.572983413934708E-001;-1.171978861093521E-001;2.271850826218724E-003;-3.335563524160534E-004;
2.427000000000000E+009;1.568618863821030E-001;-1.173701435327530E-001;2.345208311453462E-003;-3.659488575067371E-004;
2.427166666666667E+009;1.563495993614197E-001;-1.173363029956818E-001;2.102178754284978E-003;-3.903062606696039E-004;
2.427333333333334E+009;1.556300520896912E-001;-1.174187436699867E-001;2.084390027448535E-003;-3.722473047673702E-004;
2.427500000000000E+009;1.550358980894089E-001;-1.173040121793747E-001;2.037195488810539E-003;-4.272445221431553E-004;
2.427666666666667E+009;1.542274504899979E-001;-1.174351647496223E-001;2.018470317125320E-003;-5.388011340983212E-004;
2.427833333333334E+009;1.532118022441864E-001;-1.173595786094666E-001;2.144434722140431E-003;-5.332153523340821E-004;
