# Version 1.00
#
freq[Hz];re:Trc1_S11;im:Trc1_S11;re:Trc2_S21;im:Trc2_S21;
2.400000000000000E+009;1.553944200277329E-001;6.198742240667343E-002;-2.664204454049468E-003;5.678206216543913E-004;
2.400166666666667E+009;1.555794924497604E-001;5.995948612689972E-002;-2.649797825142741E-003;6.473086541518569E-004;
2.400333333333334E+009;1.553666591644287E-001;5.752719938755035E-002;-2.532565034925938E-003;7.947911508381367E-004;
2.400500000000000E+009;1.555030941963196E-001;5.563743412494659E-002;-2.570946933701634E-003;6.982954801060259E-004;
2.400666666666667E+009;1.555519998073578E-001;5.333035811781883E-002;-2.439137315377593E-003;9.114330750890076E-004;
2.400833333333334E+009;1.557733714580536E-001;5.129320919513702E-002;-2.392129972577095E-003;9.799182880669832E-004;
2.401000000000000E+009;1.562221050262451E-001;4.898103326559067E-002;-2.334703225642443E-003;1.035344554111362E-003;
2.401166666666667E+009;1.566270291805267E-001;4.672586545348167E-002;-2.348662121221423E-003;1.110884244553745E-003;
2.401333333333334E+009;1.568720191717148E-001;4.445488005876541E-002;-2.222376642748714E-003;1.113557023927569E-003;
2.401500000000000E+009;1.574782729148865E-001;4.238278791308403E-002;-2.051372081041336E-003;1.201911363750696E-003;
2.401666666666667E+009;1.580857932567596E-001;4.018451273441315E-002;-1.886955345980823E-003;1.236609648913145E-003;
2.401833333333334E+009;1.586030572652817E-001;3.823450580239296E-002;-1.971676014363766E-003;1.376706408336759E-003;
2.402000000000000E+009;1.593830436468124E-001;3.604799881577492E-002;-1.885000034235418E-003;1.243443228304386E-003;
2.402166666666667E+009;1.598485559225082E-001;3.394198045134544E-002;-1.522411010228097E-003;1.326052006334066E-003;
2.402333333333334E+009;1.606877744197846E-001;3.223697468638420E-002;-1.481290091760457E-003;1.227201777510345E-003;
2.402500000000000E+009;1.616735905408859E-001;3.046729974448681E-002;-1.466606161557138E-003;1.255065086297691E-003;
2.402666666666667E+009;1.625537723302841E-001;2.874810621142387E-002;-1.328866346739233E-003;1.329491031356156E-003;
2.402833333333334E+009;1.635967046022415E-001;2.701349183917046E-002;-1.308864098973572E-003;1.194764161482453E-003;
2.403000000000000E+009;1.646126955747604E-001;2.564166672527790E-002;-1.209323527291417E-003;1.188741880469024E-003;
2.403166666666667E+009;1.658333986997604E-001;2.404709346592426E-002;-1.224507344886661E-003;1.208308152854443E-003;
2.403333333333334E+009;1.669387668371201E-001;2.273761853575707E-002;-1.038919552229345E-003;1.189836068078876E-003;
2.403500000000000E+009;1.678517758846283E-001;2.143997885286808E-002;-1.024271128699184E-003;9.048316860571504E-004;
2.403666666666667E+009;1.691214889287949E-001;2.039695531129837E-002;-9.362719720229507E-004;8.881230023689568E-004;
2.403833333333334E+009;1.702049225568771E-001;1.927846483886242E-002;-8.624184993095696E-004;1.027895254082978E-003;
2.404000000000000E+009;1.712717860937119E-001;1.822350732982159E-002;-9.582887287251651E-004;7.284171879291534E-004;
2.404166666666667E+009;1.722289323806763E-001;1.732666790485382E-002;-8.252452244050801E-004;8.039957610890269E-004;
2.404333333333334E+009;1.733674854040146E-001;1.663707569241524E-002;-8.686188375577331E-004;6.871171062812209E-004;
2.404500000000000E+009;1.741749495267868E-001;1.580123230814934E-002;-6.959822494536638E-004;9.227881673723459E-004;
2.404666666666667E+009;1.753649115562439E-001;1.521559711545706E-002;-8.860433590598404E-004;6.590454140678048E-004;
2.404833333333334E+009;1.761908978223801E-001;1.463801879435778E-002;-8.868353907018900E-004;5.570531357079744E-004;
2.405000000000000E+009;1.771281063556671E-001;1.429746206849814E-002;-8.227369980886579E-004;5.938646499998868E-004;
2.405166666666667E+009;1.778247207403183E-001;1.369508914649487E-002;-7.322865421883762E-004;6.143733044154942E-004;
2.405333333333334E+009;1.788358986377716E-001;1.331577729433775E-002;-8.684321073815227E-004;6.770365289412439E-004;
2.405500000000000E+009;1.794149875640869E-001;1.329481229186058E-002;-7.592444308102131E-004;5.979221314191818E-004;
2.405666666666667E+009;1.798861026763916E-001;1.309383753687143E-002;-7.879480253905058E-004;6.049455842003226E-004;
2.405833333333334E+009;1.801963448524475E-001;1.281997188925743E-002;-8.408752619288862E-004;5.177342682145536E-004;
2.406000000000000E+009;1.807186007499695E-001;1.254048291593790E-002;-7.206453010439873E-004;5.889089079573751E-004;
2.406166666666667E+009;1.809808760881424E-001;1.253416948020458E-002;-7.619378739036620E-004;6.371141644194722E-004;
2.406333333333334E+009;1.813187301158905E-001;1.228227280080319E-002;-8.183166501112282E-004;5.627684295177460E-004;
2.406500000000000E+009;1.813978552818298E-001;1.204456295818090E-002;-8.339125197380781E-004;4.090057045686990E-004;
2.406666666666667E+009;1.812685281038284E-001;1.192107517272234E-002;-7.477213512174785E-004;5.756951286457479E-004;
2.406833333333334E+009;1.812607198953629E-001;1.166786439716816E-002;-6.868172786198556E-004;4.817574517801404E-004;
2.407000000000000E+009;1.811569184064865E-001;1.139836199581623E-002;-8.586823823861778E-004;3.560072218533605E-004;
2.407166666666667E+009;1.810712218284607E-001;1.118666399270296E-002;-9.277144563384354E-004;4.278237465769053E-004;
2.407333333333334E+009;1.804943233728409E-001;1.083385292440653E-002;-9.544045897200704E-004;3.130270051769912E-004;
2.407500000000000E+009;1.800954639911652E-001;1.045277994126082E-002;-8.653803961351514E-004;3.857663250528276E-004;
2.407666666666667E+009;1.797337085008621E-001;1.005154289305210E-002;-9.221458458341658E-004;2.437408838886768E-004;
2.407833333333334E+009;1.789263635873795E-001;9.417823515832424E-003;-9.722191025502980E-004;3.611760330386460E-004;
2.408000000000000E+009;1.784339994192123E-001;8.693039417266846E-003;-9.739233064465225E-004;3.179616760462523E-004;
2.408166666666667E+009;1.776798665523529E-001;8.087480440735817E-003;-1.003763522021473E-003;2.408876607660204E-004;
2.408333333333334E+009;1.771652102470398E-001;7.274191826581955E-003;-9.469305514357984E-004;3.096828586421907E-004;
2.408500000000000E+009;1.763293147087097E-001;6.237438414245844E-003;-1.062429742887616E-003;2.963946608360857E-004;
2.408666666666667E+009;1.755460351705551E-001;5.090163554996252E-003;-1.109397737309337E-003;2.665020874701440E-004;
2.408833333333334E+009;1.746691316366196E-001;4.225248470902443E-003;-1.220388221554458E-003;2.726138627622277E-004;
2.409000000000000E+009;1.737622022628784E-001;3.059581853449345E-003;-1.214115414768457E-003;2.717910974752158E-004;
2.409166666666667E+009;1.730739623308182E-001;1.577457762323320E-003;-1.168278977274895E-003;2.874947967939079E-004;
2.409333333333334E+009;1.722152829170227E-001;2.711978740990162E-004;-1.395584782585502E-003;2.720007032621652E-004;
2.409500000000000E+009;1.714651286602020E-001;-1.492585288360715E-003;-1.224971259944141E-003;4.991541500203311E-004;
2.409666666666667E+009;1.705690175294876E-001;-2.898265840485692E-003;-1.127805910073221E-003;1.897022157208994E-004;
2.409833333333334E+009;1.697970181703568E-001;-4.400333389639854E-003;-1.480163191445172E-003;2.693039714358747E-004;
2.410000000000000E+009;1.692240089178085E-001;-6.285001058131456E-003;-1.381368143483996E-003;3.181717474944890E-004;
2.410166666666667E+009;1.685357391834259E-001;-8.105000481009483E-003;-1.418196479789913E-003;2.149648207705468E-004;
2.410333333333334E+009;1.681060642004013E-001;-9.981986135244370E-003;-1.321172807365656E-003;4.186567093711346E-004;
2.410500000000000E+009;1.675910800695419E-001;-1.179391890764237E-002;-1.476849778555334E-003;4.975518677383661E-004;
2.410666666666667E+009;1.669330149888992E-001;-1.389306318014860E-002;-1.649148645810783E-003;3.395196690689772E-004;
2.410833333333334E+009;1.667245775461197E-001;-1.586200110614300E-002;-1.762569183483720E-003;4.653233336284757E-004;
2.411000000000000E+009;1.664286255836487E-001;-1.784579455852509E-002;-1.867042155936360E-003;5.578561685979366E-004;
2.411166666666667E+009;1.662259697914124E-001;-2.005507424473763E-002;-1.721338252536953E-003;5.684407078661025E-004;
2.411333333333334E+009;1.660380363464356E-001;-2.202617190778256E-002;-1.941498718224466E-003;7.012246060185134E-004;
2.411500000000000E+009;1.659790575504303E-001;-2.427851408720017E-002;-1.778771518729627E-003;7.571487221866846E-004;
2.411666666666667E+009;1.662021577358246E-001;-2.630598098039627E-002;-1.925033284351230E-003;8.116547833196819E-004;
2.411833333333334E+009;1.664538532495499E-001;-2.835229970514774E-002;-2.003319328650832E-003;9.049352374859154E-004;
2.412000000000000E+009;1.667269766330719E-001;-3.040968254208565E-002;-1.899707829579711E-003;9.310489986091852E-004;
2.412166666666667E+009;1.667864918708801E-001;-3.231221809983254E-002;-1.936047221533954E-003;1.179537968710065E-003;
2.412333333333334E+009;1.675084382295609E-001;-3.430707007646561E-002;-2.001390792429447E-003;1.227022847160697E-003;
2.412500000000000E+009;1.678496301174164E-001;-3.624407574534416E-002;-2.128689782693982E-003;1.317732967436314E-003;
2.412666666666667E+009;1.683982908725739E-001;-3.824063017964363E-002;-1.972430851310492E-003;1.495873788371682E-003;
2.412833333333334E+009;1.691155433654785E-001;-4.015544056892395E-002;-2.154577756300569E-003;1.617835368961096E-003;
2.413000000000000E+009;1.697672158479691E-001;-4.177885875105858E-002;-1.982378540560603E-003;1.583772012963891E-003;
2.413166666666667E+009;1.703196018934250E-001;-4.335699975490570E-002;-1.998290652409196E-003;1.818823278881609E-003;
2.413333333333334E+009;1.709423810243607E-001;-4.497950151562691E-002;-2.069335663691163E-003;1.930662663653493E-003;
2.413500000000000E+009;1.716879159212112E-001;-4.649811610579491E-002;-2.056062454357743E-003;1.996920444071293E-003;
2.413666666666667E+009;1.725561618804932E-001;-4.807439073920250E-002;-1.969512552022934E-003;1.861092052422464E-003;
2.413833333333334E+009;1.730309277772903E-001;-4.942442104220390E-002;-1.848374493420124E-003;2.310811309143901E-003;
2.414000000000000E+009;1.737179458141327E-001;-5.065558105707169E-002;-1.775864628143609E-003;2.439662814140320E-003;
2.414166666666667E+009;1.747052818536758E-001;-5.192018672823906E-002;-1.769662601873279E-003;2.664606785401702E-003;
2.414333333333334E+009;1.751136481761932E-001;-5.301032587885857E-002;-1.634546089917421E-003;2.607316942885518E-003;
2.414500000000000E+009;1.761784851551056E-001;-5.391421914100647E-002;-1.496889046393335E-003;2.761556534096599E-003;
2.414666666666667E+009;1.766579002141953E-001;-5.489415302872658E-002;-1.443561632186174E-003;2.773251617327333E-003;
2.414833333333334E+009;1.772144138813019E-001;-5.560918152332306E-002;-1.317978021688759E-003;2.912536496296525E-003;
2.415000000000000E+009;1.775489300489426E-001;-5.614793300628662E-002;-1.148009672760963E-003;2.921005943790078E-003;
2.415166666666667E+009;1.780965626239777E-001;-5.679681897163391E-002;-9.707278804853559E-004;2.984453458338976E-003;
2.415333333333334E+009;1.786111891269684E-001;-5.722869560122490E-002;-8.901435649022460E-004;3.077917499467731E-003;
2.415500000000000E+009;1.789450049400330E-001;-5.759206041693687E-002;-7.177166407927871E-004;2.923388266935945E-003;
2.415666666666667E+009;1.791824549436569E-001;-5.804318189620972E-002;-6.066681235097349E-004;3.139574546366930E-003;
2.415833333333334E+009;1.793681085109711E-001;-5.821561440825462E-002;-5.510548944585025E-004;3.291927976533771E-003;
2.416000000000000E+009;1.793412864208221E-001;-5.860215425491333E-002;-3.751957556232810E-004;3.167264163494110E-003;
2.416166666666667E+009;1.795663237571716E-001;-5.874068662524223E-002;-3.764633729588240E-004;3.185980720445514E-003;
2.416333333333334E+009;1.793534159660339E-001;-5.880777537822723E-002;-1.439958432456479E-004;3.129958407953382E-003;
2.416500000000000E+009;1.790326982736588E-001;-5.893992632627487E-002;-3.315220965305343E-005;3.205732675269246E-003;
2.416666666666667E+009;1.786868721246719E-001;-5.900344997644424E-002;1.014861045405269E-004;3.131191479042172E-003;
2.416833333333334E+009;1.783712208271027E-001;-5.915813893079758E-002;2.231755497632548E-004;3.205951070412993E-003;
2.417000000000000E+009;1.776112020015717E-001;-5.920981615781784E-002;2.175305562559515E-004;2.983834128826857E-003;
2.417166666666667E+009;1.770500093698502E-001;-5.922936648130417E-002;3.486707573756576E-004;2.940935781225562E-003;
2.417333333333334E+009;1.762693077325821E-001;-5.931156128644943E-002;5.032453918829560E-004;3.023867029696703E-003;
2.417500000000000E+009;1.755770891904831E-001;-5.957447364926338E-002;7.262040744535625E-004;3.097003791481257E-003;
2.417666666666667E+009;1.745015382766724E-001;-5.968328937888145E-002;6.565520889125764E-004;2.998890122398734E-003;
2.417833333333334E+009;1.734876185655594E-001;-5.978103727102280E-002;8.190106600522995E-004;3.101850161328912E-003;
2.418000000000000E+009;1.723989248275757E-001;-6.030306965112686E-002;8.942392887547612E-004;2.898362930864096E-003;
2.418166666666667E+009;1.712246984243393E-001;-6.049340590834618E-002;9.028211934491992E-004;2.894761273637414E-003;
2.418333333333334E+009;1.702777296304703E-001;-6.093174219131470E-002;9.301355457864702E-004;2.977537922561169E-003;
2.418500000000000E+009;1.688580214977264E-001;-6.139271333813667E-002;1.023148302920163E-003;2.870029769837856E-003;
2.418666666666667E+009;1.677112132310867E-001;-6.187018007040024E-002;1.206613727845252E-003;2.688793465495110E-003;
2.418833333333334E+009;1.661747246980667E-001;-6.249208375811577E-002;1.299179042689502E-003;2.712380839511752E-003;
2.419000000000000E+009;1.647310703992844E-001;-6.327588111162186E-002;1.315032131969929E-003;2.695715054869652E-003;
2.419166666666667E+009;1.635930389165878E-001;-6.396947056055069E-002;1.272252993658185E-003;2.704995218664408E-003;
2.419333333333334E+009;1.620547324419022E-001;-6.475066393613815E-002;1.400900422595441E-003;2.617253223434091E-003;
2.419500000000000E+009;1.608366072177887E-001;-6.583163142204285E-002;1.424682559445500E-003;2.543935552239418E-003;
2.419666666666667E+009;1.594309210777283E-001;-6.695743650197983E-002;1.477051991969347E-003;2.542562549933791E-003;
2.419833333333334E+009;1.581736803054810E-001;-6.791070848703384E-002;1.638183370232582E-003;2.530210884287953E-003;
2.420000000000000E+009;1.571257114410400E-001;-6.921038031578064E-002;1.637255772948265E-003;2.494528423994780E-003;
2.420166666666667E+009;1.557831615209580E-001;-7.047890126705170E-002;1.705049420706928E-003;2.330437302589417E-003;
2.420333333333334E+009;1.548580080270767E-001;-7.202690094709396E-002;1.730234129354358E-003;2.343862783163786E-003;
2.420500000000000E+009;1.537068039178848E-001;-7.328145951032639E-002;1.971891615539789E-003;2.259877510368824E-003;
2.420666666666667E+009;1.527193486690521E-001;-7.473562657833099E-002;1.965797040611506E-003;2.207513665780425E-003;
2.420833333333334E+009;1.520518362522125E-001;-7.647798210382462E-002;1.939742476679385E-003;2.207558834925294E-003;
2.421000000000000E+009;1.509827077388763E-001;-7.804647833108902E-002;2.169260755181313E-003;2.059404971078038E-003;
2.421166666666667E+009;1.503739655017853E-001;-7.969611138105393E-002;2.233182312920690E-003;2.055737422779203E-003;
2.421333333333334E+009;1.497406065464020E-001;-8.151885122060776E-002;2.237651497125626E-003;1.826795400120318E-003;
2.421500000000000E+009;1.490978002548218E-001;-8.339963108301163E-002;2.181091113016009E-003;2.066556131467223E-003;
2.421666666666667E+009;1.488869786262512E-001;-8.496637642383575E-002;2.279306529089809E-003;1.804276369512081E-003;
2.421833333333334E+009;1.485808938741684E-001;-8.687420189380646E-002;2.332092961296439E-003;1.750286668539047E-003;
2.422000000000000E+009;1.483372151851654E-001;-8.874258399009705E-002;2.368798013776541E-003;1.742931199260056E-003;
2.422166666666667E+009;1.481327861547470E-001;-9.061530232429504E-002;2.460497664287686E-003;1.522970502264798E-003;
2.422333333333334E+009;1.481684297323227E-001;-9.240137785673142E-002;2.512512728571892E-003;1.659834058955312E-003;
2.422500000000000E+009;1.482067555189133E-001;-9.420549124479294E-002;2.448611659929156E-003;1.525975996628404E-003;
2.422666666666667E+009;1.481411755084992E-001;-9.582550078630447E-002;2.540549263358116E-003;1.333344029262662E-003;
2.422833333333334E+009;1.485549807548523E-001;-9.775371104478836E-002;2.568721538409591E-003;1.325580524280667E-003;
2.423000000000000E+009;1.487176716327667E-001;-9.932868927717209E-002;2.629771130159497E-003;1.340356073342264E-003;
2.423166666666667E+009;1.492926776409149E-001;-1.009870916604996E-001;2.611075295135379E-003;1.064270618371666E-003;
2.423333333333334E+009;1.496668159961700E-001;-1.023662909865379E-001;2.636308316141367E-003;1.201346400193870E-003;
2.423500000000000E+009;1.502400189638138E-001;-1.040409132838249E-001;2.503807423636317E-003;8.457262301817536E-004;
2.423666666666667E+009;1.505284160375595E-001;-1.056101918220520E-001;2.649844391271472E-003;7.903765654191375E-004;
2.423833333333334E+009;1.513566523790360E-001;-1.069011613726616E-001;2.663637045770884E-003;8.805059478618205E-004;
2.424000000000000E+009;1.517644077539444E-001;-1.082034558057785E-001;2.694220049306750E-003;7.618232048116624E-004;
2.424166666666667E+009;1.523342728614807E-001;-1.093970239162445E-001;2.717987634241581E-003;5.414669285528362E-004;
2.424333333333334E+009;1.532346755266190E-001;-1.103918105363846E-001;2.674797084182501E-003;4.866515519097447E-004;
2.424500000000000E+009;1.536385715007782E-001;-1.114673390984535E-001;2.678246702998877E-003;5.914522334933281E-004;
2.424666666666667E+009;1.543446034193039E-001;-1.122203171253204E-001;2.734279958531261E-003;5.556269316002727E-004;
2.424833333333334E+009;1.549344360828400E-001;-1.131648272275925E-001;2.698776079341769E-003;2.914663928095251E-004;
2.425000000000000E+009;1.555681973695755E-001;-1.140221133828163E-001;2.530011814087629E-003;2.530928759369999E-004;
2.425166666666667E+009;1.558489203453064E-001;-1.146183535456657E-001;2.543970709666610E-003;2.530304773245007E-004;
2.425333333333334E+009;1.563879251480103E-001;-1.151933819055557E-001;2.644713036715984E-003;1.709039679553825E-005;
2.425500000000000E+009;1.568021774291992E-001;-1.157865896821022E-001;2.579834545031190E-003;5.850356046721572E-006;
2.425666666666667E+009;1.570661813020706E-001;-1.161170750856400E-001;2.523444360122085E-003;2.011020842473954E-005;
2.425833333333334E+009;1.573987752199173E-001;-1.165556088089943E-001;2.405365230515599E-003;-2.035553552559577E-005;
2.426000000000000E+009;1.575357317924500E-001;-1.168209686875343E-001;2.337472513318062E-003;-1.054095118888654E-004;
2.426166666666667E+009;1.578144133090973E-001;-1.170101985335350E-001;2.481519710272551E-003;-1.750121155055240E-004;
2.426333333333334E+009;1.577323526144028E-001;-1.171249300241470E-001;2.330596791580319E-003;-2.957997494377196E-004;
2.426500000000000E+009;1.577214896678925E-001;-1.172536611557007E-001;2.317529870197177E-003;-2.495272201485932E-004;
2.426666666666667E+009;1.576505452394486E-001;-1.171868219971657E-001;2.356910379603505E-003;-2.358283818466589E-004;
2.426833333333334E+009;1.572538763284683E-001;-1.172522082924843E-001;2.278651343658567E-003;-3.437160630710423E-004;
2.427000000000000E+009;1.568609625101090E-001;-1.173424944281578E-001;2.175071509554982E-003;-4.662395222112536E-004;
2.427166666666667E+009;1.563470065593720E-001;-1.172103583812714E-001;2.174951136112213E-003;-4.766181809827685E-004;
2.427333333333334E+009;1.557524055242539E-001;-1.174051985144615E-001;2.216081600636244E-003;-4.304979520384222E-004;
2.427500000000000E+009;1.550912261009216E-001;-1.172857433557510E-001;2.059039426967502E-003;-5.264335195533931E-004;
2.427666666666667E+009;1.543087065219879E-001;-1.173525527119637E-001;2.116589108482003E-003;-4.707434272859246E-004;
2.427833333333334E+009;1.532170921564102E-001;-1.173505485057831E-001;2.131130080670118E-003;-5.641296156682074E-004;
