# Version 1.00
#
freq[Hz];re:Trc1_S11;im:Trc1_S11;re:Trc2_S21;im:Trc2_S21;
2.400000000000000E+009;1.551623791456223E-001;6.181272864341736E-002;-2.480716444551945E-003;6.040317821316421E-004;
2.400166666666667E+009;1.551632583141327E-001;5.986993759870529E-002;-2.459937473759055E-003;7.532304152846336E-004;
2.400333333333334E+009;1.551532596349716E-001;5.773091316223145E-002;-2.521510701626539E-003;6.815759697929025E-004;
2.400500000000000E+009;1.552439779043198E-001;5.561158806085587E-002;-2.531721489503980E-003;7.693198858760297E-004;
2.400666666666667E+009;1.554060131311417E-001;5.332915112376213E-002;-2.424085978418589E-003;8.124634041450918E-004;
2.400833333333334E+009;1.557416319847107E-001;5.128961801528931E-002;-2.312209922820330E-003;1.005366793833673E-003;
2.401000000000000E+009;1.560533642768860E-001;4.892602190375328E-002;-2.283745445311070E-003;1.008987543173134E-003;
2.401166666666667E+009;1.563200652599335E-001;4.677616432309151E-002;-2.149369334802032E-003;1.017869450151920E-003;
2.401333333333334E+009;1.567959338426590E-001;4.451901838183403E-002;-2.017402322962880E-003;1.253894064575434E-003;
2.401500000000000E+009;1.574733406305313E-001;4.223832115530968E-002;-1.959986751899123E-003;1.080150483176112E-003;
2.401666666666667E+009;1.578167974948883E-001;4.036594927310944E-002;-1.906741876155138E-003;1.197997946292162E-003;
2.401833333333334E+009;1.586281657218933E-001;3.807648271322250E-002;-1.699543208815157E-003;1.313051907345653E-003;
2.402000000000000E+009;1.590342968702316E-001;3.613578155636787E-002;-1.796312397345901E-003;1.240571611560881E-003;
2.402166666666667E+009;1.598455756902695E-001;3.406817093491554E-002;-1.652608858421445E-003;1.387979253195226E-003;
2.402333333333334E+009;1.604945957660675E-001;3.219623863697052E-002;-1.465818146243691E-003;1.362713403068483E-003;
2.402500000000000E+009;1.617135256528854E-001;3.045712970197201E-002;-1.396993175148964E-003;1.225564046762884E-003;
2.402666666666667E+009;1.624738574028015E-001;2.860588580369949E-002;-1.257990603335202E-003;1.123027177527547E-003;
2.402833333333334E+009;1.635478883981705E-001;2.710126899182797E-002;-1.145894173532724E-003;1.050936523824930E-003;
2.403000000000000E+009;1.644777357578278E-001;2.550273016095161E-002;-1.169577473774552E-003;1.137830666266382E-003;
2.403166666666667E+009;1.655514538288117E-001;2.401259168982506E-002;-8.564115851186216E-004;9.502353495918214E-004;
2.403333333333334E+009;1.667741537094116E-001;2.287082001566887E-002;-9.288290748372674E-004;1.011220039799810E-003;
2.403500000000000E+009;1.677174121141434E-001;2.154527045786381E-002;-8.862994145601988E-004;9.644804522395134E-004;
2.403666666666667E+009;1.688611060380936E-001;2.033068425953388E-002;-7.450039847753942E-004;8.382015512324870E-004;
2.403833333333334E+009;1.700480133295059E-001;1.922537013888359E-002;-7.843162165954709E-004;8.385338005609810E-004;
2.404000000000000E+009;1.712094992399216E-001;1.823337003588677E-002;-9.001047001220286E-004;6.968576344661415E-004;
2.404166666666667E+009;1.722713708877564E-001;1.736903935670853E-002;-9.153167484328151E-004;7.799835293553770E-004;
2.404333333333334E+009;1.733389496803284E-001;1.663143560290337E-002;-8.403260144405067E-004;5.907590384595096E-004;
2.404500000000000E+009;1.741963773965836E-001;1.584180444478989E-002;-6.483316537924111E-004;7.110870210453868E-004;
2.404666666666667E+009;1.751622110605240E-001;1.518706697970629E-002;-6.033441168256104E-004;6.927666254341602E-004;
2.404833333333334E+009;1.760587394237518E-001;1.468985807150602E-002;-8.023435948416591E-004;4.571468743961304E-004;
2.405000000000000E+009;1.769631057977676E-001;1.432942692190409E-002;-9.163158247247338E-004;4.843434726353735E-004;
2.405166666666667E+009;1.778235137462616E-001;1.383034046739340E-002;-7.627618615515530E-004;4.921082872897387E-004;
2.405333333333334E+009;1.785095632076263E-001;1.347047276794910E-002;-6.860854336991906E-004;5.654533160850406E-004;
2.405500000000000E+009;1.792694479227066E-001;1.326809171587229E-002;-8.232038235291839E-004;3.948099911212921E-004;
2.405666666666667E+009;1.797677427530289E-001;1.307847257703543E-002;-7.650775369256735E-004;5.547974724322557E-004;
2.405833333333334E+009;1.801629662513733E-001;1.303189247846603E-002;-8.780062198638916E-004;4.241638816893101E-004;
2.406000000000000E+009;1.805925220251083E-001;1.262259483337402E-002;-8.629040676169097E-004;4.548252909444273E-004;
2.406166666666667E+009;1.808390766382217E-001;1.243277080357075E-002;-8.255919674411416E-004;5.573446396738291E-004;
2.406333333333334E+009;1.811070591211319E-001;1.244875136762857E-002;-9.087192011065781E-004;3.274591872468591E-004;
2.406500000000000E+009;1.812365055084229E-001;1.226508058607578E-002;-8.449351880699396E-004;4.334739933256060E-004;
2.406666666666667E+009;1.810992509126663E-001;1.210795808583498E-002;-8.170049986802042E-004;3.158093895763159E-004;
2.406833333333334E+009;1.809930056333542E-001;1.180840935558081E-002;-7.608033483847976E-004;4.473323060665280E-004;
2.407000000000000E+009;1.809795945882797E-001;1.158820651471615E-002;-8.441173704341054E-004;3.601453208830208E-004;
2.407166666666667E+009;1.806948184967041E-001;1.133339852094650E-002;-8.437450742349029E-004;3.564540238585323E-004;
2.407333333333334E+009;1.803600937128067E-001;1.094260904937983E-002;-1.084971008822322E-003;1.856760063674301E-004;
2.407500000000000E+009;1.800297647714615E-001;1.063599064946175E-002;-9.917004499584436E-004;2.403130201855674E-004;
2.407666666666667E+009;1.795303523540497E-001;1.012839656323195E-002;-9.546420187689364E-004;2.515281667001545E-004;
2.407833333333334E+009;1.788122504949570E-001;9.627724066376686E-003;-1.038044691085815E-003;1.262560545001179E-004;
2.408000000000000E+009;1.782935708761215E-001;8.852893486618996E-003;-1.115227700211108E-003;3.177148173563182E-004;
2.408166666666667E+009;1.775918155908585E-001;8.276915177702904E-003;-1.178188133053482E-003;2.323848893865943E-004;
2.408333333333334E+009;1.771358251571655E-001;7.437956053763628E-003;-1.023721066303551E-003;8.167856867657974E-005;
2.408500000000000E+009;1.761676222085953E-001;6.413144059479237E-003;-1.099932938814163E-003;2.782356168609113E-004;
2.408666666666667E+009;1.755172908306122E-001;5.440834909677506E-003;-1.112717785872519E-003;2.907447342295200E-004;
2.408833333333334E+009;1.746188700199127E-001;4.436015151441097E-003;-1.172589953057468E-003;2.490881306584925E-004;
2.409000000000000E+009;1.737851500511169E-001;3.198287216946483E-003;-1.218722551129758E-003;3.007292980328202E-004;
2.409166666666667E+009;1.729721575975418E-001;1.801039790734649E-003;-1.280675642192364E-003;3.780394326895475E-004;
2.409333333333334E+009;1.723515540361404E-001;4.164798301644623E-004;-1.225445652380586E-003;2.080414124066010E-004;
2.409500000000000E+009;1.714513897895813E-001;-1.320139970630407E-003;-1.318745664320886E-003;1.889565610326827E-004;
2.409666666666667E+009;1.706298142671585E-001;-2.711715642362833E-003;-1.369205187074840E-003;2.162971359211952E-004;
2.409833333333334E+009;1.698677241802216E-001;-4.200682509690523E-003;-1.426118309609592E-003;4.007432726211846E-004;
2.410000000000000E+009;1.694162040948868E-001;-6.136487238109112E-003;-1.467900234274566E-003;3.005288308486342E-004;
2.410166666666667E+009;1.686147749423981E-001;-7.871246896684170E-003;-1.465170644223690E-003;3.863653982989490E-004;
2.410333333333334E+009;1.679533421993256E-001;-9.852731600403786E-003;-1.479103462770581E-003;3.152395947836340E-004;
2.410500000000000E+009;1.675470620393753E-001;-1.172466296702623E-002;-1.572354580275714E-003;4.716365365311503E-004;
2.410666666666667E+009;1.670899391174316E-001;-1.382585614919663E-002;-1.639974769204855E-003;4.802062467206270E-004;
2.410833333333334E+009;1.667461991310120E-001;-1.557333674281836E-002;-1.519023207947612E-003;5.558698903769255E-004;
2.411000000000000E+009;1.665914058685303E-001;-1.776461303234100E-002;-1.686608535237610E-003;4.869635158684105E-004;
2.411166666666667E+009;1.663096696138382E-001;-1.997048780322075E-002;-1.646529533900321E-003;5.315727903507650E-004;
2.411333333333334E+009;1.661840528249741E-001;-2.200558409094811E-002;-1.878305454738438E-003;6.585827795788646E-004;
2.411500000000000E+009;1.661562919616699E-001;-2.417124621570110E-002;-1.821491750888526E-003;7.879749173298478E-004;
2.411666666666667E+009;1.663955003023148E-001;-2.612019889056683E-002;-1.781388069503009E-003;8.694783318787813E-004;
2.411833333333334E+009;1.664556115865707E-001;-2.799980714917183E-002;-1.928743789903820E-003;8.756301249377430E-004;
2.412000000000000E+009;1.668623089790344E-001;-3.030675277113915E-002;-1.979823689907789E-003;9.833847871050239E-004;
2.412166666666667E+009;1.667969375848770E-001;-3.234964981675148E-002;-1.928773941472173E-003;1.111646764911711E-003;
2.412333333333334E+009;1.675398796796799E-001;-3.413098677992821E-002;-2.039880026131868E-003;1.377586973831058E-003;
2.412500000000000E+009;1.679418981075287E-001;-3.613543882966042E-002;-2.032067626714706E-003;1.278852811083198E-003;
2.412666666666667E+009;1.684589236974716E-001;-3.824289888143539E-002;-2.217785920947790E-003;1.449034200049937E-003;
2.412833333333334E+009;1.691106557846069E-001;-4.007235169410706E-002;-2.119798911735416E-003;1.720619155094028E-003;
2.413000000000000E+009;1.695818156003952E-001;-4.179324582219124E-002;-1.968209864571691E-003;1.547724590636790E-003;
2.413166666666667E+009;1.701895892620087E-001;-4.342844337224960E-002;-2.139359712600708E-003;1.656496082432568E-003;
2.413333333333334E+009;1.708690822124481E-001;-4.497906565666199E-002;-2.003713510930538E-003;1.904737902805209E-003;
2.413500000000000E+009;1.717518419027329E-001;-4.660129919648171E-002;-1.982879592105746E-003;2.163574565201998E-003;
2.413666666666667E+009;1.725220829248428E-001;-4.803618043661118E-002;-1.780837075784802E-003;2.108334796503186E-003;
2.413833333333334E+009;1.730651855468750E-001;-4.946145042777062E-002;-1.762648578733206E-003;2.227364107966423E-003;
2.414000000000000E+009;1.737385690212250E-001;-5.088998004794121E-002;-1.775146462023258E-003;2.532616490498185E-003;
2.414166666666667E+009;1.746244430541992E-001;-5.185461416840553E-002;-1.661663874983788E-003;2.438151976093650E-003;
2.414333333333334E+009;1.752830296754837E-001;-5.290018767118454E-002;-1.465346780605614E-003;2.689470769837499E-003;
2.414500000000000E+009;1.762093901634216E-001;-5.384743958711624E-002;-1.301527954638004E-003;2.669041510671377E-003;
2.414666666666667E+009;1.767367273569107E-001;-5.468936264514923E-002;-1.372659229673445E-003;2.798965433612466E-003;
2.414833333333334E+009;1.771609932184219E-001;-5.547250807285309E-002;-1.196953468024731E-003;2.869854448363185E-003;
2.415000000000000E+009;1.777392327785492E-001;-5.610734224319458E-002;-9.250189759768546E-004;2.915575634688139E-003;
2.415166666666667E+009;1.782235354185104E-001;-5.664300173521042E-002;-9.203950176015496E-004;3.086543409153819E-003;
2.415333333333334E+009;1.786894053220749E-001;-5.736111477017403E-002;-7.209378527477384E-004;3.039631294086576E-003;
2.415500000000000E+009;1.790455430746079E-001;-5.773939192295075E-002;-6.158722098916769E-004;2.995118964463472E-003;
2.415666666666667E+009;1.792092323303223E-001;-5.801070854067802E-002;-5.297900061123073E-004;3.147662617266178E-003;
2.415833333333334E+009;1.794919073581696E-001;-5.821686983108521E-002;-3.658797941170633E-004;3.183780470862985E-003;
2.416000000000000E+009;1.794224381446838E-001;-5.855270102620125E-002;-2.036856894847006E-004;2.977462252601981E-003;
2.416166666666667E+009;1.795248985290527E-001;-5.874231830239296E-002;-8.929830073611811E-005;3.178637940436602E-003;
2.416333333333334E+009;1.792808026075363E-001;-5.877242982387543E-002;1.146543553431911E-007;3.056995104998350E-003;
2.416500000000000E+009;1.791507154703140E-001;-5.886767804622650E-002;9.980794129660353E-005;3.117510583251715E-003;
2.416666666666667E+009;1.787634491920471E-001;-5.891140177845955E-002;2.146771439583972E-004;3.072846448048949E-003;
2.416833333333334E+009;1.783584803342819E-001;-5.919885635375977E-002;1.975034538190812E-004;3.044989192858338E-003;
2.417000000000000E+009;1.776468455791473E-001;-5.926010385155678E-002;4.179937823209912E-004;2.792270155623555E-003;
2.417166666666667E+009;1.769859790802002E-001;-5.936433374881744E-002;5.457186489365995E-004;3.063746960833669E-003;
2.417333333333334E+009;1.763287186622620E-001;-5.937742069363594E-002;5.832637543790042E-004;2.891993615776300E-003;
2.417500000000000E+009;1.755498349666596E-001;-5.967074260115624E-002;7.718999986536801E-004;2.916349796578288E-003;
2.417666666666667E+009;1.745675355195999E-001;-5.975673347711563E-002;7.465837989002466E-004;2.797646680846810E-003;
2.417833333333334E+009;1.736822575330734E-001;-5.982387810945511E-002;7.941602380014956E-004;2.719111507758498E-003;
2.418000000000000E+009;1.724989563226700E-001;-6.030637398362160E-002;8.100629202090204E-004;2.834900049492717E-003;
2.418166666666667E+009;1.712132841348648E-001;-6.045066937804222E-002;9.797988459467888E-004;2.831085817888379E-003;
2.418333333333334E+009;1.702703535556793E-001;-6.095775589346886E-002;9.008225752040744E-004;2.744217170402408E-003;
2.418500000000000E+009;1.689989268779755E-001;-6.132955476641655E-002;1.002868055365980E-003;2.625622553750873E-003;
2.418666666666667E+009;1.677072793245316E-001;-6.199098378419876E-002;1.282751560211182E-003;2.544375834986568E-003;
2.418833333333334E+009;1.662361770868301E-001;-6.263136863708496E-002;1.109322882257402E-003;2.470136387273669E-003;
2.419000000000000E+009;1.646905541419983E-001;-6.334379315376282E-002;1.207118271850050E-003;2.614844590425491E-003;
2.419166666666667E+009;1.635680943727493E-001;-6.407007575035095E-002;1.349413767457008E-003;2.557342639192939E-003;
2.419333333333334E+009;1.620194613933563E-001;-6.469813734292984E-002;1.399596338160336E-003;2.520495560020208E-003;
2.419500000000000E+009;1.607478559017181E-001;-6.591365486383438E-002;1.417158870026469E-003;2.349546412006021E-003;
2.419666666666667E+009;1.595928370952606E-001;-6.705745309591293E-002;1.396002480760217E-003;2.278060186654329E-003;
2.419833333333334E+009;1.581171900033951E-001;-6.813559681177139E-002;1.428365590982139E-003;2.444841433316469E-003;
2.420000000000000E+009;1.569969803094864E-001;-6.932629644870758E-002;1.540480647236109E-003;2.317344537004829E-003;
2.420166666666667E+009;1.557997018098831E-001;-7.063254714012146E-002;1.710023148916662E-003;2.318881219252944E-003;
2.420333333333334E+009;1.548441350460053E-001;-7.199504971504211E-002;1.863640849478543E-003;2.330381423234940E-003;
2.420500000000000E+009;1.536523550748825E-001;-7.330404222011566E-002;1.785219530574977E-003;2.129225991666317E-003;
2.420666666666667E+009;1.526127606630325E-001;-7.484981417655945E-002;1.769861788488925E-003;2.126420615240932E-003;
2.420833333333334E+009;1.517882943153381E-001;-7.649196684360504E-002;1.862245844677091E-003;2.129860455170274E-003;
2.421000000000000E+009;1.509997099637985E-001;-7.813323289155960E-002;1.894260174594820E-003;1.993310637772083E-003;
2.421166666666667E+009;1.502890437841415E-001;-7.982753217220306E-002;1.899127266369760E-003;2.069233683869243E-003;
2.421333333333334E+009;1.496416330337524E-001;-8.169690519571304E-002;1.975880935788155E-003;1.763405278325081E-003;
2.421500000000000E+009;1.490485221147537E-001;-8.321185410022736E-002;2.093165647238493E-003;1.899660914205015E-003;
2.421666666666667E+009;1.485806554555893E-001;-8.510497212409973E-002;2.109930152073503E-003;1.833190093748272E-003;
2.421833333333334E+009;1.483171880245209E-001;-8.702646940946579E-002;2.162279328331351E-003;1.630781334824860E-003;
2.422000000000000E+009;1.480462551116943E-001;-8.878066390752792E-002;2.321363892406225E-003;1.614751177839935E-003;
2.422166666666667E+009;1.478626281023026E-001;-9.056816250085831E-002;2.256197854876518E-003;1.642023096792400E-003;
2.422333333333334E+009;1.481380462646484E-001;-9.235362708568573E-002;2.242731861770153E-003;1.546068117022514E-003;
2.422500000000000E+009;1.479041576385498E-001;-9.422516822814941E-002;2.255526371300221E-003;1.512807677499950E-003;
2.422666666666667E+009;1.479639410972595E-001;-9.580853581428528E-002;2.233002102002502E-003;1.415783539414406E-003;
2.422833333333334E+009;1.482882052659988E-001;-9.756633639335632E-002;2.600890817120671E-003;1.281955046579242E-003;
2.423000000000000E+009;1.486353129148483E-001;-9.926661849021912E-002;2.253387123346329E-003;1.234808354638517E-003;
2.423166666666667E+009;1.490516811609268E-001;-1.009343490004540E-001;2.381328959017992E-003;1.128555624745786E-003;
2.423333333333334E+009;1.496148556470871E-001;-1.022886708378792E-001;2.567232353612781E-003;1.127301948145032E-003;
2.423500000000000E+009;1.500269174575806E-001;-1.039656475186348E-001;2.411240246146917E-003;1.100749126635492E-003;
2.423666666666667E+009;1.504513919353485E-001;-1.054358407855034E-001;2.525337971746922E-003;1.012334600090981E-003;
2.423833333333334E+009;1.511997878551483E-001;-1.068874150514603E-001;2.372082322835922E-003;1.000874442979693E-003;
2.424000000000000E+009;1.517130583524704E-001;-1.081571057438850E-001;2.541648689657450E-003;7.712474907748401E-004;
2.424166666666667E+009;1.522332280874252E-001;-1.093379035592079E-001;2.619519596919417E-003;7.574364426545799E-004;
2.424333333333334E+009;1.529264003038406E-001;-1.102758422493935E-001;2.443653997033835E-003;6.783636636100709E-004;
2.424500000000000E+009;1.536899209022522E-001;-1.112937480211258E-001;2.587100025266409E-003;5.807544221170247E-004;
2.424666666666667E+009;1.543904989957809E-001;-1.121356263756752E-001;2.571539254859090E-003;4.954640753567219E-004;
2.424833333333334E+009;1.548055261373520E-001;-1.130573600530624E-001;2.586937975138426E-003;6.481748423539102E-004;
2.425000000000000E+009;1.554140597581863E-001;-1.138368025422096E-001;2.675423165783286E-003;2.913663047365844E-004;
2.425166666666667E+009;1.557881236076355E-001;-1.145754233002663E-001;2.589492127299309E-003;2.679021854419261E-004;
2.425333333333334E+009;1.563871651887894E-001;-1.151213794946671E-001;2.463313750922680E-003;2.210281381849200E-004;
2.425500000000000E+009;1.568177640438080E-001;-1.156888008117676E-001;2.505744807422161E-003;1.675931998761371E-004;
2.425666666666667E+009;1.570586860179901E-001;-1.159801259636879E-001;2.556525636464357E-003;-7.510524301324040E-005;
2.425833333333334E+009;1.572741121053696E-001;-1.163369566202164E-001;2.555707702413201E-003;-2.626556306495331E-005;
2.426000000000000E+009;1.577028185129166E-001;-1.167253553867340E-001;2.389552537351847E-003;-7.082075899234042E-005;
2.426166666666667E+009;1.578542739152908E-001;-1.170211583375931E-001;2.456823596730828E-003;-1.034699016599916E-004;
2.426333333333334E+009;1.576686948537827E-001;-1.170416176319122E-001;2.494982443749905E-003;-2.586507798696403E-005;
2.426500000000000E+009;1.575884222984314E-001;-1.171909347176552E-001;2.319035120308399E-003;-3.594482550397515E-004;
2.426666666666667E+009;1.577147543430328E-001;-1.171586439013481E-001;2.286501694470644E-003;-5.053105996921659E-004;
2.426833333333334E+009;1.572660058736801E-001;-1.172419786453247E-001;2.403124235570431E-003;-2.484625438228250E-004;
2.427000000000000E+009;1.568748652935028E-001;-1.173170059919357E-001;2.133057918399572E-003;-4.084255488123745E-004;
2.427166666666667E+009;1.564210057258606E-001;-1.171911284327507E-001;2.272368641570211E-003;-3.879080468323082E-004;
2.427333333333334E+009;1.557531654834747E-001;-1.173733845353127E-001;2.152967732399702E-003;-3.305002464912832E-004;
2.427500000000000E+009;1.551443785429001E-001;-1.172835528850555E-001;2.176190493628383E-003;-5.119002889841795E-004;
2.427666666666667E+009;1.542626917362213E-001;-1.172528937458992E-001;2.223530551418662E-003;-4.526280681602657E-004;
2.427833333333334E+009;1.532786637544632E-001;-1.172992289066315E-001;2.092833165079355E-003;-4.935364122502506E-004;
