# Version 1.00
#
freq[Hz];re:Trc1_S11;im:Trc1_S11;re:Trc2_S21;im:Trc2_S21;
2.400000000000000E+009;1.563237905502319E-001;1.056313663721085E-001;-1.149629009887576E-003;5.572133813984692E-004;
2.400166666666667E+009;1.562364548444748E-001;1.031588837504387E-001;-1.079789712093771E-003;7.055373862385750E-004;
2.400333333333334E+009;1.564290672540665E-001;1.009566783905029E-001;-9.980968898162246E-004;5.145630566403270E-004;
2.400500000000000E+009;1.567911654710770E-001;9.850758314132690E-002;-1.060244860127568E-003;6.495179841294885E-004;
2.400666666666667E+009;1.569258570671082E-001;9.614016860723496E-002;-9.394621592946351E-004;4.885424277745187E-004;
2.400833333333334E+009;1.571403890848160E-001;9.344490617513657E-002;-8.175523835234344E-004;5.406619166024029E-004;
2.401000000000000E+009;1.574169695377350E-001;9.072968363761902E-002;-7.882206118665636E-004;6.801218260079622E-004;
2.401166666666667E+009;1.577209830284119E-001;8.810120075941086E-002;-8.961773128248751E-004;4.461891076061875E-004;
2.401333333333334E+009;1.581439226865768E-001;8.541570603847504E-002;-1.053805230185390E-003;4.268005723133683E-004;
2.401500000000000E+009;1.586515009403229E-001;8.267860114574432E-002;-9.836342651396990E-004;5.319503252394497E-004;
2.401666666666667E+009;1.591951549053192E-001;7.997274398803711E-002;-9.951180545613170E-004;3.650257713161409E-004;
2.401833333333334E+009;1.599820405244827E-001;7.746044546365738E-002;-9.363083518110216E-004;4.899388295598328E-004;
2.402000000000000E+009;1.605169773101807E-001;7.498066872358322E-002;-1.135462312959135E-003;5.829349975101650E-004;
2.402166666666667E+009;1.615806818008423E-001;7.242133468389511E-002;-1.284540863707662E-003;4.944165120832622E-004;
2.402333333333334E+009;1.624720245599747E-001;6.984090805053711E-002;-1.179084181785584E-003;6.009055650793016E-004;
2.402500000000000E+009;1.634784489870071E-001;6.765627115964890E-002;-1.546745654195547E-003;7.154229679144919E-004;
2.402666666666667E+009;1.645696610212326E-001;6.556132435798645E-002;-1.353157218545675E-003;7.075343164615333E-004;
2.402833333333334E+009;1.659135669469833E-001;6.329099088907242E-002;-1.500400016084313E-003;8.247189689427614E-004;
2.403000000000000E+009;1.671937853097916E-001;6.101588532328606E-002;-1.539685181342065E-003;9.110489045269787E-004;
2.403166666666667E+009;1.687918156385422E-001;5.914565920829773E-002;-1.662197406403720E-003;1.092511927708983E-003;
2.403333333333334E+009;1.699799299240112E-001;5.686453729867935E-002;-1.708452589809895E-003;1.114700222387910E-003;
2.403500000000000E+009;1.714852899312973E-001;5.508487299084663E-002;-1.752174226567149E-003;1.504184678196907E-003;
2.403666666666667E+009;1.731921732425690E-001;5.310982465744019E-002;-1.616895548067987E-003;1.849229796789587E-003;
2.403833333333334E+009;1.745205074548721E-001;5.152150243520737E-002;-1.622924464754760E-003;1.889943610876799E-003;
2.404000000000000E+009;1.758921891450882E-001;4.981221258640289E-002;-1.633807201869786E-003;2.241440815851092E-003;
2.404166666666667E+009;1.774473935365677E-001;4.845387861132622E-002;-1.375300344079733E-003;2.436989685520530E-003;
2.404333333333334E+009;1.790132075548172E-001;4.691921174526215E-002;-1.119130873121321E-003;2.652100520208478E-003;
2.404500000000000E+009;1.803858727216721E-001;4.552470520138741E-002;-7.876954041421413E-004;2.794816391542554E-003;
2.404666666666667E+009;1.818743497133255E-001;4.429269954562187E-002;-4.675796080846340E-004;2.854303922504187E-003;
2.404833333333334E+009;1.832817196846008E-001;4.339035972952843E-002;-1.972671598196030E-004;2.915216842666268E-003;
2.405000000000000E+009;1.845159381628037E-001;4.274005815386772E-002;-3.693075996125117E-005;2.974154893308878E-003;
2.405166666666667E+009;1.858097016811371E-001;4.193481057882309E-002;1.876822207123041E-004;2.835872583091259E-003;
2.405333333333334E+009;1.869465708732605E-001;4.132565855979919E-002;3.817676042672247E-004;2.729305531829596E-003;
2.405500000000000E+009;1.882444471120834E-001;4.070333763957024E-002;6.232300074771047E-004;2.809745958074927E-003;
2.405666666666667E+009;1.892489045858383E-001;4.033393785357475E-002;8.068499155342579E-004;2.498129382729530E-003;
2.405833333333334E+009;1.902919411659241E-001;3.996409848332405E-002;9.243435924872756E-004;2.591755241155624E-003;
2.406000000000000E+009;1.911148428916931E-001;3.971524909138680E-002;1.023215358145535E-003;2.267402363941073E-003;
2.406166666666667E+009;1.920099705457687E-001;3.937981650233269E-002;1.142442808486521E-003;2.307886257767677E-003;
2.406333333333334E+009;1.927866786718369E-001;3.928881138563156E-002;1.249474124051631E-003;2.272494137287140E-003;
2.406500000000000E+009;1.933747082948685E-001;3.913560509681702E-002;1.301231561228633E-003;2.243234775960445E-003;
2.406666666666667E+009;1.938959956169128E-001;3.905032575130463E-002;1.297057140618563E-003;2.143434947356582E-003;
2.406833333333334E+009;1.942797154188156E-001;3.893824294209480E-002;1.587062259204686E-003;2.181069226935506E-003;
2.407000000000000E+009;1.946056485176086E-001;3.893012925982475E-002;1.743001164868474E-003;2.070450689643621E-003;
2.407166666666667E+009;1.949208527803421E-001;3.856162354350090E-002;1.727298134937882E-003;2.032513730227947E-003;
2.407333333333334E+009;1.948038488626480E-001;3.858718648552895E-002;1.952940830960870E-003;1.971966121345758E-003;
2.407500000000000E+009;1.947440207004547E-001;3.853100538253784E-002;2.046101260930300E-003;1.680452609434724E-003;
2.407666666666667E+009;1.948300749063492E-001;3.811700269579887E-002;2.373506315052509E-003;1.720467698760331E-003;
2.407833333333334E+009;1.941621005535126E-001;3.790745139122009E-002;2.462902106344700E-003;1.522743725217879E-003;
2.408000000000000E+009;1.942711174488068E-001;3.765499591827393E-002;2.577096922323108E-003;1.246027764864266E-003;
2.408166666666667E+009;1.938189566135407E-001;3.720145300030708E-002;2.619665348902345E-003;1.251256326213479E-003;
2.408333333333334E+009;1.933144181966782E-001;3.648128360509872E-002;2.831708639860153E-003;9.841343853622675E-004;
2.408500000000000E+009;1.927225291728973E-001;3.611741587519646E-002;2.940540434792638E-003;7.485210662707686E-004;
2.408666666666667E+009;1.922304183244705E-001;3.538525104522705E-002;2.822256414219737E-003;5.913634086027741E-004;
2.408833333333334E+009;1.917409449815750E-001;3.458024561405182E-002;2.874148078262806E-003;2.031880285358056E-004;
2.409000000000000E+009;1.909741461277008E-001;3.357930108904839E-002;2.971632406115532E-003;2.737089744186960E-005;
2.409166666666667E+009;1.901634931564331E-001;3.252204507589340E-002;2.754700835794210E-003;-1.346911594737321E-004;
2.409333333333334E+009;1.895235031843185E-001;3.160655125975609E-002;2.782474039122462E-003;-3.803815634455532E-004;
2.409500000000000E+009;1.886724978685379E-001;3.026554547250271E-002;2.603628672659397E-003;-6.303829140961170E-004;
2.409666666666667E+009;1.876490265130997E-001;2.872747555375099E-002;2.453780965879560E-003;-8.217535214498639E-004;
2.409833333333334E+009;1.868859082460403E-001;2.733020298182964E-002;2.374312607571483E-003;-9.155634324997664E-004;
2.410000000000000E+009;1.860837787389755E-001;2.564018219709396E-002;2.292095683515072E-003;-1.178563106805086E-003;
2.410166666666667E+009;1.852918565273285E-001;2.388072386384010E-002;2.124651800841093E-003;-1.194677432067692E-003;
2.410333333333334E+009;1.845448911190033E-001;2.217014320194721E-002;1.913582673296332E-003;-1.193038304336369E-003;
2.410500000000000E+009;1.838964372873306E-001;2.048599906265736E-002;1.749198883771896E-003;-1.364671858027577E-003;
2.410666666666667E+009;1.831487566232681E-001;1.827803067862988E-002;1.794075011275709E-003;-1.535510644316673E-003;
2.410833333333334E+009;1.827323287725449E-001;1.623135432600975E-002;1.668501645326614E-003;-1.500616432167590E-003;
2.411000000000000E+009;1.820816546678543E-001;1.400815229862928E-002;1.499987440183759E-003;-1.691036275587976E-003;
2.411166666666667E+009;1.815816462039948E-001;1.198154408484697E-002;1.295463880524039E-003;-1.781871425919235E-003;
2.411333333333334E+009;1.813739687204361E-001;9.690365754067898E-003;1.099240500479937E-003;-1.725283102132380E-003;
2.411500000000000E+009;1.808964163064957E-001;7.627263665199280E-003;8.224977646023035E-004;-1.794858137145639E-003;
2.411666666666667E+009;1.809292137622833E-001;5.395803600549698E-003;8.215446141548455E-004;-1.764921238645911E-003;
2.411833333333334E+009;1.807741820812225E-001;3.156068269163370E-003;6.372557836584747E-004;-1.851687324233353E-003;
2.412000000000000E+009;1.809707432985306E-001;7.057130569592118E-004;3.480628074612469E-004;-2.028746996074915E-003;
2.412166666666667E+009;1.810963600873947E-001;-1.363489893265069E-003;2.588750212453306E-004;-1.924933400005102E-003;
2.412333333333334E+009;1.813493967056274E-001;-3.746773349121213E-003;-7.226522029668558E-006;-1.865072874352336E-003;
2.412500000000000E+009;1.819788366556168E-001;-5.989388097077608E-003;4.496303154155612E-005;-1.864152029156685E-003;
2.412666666666667E+009;1.824124604463577E-001;-8.255327120423317E-003;-2.231930848211050E-004;-1.847153762355447E-003;
2.412833333333334E+009;1.830313503742218E-001;-1.044479385018349E-002;-3.920995804946870E-004;-1.819824916310608E-003;
2.413000000000000E+009;1.838616877794266E-001;-1.260187849402428E-002;-5.707932286895812E-004;-1.668920158408582E-003;
2.413166666666667E+009;1.844084113836289E-001;-1.472824439406395E-002;-7.295646355487406E-004;-1.502428087405860E-003;
2.413333333333334E+009;1.855360567569733E-001;-1.670896075665951E-002;-9.600582416169345E-004;-1.309995539486408E-003;
2.413500000000000E+009;1.861775219440460E-001;-1.892620138823986E-002;-1.175976707600057E-003;-1.233130344189704E-003;
2.413666666666667E+009;1.873368024826050E-001;-2.098540961742401E-002;-1.160629093647003E-003;-1.006813254207373E-003;
2.413833333333334E+009;1.883115470409393E-001;-2.276314795017242E-002;-1.382568152621388E-003;-6.437834817916155E-004;
2.414000000000000E+009;1.893576681613922E-001;-2.465772815048695E-002;-1.399120432324708E-003;-3.198519698344171E-004;
2.414166666666667E+009;1.904310435056686E-001;-2.621543593704701E-002;-1.255557406693697E-003;-1.491658622398973E-004;
2.414333333333334E+009;1.915231794118881E-001;-2.824930101633072E-002;-1.269121887162328E-003;4.286462717573158E-005;
2.414500000000000E+009;1.926052868366242E-001;-2.960681542754173E-002;-1.253345399163663E-003;1.392029662383720E-004;
2.414666666666667E+009;1.935616284608841E-001;-3.082392364740372E-002;-1.060926355421543E-003;4.328151408117265E-004;
2.414833333333334E+009;1.946417093276978E-001;-3.227020055055618E-002;-8.381350780837238E-004;6.212415173649788E-004;
2.415000000000000E+009;1.954749077558518E-001;-3.363024443387985E-002;-8.945622830651701E-004;5.776275065727532E-004;
2.415166666666667E+009;1.965465843677521E-001;-3.461619094014168E-002;-5.774558521807194E-004;7.124371477402747E-004;
2.415333333333334E+009;1.975418329238892E-001;-3.555390611290932E-002;-4.942947998642921E-004;7.038534968160093E-004;
2.415500000000000E+009;1.984891742467880E-001;-3.636762872338295E-002;-4.274057282600552E-004;7.556825294159353E-004;
2.415666666666667E+009;1.994767934083939E-001;-3.718451410531998E-002;-2.774908789433539E-004;7.759433356113732E-004;
2.415833333333334E+009;2.002366483211517E-001;-3.780912980437279E-002;-9.320106619270518E-005;8.084107539616525E-004;
2.416000000000000E+009;2.007048428058624E-001;-3.845605626702309E-002;-3.568576357793063E-005;9.789665928110480E-004;
2.416166666666667E+009;2.012513726949692E-001;-3.913157433271408E-002;-5.231452450971119E-005;9.806606685742736E-004;
2.416333333333334E+009;2.018493860960007E-001;-3.950686380267143E-002;1.179834725917317E-004;1.015255693346262E-003;
2.416500000000000E+009;2.022019922733307E-001;-3.997256979346275E-002;2.079439582303166E-004;1.135947182774544E-003;
2.416666666666667E+009;2.023068517446518E-001;-4.040021076798439E-002;4.113903269171715E-004;9.855710668489337E-004;
2.416833333333334E+009;2.024846822023392E-001;-4.064332693815231E-002;5.692932172678411E-004;1.171422773040831E-003;
2.417000000000000E+009;2.023796439170837E-001;-4.087516292929649E-002;8.122466388158500E-004;9.540377068333328E-004;
2.417166666666667E+009;2.020230591297150E-001;-4.094805940985680E-002;9.364046854898334E-004;9.131376282311976E-004;
2.417333333333334E+009;2.018319368362427E-001;-4.097118601202965E-002;1.216158270835877E-003;8.990968926809728E-004;
2.417500000000000E+009;2.015838176012039E-001;-4.107901826500893E-002;1.332749961875379E-003;7.539282087236643E-004;
2.417666666666667E+009;2.009825855493546E-001;-4.102896153926849E-002;1.445539528504014E-003;5.156010156497359E-004;
2.417833333333334E+009;2.004077583551407E-001;-4.098576679825783E-002;1.657304237596691E-003;4.391303227748722E-004;
2.418000000000000E+009;1.998413205146790E-001;-4.089516773819923E-002;1.719651743769646E-003;2.960494311992079E-004;
2.418166666666667E+009;1.990983188152313E-001;-4.097719863057137E-002;1.573285786435008E-003;6.900487642269582E-005;
2.418333333333334E+009;1.981401294469833E-001;-4.109528288245201E-002;1.668988377787173E-003;-8.050606993492693E-005;
2.418500000000000E+009;1.972559094429016E-001;-4.123136401176453E-002;1.750064315274358E-003;-3.569610998965800E-004;
2.418666666666667E+009;1.963382363319397E-001;-4.126725718379021E-002;1.788563444279134E-003;-5.709724500775337E-004;
2.418833333333334E+009;1.951256543397903E-001;-4.176687821745873E-002;1.618638634681702E-003;-7.453933940269053E-004;
2.419000000000000E+009;1.939697861671448E-001;-4.202206805348396E-002;1.685518771409988E-003;-9.935173438861966E-004;
2.419166666666667E+009;1.929011493921280E-001;-4.260493814945221E-002;1.557837589643896E-003;-9.238399215973914E-004;
2.419333333333334E+009;1.914994418621063E-001;-4.313661903142929E-002;1.394655671902001E-003;-1.238560886122286E-003;
2.419500000000000E+009;1.903549134731293E-001;-4.362583160400391E-002;1.278551062569022E-003;-1.291339169256389E-003;
2.419666666666667E+009;1.887194365262985E-001;-4.448253288865089E-002;1.062217750586569E-003;-1.647671801038086E-003;
2.419833333333334E+009;1.873585879802704E-001;-4.523850604891777E-002;9.550658287480474E-004;-1.588212908245623E-003;
2.420000000000000E+009;1.859315186738968E-001;-4.625172913074493E-002;8.338360930792987E-004;-1.535149640403688E-003;
2.420166666666667E+009;1.844412088394165E-001;-4.734132066369057E-002;6.180694326758385E-004;-1.535749412141740E-003;
2.420333333333334E+009;1.830998659133911E-001;-4.851724952459335E-002;6.250098231248558E-004;-1.589484396390617E-003;
2.420500000000000E+009;1.816269904375076E-001;-4.987125098705292E-002;5.771559081040323E-004;-1.702019362710416E-003;
2.420666666666667E+009;1.802874952554703E-001;-5.097296833992004E-002;4.505154502112418E-004;-1.645705313421786E-003;
2.420833333333334E+009;1.787220686674118E-001;-5.253214389085770E-002;1.669207267696038E-004;-1.646823948249221E-003;
2.421000000000000E+009;1.772784441709518E-001;-5.411634221673012E-002;4.933778473059647E-005;-1.702211447991431E-003;
2.421166666666667E+009;1.760501712560654E-001;-5.571084842085838E-002;4.897026155958884E-005;-1.385163515806198E-003;
2.421333333333334E+009;1.747044324874878E-001;-5.729983747005463E-002;-7.275425741681829E-005;-1.442848821170628E-003;
2.421500000000000E+009;1.734592020511627E-001;-5.912431702017784E-002;-1.287742197746411E-004;-1.544209080748260E-003;
2.421666666666667E+009;1.725392937660217E-001;-6.081786751747131E-002;-1.353768166154623E-004;-1.381291425786912E-003;
2.421833333333334E+009;1.713437587022781E-001;-6.271917372941971E-002;-9.845645399764180E-005;-1.407043077051640E-003;
2.422000000000000E+009;1.703371256589890E-001;-6.438311934471130E-002;-3.749991010408849E-004;-1.351548125967383E-003;
2.422166666666667E+009;1.696394383907318E-001;-6.650130450725555E-002;-1.630140031920746E-004;-1.443729735910893E-003;
2.422333333333334E+009;1.685154736042023E-001;-6.848364323377609E-002;-2.845400595106185E-004;-1.301646931096911E-003;
2.422500000000000E+009;1.678515225648880E-001;-7.015020400285721E-002;-2.886438160203397E-004;-1.238076481968164E-003;
2.422666666666667E+009;1.671986579895020E-001;-7.225174456834793E-002;-4.529131401795894E-004;-1.456600497476757E-003;
2.422833333333334E+009;1.666112244129181E-001;-7.417463511228561E-002;-3.966999938711524E-004;-1.349655794911087E-003;
2.423000000000000E+009;1.662003844976425E-001;-7.597342133522034E-002;-5.023088888265193E-004;-1.260830089449883E-003;
2.423166666666667E+009;1.658619940280914E-001;-7.781478017568588E-002;-5.938488757237792E-004;-1.410550205036998E-003;
2.423333333333334E+009;1.656171679496765E-001;-7.972245663404465E-002;-7.950489525683224E-004;-1.466414076276124E-003;
2.423500000000000E+009;1.654202342033386E-001;-8.130128681659699E-002;-7.761531160213053E-004;-1.253712922334671E-003;
2.423666666666667E+009;1.655355840921402E-001;-8.311675488948822E-002;-8.250640821643174E-004;-1.372444094158709E-003;
2.423833333333334E+009;1.652223914861679E-001;-8.479656279087067E-002;-1.154578174464405E-003;-1.269320724532008E-003;
2.424000000000000E+009;1.653369814157486E-001;-8.652953058481216E-002;-1.357417553663254E-003;-1.161364372819662E-003;
2.424166666666667E+009;1.653465628623962E-001;-8.801224827766419E-002;-1.445349655114114E-003;-1.076975138857961E-003;
2.424333333333334E+009;1.655808091163635E-001;-8.935743570327759E-002;-1.406186725944281E-003;-9.613446309231222E-004;
2.424500000000000E+009;1.658641397953033E-001;-9.107670933008194E-002;-1.542067155241966E-003;-9.338255040347576E-004;
2.424666666666667E+009;1.658560931682587E-001;-9.233389794826508E-002;-1.619961461983621E-003;-6.037083221599460E-004;
2.424833333333334E+009;1.663038432598114E-001;-9.370537847280502E-002;-1.492230221629143E-003;-3.925988567061722E-004;
2.425000000000000E+009;1.665706038475037E-001;-9.473645687103272E-002;-1.469862181693316E-003;-3.839498094748706E-004;
2.425166666666667E+009;1.669071763753891E-001;-9.582832455635071E-002;-1.643187250010669E-003;-1.382166665280238E-004;
2.425333333333334E+009;1.671526879072189E-001;-9.676826745271683E-002;-1.395480358041823E-003;5.577040792559274E-005;
2.425500000000000E+009;1.674012988805771E-001;-9.769986569881439E-002;-1.339262700639665E-003;1.333741965936497E-004;
2.425666666666667E+009;1.677966862916946E-001;-9.844370186328888E-002;-1.172286109067500E-003;2.536888932809234E-004;
2.425833333333334E+009;1.679664105176926E-001;-9.919177740812302E-002;-1.295270398259163E-003;2.356415643589571E-004;
2.426000000000000E+009;1.682813167572022E-001;-9.969942271709442E-002;-1.059502945281565E-003;1.942741073435172E-004;
2.426166666666667E+009;1.685747206211090E-001;-1.003585308790207E-001;-1.061416929587722E-003;3.888132923748344E-004;
2.426333333333334E+009;1.686022728681564E-001;-1.009513884782791E-001;-8.984860614873469E-004;3.403292794246227E-004;
2.426500000000000E+009;1.688493192195892E-001;-1.012302786111832E-001;-8.727618260309100E-004;3.112721606157720E-004;
2.426666666666667E+009;1.690218895673752E-001;-1.015669554471970E-001;-8.999512065201998E-004;3.480894956737757E-004;
2.426833333333334E+009;1.692600548267365E-001;-1.019892096519470E-001;-7.725766627117991E-004;2.164597099181265E-004;
2.427000000000000E+009;1.691330224275589E-001;-1.023685932159424E-001;-7.167279254645109E-004;2.271755947731435E-004;
2.427166666666667E+009;1.692013144493103E-001;-1.025573462247849E-001;-6.797494716010988E-004;3.545723739080131E-004;
2.427333333333334E+009;1.690123677253723E-001;-1.030812263488770E-001;-7.737352862022817E-004;2.373596507823095E-004;
2.427500000000000E+009;1.686747223138809E-001;-1.032868325710297E-001;-7.111899903975427E-004;1.937018096214160E-004;
2.427666666666667E+009;1.684800684452057E-001;-1.034942120313644E-001;-5.861232057213783E-004;2.253758284496144E-004;
2.427833333333334E+009;1.681245416402817E-001;-1.037351414561272E-001;-7.348523940891028E-004;3.278923686593771E-004;
