# Version 1.00
#
freq[Hz];re:Trc1_S11;im:Trc1_S11;re:Trc2_S21;im:Trc2_S21;
2.400000000000000E+009;1.563577502965927E-001;1.055060550570488E-001;-1.137325307354331E-003;5.299220792949200E-004;
2.400166666666667E+009;1.563256084918976E-001;1.032495498657227E-001;-1.094904378987849E-003;7.316551636904478E-004;
2.400333333333334E+009;1.566903591156006E-001;1.011934727430344E-001;-1.144753186963499E-003;7.039114134386182E-004;
2.400500000000000E+009;1.566501259803772E-001;9.840089082717896E-002;-1.078109140507877E-003;7.719891145825386E-004;
2.400666666666667E+009;1.569561660289764E-001;9.617546200752258E-002;-1.153957331553102E-003;7.956642075441778E-004;
2.400833333333334E+009;1.571397930383682E-001;9.334318339824677E-002;-9.688822319731116E-004;5.199175793677568E-004;
2.401000000000000E+009;1.574907600879669E-001;9.084773063659668E-002;-8.961998973973095E-004;5.429520388133824E-004;
2.401166666666667E+009;1.577779203653336E-001;8.815483003854752E-002;-9.475170518271625E-004;5.057897651568055E-004;
2.401333333333334E+009;1.584461331367493E-001;8.552324771881104E-002;-9.700895752757788E-004;5.864282720722258E-004;
2.401500000000000E+009;1.588306427001953E-001;8.268721401691437E-002;-9.380711708217859E-004;4.390153917483985E-004;
2.401666666666667E+009;1.592358648777008E-001;8.014623820781708E-002;-8.900928078219295E-004;5.043013370595872E-004;
2.401833333333334E+009;1.598256081342697E-001;7.761238515377045E-002;-1.101581961847842E-003;5.639616865664721E-004;
2.402000000000000E+009;1.608004271984100E-001;7.492187619209290E-002;-1.071783131919801E-003;5.273525603115559E-004;
2.402166666666667E+009;1.616545617580414E-001;7.263752073049545E-002;-1.316350069828332E-003;7.407137891277671E-004;
2.402333333333334E+009;1.625828742980957E-001;7.007006555795670E-002;-1.226098975166678E-003;5.880444077774882E-004;
2.402500000000000E+009;1.636578589677811E-001;6.771156936883926E-002;-1.159901847131550E-003;6.630903226323426E-004;
2.402666666666667E+009;1.648299843072891E-001;6.568807363510132E-002;-1.487202127464116E-003;6.975287687964737E-004;
2.402833333333334E+009;1.658151149749756E-001;6.322178244590759E-002;-1.449140370823443E-003;8.786019170656800E-004;
2.403000000000000E+009;1.671391576528549E-001;6.115157157182694E-002;-1.584600307978690E-003;1.002697623334825E-003;
2.403166666666667E+009;1.686707139015198E-001;5.919814482331276E-002;-1.733466633595526E-003;1.068558194674552E-003;
2.403333333333334E+009;1.699946820735931E-001;5.695930123329163E-002;-1.828863169066608E-003;1.422928529791534E-003;
2.403500000000000E+009;1.717117130756378E-001;5.520582571625710E-002;-1.705223461613059E-003;1.532446942292154E-003;
2.403666666666667E+009;1.731970012187958E-001;5.349929630756378E-002;-1.700289780274034E-003;1.897847861982882E-003;
2.403833333333334E+009;1.746074706315994E-001;5.164288356900215E-002;-1.616210793145001E-003;2.070629736408591E-003;
2.404000000000000E+009;1.760662943124771E-001;5.004205554723740E-002;-1.581968157552183E-003;2.137978095561266E-003;
2.404166666666667E+009;1.777339130640030E-001;4.851685091853142E-002;-1.436064951121807E-003;2.484437776729465E-003;
2.404333333333334E+009;1.792735904455185E-001;4.711131379008293E-002;-1.004316494800150E-003;2.690586959943175E-003;
2.404500000000000E+009;1.806018948554993E-001;4.559949412941933E-002;-8.021657704375684E-004;2.875514561310411E-003;
2.404666666666667E+009;1.821025460958481E-001;4.457312449812889E-002;-4.515575128607452E-004;2.941517159342766E-003;
2.404833333333334E+009;1.835117042064667E-001;4.343541339039803E-002;-1.870696432888508E-004;3.017299342900515E-003;
2.405000000000000E+009;1.847200393676758E-001;4.277515783905983E-002;4.798961163032800E-005;3.034369321539998E-003;
2.405166666666667E+009;1.860988438129425E-001;4.194417595863342E-002;2.531593781895936E-004;3.041067160665989E-003;
2.405333333333334E+009;1.871543377637863E-001;4.143875837326050E-002;3.766580775845796E-004;2.858028979972005E-003;
2.405500000000000E+009;1.883747875690460E-001;4.069866985082626E-002;8.490501204505563E-004;2.885153749957681E-003;
2.405666666666667E+009;1.895410567522049E-001;4.036660119891167E-002;8.079922990873456E-004;2.639223355799913E-003;
2.405833333333334E+009;1.903986483812332E-001;3.991226106882095E-002;1.026637619361281E-003;2.482510637491942E-003;
2.406000000000000E+009;1.914046406745911E-001;3.973486274480820E-002;1.029782462865114E-003;2.372953807935119E-003;
2.406166666666667E+009;1.920856088399887E-001;3.941613808274269E-002;1.171524520032108E-003;2.452627988532186E-003;
2.406333333333334E+009;1.929328739643097E-001;3.942170366644859E-002;1.306708320043981E-003;2.420435659587383E-003;
2.406500000000000E+009;1.935193240642548E-001;3.910239785909653E-002;1.331576495431364E-003;2.216801512986422E-003;
2.406666666666667E+009;1.939443945884705E-001;3.893572092056274E-002;1.540353754535317E-003;2.112512476742268E-003;
2.406833333333334E+009;1.945317685604096E-001;3.875272348523140E-002;1.428192364983261E-003;2.136225346475840E-003;
2.407000000000000E+009;1.947025507688522E-001;3.883940726518631E-002;1.832209643907845E-003;2.111893147230148E-003;
2.407166666666667E+009;1.950488984584808E-001;3.857379406690598E-002;1.810000627301633E-003;2.057002857327461E-003;
2.407333333333334E+009;1.950195729732513E-001;3.842782229185104E-002;1.971507677808404E-003;1.963562332093716E-003;
2.407500000000000E+009;1.950347423553467E-001;3.847349807620049E-002;2.142046811059117E-003;1.778527046553791E-003;
2.407666666666667E+009;1.949809044599533E-001;3.812837228178978E-002;2.451404929161072E-003;1.770154689438641E-003;
2.407833333333334E+009;1.944522261619568E-001;3.793479502201080E-002;2.515964442864060E-003;1.614595996215940E-003;
2.408000000000000E+009;1.945008933544159E-001;3.762810304760933E-002;2.674208255484700E-003;1.347338082268834E-003;
2.408166666666667E+009;1.938844025135040E-001;3.713049739599228E-002;2.667512977495790E-003;1.107011921703816E-003;
2.408333333333334E+009;1.936648786067963E-001;3.650301694869995E-002;2.902721986174583E-003;8.819514187052846E-004;
2.408500000000000E+009;1.930808424949646E-001;3.592338785529137E-002;2.848251489922404E-003;7.202227716334164E-004;
2.408666666666667E+009;1.925846785306931E-001;3.529141470789909E-002;3.039842471480370E-003;5.322956712916493E-004;
2.408833333333334E+009;1.920256167650223E-001;3.445679694414139E-002;2.930069575086236E-003;2.478098031133413E-004;
2.409000000000000E+009;1.910376250743866E-001;3.349084407091141E-002;2.983262762427330E-003;-1.187350280815736E-004;
2.409166666666667E+009;1.903080940246582E-001;3.246931359171867E-002;2.905114553868771E-003;-6.295107596088201E-005;
2.409333333333334E+009;1.896248906850815E-001;3.137543052434921E-002;2.722733654081821E-003;-4.717761185020208E-004;
2.409500000000000E+009;1.887151300907135E-001;2.997831627726555E-002;2.755300607532263E-003;-7.410087855532765E-004;
2.409666666666667E+009;1.878938227891922E-001;2.864267677068710E-002;2.564011607319117E-003;-8.317379397340119E-004;
2.409833333333334E+009;1.870519667863846E-001;2.725971676409245E-002;2.519541885703802E-003;-9.992142440751195E-004;
2.410000000000000E+009;1.862050741910934E-001;2.555819042026997E-002;2.296150894835591E-003;-1.190371112897992E-003;
2.410166666666667E+009;1.854006201028824E-001;2.373774535953999E-002;2.129620173946023E-003;-1.240147976204753E-003;
2.410333333333334E+009;1.847056299448013E-001;2.212221734225750E-002;2.043873071670532E-003;-1.312252250500023E-003;
2.410500000000000E+009;1.837363094091415E-001;2.017971128225327E-002;1.948042889125645E-003;-1.459558843635023E-003;
2.410666666666667E+009;1.832429915666580E-001;1.788743399083614E-002;1.803083345293999E-003;-1.371508114971221E-003;
2.410833333333334E+009;1.827885061502457E-001;1.585046388208866E-002;1.682596281170845E-003;-1.618846086785197E-003;
2.411000000000000E+009;1.822049021720886E-001;1.384282484650612E-002;1.603818032890558E-003;-1.682263799011707E-003;
2.411166666666667E+009;1.816817522048950E-001;1.183786615729332E-002;1.410387689247727E-003;-1.801853883080185E-003;
2.411333333333334E+009;1.812449544668198E-001;9.368048980832100E-003;1.152750104665756E-003;-1.700171385891736E-003;
2.411500000000000E+009;1.809281557798386E-001;7.191265467554331E-003;9.105057688429952E-004;-1.875525224022567E-003;
2.411666666666667E+009;1.810226291418076E-001;5.217223428189755E-003;9.094896377064288E-004;-1.838867319747806E-003;
2.411833333333334E+009;1.807898879051209E-001;2.920314436778426E-003;7.904043886810541E-004;-1.907170051708818E-003;
2.412000000000000E+009;1.810025125741959E-001;5.159246502444148E-004;5.599614814855158E-004;-1.922624302096665E-003;
2.412166666666667E+009;1.811928749084473E-001;-1.837117830291390E-003;3.549589600879699E-004;-1.856727874837816E-003;
2.412333333333334E+009;1.814195066690445E-001;-3.999973647296429E-003;2.526240132283419E-004;-1.948280842043459E-003;
2.412500000000000E+009;1.817037612199783E-001;-6.233278196305037E-003;-2.526969183236361E-006;-1.999598694965243E-003;
2.412666666666667E+009;1.824641525745392E-001;-8.291811682283878E-003;-2.485924924258143E-004;-2.015230478718877E-003;
2.412833333333334E+009;1.829190701246262E-001;-1.064183935523033E-002;-4.804576747119427E-004;-1.754999626427889E-003;
2.413000000000000E+009;1.835329532623291E-001;-1.290886290371418E-002;-5.739388871006668E-004;-1.854911679401994E-003;
2.413166666666667E+009;1.845228821039200E-001;-1.487553119659424E-002;-6.882491870783269E-004;-1.628553029149771E-003;
2.413333333333334E+009;1.852746754884720E-001;-1.700170710682869E-002;-1.089995726943016E-003;-1.449911273084581E-003;
2.413500000000000E+009;1.862453073263168E-001;-1.919657550752163E-002;-1.104732626117766E-003;-1.210347749292851E-003;
2.413666666666667E+009;1.873330622911453E-001;-2.118758857250214E-002;-1.165576046332717E-003;-9.643249213695526E-004;
2.413833333333334E+009;1.883505880832672E-001;-2.308380790054798E-002;-1.442476641386747E-003;-7.821368635632098E-004;
2.414000000000000E+009;1.892704069614410E-001;-2.488763630390167E-002;-1.238012919202447E-003;-6.310388562269509E-004;
2.414166666666667E+009;1.905048638582230E-001;-2.649483457207680E-002;-1.434532576240599E-003;-2.879415696952492E-004;
2.414333333333334E+009;1.914500743150711E-001;-2.840257808566093E-002;-1.232047798112035E-003;-1.632172143217758E-006;
2.414500000000000E+009;1.924615949392319E-001;-2.975247427821159E-002;-1.154209952801466E-003;6.620719796046615E-005;
2.414666666666667E+009;1.935324221849442E-001;-3.118784725666046E-002;-8.850093581713736E-004;2.438319206703454E-004;
2.414833333333334E+009;1.945331543684006E-001;-3.251389414072037E-002;-9.510922245681286E-004;3.828559420071542E-004;
2.415000000000000E+009;1.953358501195908E-001;-3.371980413794518E-002;-7.881121709942818E-004;5.732077406719327E-004;
2.415166666666667E+009;1.964594870805740E-001;-3.479892760515213E-002;-6.579865003004670E-004;5.752463475801051E-004;
2.415333333333334E+009;1.975377351045609E-001;-3.581751510500908E-002;-4.848529642913491E-004;6.637047044932842E-004;
2.415500000000000E+009;1.984748542308807E-001;-3.649318590760231E-002;-3.101605398114771E-004;6.996382726356387E-004;
2.415666666666667E+009;1.993405222892761E-001;-3.734228014945984E-002;-2.713125140871853E-004;7.391277467831969E-004;
2.415833333333334E+009;1.999704092741013E-001;-3.811391815543175E-002;-3.142348141409457E-004;7.407446973957121E-004;
2.416000000000000E+009;2.005139440298080E-001;-3.873248025774956E-002;-2.047447487711906E-004;8.487636223435402E-004;
2.416166666666667E+009;2.012260407209396E-001;-3.939164802432060E-002;2.890411087719258E-005;9.337516385130584E-004;
2.416333333333334E+009;2.017564922571182E-001;-3.964647650718689E-002;1.038507762132213E-004;8.537474204786122E-004;
2.416500000000000E+009;2.020026296377182E-001;-4.014125466346741E-002;2.452963090036064E-004;9.538641897961497E-004;
2.416666666666667E+009;2.021135538816452E-001;-4.060886055231094E-002;3.857252595480532E-004;1.021534553728998E-003;
2.416833333333334E+009;2.022034674882889E-001;-4.065826907753944E-002;5.287579842843115E-004;9.397312533110380E-004;
2.417000000000000E+009;2.022815197706223E-001;-4.105536639690399E-002;7.378198206424713E-004;9.275568882003427E-004;
2.417166666666667E+009;2.019478231668472E-001;-4.107148945331574E-002;1.013424014672637E-003;8.452911861240864E-004;
2.417333333333334E+009;2.016637176275253E-001;-4.109993949532509E-002;1.040590577758849E-003;8.690348477102816E-004;
2.417500000000000E+009;2.012224644422531E-001;-4.118305817246437E-002;1.109947334043682E-003;6.554843857884407E-004;
2.417666666666667E+009;2.007379978895187E-001;-4.114810749888420E-002;1.319111557677388E-003;5.031093605794013E-004;
2.417833333333334E+009;2.003443390130997E-001;-4.118010774254799E-002;1.492661423981190E-003;3.849020868074149E-004;
2.418000000000000E+009;1.996613591909409E-001;-4.105103388428688E-002;1.467694411985576E-003;1.168758390122093E-004;
2.418166666666667E+009;1.988498419523239E-001;-4.124712944030762E-002;1.569883548654616E-003;-1.967321077245288E-005;
2.418333333333334E+009;1.980110704898834E-001;-4.107261449098587E-002;1.716593164019287E-003;-1.879431656561792E-004;
2.418500000000000E+009;1.969801038503647E-001;-4.143062233924866E-002;1.709406380541623E-003;-3.961195761803538E-004;
2.418666666666667E+009;1.962424218654633E-001;-4.148298501968384E-002;1.611372106708586E-003;-6.793157081119716E-004;
2.418833333333334E+009;1.951162219047546E-001;-4.191247746348381E-002;1.651181257329881E-003;-7.282950682565570E-004;
2.419000000000000E+009;1.938865184783936E-001;-4.213409498333931E-002;1.445677480660379E-003;-8.942908607423306E-004;
2.419166666666667E+009;1.925558000802994E-001;-4.262052103877068E-002;1.578490366227925E-003;-9.890703950077295E-004;
2.419333333333334E+009;1.913466453552246E-001;-4.326255246996880E-002;1.294736517593265E-003;-1.212143572047353E-003;
2.419500000000000E+009;1.900030672550201E-001;-4.375622421503067E-002;1.140801352448762E-003;-1.368806464597583E-003;
2.419666666666667E+009;1.885739415884018E-001;-4.466259852051735E-002;9.746057330630720E-004;-1.550371176563203E-003;
2.419833333333334E+009;1.870051771402359E-001;-4.539807140827179E-002;9.093421977013350E-004;-1.564319594763219E-003;
2.420000000000000E+009;1.858170479536057E-001;-4.624150693416596E-002;6.395236123353243E-004;-1.678997185081244E-003;
2.420166666666667E+009;1.843387931585312E-001;-4.718763753771782E-002;6.955020362511277E-004;-1.516400137916207E-003;
2.420333333333334E+009;1.829372048377991E-001;-4.847029224038124E-002;3.714066115207970E-004;-1.626396784558892E-003;
2.420500000000000E+009;1.813670694828033E-001;-4.969467595219612E-002;2.982786973007023E-004;-1.563116908073425E-003;
2.420666666666667E+009;1.799495965242386E-001;-5.113697052001953E-002;1.848022220656276E-004;-1.574487425386906E-003;
2.420833333333334E+009;1.785749495029450E-001;-5.257407203316689E-002;3.362279676366597E-005;-1.546141691505909E-003;
2.421000000000000E+009;1.771917194128037E-001;-5.423259735107422E-002;-5.061924457550049E-005;-1.552236732095480E-003;
2.421166666666667E+009;1.759649068117142E-001;-5.585538595914841E-002;-5.498655445990153E-005;-1.427339739166200E-003;
2.421333333333334E+009;1.743795573711395E-001;-5.730154365301132E-002;-5.229487214819528E-005;-1.552460715174675E-003;
2.421500000000000E+009;1.731621921062470E-001;-5.904587358236313E-002;-2.069930487778038E-004;-1.531590707600117E-003;
2.421666666666667E+009;1.721319854259491E-001;-6.084043160080910E-002;-1.666553143877536E-004;-1.415844424627721E-003;
2.421833333333334E+009;1.710931509733200E-001;-6.268838047981262E-002;-4.164008423686028E-004;-1.406322116963565E-003;
2.422000000000000E+009;1.701936274766922E-001;-6.460734456777573E-002;-2.587511262390763E-004;-1.347371377050877E-003;
2.422166666666667E+009;1.694022864103317E-001;-6.648076325654984E-002;-3.346317389514297E-004;-1.402722788043320E-003;
2.422333333333334E+009;1.684232652187347E-001;-6.839463114738464E-002;-4.671304195653647E-004;-1.294984831474721E-003;
2.422500000000000E+009;1.675785332918167E-001;-7.021635770797730E-002;-5.187672795727849E-004;-1.339112641289830E-003;
2.422666666666667E+009;1.669653952121735E-001;-7.219408452510834E-002;-4.398667078930885E-004;-1.298249932006002E-003;
2.422833333333334E+009;1.664499342441559E-001;-7.415685057640076E-002;-5.031009204685688E-004;-1.360467635095120E-003;
2.423000000000000E+009;1.660663932561874E-001;-7.586835324764252E-002;-6.645834655500948E-004;-1.251696608960629E-003;
2.423166666666667E+009;1.656126081943512E-001;-7.772208750247955E-002;-8.381538791581988E-004;-1.306989579461515E-003;
2.423333333333334E+009;1.652967929840088E-001;-7.971180975437164E-002;-8.636779966764152E-004;-1.233037211932242E-003;
2.423500000000000E+009;1.653551310300827E-001;-8.130476623773575E-002;-8.241701871156693E-004;-1.160092651844025E-003;
2.423666666666667E+009;1.653402745723724E-001;-8.315795660018921E-002;-1.210782560519874E-003;-1.229213201440871E-003;
2.423833333333334E+009;1.650266051292419E-001;-8.475270867347717E-002;-1.185415778309107E-003;-1.352604129351676E-003;
2.424000000000000E+009;1.652048826217651E-001;-8.649688214063644E-002;-1.359813380986452E-003;-1.072647515684366E-003;
2.424166666666667E+009;1.652421504259110E-001;-8.786179125308991E-002;-1.529743662104011E-003;-9.222315857186914E-004;
2.424333333333334E+009;1.653833240270615E-001;-8.947358280420303E-002;-1.443579909391701E-003;-8.210015948861837E-004;
2.424500000000000E+009;1.656471639871597E-001;-9.098318219184876E-002;-1.521167345345020E-003;-6.912007811479271E-004;
2.424666666666667E+009;1.658107191324234E-001;-9.224049001932144E-002;-1.539726043120027E-003;-7.196861552074552E-004;
2.424833333333334E+009;1.661102324724197E-001;-9.350348263978958E-002;-1.540143508464098E-003;-2.938826510217041E-004;
2.425000000000000E+009;1.665152758359909E-001;-9.460768848657608E-002;-1.622168463654816E-003;-2.166458143619821E-004;
2.425166666666667E+009;1.666753292083740E-001;-9.581450372934341E-002;-1.548272557556629E-003;-1.174844437628053E-004;
2.425333333333334E+009;1.669364869594574E-001;-9.673379361629486E-002;-1.517364289611578E-003;1.486534165451303E-004;
2.425500000000000E+009;1.672358810901642E-001;-9.760786592960358E-002;-1.318198628723621E-003;1.400967594236136E-004;
2.425666666666667E+009;1.676061451435089E-001;-9.820592403411865E-002;-1.215923926793039E-003;3.078209701925516E-004;
2.425833333333334E+009;1.677406877279282E-001;-9.921494126319885E-002;-1.283045159652829E-003;3.694067127071321E-004;
2.426000000000000E+009;1.681064814329147E-001;-9.971287846565247E-002;-1.128844101913273E-003;4.419701581355184E-004;
2.426166666666667E+009;1.684076786041260E-001;-1.002327874302864E-001;-9.209137642756105E-004;4.188889579381794E-004;
2.426333333333334E+009;1.683753579854965E-001;-1.007606461644173E-001;-9.009279892779887E-004;4.670716880355030E-004;
2.426500000000000E+009;1.686825603246689E-001;-1.011692583560944E-001;-8.470708271488547E-004;4.687549371737987E-004;
2.426666666666667E+009;1.689113825559616E-001;-1.015811264514923E-001;-7.398186135105789E-004;5.173751851543784E-004;
2.426833333333334E+009;1.690589040517807E-001;-1.020496860146523E-001;-7.986027630977333E-004;3.996862506028265E-004;
2.427000000000000E+009;1.690342277288437E-001;-1.022136732935906E-001;-6.645188550464809E-004;3.835615061689168E-004;
2.427166666666667E+009;1.690846532583237E-001;-1.024452894926071E-001;-7.760219741612673E-004;3.801477723754942E-004;
2.427333333333334E+009;1.688143014907837E-001;-1.028256639838219E-001;-6.477038841694593E-004;3.772212367039174E-004;
2.427500000000000E+009;1.685781478881836E-001;-1.031806319952011E-001;-7.880001794546843E-004;2.860521490219981E-004;
2.427666666666667E+009;1.683354675769806E-001;-1.032941043376923E-001;-6.966157816350460E-004;3.300581010989845E-004;
2.427833333333334E+009;1.680001467466354E-001;-1.035731807351112E-001;-6.919428706169128E-004;3.523729974403977E-004;
