# Version 1.00
#
freq[Hz];re:Trc1_S11;im:Trc1_S11;re:Trc2_S21;im:Trc2_S21;
2.400000000000000E+009;1.564859300851822E-001;1.055716127157211E-001;-1.484110718593001E-003;7.684670272283256E-004;
2.400166666666667E+009;1.564914584159851E-001;1.032598689198494E-001;-1.236406969837844E-003;6.963901105336845E-004;
2.400333333333334E+009;1.566932946443558E-001;1.011113449931145E-001;-1.301334938034415E-003;6.928134243935347E-004;
2.400500000000000E+009;1.569813340902329E-001;9.846758097410202E-002;-1.089898636564612E-003;7.495393510907888E-004;
2.400666666666667E+009;1.571545004844666E-001;9.597591310739517E-002;-1.111744320951402E-003;5.522774299606681E-004;
2.400833333333334E+009;1.572612375020981E-001;9.341542422771454E-002;-1.012489199638367E-003;8.220051531679928E-004;
2.401000000000000E+009;1.576459407806397E-001;9.077832102775574E-002;-9.682590025477111E-004;5.599660798907280E-004;
2.401166666666667E+009;1.578975915908814E-001;8.806037902832031E-002;-9.300744859501720E-004;6.017423002049327E-004;
2.401333333333334E+009;1.583568751811981E-001;8.551017194986343E-002;-9.555738652125001E-004;5.828319699503481E-004;
2.401500000000000E+009;1.588402688503265E-001;8.281702548265457E-002;-9.360580006614327E-004;4.843553469981998E-004;
2.401666666666667E+009;1.592652499675751E-001;8.008206635713577E-002;-1.027287915349007E-003;4.471439169719815E-004;
2.401833333333334E+009;1.598729342222214E-001;7.755854725837708E-002;-1.048757578246296E-003;5.626918282359839E-004;
2.402000000000000E+009;1.607244908809662E-001;7.488823682069778E-002;-1.077335677109659E-003;5.992975202389062E-004;
2.402166666666667E+009;1.614428311586380E-001;7.254590094089508E-002;-1.229758607223630E-003;5.772263393737376E-004;
2.402333333333334E+009;1.623737514019013E-001;6.997126340866089E-002;-1.271317829377949E-003;6.744331913068891E-004;
2.402500000000000E+009;1.633529663085938E-001;6.757800281047821E-002;-1.301883487030864E-003;5.036747315898538E-004;
2.402666666666667E+009;1.645515263080597E-001;6.541264802217484E-002;-1.416085171513259E-003;7.045004167594016E-004;
2.402833333333334E+009;1.657405197620392E-001;6.313671916723251E-002;-1.490058726631105E-003;7.264475570991635E-004;
2.403000000000000E+009;1.672017276287079E-001;6.113833934068680E-002;-1.712771132588387E-003;8.832613821141422E-004;
2.403166666666667E+009;1.686694920063019E-001;5.900045484304428E-002;-1.730018761008978E-003;1.009391737170517E-003;
2.403333333333334E+009;1.699781119823456E-001;5.714519321918488E-002;-1.751458621583879E-003;1.331813633441925E-003;
2.403500000000000E+009;1.715894937515259E-001;5.504134669899941E-002;-1.870046835392714E-003;1.450706971809268E-003;
2.403666666666667E+009;1.732047945261002E-001;5.348511412739754E-002;-1.682469388470054E-003;1.710242941044271E-003;
2.403833333333334E+009;1.746025681495667E-001;5.146591365337372E-002;-1.701636589132249E-003;2.105017891153693E-003;
2.404000000000000E+009;1.758819222450256E-001;4.997701942920685E-002;-1.605825731530786E-003;2.171349478885531E-003;
2.404166666666667E+009;1.776556223630905E-001;4.842013865709305E-002;-1.435187761671841E-003;2.536442363634706E-003;
2.404333333333334E+009;1.788798421621323E-001;4.690120369195938E-002;-1.098663895390928E-003;2.658448647707701E-003;
2.404500000000000E+009;1.805038005113602E-001;4.562129825353622E-002;-8.351939613930881E-004;2.889093244448304E-003;
2.404666666666667E+009;1.818693131208420E-001;4.438208043575287E-002;-6.092299590818584E-004;2.879469888284802E-003;
2.404833333333334E+009;1.834385246038437E-001;4.328142851591110E-002;-2.910684852395207E-004;3.067403798922896E-003;
2.405000000000000E+009;1.843684911727905E-001;4.264814034104347E-002;-7.286682375706732E-005;2.901825355365872E-003;
2.405166666666667E+009;1.857652813196182E-001;4.195662960410118E-002;2.144861791748554E-004;2.912583528086543E-003;
2.405333333333334E+009;1.868941336870194E-001;4.140101745724678E-002;3.220493672415614E-004;2.826095325872302E-003;
2.405500000000000E+009;1.880325078964233E-001;4.074534028768539E-002;6.166899693198502E-004;2.910842653363943E-003;
2.405666666666667E+009;1.892127245664597E-001;4.031734168529511E-002;7.416340522468090E-004;2.632232150062919E-003;
2.405833333333334E+009;1.902671605348587E-001;3.988936915993691E-002;6.804797449149191E-004;2.396963303908706E-003;
2.406000000000000E+009;1.911771893501282E-001;3.972509130835533E-002;1.024396973662078E-003;2.628798829391599E-003;
2.406166666666667E+009;1.919689476490021E-001;3.936684504151344E-002;1.139920088462532E-003;2.430906519293785E-003;
2.406333333333334E+009;1.927390098571777E-001;3.938160836696625E-002;1.201565726660192E-003;2.413135953247547E-003;
2.406500000000000E+009;1.933514922857285E-001;3.919342532753944E-002;1.305780024267733E-003;2.331231487914920E-003;
2.406666666666667E+009;1.938606798648834E-001;3.901915252208710E-002;1.376363215968013E-003;2.301756525412202E-003;
2.406833333333334E+009;1.943352967500687E-001;3.879940137267113E-002;1.583810197189450E-003;2.346651628613472E-003;
2.407000000000000E+009;1.945967674255371E-001;3.893494233489037E-002;1.686403760686517E-003;2.213870873674750E-003;
2.407166666666667E+009;1.948454827070236E-001;3.848364576697350E-002;1.792469760403037E-003;2.171548549085856E-003;
2.407333333333334E+009;1.948034018278122E-001;3.857251629233360E-002;1.928094075992703E-003;1.892180880531669E-003;
2.407500000000000E+009;1.947475075721741E-001;3.839387372136116E-002;2.221316564828157E-003;2.016503363847733E-003;
2.407666666666667E+009;1.948257684707642E-001;3.818185627460480E-002;2.458820352330804E-003;1.802234095521271E-003;
2.407833333333334E+009;1.941999942064285E-001;3.778605908155441E-002;2.475043060258031E-003;1.606495468877256E-003;
2.408000000000000E+009;1.942770481109619E-001;3.762487322092056E-002;2.703561447560787E-003;1.350107253529131E-003;
2.408166666666667E+009;1.935577094554901E-001;3.705875575542450E-002;2.868777140974999E-003;1.216924283653498E-003;
2.408333333333334E+009;1.933442801237106E-001;3.637370094656944E-002;2.951793139800429E-003;1.027488266117871E-003;
2.408500000000000E+009;1.927577853202820E-001;3.608818352222443E-002;2.974609378725290E-003;8.518589311279357E-004;
2.408666666666667E+009;1.921961307525635E-001;3.538382798433304E-002;2.962572034448385E-003;5.379650974646211E-004;
2.408833333333334E+009;1.916884183883667E-001;3.463860601186752E-002;3.019773401319981E-003;3.343789430800825E-004;
2.409000000000000E+009;1.908446550369263E-001;3.348352015018463E-002;3.026050049811602E-003;-1.679154411249328E-005;
2.409166666666667E+009;1.901275217533112E-001;3.271947056055069E-002;3.021027427166700E-003;-1.505636028014123E-004;
2.409333333333334E+009;1.895554810762405E-001;3.157680854201317E-002;2.751830033957958E-003;-3.686162817757577E-004;
2.409500000000000E+009;1.884435862302780E-001;3.026598133146763E-002;2.608977258205414E-003;-6.423817249014974E-004;
2.409666666666667E+009;1.877557784318924E-001;2.880773507058621E-002;2.478177892044187E-003;-8.440115489065647E-004;
2.409833333333334E+009;1.869457960128784E-001;2.734387852251530E-002;2.364361658692360E-003;-9.251716546714306E-004;
2.410000000000000E+009;1.862460970878601E-001;2.571047469973564E-002;2.258513122797012E-003;-1.001722994260490E-003;
2.410166666666667E+009;1.854284256696701E-001;2.386514656245709E-002;2.246289746835828E-003;-1.094534061849117E-003;
2.410333333333334E+009;1.846322566270828E-001;2.230826206505299E-002;2.030979841947556E-003;-1.285370555706322E-003;
2.410500000000000E+009;1.838265061378479E-001;2.049469761550427E-002;1.863268669694662E-003;-1.458480255678296E-003;
2.410666666666667E+009;1.833342909812927E-001;1.823248341679573E-002;1.748341135680676E-003;-1.329457387328148E-003;
2.410833333333334E+009;1.828388124704361E-001;1.637693867087364E-002;1.569911139085889E-003;-1.557296374812722E-003;
2.411000000000000E+009;1.821463406085968E-001;1.415461581200361E-002;1.440745545551181E-003;-1.770804403349757E-003;
2.411166666666667E+009;1.816185563802719E-001;1.210921350866556E-002;1.212407252751291E-003;-1.772854593582451E-003;
2.411333333333334E+009;1.812793910503388E-001;9.802335873246193E-003;1.141283544711769E-003;-1.760816667228937E-003;
2.411500000000000E+009;1.811528056859970E-001;7.451302371919155E-003;9.783257264643908E-004;-1.819818280637264E-003;
2.411666666666667E+009;1.809418201446533E-001;5.370901431888342E-003;7.264402811415494E-004;-1.802587532438338E-003;
2.411833333333334E+009;1.808184683322907E-001;3.242573468014598E-003;7.211522315628827E-004;-1.827738597057760E-003;
2.412000000000000E+009;1.810172945261002E-001;7.597196963615716E-004;5.026266444474459E-004;-1.897792331874371E-003;
2.412166666666667E+009;1.811606585979462E-001;-1.436029444448650E-003;2.957763208542019E-004;-1.871508429758251E-003;
2.412333333333334E+009;1.814128458499908E-001;-3.723071888089180E-003;1.631179329706356E-004;-1.901834388263524E-003;
2.412500000000000E+009;1.817713230848312E-001;-5.982991307973862E-003;8.145566425810102E-006;-1.731256488710642E-003;
2.412666666666667E+009;1.823421716690064E-001;-8.181369863450527E-003;-3.237837809138000E-004;-1.858953270129859E-003;
2.412833333333334E+009;1.831024587154388E-001;-1.050181221216917E-002;-2.354505268158391E-004;-1.901555689983070E-003;
2.413000000000000E+009;1.837933808565140E-001;-1.261401269584894E-002;-5.898586823605001E-004;-1.585672493092716E-003;
2.413166666666667E+009;1.844603270292282E-001;-1.457804813981056E-002;-9.000803693197668E-004;-1.507815904915333E-003;
2.413333333333334E+009;1.855490058660507E-001;-1.681853644549847E-002;-9.063686593435705E-004;-1.451942836865783E-003;
2.413500000000000E+009;1.863314658403397E-001;-1.893804036080837E-002;-1.144642359577119E-003;-1.145853893831372E-003;
2.413666666666667E+009;1.872913837432861E-001;-2.094503678381443E-002;-1.296461210586131E-003;-8.856010972522199E-004;
2.413833333333334E+009;1.883266270160675E-001;-2.280176803469658E-002;-1.392846694216132E-003;-7.655843510292471E-004;
2.414000000000000E+009;1.893515288829804E-001;-2.466879971325398E-002;-1.237997435964644E-003;-5.316523602232337E-004;
2.414166666666667E+009;1.904205232858658E-001;-2.631572447717190E-002;-1.321037067100406E-003;-2.574153768364340E-004;
2.414333333333334E+009;1.914445757865906E-001;-2.817168831825256E-002;-1.181706204079092E-003;1.246496231033234E-005;
2.414500000000000E+009;1.925931125879288E-001;-2.943510375916958E-002;-9.923173347488046E-004;3.471255768090487E-004;
2.414666666666667E+009;1.934919357299805E-001;-3.105411864817143E-002;-1.025257748551667E-003;5.250093527138233E-004;
2.414833333333334E+009;1.945018619298935E-001;-3.226968646049500E-002;-8.574082166887820E-004;5.100953858345747E-004;
2.415000000000000E+009;1.954545527696610E-001;-3.352493420243263E-002;-5.929692415520549E-004;7.009445689618588E-004;
2.415166666666667E+009;1.966272443532944E-001;-3.458951041102409E-002;-5.581863806582987E-004;6.460594013333321E-004;
2.415333333333334E+009;1.974777430295944E-001;-3.550234809517860E-002;-4.460943746380508E-004;6.939265294931829E-004;
2.415500000000000E+009;1.984469145536423E-001;-3.626726567745209E-002;-4.185868019703776E-004;6.650441209785640E-004;
2.415666666666667E+009;1.993394196033478E-001;-3.717005252838135E-002;-3.737929218914360E-004;7.002824568189681E-004;
2.415833333333334E+009;2.001976221799851E-001;-3.773066028952599E-002;-1.327670470345765E-004;8.025761926546693E-004;
2.416000000000000E+009;2.007179707288742E-001;-3.846840932965279E-002;-1.716907863738015E-004;8.781013311818242E-004;
2.416166666666667E+009;2.013631761074066E-001;-3.914037719368935E-002;1.067488119588234E-004;9.728598524816334E-004;
2.416333333333334E+009;2.019043266773224E-001;-3.956040740013123E-002;1.413436257280409E-004;9.045462356880307E-004;
2.416500000000000E+009;2.022472023963928E-001;-3.982974961400032E-002;2.942484570667148E-004;8.833291940391064E-004;
2.416666666666667E+009;2.024284750223160E-001;-4.027900099754334E-002;5.212764954194427E-004;9.742471156641841E-004;
2.416833333333334E+009;2.025043219327927E-001;-4.046219214797020E-002;4.692452785093337E-004;1.035375986248255E-003;
2.417000000000000E+009;2.025267928838730E-001;-4.082163795828819E-002;7.226738962344825E-004;1.066766446456313E-003;
2.417166666666667E+009;2.020679265260696E-001;-4.094867035746574E-002;9.995820000767708E-004;8.226970094256103E-004;
2.417333333333334E+009;2.017859220504761E-001;-4.097272083163261E-002;1.254905131645501E-003;9.100203169509769E-004;
2.417500000000000E+009;2.015350908041000E-001;-4.118169099092484E-002;1.315456582233310E-003;6.793453940190375E-004;
2.417666666666667E+009;2.010457664728165E-001;-4.106290265917778E-002;1.383575610816479E-003;5.166724440641701E-004;
2.417833333333334E+009;2.004376053810120E-001;-4.105471819639206E-002;1.608930993825197E-003;4.935407196171582E-004;
2.418000000000000E+009;1.998649537563324E-001;-4.097950085997582E-002;1.660926965996623E-003;1.463471417082474E-004;
2.418166666666667E+009;1.990818679332733E-001;-4.105390608310700E-002;1.681910944171250E-003;6.515329005196691E-006;
2.418333333333334E+009;1.981723606586456E-001;-4.115412384271622E-002;1.728335861116648E-003;-1.254850649274886E-004;
2.418500000000000E+009;1.972317546606064E-001;-4.136556759476662E-002;1.897022477351129E-003;-2.465610741637647E-004;
2.418666666666667E+009;1.964384466409683E-001;-4.141365364193916E-002;1.842936500906944E-003;-6.833904189988971E-004;
2.418833333333334E+009;1.950988173484802E-001;-4.185434803366661E-002;1.726394752040505E-003;-8.039640379138291E-004;
2.419000000000000E+009;1.940630525350571E-001;-4.207917675375938E-002;1.646655146032572E-003;-9.909849613904953E-004;
2.419166666666667E+009;1.929642260074616E-001;-4.251830652356148E-002;1.488611102104187E-003;-1.244000624865294E-003;
2.419333333333334E+009;1.917107701301575E-001;-4.311887919902802E-002;1.314426423050463E-003;-1.214907504618168E-003;
2.419500000000000E+009;1.903192102909088E-001;-4.376069828867912E-002;1.401192508637905E-003;-1.380944624543190E-003;
2.419666666666667E+009;1.888045817613602E-001;-4.464717954397202E-002;1.103622606024146E-003;-1.565068960189819E-003;
2.419833333333334E+009;1.873288899660111E-001;-4.537897929549217E-002;1.077940920367837E-003;-1.500307698734105E-003;
2.420000000000000E+009;1.859766691923142E-001;-4.640952125191689E-002;9.048997890204191E-004;-1.622924697585404E-003;
2.420166666666667E+009;1.846237182617188E-001;-4.735059291124344E-002;7.951182196848095E-004;-1.709786476567388E-003;
2.420333333333334E+009;1.831126213073731E-001;-4.851307347416878E-002;3.939504968002439E-004;-1.666808733716607E-003;
2.420500000000000E+009;1.815719604492188E-001;-4.993390291929245E-002;4.475647874642164E-004;-1.675473526120186E-003;
2.420666666666667E+009;1.801431179046631E-001;-5.102938786149025E-002;3.651427396107465E-004;-1.717554288916290E-003;
2.420833333333334E+009;1.788562387228012E-001;-5.255826190114021E-002;2.927711175289005E-004;-1.628035446628928E-003;
2.421000000000000E+009;1.775549799203873E-001;-5.410923063755035E-002;8.989341586129740E-005;-1.505196210928261E-003;
2.421166666666667E+009;1.761658191680908E-001;-5.584458261728287E-002;8.346394679392688E-006;-1.636368222534657E-003;
2.421333333333334E+009;1.747233122587204E-001;-5.729670077562332E-002;1.033575390465558E-004;-1.493982505053282E-003;
2.421500000000000E+009;1.735572516918182E-001;-5.917108803987503E-002;-6.121033948147669E-005;-1.506494940258563E-003;
2.421666666666667E+009;1.724395751953125E-001;-6.091395020484924E-002;-9.641559881856665E-005;-1.577979070134461E-003;
2.421833333333334E+009;1.714205592870712E-001;-6.272181868553162E-002;-2.736227179411799E-004;-1.427053473889828E-003;
2.422000000000000E+009;1.701405048370361E-001;-6.455169618129730E-002;-2.153973327949643E-004;-1.390883000567555E-003;
2.422166666666667E+009;1.696600168943405E-001;-6.664340943098068E-002;-2.402458922006190E-004;-1.519434968940914E-003;
2.422333333333334E+009;1.686658263206482E-001;-6.843128055334091E-002;-1.932806480908766E-004;-1.557934214361012E-003;
2.422500000000000E+009;1.678134053945541E-001;-7.020963728427887E-002;-4.270916397217661E-004;-1.496683340519667E-003;
2.422666666666667E+009;1.671780645847321E-001;-7.227163761854172E-002;-3.412142395973206E-004;-1.494209514930844E-003;
2.422833333333334E+009;1.667403578758240E-001;-7.413326948881149E-002;-4.854785511270165E-004;-1.376187312416732E-003;
2.423000000000000E+009;1.661593466997147E-001;-7.606495171785355E-002;-6.407572655007243E-004;-1.454664045013487E-003;
2.423166666666667E+009;1.659127771854401E-001;-7.784234732389450E-002;-6.426347536034882E-004;-1.554387854412198E-003;
2.423333333333334E+009;1.656609624624252E-001;-7.955957204103470E-002;-6.938398000784218E-004;-1.518838806077838E-003;
2.423500000000000E+009;1.654421240091324E-001;-8.134858310222626E-002;-8.592638187110424E-004;-1.386899501085281E-003;
2.423666666666667E+009;1.654790490865707E-001;-8.331057429313660E-002;-9.630748536437750E-004;-1.385757117532194E-003;
2.423833333333334E+009;1.652717143297195E-001;-8.479996025562286E-002;-1.261415076442063E-003;-1.367976306937635E-003;
2.424000000000000E+009;1.654238104820252E-001;-8.653687685728073E-002;-1.339717418886721E-003;-1.190650160424411E-003;
2.424166666666667E+009;1.653593927621841E-001;-8.794808387756348E-002;-1.309526734985411E-003;-1.141281565651298E-003;
2.424333333333334E+009;1.654658615589142E-001;-8.944619446992874E-002;-1.487653702497482E-003;-1.059904810972512E-003;
2.424500000000000E+009;1.658757328987122E-001;-9.116060286760330E-002;-1.657550339587033E-003;-8.272846462205052E-004;
2.424666666666667E+009;1.659893542528153E-001;-9.238019585609436E-002;-1.579498290084302E-003;-5.824402906000614E-004;
2.424833333333334E+009;1.664111316204071E-001;-9.372604638338089E-002;-1.568724517710507E-003;-5.764976376667619E-004;
2.425000000000000E+009;1.666496545076370E-001;-9.482371062040329E-002;-1.535403076559305E-003;-2.488994214218110E-004;
2.425166666666667E+009;1.667946130037308E-001;-9.575595706701279E-002;-1.674282480962575E-003;-1.994210906559601E-004;
2.425333333333334E+009;1.671384125947952E-001;-9.670081734657288E-002;-1.468691392801702E-003;-1.467222173232585E-004;
2.425500000000000E+009;1.674851179122925E-001;-9.775801002979279E-002;-1.489267568103969E-003;1.189807517221198E-004;
2.425666666666667E+009;1.678451597690582E-001;-9.841746091842651E-002;-1.460725208744407E-003;1.318126887781546E-004;
2.425833333333334E+009;1.679790914058685E-001;-9.928571432828903E-002;-1.250241068191826E-003;2.195263368776068E-004;
2.426000000000000E+009;1.683017015457153E-001;-9.976573288440704E-002;-1.151619013398886E-003;1.698832638794556E-004;
2.426166666666667E+009;1.685391962528229E-001;-1.003580763936043E-001;-1.269855187274516E-003;3.357084642630070E-004;
2.426333333333334E+009;1.685733795166016E-001;-1.008970439434052E-001;-1.058373600244522E-003;2.636494173202664E-004;
2.426500000000000E+009;1.688559204339981E-001;-1.012337654829025E-001;-9.269106085412204E-004;3.314063360448927E-004;
2.426666666666667E+009;1.689917743206024E-001;-1.016525179147720E-001;-8.490960462950170E-004;2.603383618406951E-004;
2.426833333333334E+009;1.691339761018753E-001;-1.020588576793671E-001;-8.268110104836524E-004;3.038328432012349E-004;
2.427000000000000E+009;1.691392958164215E-001;-1.023699119687080E-001;-9.468616917729378E-004;3.612557775340974E-004;
2.427166666666667E+009;1.692393273115158E-001;-1.026829257607460E-001;-7.463733199983835E-004;3.508143418002874E-004;
2.427333333333334E+009;1.689552366733551E-001;-1.030129343271256E-001;-7.902861689217389E-004;3.876695991493762E-004;
2.427500000000000E+009;1.687093973159790E-001;-1.032626852393150E-001;-7.151213358156383E-004;2.755126333795488E-004;
2.427666666666667E+009;1.684196442365646E-001;-1.035178005695343E-001;-6.821534479968250E-004;2.380540681770071E-004;
2.427833333333334E+009;1.680495589971542E-001;-1.036726459860802E-001;-7.539584767073393E-004;2.537084219511598E-004;
