# Version 1.00
#
freq[Hz];re:Trc1_S11;im:Trc1_S11;re:Trc2_S21;im:Trc2_S21;
2.400000000000000E+009;1.564539819955826E-001;1.056858152151108E-001;-1.077451859600842E-003;5.684090428985655E-004;
2.400166666666667E+009;1.563632637262344E-001;1.032969653606415E-001;-1.153837307356298E-003;5.908448365516961E-004;
2.400333333333334E+009;1.565921604633331E-001;1.009916663169861E-001;-1.134130638092756E-003;6.920591113157570E-004;
2.400500000000000E+009;1.566459536552429E-001;9.850257635116577E-002;-1.144165173172951E-003;8.136982214637101E-004;
2.400666666666667E+009;1.571715772151947E-001;9.605182707309723E-002;-9.449807112105191E-004;7.990440353751183E-004;
2.400833333333334E+009;1.572617441415787E-001;9.330334514379501E-002;-8.693652343936265E-004;8.385436958633363E-004;
2.401000000000000E+009;1.575158834457398E-001;9.069781005382538E-002;-8.789330604486167E-004;6.973010022193193E-004;
2.401166666666667E+009;1.577332913875580E-001;8.813782781362534E-002;-8.259486057795584E-004;4.925818648189306E-004;
2.401333333333334E+009;1.582973599433899E-001;8.554858714342117E-002;-9.584529325366020E-004;4.870002157986164E-004;
2.401500000000000E+009;1.588116735219955E-001;8.273812383413315E-002;-9.783776476979256E-004;4.709038767032325E-004;
2.401666666666667E+009;1.593884974718094E-001;8.021958172321320E-002;-8.581403526477516E-004;5.613882676698268E-004;
2.401833333333334E+009;1.597367972135544E-001;7.747390121221542E-002;-1.006046542897821E-003;5.015804781578481E-004;
2.402000000000000E+009;1.606280207633972E-001;7.493772357702255E-002;-1.080728601664305E-003;4.983389517292380E-004;
2.402166666666667E+009;1.614809483289719E-001;7.247120141983032E-002;-1.115619437769055E-003;5.714677972719073E-004;
2.402333333333334E+009;1.624844223260880E-001;7.020124047994614E-002;-1.158284954726696E-003;5.203980254009366E-004;
2.402500000000000E+009;1.636091768741608E-001;6.776320934295654E-002;-1.342214061878622E-003;6.679642829112709E-004;
2.402666666666667E+009;1.646299064159393E-001;6.553584337234497E-002;-1.552077475935221E-003;6.512550753541291E-004;
2.402833333333334E+009;1.659581512212753E-001;6.326396018266678E-002;-1.500481506809592E-003;9.760015527717769E-004;
2.403000000000000E+009;1.672727018594742E-001;6.121281534433365E-002;-1.531902351416647E-003;9.601128404028714E-004;
2.403166666666667E+009;1.687875688076019E-001;5.908110365271568E-002;-1.624402240850031E-003;1.019244897179306E-003;
2.403333333333334E+009;1.702359765768051E-001;5.694790557026863E-002;-1.734071644023061E-003;1.334770931862295E-003;
2.403500000000000E+009;1.717733740806580E-001;5.505990609526634E-002;-1.803370658308268E-003;1.663614530116320E-003;
2.403666666666667E+009;1.733572334051132E-001;5.323638767004013E-002;-1.710871700197458E-003;1.929030288010836E-003;
2.403833333333334E+009;1.747383326292038E-001;5.147579312324524E-002;-1.688988530077040E-003;2.049239352345467E-003;
2.404000000000000E+009;1.763239204883575E-001;4.981290921568871E-002;-1.458065933547914E-003;2.283435780555010E-003;
2.404166666666667E+009;1.777201145887375E-001;4.840660467743874E-002;-1.280318014323711E-003;2.611417789012194E-003;
2.404333333333334E+009;1.793657839298248E-001;4.695270955562592E-002;-1.073202001862228E-003;2.811856567859650E-003;
2.404500000000000E+009;1.806394755840302E-001;4.545797407627106E-002;-9.496971615590155E-004;3.049886785447598E-003;
2.404666666666667E+009;1.820767819881439E-001;4.437928274273872E-002;-5.608325591310859E-004;3.003678750246763E-003;
2.404833333333334E+009;1.834530532360077E-001;4.321975260972977E-002;-2.781215880531818E-004;3.005026141181588E-003;
2.405000000000000E+009;1.847122311592102E-001;4.261828586459160E-002;1.386286312481388E-004;3.033117623999715E-003;
2.405166666666667E+009;1.859105676412582E-001;4.183145985007286E-002;3.405466559343040E-004;3.051853738725185E-003;
2.405333333333334E+009;1.872174292802811E-001;4.135240241885185E-002;4.952841554768384E-004;2.908574184402823E-003;
2.405500000000000E+009;1.883088052272797E-001;4.077201709151268E-002;7.430016412399709E-004;2.807284006848931E-003;
2.405666666666667E+009;1.893492341041565E-001;4.042044654488564E-002;9.304367704316974E-004;2.761761890724301E-003;
2.405833333333334E+009;1.905696243047714E-001;3.983784094452858E-002;7.884760852903128E-004;2.519665053114295E-003;
2.406000000000000E+009;1.914176493883133E-001;3.966326266527176E-002;1.046870718710125E-003;2.496871398761869E-003;
2.406166666666667E+009;1.921788901090622E-001;3.934288397431374E-002;1.302659045904875E-003;2.470679115504026E-003;
2.406333333333334E+009;1.929511874914169E-001;3.920913487672806E-002;1.236646668985486E-003;2.342690015211701E-003;
2.406500000000000E+009;1.936049461364746E-001;3.909919038414955E-002;1.502935891039670E-003;2.164807170629501E-003;
2.406666666666667E+009;1.940846592187882E-001;3.882937505841255E-002;1.536313677206636E-003;2.257867483422160E-003;
2.406833333333334E+009;1.944620311260223E-001;3.880391642451286E-002;1.683596870861948E-003;2.128018997609615E-003;
2.407000000000000E+009;1.946850419044495E-001;3.883797675371170E-002;1.701551256701350E-003;2.097648801282048E-003;
2.407166666666667E+009;1.950657665729523E-001;3.837889805436134E-002;1.835766131989658E-003;2.132073277607560E-003;
2.407333333333334E+009;1.951145678758621E-001;3.843331336975098E-002;2.083393279463053E-003;1.820813748054206E-003;
2.407500000000000E+009;1.948743611574173E-001;3.835650160908699E-002;2.232607919722796E-003;1.687138457782567E-003;
2.407666666666667E+009;1.948838829994202E-001;3.802562877535820E-002;2.447524340823293E-003;1.699255662970245E-003;
2.407833333333334E+009;1.945266127586365E-001;3.768773376941681E-002;2.347329398617148E-003;1.523472601547837E-003;
2.408000000000000E+009;1.944448351860046E-001;3.748082369565964E-002;2.526799449697137E-003;1.344466931186616E-003;
2.408166666666667E+009;1.938277184963226E-001;3.704029321670532E-002;2.713965252041817E-003;1.042074523866177E-003;
2.408333333333334E+009;1.935794949531555E-001;3.640827164053917E-002;2.808658638969064E-003;1.000828691758215E-003;
2.408500000000000E+009;1.928909271955490E-001;3.598118573427200E-002;2.980846911668778E-003;8.303723880089819E-004;
2.408666666666667E+009;1.925446093082428E-001;3.522875905036926E-002;2.885989379137754E-003;5.142312729731202E-004;
2.408833333333334E+009;1.918885409832001E-001;3.444248065352440E-002;2.863639499992132E-003;1.135500860982575E-004;
2.409000000000000E+009;1.910184323787689E-001;3.349538147449493E-002;2.925348933786154E-003;-2.449007297400385E-005;
2.409166666666667E+009;1.902446895837784E-001;3.245896846055985E-002;2.705665538087487E-003;-2.603075117804110E-004;
2.409333333333334E+009;1.895346492528915E-001;3.144764900207520E-002;2.794946543872356E-003;-5.338178016245365E-004;
2.409500000000000E+009;1.887340843677521E-001;3.001868352293968E-002;2.693558344617486E-003;-6.758127710781992E-004;
2.409666666666667E+009;1.878627836704254E-001;2.869186177849770E-002;2.467484446242452E-003;-8.541765855625272E-004;
2.409833333333334E+009;1.870910674333572E-001;2.719706483185291E-002;2.387095242738724E-003;-9.805680019780994E-004;
2.410000000000000E+009;1.862046569585800E-001;2.566531300544739E-002;2.284192014485598E-003;-1.228133100084961E-003;
2.410166666666667E+009;1.853938102722168E-001;2.384823374450207E-002;2.035913756117225E-003;-1.280899159610272E-003;
2.410333333333334E+009;1.847435086965561E-001;2.217507362365723E-002;1.942191855050623E-003;-1.196449622511864E-003;
2.410500000000000E+009;1.838370412588120E-001;2.011153660714626E-002;1.849028165452182E-003;-1.456612139008939E-003;
2.410666666666667E+009;1.831444650888443E-001;1.805706508457661E-002;1.654079300351441E-003;-1.568241976201534E-003;
2.410833333333334E+009;1.826004236936569E-001;1.602553576231003E-002;1.549107837490737E-003;-1.565754064358771E-003;
2.411000000000000E+009;1.820715963840485E-001;1.395357586443424E-002;1.445809844881296E-003;-1.713158329948783E-003;
2.411166666666667E+009;1.815480738878250E-001;1.195178925991058E-002;1.296620699577034E-003;-1.703867106698453E-003;
2.411333333333334E+009;1.810927987098694E-001;9.595845825970173E-003;1.154993544332683E-003;-1.791023300029337E-003;
2.411500000000000E+009;1.809281408786774E-001;7.394585758447647E-003;1.118839951232076E-003;-1.924783806316555E-003;
2.411666666666667E+009;1.808297187089920E-001;5.254499148577452E-003;9.528205264359713E-004;-1.877724309451878E-003;
2.411833333333334E+009;1.806081533432007E-001;2.942636841908097E-003;7.551193702965975E-004;-1.991928555071354E-003;
2.412000000000000E+009;1.808861643075943E-001;3.470585797913373E-004;5.958892870694399E-004;-1.962039852514863E-003;
2.412166666666667E+009;1.811166107654572E-001;-1.691249664872885E-003;4.426646046340466E-004;-1.860951073467732E-003;
2.412333333333334E+009;1.812073141336441E-001;-3.879589261487126E-003;1.561108510941267E-004;-2.017287071794272E-003;
2.412500000000000E+009;1.817402541637421E-001;-6.142601370811462E-003;7.973593710630667E-006;-2.044593915343285E-003;
2.412666666666667E+009;1.821845620870590E-001;-8.477218449115753E-003;-1.168086309917271E-004;-1.824622740969062E-003;
2.412833333333334E+009;1.829946637153626E-001;-1.075511705130339E-002;-3.872301895171404E-004;-1.810956164263189E-003;
2.413000000000000E+009;1.837098598480225E-001;-1.290212757885456E-002;-5.440098466351628E-004;-1.635485910810530E-003;
2.413166666666667E+009;1.844948977231979E-001;-1.487551257014275E-002;-8.158401469700038E-004;-1.545318402349949E-003;
2.413333333333334E+009;1.853698343038559E-001;-1.693913340568543E-002;-1.076209358870983E-003;-1.461825449950993E-003;
2.413500000000000E+009;1.860962957143784E-001;-1.934417523443699E-002;-1.089073950424790E-003;-1.273471512831748E-003;
2.413666666666667E+009;1.872028857469559E-001;-2.125920914113522E-002;-1.287707011215389E-003;-1.093205763027072E-003;
2.413833333333334E+009;1.882627904415131E-001;-2.301967330276966E-002;-1.315591041930020E-003;-6.242130184546113E-004;
2.414000000000000E+009;1.891743689775467E-001;-2.492121048271656E-002;-1.395593280903995E-003;-5.143307498656213E-004;
2.414166666666667E+009;1.904654353857040E-001;-2.650691010057926E-002;-1.243412378244102E-003;-2.433868066873401E-004;
2.414333333333334E+009;1.912918239831924E-001;-2.827517315745354E-002;-1.244491548277438E-003;-1.256724208360538E-004;
2.414500000000000E+009;1.923583894968033E-001;-2.961192652583122E-002;-1.064241630956531E-003;1.178900711238384E-004;
2.414666666666667E+009;1.934213638305664E-001;-3.111226484179497E-002;-9.713621693663299E-004;3.065174678340554E-004;
2.414833333333334E+009;1.944361329078674E-001;-3.238171711564064E-002;-8.334781159646809E-004;5.106292082928121E-004;
2.415000000000000E+009;1.953956782817841E-001;-3.369123116135597E-002;-8.647388895042241E-004;5.546016036532819E-004;
2.415166666666667E+009;1.965505629777908E-001;-3.474538773298264E-002;-4.816366708837450E-004;5.771230789832771E-004;
2.415333333333334E+009;1.976052075624466E-001;-3.579918667674065E-002;-4.626741574611515E-004;6.888005882501602E-004;
2.415500000000000E+009;1.983968913555145E-001;-3.645313903689385E-002;-2.998511481564492E-004;8.696715813130140E-004;
2.415666666666667E+009;1.993738412857056E-001;-3.734520077705383E-002;-2.058921963907778E-004;6.697244243696332E-004;
2.415833333333334E+009;2.000041902065277E-001;-3.804278373718262E-002;-1.008137551252730E-004;6.633542943745852E-004;
2.416000000000000E+009;2.006001621484757E-001;-3.865872323513031E-002;-3.596142050810158E-005;6.508571677841246E-004;
2.416166666666667E+009;2.012425959110260E-001;-3.930781409144402E-002;-5.803128442494199E-005;8.296354790218175E-004;
2.416333333333334E+009;2.017007023096085E-001;-3.971451893448830E-002;1.806822983780876E-004;8.806794648990035E-004;
2.416500000000000E+009;2.021002322435379E-001;-4.006856307387352E-002;2.047275484073907E-004;1.002595527097583E-003;
2.416666666666667E+009;2.022080570459366E-001;-4.053056240081787E-002;3.008061030413956E-004;9.783308487385511E-004;
2.416833333333334E+009;2.022833675146103E-001;-4.066905379295349E-002;5.874905618838966E-004;9.706840501166880E-004;
2.417000000000000E+009;2.023258060216904E-001;-4.101665690541267E-002;7.998876972123981E-004;9.978198213502765E-004;
2.417166666666667E+009;2.020047456026077E-001;-4.110858216881752E-002;8.806241094134748E-004;8.687907829880714E-004;
2.417333333333334E+009;2.016834467649460E-001;-4.099200665950775E-002;1.027773949317634E-003;9.020178113132715E-004;
2.417500000000000E+009;2.012741714715958E-001;-4.128043353557587E-002;1.222984283231199E-003;6.758627714589238E-004;
2.417666666666667E+009;2.008061408996582E-001;-4.123351722955704E-002;1.461387379094958E-003;4.962578532285988E-004;
2.417833333333334E+009;2.003010660409927E-001;-4.114829748868942E-002;1.426319824531674E-003;4.648371832445264E-004;
2.418000000000000E+009;1.996209025382996E-001;-4.104820266366005E-002;1.548493164591491E-003;2.672021219041199E-004;
2.418166666666667E+009;1.988749951124191E-001;-4.114110395312309E-002;1.544921891763806E-003;6.241509254323319E-005;
2.418333333333334E+009;1.979471743106842E-001;-4.130461066961289E-002;1.667469972744584E-003;-2.035035722656176E-004;
2.418500000000000E+009;1.971284151077271E-001;-4.137104377150536E-002;1.649538869969547E-003;-3.296486102044582E-004;
2.418666666666667E+009;1.961531192064285E-001;-4.151529073715210E-002;1.686803181655705E-003;-5.740357446484268E-004;
2.418833333333334E+009;1.950210928916931E-001;-4.185368865728378E-002;1.669207704253495E-003;-8.499554824084044E-004;
2.419000000000000E+009;1.937236040830612E-001;-4.215734452009201E-002;1.663367729634047E-003;-9.923995239660144E-004;
2.419166666666667E+009;1.926673352718353E-001;-4.249464347958565E-002;1.568606356158853E-003;-1.152322511188686E-003;
2.419333333333334E+009;1.914107501506805E-001;-4.325609281659126E-002;1.344163203611970E-003;-1.348393270745874E-003;
2.419500000000000E+009;1.899516135454178E-001;-4.373089596629143E-002;1.244829385541380E-003;-1.345179392956197E-003;
2.419666666666667E+009;1.886469572782517E-001;-4.467960447072983E-002;9.770275792106986E-004;-1.565797720104456E-003;
2.419833333333334E+009;1.871976107358933E-001;-4.525303840637207E-002;8.565885364077985E-004;-1.613711356185377E-003;
2.420000000000000E+009;1.858484447002411E-001;-4.624637588858604E-002;8.931710035540164E-004;-1.502280472777784E-003;
2.420166666666667E+009;1.844587028026581E-001;-4.723118245601654E-002;6.136478623375297E-004;-1.574426773004234E-003;
2.420333333333334E+009;1.828946471214294E-001;-4.854331165552139E-002;4.768557555507869E-004;-1.697978703305125E-003;
2.420500000000000E+009;1.814061552286148E-001;-4.980114474892616E-002;4.482211370486766E-004;-1.524063758552074E-003;
2.420666666666667E+009;1.800767779350281E-001;-5.099799484014511E-002;2.436665381537750E-004;-1.644867472350597E-003;
2.420833333333334E+009;1.785920113325119E-001;-5.252854898571968E-002;1.520881342003122E-004;-1.710716634988785E-003;
2.421000000000000E+009;1.772831082344055E-001;-5.406825616955757E-002;8.895566134015098E-005;-1.509117893874645E-003;
2.421166666666667E+009;1.761103421449661E-001;-5.585359409451485E-002;-3.687789285322651E-005;-1.503079780377448E-003;
2.421333333333334E+009;1.746453940868378E-001;-5.710387602448463E-002;-3.556229785317555E-005;-1.612299238331616E-003;
2.421500000000000E+009;1.734318882226944E-001;-5.913583934307098E-002;-2.115821407642216E-004;-1.595161855220795E-003;
2.421666666666667E+009;1.723040491342545E-001;-6.087135151028633E-002;-3.565558581613004E-004;-1.407367992214859E-003;
2.421833333333334E+009;1.710570305585861E-001;-6.271767616271973E-002;-1.582824042998254E-004;-1.390211633406580E-003;
2.422000000000000E+009;1.701646298170090E-001;-6.458072364330292E-002;-4.504699900280684E-004;-1.340661547146738E-003;
2.422166666666667E+009;1.693666428327560E-001;-6.641311943531036E-002;-5.112909129820764E-004;-1.424848102033138E-003;
2.422333333333334E+009;1.684138178825378E-001;-6.837874650955200E-002;-3.658317145891488E-004;-1.379692344926298E-003;
2.422500000000000E+009;1.676338165998459E-001;-7.008687406778336E-002;-5.098918336443603E-004;-1.434648525901139E-003;
2.422666666666667E+009;1.670580208301544E-001;-7.217195630073547E-002;-4.508810234256089E-004;-1.262967707589269E-003;
2.422833333333334E+009;1.665942072868347E-001;-7.399122416973114E-002;-5.665617645718157E-004;-1.428675372153521E-003;
2.423000000000000E+009;1.660761535167694E-001;-7.585528492927551E-002;-6.096074939705432E-004;-1.334989327006042E-003;
2.423166666666667E+009;1.657019704580307E-001;-7.785889506340027E-002;-7.586989086121321E-004;-1.403464120812714E-003;
2.423333333333334E+009;1.655044555664063E-001;-7.970840483903885E-002;-7.182925473898649E-004;-1.311466796323657E-003;
2.423500000000000E+009;1.653498411178589E-001;-8.136656135320664E-002;-9.083593613468111E-004;-1.278195297345519E-003;
2.423666666666667E+009;1.654067784547806E-001;-8.313077688217163E-002;-9.687928250059485E-004;-1.244039740413427E-003;
2.423833333333334E+009;1.652135998010635E-001;-8.481142669916153E-002;-1.184636494144797E-003;-1.147812814451754E-003;
2.424000000000000E+009;1.652475148439407E-001;-8.639068901538849E-002;-1.371056074276567E-003;-1.180408056825399E-003;
2.424166666666667E+009;1.652102917432785E-001;-8.789983391761780E-002;-1.239410485140979E-003;-1.054335618391633E-003;
2.424333333333334E+009;1.654804795980454E-001;-8.944842219352722E-002;-1.525009865872562E-003;-8.454633061774075E-004;
2.424500000000000E+009;1.656608879566193E-001;-9.096971154212952E-002;-1.545573119074106E-003;-7.002623169682920E-004;
2.424666666666667E+009;1.658844351768494E-001;-9.230659157037735E-002;-1.509096822701395E-003;-6.605880334973335E-004;
2.424833333333334E+009;1.663205474615097E-001;-9.363235533237457E-002;-1.599519280716777E-003;-4.506061959546059E-004;
2.425000000000000E+009;1.665004938840866E-001;-9.461691230535507E-002;-1.645938726142049E-003;-2.793934254441410E-004;
2.425166666666667E+009;1.667059361934662E-001;-9.576832503080368E-002;-1.596084795892239E-003;-1.607318263268098E-004;
2.425333333333334E+009;1.668932139873505E-001;-9.665284305810928E-002;-1.562109333463013E-003;5.263209459371865E-005;
2.425500000000000E+009;1.673029661178589E-001;-9.765103459358215E-002;-1.347988261841238E-003;1.918969210237265E-004;
2.425666666666667E+009;1.676355600357056E-001;-9.831535071134567E-002;-1.338762696832418E-003;1.141631801147014E-004;
2.425833333333334E+009;1.677502840757370E-001;-9.918299317359924E-002;-1.149590825662017E-003;3.640410141088069E-004;
2.426000000000000E+009;1.681022197008133E-001;-9.966802597045898E-002;-1.037366455420852E-003;2.488893223926425E-004;
2.426166666666667E+009;1.684711575508118E-001;-1.002124026417732E-001;-1.059923088178039E-003;5.129145574755967E-004;
2.426333333333334E+009;1.684125214815140E-001;-1.008730009198189E-001;-9.260203805752099E-004;3.355718508828431E-004;
2.426500000000000E+009;1.686811447143555E-001;-1.011239066720009E-001;-9.315788629464805E-004;3.595935122575611E-004;
2.426666666666667E+009;1.689372807741165E-001;-1.015892028808594E-001;-8.136951364576817E-004;4.961976082995534E-004;
2.426833333333334E+009;1.690554320812225E-001;-1.019732132554054E-001;-7.635971996933222E-004;4.664637090172619E-004;
2.427000000000000E+009;1.690614968538284E-001;-1.022702082991600E-001;-6.747126462869346E-004;3.272932372055948E-004;
2.427166666666667E+009;1.690049618482590E-001;-1.024441421031952E-001;-8.334217709489167E-004;2.805432886816561E-004;
2.427333333333334E+009;1.688502281904221E-001;-1.027804687619209E-001;-8.182690362446010E-004;3.151133132632822E-004;
2.427500000000000E+009;1.685997247695923E-001;-1.031029075384140E-001;-6.893156096339226E-004;3.519016318023205E-004;
2.427666666666667E+009;1.683337241411209E-001;-1.032698974013329E-001;-8.023935952223837E-004;3.845989413093776E-004;
2.427833333333334E+009;1.679912507534027E-001;-1.035502701997757E-001;-7.633856148459017E-004;3.453778335824609E-004;
