# Version 1.00
#
freq[Hz];re:Trc1_S11;im:Trc1_S11;re:Trc2_S21;im:Trc2_S21;
2.400000000000000E+009;1.564801335334778E-001;1.056061163544655E-001;-1.335510169155896E-003;5.511767230927944E-004;
2.400166666666667E+009;1.563623994588852E-001;1.031830683350563E-001;-1.258793519809842E-003;6.729377782903612E-004;
2.400333333333334E+009;1.566015183925629E-001;1.008930504322052E-001;-1.099527464248240E-003;6.372679490596056E-004;
2.400500000000000E+009;1.568321585655212E-001;9.846085309982300E-002;-9.919800795614719E-004;6.416394608095288E-004;
2.400666666666667E+009;1.570096909999847E-001;9.607157856225967E-002;-9.205456590279937E-004;8.176438277587295E-004;
2.400833333333334E+009;1.574524194002152E-001;9.323070943355560E-002;-9.720293455757201E-004;7.730179931968451E-004;
2.401000000000000E+009;1.577669382095337E-001;9.069028496742249E-002;-8.407955174334347E-004;6.938510341569781E-004;
2.401166666666667E+009;1.580429822206497E-001;8.802714943885803E-002;-1.029832637868822E-003;7.467438699677587E-004;
2.401333333333334E+009;1.585051566362381E-001;8.542334288358688E-002;-9.098799782805145E-004;5.666741053573787E-004;
2.401500000000000E+009;1.589196473360062E-001;8.262725174427033E-002;-1.104231923818588E-003;7.720697321929038E-004;
2.401666666666667E+009;1.594076305627823E-001;8.002007752656937E-002;-8.239570888690651E-004;5.058313254266977E-004;
2.401833333333334E+009;1.600187867879868E-001;7.735535502433777E-002;-1.208078931085765E-003;5.471162730827928E-004;
2.402000000000000E+009;1.607958972454071E-001;7.499562948942184E-002;-1.112791360355914E-003;5.411001038737595E-004;
2.402166666666667E+009;1.615200936794281E-001;7.245539128780365E-002;-1.334836939349771E-003;5.944381700828672E-004;
2.402333333333334E+009;1.626147329807282E-001;6.999645382165909E-002;-1.258907141163945E-003;6.390921189449728E-004;
2.402500000000000E+009;1.635517477989197E-001;6.759540736675263E-002;-1.370192621834576E-003;6.788820028305054E-004;
2.402666666666667E+009;1.645711064338684E-001;6.547798216342926E-002;-1.373447594232857E-003;6.649846327491105E-004;
2.402833333333334E+009;1.657500565052033E-001;6.314254552125931E-002;-1.560063799843192E-003;8.530247723683715E-004;
2.403000000000000E+009;1.671558320522308E-001;6.089445203542709E-002;-1.600379473529756E-003;1.036974135786295E-003;
2.403166666666667E+009;1.687518656253815E-001;5.891719460487366E-002;-1.795943360775709E-003;1.163660315796733E-003;
2.403333333333334E+009;1.700409203767777E-001;5.686603486537933E-002;-1.733330311253667E-003;1.313906512223184E-003;
2.403500000000000E+009;1.716137379407883E-001;5.492867156863213E-002;-1.746943336911500E-003;1.649867510423064E-003;
2.403666666666667E+009;1.731129437685013E-001;5.319802463054657E-002;-1.810803543776274E-003;1.705046743154526E-003;
2.403833333333334E+009;1.746758520603180E-001;5.144706368446350E-002;-1.519706333056092E-003;1.971612451598048E-003;
2.404000000000000E+009;1.761653125286102E-001;4.981858283281326E-002;-1.472518197260797E-003;2.268341602757573E-003;
2.404166666666667E+009;1.777315139770508E-001;4.833562299609184E-002;-1.219935249537230E-003;2.537800231948495E-003;
2.404333333333334E+009;1.790124773979187E-001;4.695348814129829E-002;-1.166805508546531E-003;2.679120283573866E-003;
2.404500000000000E+009;1.803352981805801E-001;4.550090059638023E-002;-7.956081535667181E-004;2.922869985923171E-003;
2.404666666666667E+009;1.820776164531708E-001;4.442116990685463E-002;-6.504164775833488E-004;3.036762587726116E-003;
2.404833333333334E+009;1.834072619676590E-001;4.328549653291702E-002;-3.661194059532136E-004;2.956706099212170E-003;
2.405000000000000E+009;1.844591498374939E-001;4.255997389554977E-002;-9.171368583338335E-005;2.963812323287129E-003;
2.405166666666667E+009;1.859066337347031E-001;4.183153808116913E-002;2.252036938443780E-004;2.847495721653104E-003;
2.405333333333334E+009;1.868820339441299E-001;4.123330116271973E-002;4.048058472108096E-004;3.027215134352446E-003;
2.405500000000000E+009;1.881653368473053E-001;4.080896079540253E-002;7.337735150940716E-004;2.783155534416437E-003;
2.405666666666667E+009;1.892767101526260E-001;4.028548672795296E-002;7.997839129529893E-004;2.712130779400468E-003;
2.405833333333334E+009;1.903969049453735E-001;3.995791450142860E-002;9.584464714862406E-004;2.583348192274571E-003;
2.406000000000000E+009;1.911949217319489E-001;3.962818533182144E-002;8.712333510629833E-004;2.587303984910250E-003;
2.406166666666667E+009;1.920685023069382E-001;3.936664760112763E-002;1.147430040873587E-003;2.380024408921599E-003;
2.406333333333334E+009;1.928969025611877E-001;3.911102935671806E-002;1.416612765751779E-003;2.483353018760681E-003;
2.406500000000000E+009;1.933108866214752E-001;3.915848582983017E-002;1.416569692082703E-003;2.418902236968279E-003;
2.406666666666667E+009;1.939823180437088E-001;3.887964040040970E-002;1.404284848831594E-003;2.293769037351012E-003;
2.406833333333334E+009;1.944334954023361E-001;3.871243819594383E-002;1.616661320440471E-003;2.127050422132015E-003;
2.407000000000000E+009;1.946445554494858E-001;3.885056450963020E-002;1.931246370077133E-003;2.171395346522331E-003;
2.407166666666667E+009;1.950130909681320E-001;3.848176449537277E-002;1.724787638522685E-003;2.149912063032389E-003;
2.407333333333334E+009;1.947869509458542E-001;3.847930952906609E-002;1.968984492123127E-003;2.012279350310564E-003;
2.407500000000000E+009;1.947360485792160E-001;3.836338967084885E-002;2.244126750156283E-003;1.830456079915166E-003;
2.407666666666667E+009;1.948063671588898E-001;3.810730576515198E-002;2.390060573816299E-003;1.804044935852289E-003;
2.407833333333334E+009;1.942926645278931E-001;3.783179074525833E-002;2.411851193755865E-003;1.809601555578411E-003;
2.408000000000000E+009;1.943049430847168E-001;3.761984407901764E-002;2.658233745023608E-003;1.398280612193048E-003;
2.408166666666667E+009;1.936841458082199E-001;3.698001056909561E-002;2.728514838963747E-003;1.282682525925338E-003;
2.408333333333334E+009;1.933963745832443E-001;3.639006614685059E-002;2.826851326972246E-003;1.007152721285820E-003;
2.408500000000000E+009;1.928955018520355E-001;3.595408052206039E-002;3.000131575390697E-003;7.760845473967493E-004;
2.408666666666667E+009;1.923184543848038E-001;3.529155626893044E-002;3.097229404374957E-003;3.938027948606759E-004;
2.408833333333334E+009;1.917309314012528E-001;3.444542735815048E-002;3.103230381384492E-003;1.698050036793575E-004;
2.409000000000000E+009;1.909525841474533E-001;3.350226208567619E-002;3.063317388296127E-003;2.628144575282931E-004;
2.409166666666667E+009;1.901823580265045E-001;3.251476958394051E-002;2.970279427245259E-003;-1.776276767486706E-004;
2.409333333333334E+009;1.893855333328247E-001;3.150684013962746E-002;2.860344946384430E-003;-4.873464931733906E-004;
2.409500000000000E+009;1.886706352233887E-001;3.021123446524143E-002;2.761954674497247E-003;-6.041665328666568E-004;
2.409666666666667E+009;1.877712756395340E-001;2.870173007249832E-002;2.635898534208536E-003;-8.462608093395829E-004;
2.409833333333334E+009;1.867598295211792E-001;2.738292142748833E-002;2.553232014179230E-003;-9.989992249757052E-004;
2.410000000000000E+009;1.861481368541718E-001;2.570686489343643E-002;2.346100285649300E-003;-1.091332174837589E-003;
2.410166666666667E+009;1.854557991027832E-001;2.385027706623077E-002;2.159722382202745E-003;-1.173803699202836E-003;
2.410333333333334E+009;1.845196634531021E-001;2.213217876851559E-002;2.230860991403461E-003;-1.314938534051180E-003;
2.410500000000000E+009;1.836278736591339E-001;2.039303630590439E-002;1.957788830623031E-003;-1.426966977305710E-003;
2.410666666666667E+009;1.832427084445953E-001;1.820171624422073E-002;1.808566274121404E-003;-1.562993973493576E-003;
2.410833333333334E+009;1.828372925519943E-001;1.605859398841858E-002;1.665501389652491E-003;-1.601869473233819E-003;
2.411000000000000E+009;1.820845007896423E-001;1.401126850396395E-002;1.304462552070618E-003;-1.617921167053282E-003;
2.411166666666667E+009;1.814614683389664E-001;1.202770229429007E-002;1.407474395819008E-003;-1.755496952682734E-003;
2.411333333333334E+009;1.813464909791946E-001;9.574920870363712E-003;1.157512888312340E-003;-1.705948496237397E-003;
2.411500000000000E+009;1.809272021055222E-001;7.492181845009327E-003;9.649410494603217E-004;-1.824816223233938E-003;
2.411666666666667E+009;1.808448135852814E-001;5.181424785405397E-003;8.621856104582548E-004;-1.970772398635745E-003;
2.411833333333334E+009;1.807445585727692E-001;2.995636779814959E-003;6.569324177689850E-004;-1.883289194665849E-003;
2.412000000000000E+009;1.810443848371506E-001;6.056939018890262E-004;6.662770174443722E-004;-1.995848258957267E-003;
2.412166666666667E+009;1.811072379350662E-001;-1.508847461082041E-003;3.190157585777342E-004;-1.944663119502366E-003;
2.412333333333334E+009;1.813037991523743E-001;-3.829241031780839E-003;2.075566590065137E-004;-1.799638499505818E-003;
2.412500000000000E+009;1.816700994968414E-001;-5.998597014695406E-003;3.791908602579497E-005;-1.878631068393588E-003;
2.412666666666667E+009;1.823279857635498E-001;-8.506950922310352E-003;-1.850174885476008E-004;-1.792892464436591E-003;
2.412833333333334E+009;1.828462332487106E-001;-1.056940387934446E-002;-3.497186698950827E-004;-1.768533838912845E-003;
2.413000000000000E+009;1.837333589792252E-001;-1.274940185248852E-002;-6.082731415517628E-004;-1.716835191473365E-003;
2.413166666666667E+009;1.843263506889343E-001;-1.471569016575813E-002;-7.475700112991035E-004;-1.588035374879837E-003;
2.413333333333334E+009;1.853862106800079E-001;-1.682165823876858E-002;-9.760443354025483E-004;-1.504041370935738E-003;
2.413500000000000E+009;1.861714571714401E-001;-1.888993382453919E-002;-1.152152777649462E-003;-1.168666640296578E-003;
2.413666666666667E+009;1.874327659606934E-001;-2.107459679245949E-002;-1.182508538477123E-003;-1.079869107343257E-003;
2.413833333333334E+009;1.881326884031296E-001;-2.283894829452038E-002;-1.254729460924864E-003;-6.630046991631389E-004;
2.414000000000000E+009;1.893041282892227E-001;-2.472049929201603E-002;-1.361408154480159E-003;-6.244185497052968E-004;
2.414166666666667E+009;1.903284341096878E-001;-2.633142657577992E-002;-1.276424154639244E-003;-1.968408323591575E-004;
2.414333333333334E+009;1.913757473230362E-001;-2.816167101264000E-002;-1.279620686545968E-003;-2.057835081359372E-004;
2.414500000000000E+009;1.925046890974045E-001;-2.947939187288284E-002;-1.178584643639624E-003;2.071998897008598E-004;
2.414666666666667E+009;1.935914605855942E-001;-3.109246119856834E-002;-1.013838103972375E-003;2.538086846470833E-004;
2.414833333333334E+009;1.945023536682129E-001;-3.229555115103722E-002;-9.160769986920059E-004;3.703722904901952E-004;
2.415000000000000E+009;1.954843550920487E-001;-3.353720530867577E-002;-6.649963324889541E-004;6.222843076102436E-004;
2.415166666666667E+009;1.964939534664154E-001;-3.467325866222382E-002;-5.139426793903112E-004;5.839950172230601E-004;
2.415333333333334E+009;1.974616944789887E-001;-3.557131439447403E-002;-5.714166909456253E-004;6.468189531005919E-004;
2.415500000000000E+009;1.984110027551651E-001;-3.645869717001915E-002;-4.324693290982395E-004;7.332431268878281E-004;
2.415666666666667E+009;1.993497610092163E-001;-3.720758855342865E-002;-2.769760030787438E-004;6.749524036422372E-004;
2.415833333333334E+009;2.000535875558853E-001;-3.789477795362473E-002;-2.006830618483946E-004;9.373722132295370E-004;
2.416000000000000E+009;2.006031423807144E-001;-3.860792517662048E-002;2.039346873061732E-005;8.072723867371678E-004;
2.416166666666667E+009;2.013164758682251E-001;-3.920190781354904E-002;9.355965448776260E-005;8.534761727787554E-004;
2.416333333333334E+009;2.017264515161514E-001;-3.963388875126839E-002;1.942109374795109E-004;8.374002063646913E-004;
2.416500000000000E+009;2.021596133708954E-001;-3.996277973055840E-002;2.064928266918287E-004;9.351282496936619E-004;
2.416666666666667E+009;2.023373246192932E-001;-4.044367000460625E-002;4.593808262143284E-004;8.867723518051207E-004;
2.416833333333334E+009;2.023393809795380E-001;-4.055318236351013E-002;6.155759911052883E-004;9.332112385891378E-004;
2.417000000000000E+009;2.023617029190064E-001;-4.084652289748192E-002;7.605779101140797E-004;8.431597379967570E-004;
2.417166666666667E+009;2.020973265171051E-001;-4.109347239136696E-002;8.710503461770713E-004;8.518788963556290E-004;
2.417333333333334E+009;2.017550766468048E-001;-4.091699421405792E-002;1.132120611146092E-003;7.921748328953981E-004;
2.417500000000000E+009;2.013894766569138E-001;-4.101269319653511E-002;1.217951416037977E-003;7.772601093165577E-004;
2.417666666666667E+009;2.008610814809799E-001;-4.098347201943398E-002;1.500241458415985E-003;4.797780711669475E-004;
2.417833333333334E+009;2.004762887954712E-001;-4.103780910372734E-002;1.528965774923563E-003;2.608137729112059E-004;
2.418000000000000E+009;1.997005045413971E-001;-4.106580093502998E-002;1.624917145818472E-003;2.283110807184130E-004;
2.418166666666667E+009;1.988774836063385E-001;-4.113515093922615E-002;1.642236718907952E-003;-5.163313107914291E-005;
2.418333333333334E+009;1.980600059032440E-001;-4.113098978996277E-002;1.757833757437766E-003;-2.677903685253114E-004;
2.418500000000000E+009;1.971970200538635E-001;-4.131914302706718E-002;1.599077018909156E-003;-4.901908105239272E-004;
2.418666666666667E+009;1.963116973638535E-001;-4.142253100872040E-002;1.803144346922636E-003;-6.638009799644351E-004;
2.418833333333334E+009;1.951856911182404E-001;-4.175578802824020E-002;1.726674730889499E-003;-7.739103166386485E-004;
2.419000000000000E+009;1.940398514270783E-001;-4.218991845846176E-002;1.644165022298694E-003;-1.024457975290716E-003;
2.419166666666667E+009;1.927267611026764E-001;-4.246742650866509E-002;1.464779605157673E-003;-1.049918588250876E-003;
2.419333333333334E+009;1.914982497692108E-001;-4.317127540707588E-002;1.401031389832497E-003;-1.233246177434921E-003;
2.419500000000000E+009;1.900785565376282E-001;-4.365652054548264E-002;1.270939828827977E-003;-1.393649145029485E-003;
2.419666666666667E+009;1.886233240365982E-001;-4.458067566156387E-002;1.071988954208791E-003;-1.432465156540275E-003;
2.419833333333334E+009;1.873341053724289E-001;-4.540521651506424E-002;8.637309074401856E-004;-1.480267848819494E-003;
2.420000000000000E+009;1.859650909900665E-001;-4.628912359476090E-002;9.735781932249665E-004;-1.613537548109889E-003;
2.420166666666667E+009;1.843660175800324E-001;-4.722704365849495E-002;6.941868923604488E-004;-1.537105883471668E-003;
2.420333333333334E+009;1.831020116806030E-001;-4.844806343317032E-002;4.211584746371955E-004;-1.611044048331678E-003;
2.420500000000000E+009;1.815815269947052E-001;-4.991824179887772E-002;4.599965759553015E-004;-1.596383517608047E-003;
2.420666666666667E+009;1.801427900791168E-001;-5.101484060287476E-002;2.134764217771590E-004;-1.689509139396250E-003;
2.420833333333334E+009;1.786786317825317E-001;-5.264192074537277E-002;1.300290168728679E-004;-1.649672281928361E-003;
2.421000000000000E+009;1.773081123828888E-001;-5.421565100550652E-002;7.886160892667249E-005;-1.469615264795721E-003;
2.421166666666667E+009;1.760525554418564E-001;-5.574988946318626E-002;1.943294955708552E-005;-1.472471631132066E-003;
2.421333333333334E+009;1.745635718107224E-001;-5.717922374606133E-002;-8.134455129038543E-006;-1.541111501865089E-003;
2.421500000000000E+009;1.734826266765595E-001;-5.919275060296059E-002;-2.988537016790360E-004;-1.546050771139562E-003;
2.421666666666667E+009;1.722955554723740E-001;-6.107240915298462E-002;-1.885636156657711E-004;-1.308876438997686E-003;
2.421833333333334E+009;1.712689697742462E-001;-6.290288269519806E-002;-2.156655828002840E-004;-1.680733985267580E-003;
2.422000000000000E+009;1.701921373605728E-001;-6.451298296451569E-002;-2.756887988653034E-004;-1.345283351838589E-003;
2.422166666666667E+009;1.694103330373764E-001;-6.656081229448319E-002;-2.166747144656256E-004;-1.500696525909007E-003;
2.422333333333334E+009;1.684311628341675E-001;-6.834729760885239E-002;-4.923036321997643E-004;-1.395173138007522E-003;
2.422500000000000E+009;1.677740663290024E-001;-7.019306719303131E-002;-4.103698302060366E-004;-1.528838300146163E-003;
2.422666666666667E+009;1.670769751071930E-001;-7.206141948699951E-002;-4.577250219881535E-004;-1.171146752312779E-003;
2.422833333333334E+009;1.666172742843628E-001;-7.416802644729614E-002;-6.725720013491809E-004;-1.565937302075326E-003;
2.423000000000000E+009;1.661719679832459E-001;-7.607804983854294E-002;-4.912116564810276E-004;-1.333484309725463E-003;
2.423166666666667E+009;1.656987816095352E-001;-7.776267081499100E-002;-7.584567647427321E-004;-1.457195146940649E-003;
2.423333333333334E+009;1.653892546892166E-001;-7.967193424701691E-002;-9.399182745255530E-004;-1.353352447040379E-003;
2.423500000000000E+009;1.653789728879929E-001;-8.138487488031387E-002;-8.452879264950752E-004;-1.427083159796894E-003;
2.423666666666667E+009;1.652934253215790E-001;-8.308074623346329E-002;-1.037554349750280E-003;-1.383381430059671E-003;
2.423833333333334E+009;1.651940792798996E-001;-8.473396301269531E-002;-1.221130136400461E-003;-1.220429898239672E-003;
2.424000000000000E+009;1.651860624551773E-001;-8.654262870550156E-002;-1.427042530849576E-003;-1.289877691306174E-003;
2.424166666666667E+009;1.652293801307678E-001;-8.794163912534714E-002;-1.389907440170646E-003;-9.213823359459639E-004;
2.424333333333334E+009;1.653361767530441E-001;-8.934552967548370E-002;-1.550805522128940E-003;-9.111657855100930E-004;
2.424500000000000E+009;1.657000780105591E-001;-9.110085666179657E-002;-1.628746744245291E-003;-8.367835544049740E-004;
2.424666666666667E+009;1.657652854919434E-001;-9.235303103923798E-002;-1.698876847513020E-003;-6.914547993801534E-004;
2.424833333333334E+009;1.663180589675903E-001;-9.348829090595245E-002;-1.646644202992320E-003;-4.479714552871883E-004;
2.425000000000000E+009;1.665136963129044E-001;-9.476361423730850E-002;-1.611593645066023E-003;-2.614820550661534E-004;
2.425166666666667E+009;1.666750162839890E-001;-9.577050060033798E-002;-1.586865051649511E-003;-7.787526556057856E-005;
2.425333333333334E+009;1.670205295085907E-001;-9.670747816562653E-002;-1.332919346168637E-003;9.172322461381555E-005;
2.425500000000000E+009;1.674199551343918E-001;-9.771440923213959E-002;-1.520126592367888E-003;7.317247218452394E-005;
2.425666666666667E+009;1.676330566406250E-001;-9.828931838274002E-002;-1.244911574758589E-003;2.738472830969840E-004;
2.425833333333334E+009;1.677296012639999E-001;-9.914806485176086E-002;-1.372389611788094E-003;2.207491634180769E-004;
2.426000000000000E+009;1.682117283344269E-001;-9.969945996999741E-002;-1.280119759030640E-003;2.898358798120171E-004;
2.426166666666667E+009;1.685124188661575E-001;-1.001930758357048E-001;-1.084831776097417E-003;2.810714358929545E-004;
2.426333333333334E+009;1.684564948081970E-001;-1.008578985929489E-001;-1.070469385012984E-003;2.592912060208619E-004;
2.426500000000000E+009;1.687510162591934E-001;-1.013133376836777E-001;-7.852056296542287E-004;3.522140323184431E-004;
2.426666666666667E+009;1.689986288547516E-001;-1.015962511301041E-001;-8.558141416870058E-004;3.597353061195463E-004;
2.426833333333334E+009;1.691450327634811E-001;-1.019918471574783E-001;-1.033883774653077E-003;4.541680391412228E-004;
2.427000000000000E+009;1.690225750207901E-001;-1.022969037294388E-001;-7.895295275375247E-004;3.055624838452786E-004;
2.427166666666667E+009;1.691235899925232E-001;-1.024923101067543E-001;-8.307332172989845E-004;4.320012230891734E-004;
2.427333333333334E+009;1.688785552978516E-001;-1.028854027390480E-001;-6.459332653321326E-004;3.367798635736108E-004;
2.427500000000000E+009;1.686251312494278E-001;-1.031200215220451E-001;-7.051994907669723E-004;4.057373735122383E-004;
2.427666666666667E+009;1.683848351240158E-001;-1.034024432301521E-001;-6.646931869909167E-004;3.457367129158229E-004;
2.427833333333334E+009;1.679254919290543E-001;-1.036170125007629E-001;-7.868304383009672E-004;2.913814387284219E-004;
