# Version 1.00
#
freq[Hz];re:Trc1_S11;im:Trc1_S11;re:Trc2_S21;im:Trc2_S21;
2.400000000000000E+009;1.516933441162109E-001;1.168885231018066E-001;6.045440211892128E-003;1.633968553505838E-003;
2.400166666666667E+009;1.510853320360184E-001;1.148962303996086E-001;6.165320519357920E-003;1.484175445511937E-003;
2.400333333333334E+009;1.510415673255920E-001;1.127261817455292E-001;6.139310076832771E-003;1.442841370590031E-003;
2.400500000000000E+009;1.507356166839600E-001;1.100739687681198E-001;6.366221234202385E-003;1.310149207711220E-003;
2.400666666666667E+009;1.505300402641296E-001;1.076062396168709E-001;6.556690204888582E-003;9.868229972198606E-004;
2.400833333333334E+009;1.504006385803223E-001;1.048470586538315E-001;6.632296834141016E-003;1.000062329694629E-003;
2.401000000000000E+009;1.503924429416657E-001;1.021993234753609E-001;6.682368461042643E-003;6.680852966383100E-004;
2.401166666666667E+009;1.501341015100479E-001;9.928978979587555E-002;7.163913920521736E-003;5.615430418401957E-004;
2.401333333333334E+009;1.503867506980896E-001;9.651264548301697E-002;7.241756189614534E-003;2.570256474427879E-004;
2.401500000000000E+009;1.506837159395218E-001;9.356000274419785E-002;7.327839266508818E-003;8.552022336516529E-005;
2.401666666666667E+009;1.508582681417465E-001;9.055943042039871E-002;7.378601003438234E-003;-1.823306811274961E-004;
2.401833333333334E+009;1.513728201389313E-001;8.776725828647614E-002;7.405567448586226E-003;-5.951626226305962E-004;
2.402000000000000E+009;1.520999521017075E-001;8.489047735929489E-002;7.695279549807310E-003;-7.385440403595567E-004;
2.402166666666667E+009;1.527534872293472E-001;8.223354816436768E-002;7.613628637045622E-003;-1.207816880196333E-003;
2.402333333333334E+009;1.538638472557068E-001;7.943315804004669E-002;7.724311202764511E-003;-1.394995255395770E-003;
2.402500000000000E+009;1.550319641828537E-001;7.663285732269287E-002;7.667512632906437E-003;-1.669813529588282E-003;
2.402666666666667E+009;1.562088876962662E-001;7.398656755685806E-002;7.537859026342630E-003;-2.291444921866059E-003;
2.402833333333334E+009;1.576568037271500E-001;7.137070596218109E-002;7.623754907399416E-003;-2.563360147178173E-003;
2.403000000000000E+009;1.594289839267731E-001;6.889193505048752E-002;7.365287747234106E-003;-3.087693359702826E-003;
2.403166666666667E+009;1.611133515834808E-001;6.636327505111694E-002;7.382579147815704E-003;-3.412826685234904E-003;
2.403333333333334E+009;1.627064198255539E-001;6.380124390125275E-002;7.075210101902485E-003;-3.830895759165287E-003;
2.403500000000000E+009;1.648365557193756E-001;6.160078570246697E-002;7.058760616928339E-003;-4.205201752483845E-003;
2.403666666666667E+009;1.668444871902466E-001;5.921249091625214E-002;6.762235425412655E-003;-4.402246326208115E-003;
2.403833333333334E+009;1.687908023595810E-001;5.724417418241501E-002;6.417419761419296E-003;-4.882786422967911E-003;
2.404000000000000E+009;1.703960150480270E-001;5.513583496212959E-002;6.252395920455456E-003;-5.041998811066151E-003;
2.404166666666667E+009;1.727451533079147E-001;5.334077030420303E-002;5.987865850329399E-003;-5.244617816060782E-003;
2.404333333333334E+009;1.749166846275330E-001;5.148883163928986E-002;5.623534787446261E-003;-5.597049836069346E-003;
2.404500000000000E+009;1.767691820859909E-001;4.985246807336807E-002;5.344599019736052E-003;-5.715938284993172E-003;
2.404666666666667E+009;1.788680255413055E-001;4.837196320295334E-002;4.967189393937588E-003;-5.784371867775917E-003;
2.404833333333334E+009;1.809745728969574E-001;4.716321825981140E-002;4.731217399239540E-003;-6.050466559827328E-003;
2.405000000000000E+009;1.826713085174561E-001;4.632698372006416E-002;4.520228598266840E-003;-6.280630361288786E-003;
2.405166666666667E+009;1.845693588256836E-001;4.538774862885475E-002;4.342374391853809E-003;-6.487220060080290E-003;
2.405333333333334E+009;1.863900721073151E-001;4.462095350027084E-002;3.832184709608555E-003;-6.539207417517901E-003;
2.405500000000000E+009;1.883455663919449E-001;4.389332979917526E-002;3.582262899726629E-003;-6.541731767356396E-003;
2.405666666666667E+009;1.900430917739868E-001;4.341615363955498E-002;3.320997580885887E-003;-6.800798233598471E-003;
2.405833333333334E+009;1.915844380855560E-001;4.311863705515862E-002;3.024914534762502E-003;-6.663286127150059E-003;
2.406000000000000E+009;1.930686831474304E-001;4.273900389671326E-002;2.674830378964543E-003;-6.823536939918995E-003;
2.406166666666667E+009;1.944003701210022E-001;4.264843091368675E-002;2.467211103066802E-003;-6.810248829424381E-003;
2.406333333333334E+009;1.959651410579681E-001;4.251129180192947E-002;2.066620159894228E-003;-6.846179720014334E-003;
2.406500000000000E+009;1.969984322786331E-001;4.261074587702751E-002;1.949608791619539E-003;-6.954031530767679E-003;
2.406666666666667E+009;1.981082707643509E-001;4.273292794823647E-002;1.623598858714104E-003;-6.925146561115980E-003;
2.406833333333334E+009;1.989399492740631E-001;4.274778068065643E-002;1.479819416999817E-003;-6.924859248101711E-003;
2.407000000000000E+009;1.995911300182343E-001;4.286558926105499E-002;1.014061621390283E-003;-6.993180140852928E-003;
2.407166666666667E+009;2.003587335348129E-001;4.274990782141686E-002;8.169098873622716E-004;-6.904140114784241E-003;
2.407333333333334E+009;2.005528956651688E-001;4.301697015762329E-002;6.558890454471111E-004;-6.814158987253904E-003;
2.407500000000000E+009;2.008397579193115E-001;4.323166981339455E-002;3.906245692633092E-004;-6.850564386695623E-003;
2.407666666666667E+009;2.010655552148819E-001;4.320838302373886E-002;6.483519973699004E-005;-6.575716659426689E-003;
2.407833333333334E+009;2.007412612438202E-001;4.330999404191971E-002;-2.398968899797183E-005;-6.464110687375069E-003;
2.408000000000000E+009;2.008186876773834E-001;4.332185536623001E-002;-2.385463012615219E-004;-6.351076066493988E-003;
2.408166666666667E+009;2.003407180309296E-001;4.311474412679672E-002;-3.022934251930565E-004;-6.350774783641100E-003;
2.408333333333334E+009;1.999797224998474E-001;4.291247576475143E-002;-6.341482512652874E-004;-6.278403103351593E-003;
2.408500000000000E+009;1.991143077611923E-001;4.270923510193825E-002;-7.341776508837938E-004;-6.131249479949474E-003;
2.408666666666667E+009;1.985308229923248E-001;4.250160604715347E-002;-9.720424422994256E-004;-6.021820008754730E-003;
2.408833333333334E+009;1.978027522563934E-001;4.182121530175209E-002;-8.724273066036403E-004;-5.983120761811733E-003;
2.409000000000000E+009;1.967287510633469E-001;4.119898006320000E-002;-1.101752743124962E-003;-5.893789697438479E-003;
2.409166666666667E+009;1.956354826688767E-001;4.033187404274941E-002;-1.271992688998580E-003;-5.809944588690996E-003;
2.409333333333334E+009;1.946489512920380E-001;3.968634828925133E-002;-1.221005222760141E-003;-5.553827155381441E-003;
2.409500000000000E+009;1.933646500110626E-001;3.840330615639687E-002;-1.507072476670146E-003;-5.761486943811178E-003;
2.409666666666667E+009;1.919703930616379E-001;3.736985474824905E-002;-1.494461670517921E-003;-5.639445036649704E-003;
2.409833333333334E+009;1.907275766134262E-001;3.610352799296379E-002;-1.630292623303831E-003;-5.732907447963953E-003;
2.410000000000000E+009;1.895283609628677E-001;3.459016978740692E-002;-1.721504027955234E-003;-5.492140538990498E-003;
2.410166666666667E+009;1.882312893867493E-001;3.286863490939140E-002;-1.780423219315708E-003;-5.513029638677836E-003;
2.410333333333334E+009;1.869285851716995E-001;3.131697326898575E-002;-1.885192119516432E-003;-5.492825992405415E-003;
2.410500000000000E+009;1.854703724384308E-001;2.946606092154980E-002;-2.137301722541452E-003;-5.589367821812630E-003;
2.410666666666667E+009;1.844427287578583E-001;2.726788073778153E-002;-2.266811206936836E-003;-5.396159365773201E-003;
2.410833333333334E+009;1.833553016185761E-001;2.536745183169842E-002;-2.578316489234567E-003;-5.299889016896486E-003;
2.411000000000000E+009;1.822743266820908E-001;2.304675243794918E-002;-2.516465261578560E-003;-5.203076638281345E-003;
2.411166666666667E+009;1.812813431024551E-001;2.088775672018528E-002;-2.805636264383793E-003;-5.188753828406334E-003;
2.411333333333334E+009;1.805192828178406E-001;1.841620914638042E-002;-3.053272841498256E-003;-4.950399044901133E-003;
2.411500000000000E+009;1.797580271959305E-001;1.593580283224583E-002;-2.936060773208737E-003;-4.987196065485477E-003;
2.411666666666667E+009;1.791073828935623E-001;1.337376143783331E-002;-3.124149283394218E-003;-4.900821950286627E-003;
2.411833333333334E+009;1.785806715488434E-001;1.086605526506901E-002;-3.196716774255037E-003;-4.745435900986195E-003;
2.412000000000000E+009;1.784952431917191E-001;8.222067728638649E-003;-3.265649313107133E-003;-4.693367052823305E-003;
2.412166666666667E+009;1.781904697418213E-001;5.747405812144280E-003;-3.409742377698422E-003;-4.583360161632299E-003;
2.412333333333334E+009;1.781561374664307E-001;2.917815698310733E-003;-3.442427376285195E-003;-4.612314980477095E-003;
2.412500000000000E+009;1.784897297620773E-001;1.557802315801382E-004;-3.675055457279086E-003;-4.453395958989859E-003;
2.412666666666667E+009;1.786166727542877E-001;-2.385290106758475E-003;-3.765332978218794E-003;-4.529391415417194E-003;
2.412833333333334E+009;1.791051328182221E-001;-5.162199493497610E-003;-3.853945527225733E-003;-4.350732546299696E-003;
2.413000000000000E+009;1.796889603137970E-001;-7.539342623203993E-003;-3.997420892119408E-003;-4.345282912254334E-003;
2.413166666666667E+009;1.801951825618744E-001;-1.024663355201483E-002;-4.101873841136694E-003;-4.286807496100664E-003;
2.413333333333334E+009;1.812821030616760E-001;-1.290628034621477E-002;-4.234540276229382E-003;-4.175175912678242E-003;
2.413500000000000E+009;1.818454861640930E-001;-1.534801255911589E-002;-4.477410111576319E-003;-4.063609987497330E-003;
2.413666666666667E+009;1.830769479274750E-001;-1.778707653284073E-002;-4.644496832042933E-003;-4.023943562060595E-003;
2.413833333333334E+009;1.839949488639832E-001;-2.006313949823380E-002;-4.889271687716246E-003;-3.990663215517998E-003;
2.414000000000000E+009;1.851677149534226E-001;-2.230473980307579E-002;-5.107182543724775E-003;-3.861105302348733E-003;
2.414166666666667E+009;1.864504218101502E-001;-2.431076951324940E-002;-5.330422427505255E-003;-3.545422805473208E-003;
2.414333333333334E+009;1.875032037496567E-001;-2.653690241277218E-002;-5.508945323526859E-003;-3.448019735515118E-003;
2.414500000000000E+009;1.889573037624359E-001;-2.829165570437908E-002;-5.529123824089766E-003;-3.278388641774654E-003;
2.414666666666667E+009;1.900807917118073E-001;-2.994658984243870E-002;-5.605971906334162E-003;-2.869357354938984E-003;
2.414833333333334E+009;1.914413422346115E-001;-3.155203163623810E-002;-5.854359827935696E-003;-2.769836224615574E-003;
2.415000000000000E+009;1.926075071096420E-001;-3.304336220026016E-002;-5.798268131911755E-003;-2.491055289283395E-003;
2.415166666666667E+009;1.940728873014450E-001;-3.421624749898911E-002;-5.919824820011854E-003;-2.133040688931942E-003;
2.415333333333334E+009;1.953684538602829E-001;-3.526110574603081E-002;-5.989843979477882E-003;-1.975711900740862E-003;
2.415500000000000E+009;1.967174857854843E-001;-3.611018136143684E-002;-6.126307416707277E-003;-1.806752523407340E-003;
2.415666666666667E+009;1.979332566261292E-001;-3.716928884387016E-002;-6.103999447077513E-003;-1.624714466743171E-003;
2.415833333333334E+009;1.990136504173279E-001;-3.778671100735664E-002;-6.433734204620123E-003;-1.410337863489986E-003;
2.416000000000000E+009;2.000946104526520E-001;-3.847712278366089E-002;-6.203032098710537E-003;-1.308323815464973E-003;
2.416166666666667E+009;2.010386586189270E-001;-3.900954872369766E-002;-6.310260854661465E-003;-1.127747003920376E-003;
2.416333333333334E+009;2.020118832588196E-001;-3.928118944168091E-002;-6.336790509521961E-003;-8.570490172132850E-004;
2.416500000000000E+009;2.027256488800049E-001;-3.954046592116356E-002;-6.310167256742716E-003;-6.813294021412730E-004;
2.416666666666667E+009;2.033861577510834E-001;-3.980141878128052E-002;-6.278234533965588E-003;-3.764744615182281E-004;
2.416833333333334E+009;2.036879807710648E-001;-3.964645043015480E-002;-6.452123168855906E-003;-1.423602661816403E-004;
2.417000000000000E+009;2.041269093751907E-001;-3.968507796525955E-002;-6.506556645035744E-003;-4.426481973496266E-005;
2.417166666666667E+009;2.041782736778259E-001;-3.948380798101425E-002;-6.649686489254236E-003;4.318956925999373E-004;
2.417333333333334E+009;2.042926400899887E-001;-3.906721621751785E-002;-6.697578821331263E-003;5.232255207374692E-004;
2.417500000000000E+009;2.043366134166718E-001;-3.895205259323120E-002;-6.563639733940363E-003;6.600412889383733E-004;
2.417666666666667E+009;2.040553092956543E-001;-3.851207345724106E-002;-6.615621503442526E-003;8.981678984127939E-004;
2.417833333333334E+009;2.038430124521256E-001;-3.807937353849411E-002;-6.506247911602259E-003;1.216812757775188E-003;
2.418000000000000E+009;2.034269869327545E-001;-3.748108074069023E-002;-6.441614124923945E-003;1.495404518209398E-003;
2.418166666666667E+009;2.028519511222839E-001;-3.724148869514465E-002;-6.333923432976008E-003;1.789728179574013E-003;
2.418333333333334E+009;2.021658271551132E-001;-3.678348660469055E-002;-6.335730198770762E-003;1.974774990230799E-003;
2.418500000000000E+009;2.013969421386719E-001;-3.647036477923393E-002;-6.197438109666109E-003;2.225057920441032E-003;
2.418666666666667E+009;2.006502449512482E-001;-3.610225766897202E-002;-6.134639959782362E-003;2.333618234843016E-003;
2.418833333333334E+009;1.993674337863922E-001;-3.592127561569214E-002;-5.877553485333920E-003;2.748838160187006E-003;
2.419000000000000E+009;1.983074843883514E-001;-3.588943928480148E-002;-5.648011807352305E-003;2.990628592669964E-003;
2.419166666666667E+009;1.970872879028320E-001;-3.581827878952026E-002;-5.542820785194635E-003;3.151695942506194E-003;
2.419333333333334E+009;1.958630681037903E-001;-3.601850941777229E-002;-5.415843334048986E-003;3.367167431861162E-003;
2.419500000000000E+009;1.943448334932327E-001;-3.610087558627129E-002;-5.325814243406057E-003;3.393457038328052E-003;
2.419666666666667E+009;1.927761584520340E-001;-3.664644807577133E-002;-4.971502814441919E-003;3.608293831348419E-003;
2.419833333333334E+009;1.912152320146561E-001;-3.717293217778206E-002;-4.913005977869034E-003;3.708034055307508E-003;
2.420000000000000E+009;1.895846873521805E-001;-3.766850754618645E-002;-4.858674015849829E-003;3.624961478635669E-003;
2.420166666666667E+009;1.878533363342285E-001;-3.853281587362289E-002;-4.615357611328363E-003;3.847750835120678E-003;
2.420333333333334E+009;1.860492229461670E-001;-3.954135626554489E-002;-4.500361625105143E-003;3.813408315181732E-003;
2.420500000000000E+009;1.842739880084992E-001;-4.067547619342804E-002;-4.346096422523260E-003;3.958585672080517E-003;
2.420666666666667E+009;1.824784278869629E-001;-4.173103719949722E-002;-4.212976898998022E-003;3.985210787504911E-003;
2.420833333333334E+009;1.807235032320023E-001;-4.309130087494850E-002;-4.293336998671293E-003;4.052587784826756E-003;
2.421000000000000E+009;1.789846867322922E-001;-4.455005377531052E-002;-4.144615493714809E-003;3.996632527559996E-003;
2.421166666666667E+009;1.773322373628616E-001;-4.623231291770935E-002;-4.199234768748283E-003;4.280977416783571E-003;
2.421333333333334E+009;1.755422502756119E-001;-4.757641255855560E-002;-4.104916471987963E-003;4.367517307400703E-003;
2.421500000000000E+009;1.738923490047455E-001;-4.934786260128021E-002;-4.107947461307049E-003;4.382350016385317E-003;
2.421666666666667E+009;1.724663972854614E-001;-5.129941552877426E-002;-4.024982452392578E-003;4.579813219606876E-003;
2.421833333333334E+009;1.709636300802231E-001;-5.299112573266029E-002;-3.928332123905420E-003;4.936051089316607E-003;
2.422000000000000E+009;1.697096675634384E-001;-5.482780188322067E-002;-3.647755598649383E-003;5.131046287715435E-003;
2.422166666666667E+009;1.687195897102356E-001;-5.714139342308044E-002;-3.557724645361304E-003;5.283023696392775E-003;
2.422333333333334E+009;1.674617230892181E-001;-5.936622619628906E-002;-3.332560881972313E-003;5.491286981850863E-003;
2.422500000000000E+009;1.666221916675568E-001;-6.116371974349022E-002;-3.055914770811796E-003;5.723506677895784E-003;
2.422666666666667E+009;1.657100766897202E-001;-6.323702633380890E-002;-3.062760923057795E-003;6.035004742443562E-003;
2.422833333333334E+009;1.651630848646164E-001;-6.550645083189011E-002;-2.667255466803908E-003;6.023069377988577E-003;
2.423000000000000E+009;1.645162850618362E-001;-6.779783219099045E-002;-2.364439424127340E-003;6.173833739012480E-003;
2.423166666666667E+009;1.639875620603561E-001;-6.978289783000946E-002;-2.034234115853906E-003;6.361254025250673E-003;
2.423333333333334E+009;1.638587415218353E-001;-7.220568507909775E-002;-1.705015078186989E-003;6.342411972582340E-003;
2.423500000000000E+009;1.638035625219345E-001;-7.423103600740433E-002;-1.321418792940676E-003;6.408506073057652E-003;
2.423666666666667E+009;1.637432277202606E-001;-7.636859267950058E-002;-1.076812390238047E-003;6.340082269161940E-003;
2.423833333333334E+009;1.635456085205078E-001;-7.831799238920212E-002;-8.268849342130125E-004;6.409066263586283E-003;
2.424000000000000E+009;1.637913137674332E-001;-8.028634637594223E-002;-4.711649962700903E-004;6.245126482099295E-003;
2.424166666666667E+009;1.639034450054169E-001;-8.227956295013428E-002;-7.911650027381256E-005;6.087570916861296E-003;
2.424333333333334E+009;1.643062382936478E-001;-8.394425362348557E-002;3.855382237816230E-005;6.109450012445450E-003;
2.424500000000000E+009;1.646612733602524E-001;-8.600896596908569E-002;4.333087708801031E-004;5.933170672506094E-003;
2.424666666666667E+009;1.650739461183548E-001;-8.767629414796829E-002;4.750492225866765E-004;5.735395476222038E-003;
2.424833333333334E+009;1.658229231834412E-001;-8.911757916212082E-002;8.060752879828215E-004;5.728039890527725E-003;
2.425000000000000E+009;1.662747710943222E-001;-9.069033712148666E-002;9.115932625718415E-004;5.645018536597490E-003;
2.425166666666667E+009;1.666955798864365E-001;-9.192586690187454E-002;1.007012324407697E-003;5.476817954331636E-003;
2.425333333333334E+009;1.674333065748215E-001;-9.313018620014191E-002;1.251100911758840E-003;5.341023672372103E-003;
2.425500000000000E+009;1.680426299571991E-001;-9.423724561929703E-002;1.353967702016234E-003;5.085442215204239E-003;
2.425666666666667E+009;1.686132401227951E-001;-9.513200074434280E-002;1.434904756024480E-003;5.077008623629808E-003;
2.425833333333334E+009;1.692867875099182E-001;-9.623391926288605E-002;1.484686508774757E-003;4.836668260395527E-003;
2.426000000000000E+009;1.699967235326767E-001;-9.681209176778793E-002;1.572041190229356E-003;4.797546193003655E-003;
2.426166666666667E+009;1.706678718328476E-001;-9.737519919872284E-002;1.735274447128177E-003;4.734323825687170E-003;
2.426333333333334E+009;1.712100803852081E-001;-9.812992066144943E-002;1.873904489912093E-003;4.674043506383896E-003;
2.426500000000000E+009;1.719144135713577E-001;-9.852923452854157E-002;1.958878245204687E-003;4.517554305493832E-003;
2.426666666666667E+009;1.724222600460053E-001;-9.889421612024307E-002;1.903370488435030E-003;4.303578287363052E-003;
2.426833333333334E+009;1.731039732694626E-001;-9.937314689159393E-002;2.069249050691724E-003;4.502680618315935E-003;
2.427000000000000E+009;1.734093129634857E-001;-9.964028000831604E-002;2.173457760363817E-003;4.358793143182993E-003;
2.427166666666667E+009;1.737541109323502E-001;-9.960930794477463E-002;2.097858348861337E-003;4.327503032982349E-003;
2.427333333333334E+009;1.740094274282455E-001;-1.000191941857338E-001;2.202382776886225E-003;4.218837711960077E-003;
2.427500000000000E+009;1.741379946470261E-001;-1.002858728170395E-001;2.379308920353651E-003;4.188632592558861E-003;
2.427666666666667E+009;1.741646081209183E-001;-1.002738699316979E-001;2.416541567072272E-003;4.163230303674936E-003;
