# Version 1.00
#
freq[Hz];re:Trc1_S11;im:Trc1_S11;re:Trc2_S21;im:Trc2_S21;
2.400000000000000E+009;1.514424979686737E-001;1.166502758860588E-001;6.011532153934240E-003;1.568303792737424E-003;
2.400166666666667E+009;1.508462429046631E-001;1.144551038742065E-001;6.245848722755909E-003;1.450949232093990E-003;
2.400333333333334E+009;1.507278233766556E-001;1.121995598077774E-001;6.217336747795343E-003;1.444023917429149E-003;
2.400500000000000E+009;1.502514928579330E-001;1.098017022013664E-001;6.413366645574570E-003;1.358487294055522E-003;
2.400666666666667E+009;1.502909809350967E-001;1.071751937270165E-001;6.750830914825201E-003;1.141215907409787E-003;
2.400833333333334E+009;1.500437706708908E-001;1.046214029192925E-001;6.765860598534346E-003;9.711651364341378E-004;
2.401000000000000E+009;1.501707732677460E-001;1.017350479960442E-001;6.921643856912851E-003;8.051890181377530E-004;
2.401166666666667E+009;1.498215496540070E-001;9.902124851942062E-002;6.961591076105833E-003;4.990138695575297E-004;
2.401333333333334E+009;1.502578556537628E-001;9.607890993356705E-002;7.048946805298328E-003;3.571498091332614E-004;
2.401500000000000E+009;1.503649950027466E-001;9.317827969789505E-002;7.351032923907042E-003;2.281365050293971E-005;
2.401666666666667E+009;1.504895389080048E-001;9.039156883955002E-002;7.338592316955328E-003;-2.352703304495663E-004;
2.401833333333334E+009;1.510463207960129E-001;8.751353621482849E-002;7.528763730078936E-003;-5.999350105412304E-004;
2.402000000000000E+009;1.518659740686417E-001;8.464294672012329E-002;7.588205859065056E-003;-9.220955544151366E-004;
2.402166666666667E+009;1.525760740041733E-001;8.191673457622528E-002;7.635420653969050E-003;-1.194410957396030E-003;
2.402333333333334E+009;1.535098403692246E-001;7.904109358787537E-002;7.603766862303019E-003;-1.630892860703170E-003;
2.402500000000000E+009;1.547372788190842E-001;7.637011259794235E-002;7.694778498262167E-003;-1.823278493247926E-003;
2.402666666666667E+009;1.560069173574448E-001;7.368025928735733E-002;7.596820592880249E-003;-2.314559649676085E-003;
2.402833333333334E+009;1.573446393013001E-001;7.107535004615784E-002;7.698991335928440E-003;-2.828214084729552E-003;
2.403000000000000E+009;1.588473618030548E-001;6.837537139654160E-002;7.543765939772129E-003;-3.206304972991347E-003;
2.403166666666667E+009;1.608232259750366E-001;6.628652662038803E-002;7.338307797908783E-003;-3.476469544693828E-003;
2.403333333333334E+009;1.625325977802277E-001;6.370037794113159E-002;7.278111297637224E-003;-3.854270791634917E-003;
2.403500000000000E+009;1.643898338079453E-001;6.140704080462456E-002;6.994075141847134E-003;-4.249122925102711E-003;
2.403666666666667E+009;1.664263308048248E-001;5.907573178410530E-002;6.703089922666550E-003;-4.515662323683500E-003;
2.403833333333334E+009;1.683984696865082E-001;5.697466433048248E-002;6.621941924095154E-003;-4.822938237339258E-003;
2.404000000000000E+009;1.702249497175217E-001;5.499105155467987E-002;6.325526628643274E-003;-5.077087320387363E-003;
2.404166666666667E+009;1.723748743534088E-001;5.316350981593132E-002;5.914034321904182E-003;-5.425902083516121E-003;
2.404333333333334E+009;1.744607537984848E-001;5.144744738936424E-002;5.612209904938936E-003;-5.693269893527031E-003;
2.404500000000000E+009;1.763749122619629E-001;4.981961101293564E-002;5.479489918798208E-003;-5.952493753284216E-003;
2.404666666666667E+009;1.784540563821793E-001;4.830026999115944E-002;5.018041934818029E-003;-6.028933450579643E-003;
2.404833333333334E+009;1.802939921617508E-001;4.694418609142304E-002;4.846293013542891E-003;-6.061926018446684E-003;
2.405000000000000E+009;1.821834594011307E-001;4.616195708513260E-002;4.458527080714703E-003;-6.297694984823465E-003;
2.405166666666667E+009;1.840852648019791E-001;4.520206898450851E-002;4.185928031802177E-003;-6.447494029998779E-003;
2.405333333333334E+009;1.859348267316818E-001;4.449531808495522E-002;3.840747056528926E-003;-6.668327376246452E-003;
2.405500000000000E+009;1.878392100334168E-001;4.385627433657646E-002;3.722482593730092E-003;-6.537181790918112E-003;
2.405666666666667E+009;1.894726604223251E-001;4.348899051547051E-002;3.305961843580008E-003;-6.670939270406961E-003;
2.405833333333334E+009;1.911590844392777E-001;4.298413917422295E-002;3.111745230853558E-003;-6.722935009747744E-003;
2.406000000000000E+009;1.925012469291687E-001;4.276432469487190E-002;2.768040401861072E-003;-6.849387660622597E-003;
2.406166666666667E+009;1.939786076545715E-001;4.255486279726028E-002;2.354801166802645E-003;-6.902008317410946E-003;
2.406333333333334E+009;1.952226161956787E-001;4.256536066532135E-002;2.210435690358281E-003;-6.901021115481854E-003;
2.406500000000000E+009;1.964554339647293E-001;4.258123040199280E-002;1.878972398117185E-003;-6.767563056200743E-003;
2.406666666666667E+009;1.974297016859055E-001;4.274560883641243E-002;1.578866620548070E-003;-6.813308224081993E-003;
2.406833333333334E+009;1.984172463417053E-001;4.276553913950920E-002;1.289229607209563E-003;-7.075444795191288E-003;
2.407000000000000E+009;1.990855634212494E-001;4.303640127182007E-002;8.930591284297407E-004;-6.931371055543423E-003;
2.407166666666667E+009;1.998139321804047E-001;4.311020299792290E-002;8.044341811910272E-004;-6.904584355652332E-003;
2.407333333333334E+009;2.001619040966034E-001;4.322366788983345E-002;5.903439596295357E-004;-6.882734596729279E-003;
2.407500000000000E+009;2.003889530897141E-001;4.344001039862633E-002;4.063269298058003E-004;-6.803765427321196E-003;
2.407666666666667E+009;2.005062550306320E-001;4.340835288167000E-002;1.973621256183833E-004;-6.622402928769589E-003;
2.407833333333334E+009;2.003574073314667E-001;4.342388361692429E-002;-1.514931936981157E-004;-6.586414296180010E-003;
2.408000000000000E+009;2.003761976957321E-001;4.349636659026146E-002;-2.662558981683105E-004;-6.473802030086517E-003;
2.408166666666667E+009;1.998640000820160E-001;4.329671710729599E-002;-6.504718330688775E-004;-6.469790358096361E-003;
2.408333333333334E+009;1.995502561330795E-001;4.303441941738129E-002;-7.775917765684426E-004;-6.374538876116276E-003;
2.408500000000000E+009;1.988503783941269E-001;4.294292256236076E-002;-8.583170128986239E-004;-6.107035093009472E-003;
2.408666666666667E+009;1.982411444187164E-001;4.259583726525307E-002;-9.229015558958054E-004;-6.092401687055826E-003;
2.408833333333334E+009;1.974276602268219E-001;4.205825924873352E-002;-1.140775973908603E-003;-5.927127785980701E-003;
2.409000000000000E+009;1.963896453380585E-001;4.131380468606949E-002;-1.266082515940070E-003;-5.908841732889414E-003;
2.409166666666667E+009;1.953960061073303E-001;4.058476537466049E-002;-1.338724861852825E-003;-5.902624223381281E-003;
2.409333333333334E+009;1.942087113857269E-001;3.983315825462341E-002;-1.436302671208978E-003;-5.708687473088503E-003;
2.409500000000000E+009;1.928597986698151E-001;3.868628665804863E-002;-1.382664195261896E-003;-5.606486927717924E-003;
2.409666666666667E+009;1.916841268539429E-001;3.741215914487839E-002;-1.581037417054176E-003;-5.770206917077303E-003;
2.409833333333334E+009;1.903863549232483E-001;3.622841462492943E-002;-1.708149793557823E-003;-5.642513278871775E-003;
2.410000000000000E+009;1.892686337232590E-001;3.475066646933556E-002;-1.721140579320490E-003;-5.626896861940622E-003;
2.410166666666667E+009;1.878646016120911E-001;3.307822719216347E-002;-1.765337889082730E-003;-5.476374179124832E-003;
2.410333333333334E+009;1.866428256034851E-001;3.150548785924912E-002;-2.152685075998306E-003;-5.634114611893892E-003;
2.410500000000000E+009;1.853776723146439E-001;2.963011153042316E-002;-2.284148940816522E-003;-5.497698672115803E-003;
2.410666666666667E+009;1.840866506099701E-001;2.749237790703774E-002;-2.430015243589878E-003;-5.420001689344645E-003;
2.410833333333334E+009;1.831337511539459E-001;2.538669668138027E-002;-2.516451757401228E-003;-5.364210344851017E-003;
2.411000000000000E+009;1.820405125617981E-001;2.320321090519428E-002;-2.735037822276354E-003;-5.326739046722651E-003;
2.411166666666667E+009;1.810420453548431E-001;2.101548761129379E-002;-2.909917384386063E-003;-5.143732298165560E-003;
2.411333333333334E+009;1.802105009555817E-001;1.853806339204311E-002;-2.923275576904416E-003;-5.292036104947329E-003;
2.411500000000000E+009;1.793809533119202E-001;1.619169302284718E-002;-3.139934036880732E-003;-5.070360843092203E-003;
2.411666666666667E+009;1.789023429155350E-001;1.364927552640438E-002;-3.178555751219392E-003;-4.935914650559425E-003;
2.411833333333334E+009;1.783468574285507E-001;1.124367583543062E-002;-3.399147419258952E-003;-4.809999838471413E-003;
2.412000000000000E+009;1.780467182397842E-001;8.417739532887936E-003;-3.358824178576469E-003;-4.757539369165897E-003;
2.412166666666667E+009;1.780497282743454E-001;6.076820194721222E-003;-3.394098253920674E-003;-4.724645521491766E-003;
2.412333333333334E+009;1.780406683683395E-001;3.198164980858564E-003;-3.603557357564569E-003;-4.511356353759766E-003;
2.412500000000000E+009;1.781310588121414E-001;5.665110074914992E-004;-3.560008713975549E-003;-4.461411386728287E-003;
2.412666666666667E+009;1.784686893224716E-001;-2.004650421440601E-003;-3.913947381079197E-003;-4.397429991513491E-003;
2.412833333333334E+009;1.787637174129486E-001;-4.599270410835743E-003;-3.801980987191200E-003;-4.386482294648886E-003;
2.413000000000000E+009;1.793853640556335E-001;-7.209896575659514E-003;-3.981247078627348E-003;-4.369192756712437E-003;
2.413166666666667E+009;1.802132129669190E-001;-9.835633449256420E-003;-4.155809525400400E-003;-4.252956248819828E-003;
2.413333333333334E+009;1.809165477752686E-001;-1.252435799688101E-002;-4.255151841789484E-003;-4.219574853777885E-003;
2.413500000000000E+009;1.818058639764786E-001;-1.503336615860462E-002;-4.516953602433205E-003;-3.954357933253050E-003;
2.413666666666667E+009;1.829665601253510E-001;-1.734981872141361E-002;-4.785409662872553E-003;-4.067310132086277E-003;
2.413833333333334E+009;1.838240921497345E-001;-1.961228810250759E-002;-4.894816782325506E-003;-3.963600378483534E-003;
2.414000000000000E+009;1.849436461925507E-001;-2.181146480143070E-002;-5.027349572628737E-003;-3.814040450379252E-003;
2.414166666666667E+009;1.862616091966629E-001;-2.379817143082619E-002;-5.227570421993733E-003;-3.487629117444158E-003;
2.414333333333334E+009;1.874013543128967E-001;-2.607184275984764E-002;-5.419634282588959E-003;-3.506514709442854E-003;
2.414500000000000E+009;1.887274682521820E-001;-2.777466736733913E-002;-5.707980133593082E-003;-3.203574800863862E-003;
2.414666666666667E+009;1.900149136781693E-001;-2.956169471144676E-002;-5.749955307692289E-003;-3.085384378209710E-003;
2.414833333333334E+009;1.913359612226486E-001;-3.110140562057495E-002;-5.844779312610626E-003;-2.728839172050357E-003;
2.415000000000000E+009;1.926168203353882E-001;-3.247001022100449E-002;-5.899847950786352E-003;-2.446396509185433E-003;
2.415166666666667E+009;1.940929293632507E-001;-3.384425118565559E-002;-6.007365416735411E-003;-2.207584679126740E-003;
2.415333333333334E+009;1.954817473888397E-001;-3.499145060777664E-002;-6.085375323891640E-003;-1.987667754292488E-003;
2.415500000000000E+009;1.967529058456421E-001;-3.570431843400002E-002;-6.041091866791248E-003;-1.853702822700143E-003;
2.415666666666667E+009;1.979519873857498E-001;-3.684723004698753E-002;-6.238402798771858E-003;-1.555061317048967E-003;
2.415833333333334E+009;1.990380138158798E-001;-3.734454885125160E-002;-6.213874090462923E-003;-1.386266550980508E-003;
2.416000000000000E+009;1.999808698892593E-001;-3.811194002628326E-002;-6.131115369498730E-003;-1.253715250641108E-003;
2.416166666666667E+009;2.010982930660248E-001;-3.865590319037437E-002;-6.365810055285692E-003;-1.131388708017767E-003;
2.416333333333334E+009;2.019549012184143E-001;-3.896813467144966E-002;-6.194279063493013E-003;-7.713891682215035E-004;
2.416500000000000E+009;2.027931362390518E-001;-3.909790888428688E-002;-6.423720158636570E-003;-6.750367465429008E-004;
2.416666666666667E+009;2.034480869770050E-001;-3.947851061820984E-002;-6.371659692376852E-003;-4.578872467391193E-004;
2.416833333333334E+009;2.037798464298248E-001;-3.939791396260262E-002;-6.490373052656651E-003;-2.946778549812734E-004;
2.417000000000000E+009;2.041725665330887E-001;-3.923919796943665E-002;-6.499997340142727E-003;8.178273128578439E-005;
2.417166666666667E+009;2.041649818420410E-001;-3.908468410372734E-002;-6.644189357757568E-003;2.692213456612080E-004;
2.417333333333334E+009;2.042169272899628E-001;-3.875391185283661E-002;-6.520438939332962E-003;6.117518641985953E-004;
2.417500000000000E+009;2.043487429618835E-001;-3.857707604765892E-002;-6.554560735821724E-003;6.606292445212603E-004;
2.417666666666667E+009;2.039846479892731E-001;-3.813810646533966E-002;-6.540580652654171E-003;1.033584121614695E-003;
2.417833333333334E+009;2.038882672786713E-001;-3.762816637754440E-002;-6.470217369496822E-003;1.403521979227662E-003;
2.418000000000000E+009;2.034348994493485E-001;-3.721495345234871E-002;-6.455303635448217E-003;1.714489189907908E-003;
2.418166666666667E+009;2.028580456972122E-001;-3.692580386996269E-002;-6.344351451843977E-003;1.815001363866031E-003;
2.418333333333334E+009;2.021864354610443E-001;-3.637462854385376E-002;-6.185205653309822E-003;2.049793722108007E-003;
2.418500000000000E+009;2.013376504182816E-001;-3.610948100686073E-002;-6.366777699440718E-003;2.324351575225592E-003;
2.418666666666667E+009;2.006133198738098E-001;-3.570499643683434E-002;-6.118201185017824E-003;2.556227613240480E-003;
2.418833333333334E+009;1.996229737997055E-001;-3.573086485266686E-002;-5.887393839657307E-003;2.840012777596712E-003;
2.419000000000000E+009;1.983671933412552E-001;-3.550874814391136E-002;-5.636150017380714E-003;2.863993402570486E-003;
2.419166666666667E+009;1.972028911113739E-001;-3.557103499770165E-002;-5.589782726019621E-003;3.148050513118506E-003;
2.419333333333334E+009;1.960221081972122E-001;-3.577089309692383E-002;-5.400076974183321E-003;3.331211628392339E-003;
2.419500000000000E+009;1.943712234497070E-001;-3.581666201353073E-002;-5.224854219704866E-003;3.513569477945566E-003;
2.419666666666667E+009;1.928109079599381E-001;-3.641249984502792E-002;-5.084362812340260E-003;3.570094238966703E-003;
2.419833333333334E+009;1.912128031253815E-001;-3.679636493325234E-002;-4.829348996281624E-003;3.747815499082208E-003;
2.420000000000000E+009;1.896627843379974E-001;-3.750203549861908E-002;-4.806030075997114E-003;3.736207261681557E-003;
2.420166666666667E+009;1.880623549222946E-001;-3.830668330192566E-002;-4.616370424628258E-003;3.854416310787201E-003;
2.420333333333334E+009;1.861928850412369E-001;-3.937205672264099E-002;-4.380833823233843E-003;4.015393089503050E-003;
2.420500000000000E+009;1.844474822282791E-001;-4.046736657619476E-002;-4.195864312350750E-003;3.847871674224734E-003;
2.420666666666667E+009;1.826104521751404E-001;-4.148113355040550E-002;-4.216875415295363E-003;3.999237902462483E-003;
2.420833333333334E+009;1.808411180973053E-001;-4.289875179529190E-002;-4.267221316695213E-003;4.021605942398310E-003;
2.421000000000000E+009;1.791478842496872E-001;-4.408188164234161E-002;-3.972936887294054E-003;4.165637772530317E-003;
2.421166666666667E+009;1.776298284530640E-001;-4.583584517240524E-002;-4.145779646933079E-003;4.132681060582399E-003;
2.421333333333334E+009;1.756369471549988E-001;-4.734420403838158E-002;-4.155504051595926E-003;4.317700397223234E-003;
2.421500000000000E+009;1.740359663963318E-001;-4.912830144166946E-002;-3.894079010933638E-003;4.446828737854958E-003;
2.421666666666667E+009;1.726674437522888E-001;-5.089966580271721E-002;-3.863513004034758E-003;4.788089077919722E-003;
2.421833333333334E+009;1.713319420814514E-001;-5.275468528270721E-002;-3.953570500016213E-003;4.959947895258665E-003;
2.422000000000000E+009;1.700492501258850E-001;-5.467108264565468E-002;-3.694521263241768E-003;5.170521326363087E-003;
2.422166666666667E+009;1.689320802688599E-001;-5.697998777031899E-002;-3.544152248650789E-003;5.387284792959690E-003;
2.422333333333334E+009;1.677222251892090E-001;-5.908292531967163E-002;-3.360916627570987E-003;5.637977737933397E-003;
2.422500000000000E+009;1.668136715888977E-001;-6.108342111110687E-002;-3.353595267981291E-003;5.591910332441330E-003;
2.422666666666667E+009;1.659750193357468E-001;-6.321711838245392E-002;-2.998670795932412E-003;5.973152350634337E-003;
2.422833333333334E+009;1.653724908828735E-001;-6.542403250932694E-002;-2.574545098468661E-003;6.172302644699812E-003;
2.423000000000000E+009;1.647112965583801E-001;-6.774574518203735E-002;-2.461653901264072E-003;6.372466683387756E-003;
2.423166666666667E+009;1.642869859933853E-001;-6.978998333215714E-002;-2.040554769337177E-003;6.117258686572313E-003;
2.423333333333334E+009;1.639956086874008E-001;-7.206945866346359E-002;-1.688996911980212E-003;6.406300235539675E-003;
2.423500000000000E+009;1.638541817665100E-001;-7.409627735614777E-002;-1.486345543526113E-003;6.485354620963335E-003;
2.423666666666667E+009;1.640157699584961E-001;-7.628045231103897E-002;-1.058373716659844E-003;6.396924145519733E-003;
2.423833333333334E+009;1.637706309556961E-001;-7.821498811244965E-002;-8.369720308110118E-004;6.283666007220745E-003;
2.424000000000000E+009;1.640460640192032E-001;-8.033279329538345E-002;-4.272565129213035E-004;6.359360646456480E-003;
2.424166666666667E+009;1.641983985900879E-001;-8.211417496204376E-002;-1.068749916157685E-004;6.296637002378702E-003;
2.424333333333334E+009;1.645089685916901E-001;-8.382470160722733E-002;9.146311640506610E-005;6.008183117955923E-003;
2.424500000000000E+009;1.648781150579453E-001;-8.587129414081574E-002;4.387887311168015E-004;5.855663213878870E-003;
2.424666666666667E+009;1.652686744928360E-001;-8.748614042997360E-002;4.905851092189550E-004;5.825169850140810E-003;
2.424833333333334E+009;1.658867895603180E-001;-8.893848210573196E-002;7.966201519593597E-004;5.692478734999895E-003;
2.425000000000000E+009;1.665140092372894E-001;-9.053663909435272E-002;7.889401749707758E-004;5.421875976026058E-003;
2.425166666666667E+009;1.670187264680862E-001;-9.171317517757416E-002;1.094889012165368E-003;5.318361800163984E-003;
2.425333333333334E+009;1.675944030284882E-001;-9.297598898410797E-002;1.079134293831885E-003;5.372075363993645E-003;
2.425500000000000E+009;1.684022098779678E-001;-9.404164552688599E-002;1.287953578867018E-003;5.261468235403299E-003;
2.425666666666667E+009;1.689633876085281E-001;-9.493497014045715E-002;1.490718219429255E-003;5.141772795468569E-003;
2.425833333333334E+009;1.696394234895706E-001;-9.603496640920639E-002;1.564729725942016E-003;4.896931815892458E-003;
2.426000000000000E+009;1.703147888183594E-001;-9.659308195114136E-002;1.712994766421616E-003;4.905813839286566E-003;
2.426166666666667E+009;1.710579842329025E-001;-9.728502482175827E-002;1.701117376796901E-003;4.740398842841387E-003;
2.426333333333334E+009;1.714200079441071E-001;-9.794493019580841E-002;1.661376096308231E-003;4.553023260086775E-003;
2.426500000000000E+009;1.722016334533691E-001;-9.826453775167465E-002;1.845995429903269E-003;4.470951389521360E-003;
2.426666666666667E+009;1.727878898382187E-001;-9.868969023227692E-002;1.872944878414273E-003;4.421539604663849E-003;
2.426833333333334E+009;1.733532547950745E-001;-9.919948875904083E-002;1.930384431034327E-003;4.509880673140287E-003;
2.427000000000000E+009;1.736502051353455E-001;-9.936565160751343E-002;2.117642434313893E-003;4.299156367778778E-003;
2.427166666666667E+009;1.740408241748810E-001;-9.961540997028351E-002;2.151473425328732E-003;4.233713261783123E-003;
2.427333333333334E+009;1.743302494287491E-001;-9.990972280502319E-002;2.213900443166494E-003;4.144294187426567E-003;
2.427500000000000E+009;1.744139492511749E-001;-1.000419259071350E-001;2.266467781737447E-003;3.991974052041769E-003;
2.427666666666667E+009;1.743088513612747E-001;-1.001909151673317E-001;2.453502966091037E-003;3.946598619222641E-003;
