# Version 1.00
#
freq[Hz];re:Trc1_S11;im:Trc1_S11;re:Trc2_S21;im:Trc2_S21;
2.400000000000000E+009;1.516311019659042E-001;1.169953569769859E-001;5.976112093776465E-003;1.605779980309308E-003;
2.400166666666667E+009;1.510240882635117E-001;1.148154363036156E-001;6.159815471619368E-003;1.467935158871114E-003;
2.400333333333334E+009;1.509121209383011E-001;1.126408576965332E-001;6.413012277334929E-003;1.413068501278758E-003;
2.400500000000000E+009;1.506332457065582E-001;1.101943328976631E-001;6.416107527911663E-003;1.313309301622212E-003;
2.400666666666667E+009;1.505585312843323E-001;1.076309829950333E-001;6.463496014475822E-003;1.073001534678042E-003;
2.400833333333334E+009;1.503384858369827E-001;1.048782393336296E-001;6.772234570235014E-003;1.082236645743251E-003;
2.401000000000000E+009;1.502815037965775E-001;1.020880937576294E-001;6.945545785129070E-003;7.361192256212235E-004;
2.401166666666667E+009;1.501127332448959E-001;9.933145344257355E-002;7.090040016919375E-003;5.671990220434964E-004;
2.401333333333334E+009;1.503221541643143E-001;9.662754833698273E-002;7.179840002208948E-003;4.926464171148837E-004;
2.401500000000000E+009;1.508204340934753E-001;9.364795684814453E-002;7.316751405596733E-003;6.293176556937397E-005;
2.401666666666667E+009;1.509158015251160E-001;9.055966883897781E-002;7.328316103667021E-003;-2.063273859675974E-004;
2.401833333333334E+009;1.513373106718063E-001;8.777500689029694E-002;7.366921287029982E-003;-5.239680176600814E-004;
2.402000000000000E+009;1.520434021949768E-001;8.496540784835815E-002;7.578190416097641E-003;-8.731912821531296E-004;
2.402166666666667E+009;1.529821157455444E-001;8.211519569158554E-002;7.537405472248793E-003;-1.270956010557711E-003;
2.402333333333334E+009;1.537845730781555E-001;7.930994778871536E-002;7.735864724963903E-003;-1.559650409035385E-003;
2.402500000000000E+009;1.549376547336578E-001;7.657748460769653E-002;7.540751248598099E-003;-1.964212395250797E-003;
2.402666666666667E+009;1.563476324081421E-001;7.401224970817566E-002;7.586643099784851E-003;-2.174790715798736E-003;
2.402833333333334E+009;1.577786207199097E-001;7.140952348709106E-002;7.499444298446178E-003;-2.510428661480546E-003;
2.403000000000000E+009;1.591470092535019E-001;6.876356899738312E-002;7.424809969961643E-003;-3.037992864847183E-003;
2.403166666666667E+009;1.613332033157349E-001;6.646610796451569E-002;7.389614358544350E-003;-3.498271573334932E-003;
2.403333333333334E+009;1.628578305244446E-001;6.383078545331955E-002;7.239888422191143E-003;-3.880765521898866E-003;
2.403500000000000E+009;1.650249361991882E-001;6.149987131357193E-002;6.952581461519003E-003;-4.184071905910969E-003;
2.403666666666667E+009;1.668619811534882E-001;5.934387817978859E-002;6.737024988979101E-003;-4.544924478977919E-003;
2.403833333333334E+009;1.687961369752884E-001;5.708155781030655E-002;6.473859306424856E-003;-4.862420726567507E-003;
2.404000000000000E+009;1.706928461790085E-001;5.507085099816322E-002;6.303125526756048E-003;-5.176631733775139E-003;
2.404166666666667E+009;1.728923469781876E-001;5.329965427517891E-002;5.890532862395048E-003;-5.449864547699690E-003;
2.404333333333334E+009;1.747844666242600E-001;5.138775333762169E-002;5.668099038302898E-003;-5.531601142138243E-003;
2.404500000000000E+009;1.768000423908234E-001;4.981444031000137E-002;5.446967668831348E-003;-5.675621796399355E-003;
2.404666666666667E+009;1.788402199745178E-001;4.856419563293457E-002;5.040883552283049E-003;-5.931595806032419E-003;
2.404833333333334E+009;1.809200048446655E-001;4.708131775259972E-002;4.675003699958324E-003;-6.169423460960388E-003;
2.405000000000000E+009;1.825705319643021E-001;4.617395251989365E-002;4.451334942132235E-003;-6.191087886691093E-003;
2.405166666666667E+009;1.845682859420776E-001;4.535924270749092E-002;4.172365646809340E-003;-6.332625634968281E-003;
2.405333333333334E+009;1.863934397697449E-001;4.470115154981613E-002;3.768242662772536E-003;-6.408420857042074E-003;
2.405500000000000E+009;1.881149858236313E-001;4.390488937497139E-002;3.719321452081204E-003;-6.566836498677731E-003;
2.405666666666667E+009;1.898517161607742E-001;4.348754137754440E-002;3.372368868440390E-003;-6.830561906099320E-003;
2.405833333333334E+009;1.915554255247116E-001;4.307662323117256E-002;3.068817546591163E-003;-6.802001036703587E-003;
2.406000000000000E+009;1.930023729801178E-001;4.291610419750214E-002;2.650795737281442E-003;-6.797540001571178E-003;
2.406166666666667E+009;1.944607645273209E-001;4.256589338183403E-002;2.499805530533195E-003;-6.802059244364500E-003;
2.406333333333334E+009;1.958777308464050E-001;4.252941533923149E-002;2.213105792179704E-003;-6.952916737645865E-003;
2.406500000000000E+009;1.969570517539978E-001;4.260732606053352E-002;2.030201256275177E-003;-6.894634105265141E-003;
2.406666666666667E+009;1.979924440383911E-001;4.279869422316551E-002;1.762657309882343E-003;-6.922060158103705E-003;
2.406833333333334E+009;1.988767981529236E-001;4.267450794577599E-002;1.331967534497380E-003;-7.024794816970825E-003;
2.407000000000000E+009;1.995820850133896E-001;4.299077391624451E-002;1.053884276188910E-003;-7.024999707937241E-003;
2.407166666666667E+009;2.002219259738922E-001;4.275489971041679E-002;7.548591820523143E-004;-6.925770081579685E-003;
2.407333333333334E+009;2.005392611026764E-001;4.304565861821175E-002;4.702894948422909E-004;-6.779868621379137E-003;
2.407500000000000E+009;2.008585184812546E-001;4.318886622786522E-002;3.334806533530355E-004;-6.721615325659514E-003;
2.407666666666667E+009;2.010307013988495E-001;4.337432608008385E-002;6.514012056868523E-005;-6.645785644650459E-003;
2.407833333333334E+009;2.007603645324707E-001;4.342451691627502E-002;-1.516531774541363E-004;-6.578841246664524E-003;
2.408000000000000E+009;2.008051574230194E-001;4.335948079824448E-002;-2.931016206275672E-004;-6.474667228758335E-003;
2.408166666666667E+009;2.003177851438522E-001;4.325954988598824E-002;-4.333141259849072E-004;-6.418678909540176E-003;
2.408333333333334E+009;1.999043077230454E-001;4.287020117044449E-002;-6.778169190511107E-004;-6.187874358147383E-003;
2.408500000000000E+009;1.992363333702087E-001;4.279961064457893E-002;-8.811948355287314E-004;-6.077883299440146E-003;
2.408666666666667E+009;1.986424028873444E-001;4.240468516945839E-002;-9.583249338902533E-004;-6.128764711320400E-003;
2.408833333333334E+009;1.977625042200089E-001;4.197060316801071E-002;-1.020875526592135E-003;-5.944116506725550E-003;
2.409000000000000E+009;1.967148333787918E-001;4.120259359478951E-002;-1.194426207803190E-003;-5.952792242169380E-003;
2.409166666666667E+009;1.957120001316071E-001;4.036144539713860E-002;-1.279837102629244E-003;-5.755797028541565E-003;
2.409333333333334E+009;1.946233063936234E-001;3.961839899420738E-002;-1.292202854529023E-003;-5.683883558958769E-003;
2.409500000000000E+009;1.933552473783493E-001;3.848696127533913E-002;-1.459150924347341E-003;-5.623623728752136E-003;
2.409666666666667E+009;1.921648085117340E-001;3.728968277573586E-002;-1.666371012106538E-003;-5.681018345057964E-003;
2.409833333333334E+009;1.907017081975937E-001;3.595709428191185E-002;-1.562091871164739E-003;-5.656663794070482E-003;
2.410000000000000E+009;1.895190030336380E-001;3.473583236336708E-002;-1.793170580640435E-003;-5.565578117966652E-003;
2.410166666666667E+009;1.881790161132813E-001;3.283592686057091E-002;-1.932338345795870E-003;-5.545578431338072E-003;
2.410333333333334E+009;1.869656294584274E-001;3.123800642788410E-002;-1.959140878170729E-003;-5.580839235335589E-003;
2.410500000000000E+009;1.857235878705978E-001;2.946072071790695E-002;-2.140930155292153E-003;-5.484673660248518E-003;
2.410666666666667E+009;1.843203604221344E-001;2.727025561034679E-002;-2.237369306385517E-003;-5.371126811951399E-003;
2.410833333333334E+009;1.834444701671600E-001;2.509362809360027E-002;-2.531125908717513E-003;-5.365553312003613E-003;
2.411000000000000E+009;1.822984665632248E-001;2.304862998425961E-002;-2.746610669419169E-003;-5.364719778299332E-003;
2.411166666666667E+009;1.814387738704681E-001;2.076801098883152E-002;-2.839270513504744E-003;-5.184869281947613E-003;
2.411333333333334E+009;1.804399788379669E-001;1.819628663361073E-002;-2.892056945711374E-003;-5.244654137641192E-003;
2.411500000000000E+009;1.798866838216782E-001;1.571914739906788E-002;-3.041631542146206E-003;-4.944920539855957E-003;
2.411666666666667E+009;1.791955083608627E-001;1.341699715703726E-002;-3.164121182635427E-003;-4.820153117179871E-003;
2.411833333333334E+009;1.786565035581589E-001;1.092226617038250E-002;-3.248398657888174E-003;-4.727458581328392E-003;
2.412000000000000E+009;1.784507334232330E-001;8.092169649899006E-003;-3.333006752654910E-003;-4.594196565449238E-003;
2.412166666666667E+009;1.782613843679428E-001;5.651509854942560E-003;-3.443036926910281E-003;-4.645397886633873E-003;
2.412333333333334E+009;1.781310141086578E-001;2.877285238355398E-003;-3.528024302795529E-003;-4.657391924411058E-003;
2.412500000000000E+009;1.783604472875595E-001;2.340276987524703E-004;-3.698382060974836E-003;-4.340403713285923E-003;
2.412666666666667E+009;1.786748319864273E-001;-2.446732018142939E-003;-3.746544942259789E-003;-4.439062438905239E-003;
2.412833333333334E+009;1.791161447763443E-001;-5.141235422343016E-003;-3.928340505808592E-003;-4.336006939411163E-003;
2.413000000000000E+009;1.796277016401291E-001;-7.723627611994743E-003;-4.128149710595608E-003;-4.338224884122610E-003;
2.413166666666667E+009;1.802278459072113E-001;-1.021681819111109E-002;-4.044884350150824E-003;-4.246593452990055E-003;
2.413333333333334E+009;1.812191456556320E-001;-1.284351199865341E-002;-4.219460301101208E-003;-4.286149051040411E-003;
2.413500000000000E+009;1.819370985031128E-001;-1.546166371554136E-002;-4.337681923061609E-003;-4.063949454575777E-003;
2.413666666666667E+009;1.831205189228058E-001;-1.779483072459698E-002;-4.520552232861519E-003;-4.003425128757954E-003;
2.413833333333334E+009;1.841077059507370E-001;-2.005664445459843E-002;-4.816625267267227E-003;-3.791461233049631E-003;
2.414000000000000E+009;1.851661056280136E-001;-2.211502194404602E-002;-4.986134823411703E-003;-3.773036412894726E-003;
2.414166666666667E+009;1.863652765750885E-001;-2.425990626215935E-002;-5.193657707422972E-003;-3.503639716655016E-003;
2.414333333333334E+009;1.875183582305908E-001;-2.666445262730122E-002;-5.388267803937197E-003;-3.390533849596977E-003;
2.414500000000000E+009;1.889834254980087E-001;-2.820641361176968E-002;-5.523169878870249E-003;-3.141961060464382E-003;
2.414666666666667E+009;1.899642050266266E-001;-2.991286851465702E-002;-5.785738117992878E-003;-2.995059126988053E-003;
2.414833333333334E+009;1.913509368896484E-001;-3.142190724611282E-002;-5.665895529091358E-003;-2.795110223814845E-003;
2.415000000000000E+009;1.926442384719849E-001;-3.282131999731064E-002;-5.910362116992474E-003;-2.377996919676662E-003;
2.415166666666667E+009;1.941347420215607E-001;-3.401984646916390E-002;-6.067564710974693E-003;-2.291276119649410E-003;
2.415333333333334E+009;1.954725682735443E-001;-3.528400138020515E-002;-6.141568068414927E-003;-2.101704012602568E-003;
2.415500000000000E+009;1.967149078845978E-001;-3.609949350357056E-002;-6.094655953347683E-003;-1.789804664440453E-003;
2.415666666666667E+009;1.980444192886353E-001;-3.710099309682846E-002;-6.157869007438421E-003;-1.569772604852915E-003;
2.415833333333334E+009;1.990497112274170E-001;-3.783266618847847E-002;-6.156699266284704E-003;-1.398810301907361E-003;
2.416000000000000E+009;2.000612765550613E-001;-3.843256086111069E-002;-6.127044558525085E-003;-1.350330072455108E-003;
2.416166666666667E+009;2.011115998029709E-001;-3.902165219187737E-002;-6.271149031817913E-003;-1.056238776072860E-003;
2.416333333333334E+009;2.019759267568588E-001;-3.926740586757660E-002;-6.414630915969610E-003;-8.862971444614232E-004;
2.416500000000000E+009;2.028025984764099E-001;-3.949686884880066E-002;-6.402133964002132E-003;-6.766825099475682E-004;
2.416666666666667E+009;2.033197581768036E-001;-3.981899842619896E-002;-6.459249649196863E-003;-4.458316252566874E-004;
2.416833333333334E+009;2.038621306419373E-001;-3.973605111241341E-002;-6.313145160675049E-003;-2.065720327664167E-004;
2.417000000000000E+009;2.042364180088043E-001;-3.968944028019905E-002;-6.539150606840849E-003;1.075487307389267E-005;
2.417166666666667E+009;2.042617201805115E-001;-3.940641507506371E-002;-6.487979087978602E-003;2.213147963630036E-004;
2.417333333333334E+009;2.043403983116150E-001;-3.911865875124931E-002;-6.468660198152065E-003;5.158315761946142E-004;
2.417500000000000E+009;2.043151259422302E-001;-3.895213454961777E-002;-6.567672360688448E-003;6.561406771652401E-004;
2.417666666666667E+009;2.039684951305389E-001;-3.842708840966225E-002;-6.539562251418829E-003;1.102461712434888E-003;
2.417833333333334E+009;2.037864029407501E-001;-3.809950128197670E-002;-6.445663515478373E-003;1.289002597332001E-003;
2.418000000000000E+009;2.034189552068710E-001;-3.754319623112679E-002;-6.288350559771061E-003;1.490452676080167E-003;
2.418166666666667E+009;2.027405500411987E-001;-3.724417835474014E-002;-6.229654885828495E-003;1.943190116435289E-003;
2.418333333333334E+009;2.021079361438751E-001;-3.671264275908470E-002;-6.243225187063217E-003;2.036063466221094E-003;
2.418500000000000E+009;2.012901306152344E-001;-3.640425950288773E-002;-6.096482276916504E-003;2.328202361240983E-003;
2.418666666666667E+009;2.005162984132767E-001;-3.603951260447502E-002;-6.075367797166109E-003;2.439751289784908E-003;
2.418833333333334E+009;1.993638873100281E-001;-3.591122478246689E-002;-6.022844929248095E-003;2.852552570402622E-003;
2.419000000000000E+009;1.982433348894119E-001;-3.586407005786896E-002;-5.689272191375494E-003;3.014538902789354E-003;
2.419166666666667E+009;1.970729827880859E-001;-3.583133220672607E-002;-5.559457931667566E-003;3.117704996839166E-003;
2.419333333333334E+009;1.957266926765442E-001;-3.610363602638245E-002;-5.332507658749819E-003;3.199757309630513E-003;
2.419500000000000E+009;1.943041533231735E-001;-3.620315715670586E-002;-5.329051055014134E-003;3.514925017952919E-003;
2.419666666666667E+009;1.927018016576767E-001;-3.680266067385674E-002;-4.996203817427158E-003;3.644822165369988E-003;
2.419833333333334E+009;1.911199241876602E-001;-3.718842193484306E-002;-4.823338240385056E-003;3.770757932215929E-003;
2.420000000000000E+009;1.894650906324387E-001;-3.773458302021027E-002;-4.628057125955820E-003;3.719338215887547E-003;
2.420166666666667E+009;1.878668516874313E-001;-3.866710886359215E-002;-4.564931150525808E-003;3.931042738258839E-003;
2.420333333333334E+009;1.861352324485779E-001;-3.954096511006355E-002;-4.478537011891604E-003;3.754953853785992E-003;
2.420500000000000E+009;1.841921061277390E-001;-4.078593850135803E-002;-4.321204498410225E-003;4.013769794255495E-003;
2.420666666666667E+009;1.823114156723023E-001;-4.170878604054451E-002;-4.192281980067492E-003;3.961008973419666E-003;
2.420833333333334E+009;1.806859225034714E-001;-4.315384104847908E-002;-4.098358098417521E-003;3.908332437276840E-003;
2.421000000000000E+009;1.790879815816879E-001;-4.452634602785111E-002;-4.186519421637058E-003;4.125118255615234E-003;
2.421166666666667E+009;1.773904114961624E-001;-4.601677879691124E-002;-4.237233661115170E-003;4.204186145216227E-003;
2.421333333333334E+009;1.755460500717163E-001;-4.756630584597588E-002;-4.053440876305103E-003;4.503690637648106E-003;
2.421500000000000E+009;1.739390343427658E-001;-4.944592341780663E-002;-3.998885396867991E-003;4.342403728514910E-003;
2.421666666666667E+009;1.724947243928909E-001;-5.123320594429970E-002;-3.890354884788394E-003;4.727643914520741E-003;
2.421833333333334E+009;1.710395365953445E-001;-5.309114232659340E-002;-3.733155783265829E-003;4.997461568564177E-003;
2.422000000000000E+009;1.697950363159180E-001;-5.499220266938210E-002;-3.706548130139709E-003;5.126821808516979E-003;
2.422166666666667E+009;1.687452644109726E-001;-5.719145014882088E-002;-3.589147469028831E-003;5.140985362231731E-003;
2.422333333333334E+009;1.675493121147156E-001;-5.915815755724907E-002;-3.385928925126791E-003;5.538154859095812E-003;
2.422500000000000E+009;1.666067540645599E-001;-6.121019646525383E-002;-3.160397289320827E-003;5.902748554944992E-003;
2.422666666666667E+009;1.658424735069275E-001;-6.331362575292587E-002;-2.983729820698500E-003;5.831775721162558E-003;
2.422833333333334E+009;1.652106791734695E-001;-6.567423045635223E-002;-2.532509388402104E-003;6.020568311214447E-003;
2.423000000000000E+009;1.645736545324326E-001;-6.781790405511856E-002;-2.423743018880487E-003;6.189122796058655E-003;
2.423166666666667E+009;1.641451716423035E-001;-7.000762969255447E-002;-2.017791150137782E-003;6.280653644353151E-003;
2.423333333333334E+009;1.637639850378037E-001;-7.219757884740830E-002;-1.775285229086876E-003;6.424586288630962E-003;
2.423500000000000E+009;1.634941101074219E-001;-7.429887354373932E-002;-1.473341253586114E-003;6.342774257063866E-003;
2.423666666666667E+009;1.637398749589920E-001;-7.630050927400589E-002;-1.082773203961551E-003;6.399562116712332E-003;
2.423833333333334E+009;1.635123193264008E-001;-7.836034148931503E-002;-6.570172263309360E-004;6.418657954782248E-003;
2.424000000000000E+009;1.637693047523499E-001;-8.047411590814591E-002;-5.145122995600104E-004;6.322160363197327E-003;
2.424166666666667E+009;1.638340502977371E-001;-8.235546946525574E-002;-6.588117685168982E-005;6.144685205072165E-003;
2.424333333333334E+009;1.641907095909119E-001;-8.407824486494064E-002;1.030223211273551E-004;6.125622428953648E-003;
2.424500000000000E+009;1.646831035614014E-001;-8.614704757928848E-002;3.413790254853666E-004;6.037463434040546E-003;
2.424666666666667E+009;1.650862842798233E-001;-8.758796751499176E-002;4.314122488722205E-004;5.857442039996386E-003;
2.424833333333334E+009;1.657394468784332E-001;-8.914902061223984E-002;6.441206787712872E-004;5.601915996521711E-003;
2.425000000000000E+009;1.663250923156738E-001;-9.053466469049454E-002;8.658636943437159E-004;5.622940603643656E-003;
2.425166666666667E+009;1.667768955230713E-001;-9.186827391386032E-002;1.010596286505461E-003;5.323482211679220E-003;
2.425333333333334E+009;1.675002425909042E-001;-9.306491911411285E-002;1.352680381387472E-003;5.420289468020201E-003;
2.425500000000000E+009;1.680441051721573E-001;-9.416352212429047E-002;1.385366544127464E-003;5.178269464522600E-003;
2.425666666666667E+009;1.687166988849640E-001;-9.516294300556183E-002;1.460865605622530E-003;4.936791490763426E-003;
2.425833333333334E+009;1.692326664924622E-001;-9.610684216022492E-002;1.542818034067750E-003;4.934266675263643E-003;
2.426000000000000E+009;1.701166331768036E-001;-9.667389094829559E-002;1.653034705668688E-003;4.796785768121481E-003;
2.426166666666667E+009;1.707733273506165E-001;-9.737065434455872E-002;1.653775922022760E-003;4.620411433279514E-003;
2.426333333333334E+009;1.712676882743835E-001;-9.810996800661087E-002;1.750188064761460E-003;4.686733707785606E-003;
2.426500000000000E+009;1.718734800815582E-001;-9.846590459346771E-002;1.767184352502227E-003;4.517300054430962E-003;
2.426666666666667E+009;1.724856197834015E-001;-9.894488751888275E-002;1.864251447841525E-003;4.528841935098171E-003;
2.426833333333334E+009;1.730646193027496E-001;-9.923063963651657E-002;1.960994675755501E-003;4.385170526802540E-003;
2.427000000000000E+009;1.733684241771698E-001;-9.953768551349640E-002;2.092967508360744E-003;4.417377058416605E-003;
2.427166666666667E+009;1.738222837448120E-001;-9.969510883092880E-002;2.131572226062417E-003;4.346366971731186E-003;
2.427333333333334E+009;1.740210503339768E-001;-1.000581085681915E-001;2.165304962545633E-003;4.287356510758400E-003;
2.427500000000000E+009;1.740961074829102E-001;-1.002609059214592E-001;2.405537059530616E-003;4.098426550626755E-003;
2.427666666666667E+009;1.741227358579636E-001;-1.002291962504387E-001;2.297427505254746E-003;4.036635626107454E-003;
