# Version 1.00
#
freq[Hz];re:Trc1_S11;im:Trc1_S11;re:Trc2_S21;im:Trc2_S21;
2.400000000000000E+009;1.583566069602966E-001;6.225865706801415E-002;-1.268137129954994E-003;-1.190899987705052E-003;
2.400166666666667E+009;1.581348329782486E-001;6.077678129076958E-002;-1.217006123624742E-003;-1.162245171144605E-003;
2.400333333333334E+009;1.580599099397659E-001;5.898536369204521E-002;-1.223961124196649E-003;-1.125548966228962E-003;
2.400500000000000E+009;1.581485569477081E-001;5.699242278933525E-002;-1.192897441796958E-003;-1.019078539684415E-003;
2.400666666666667E+009;1.579526364803314E-001;5.506930872797966E-002;-1.235121977515519E-003;-9.628820698708296E-004;
2.400833333333334E+009;1.580695956945419E-001;5.310615897178650E-002;-1.129269367083907E-003;-1.058725756593049E-003;
2.401000000000000E+009;1.582088172435761E-001;5.086679011583328E-002;-1.192504772916436E-003;-9.328969754278660E-004;
2.401166666666667E+009;1.585025191307068E-001;4.891113564372063E-002;-1.222947379574180E-003;-8.200234151445329E-004;
2.401333333333334E+009;1.584251374006271E-001;4.673185572028160E-002;-1.017108676023781E-003;-7.811912801116705E-004;
2.401500000000000E+009;1.589041948318481E-001;4.478095099329948E-002;-1.138126710429788E-003;-7.661660783924162E-004;
2.401666666666667E+009;1.592132598161697E-001;4.277928918600082E-002;-1.147048082202673E-003;-5.203271866776049E-004;
2.401833333333334E+009;1.596610844135284E-001;4.066915065050125E-002;-1.114931423217058E-003;-7.334869587793946E-004;
2.402000000000000E+009;1.599260270595551E-001;3.867716342210770E-002;-1.113464473746717E-003;-5.796224577352405E-004;
2.402166666666667E+009;1.604098230600357E-001;3.672934323549271E-002;-1.142510911449790E-003;-5.611739470623434E-004;
2.402333333333334E+009;1.608994603157044E-001;3.495256975293160E-002;-1.081950613297522E-003;-3.985012008342892E-004;
2.402500000000000E+009;1.617816835641861E-001;3.303943574428558E-002;-9.000570862554014E-004;-3.598895855247974E-004;
2.402666666666667E+009;1.624226570129395E-001;3.150811046361923E-002;-8.427744614891708E-004;-3.868025087285787E-004;
2.402833333333334E+009;1.630695313215256E-001;2.965053170919418E-002;-9.066922357305884E-004;-3.834503586404026E-004;
2.403000000000000E+009;1.637877523899078E-001;2.797028422355652E-002;-7.572875474579632E-004;-2.768540580291301E-004;
2.403166666666667E+009;1.647530794143677E-001;2.631269022822380E-002;-7.872437709011138E-004;-3.832048969343305E-004;
2.403333333333334E+009;1.657292842864990E-001;2.498688548803330E-002;-7.821913459338248E-004;-2.609610965009779E-004;
2.403500000000000E+009;1.665471345186234E-001;2.354924753308296E-002;-6.324759451672435E-004;-2.689446555450559E-004;
2.403666666666667E+009;1.674983054399490E-001;2.200799994170666E-002;-6.927289068698883E-004;-2.970875357277691E-004;
2.403833333333334E+009;1.684850156307221E-001;2.074428275227547E-002;-5.458837258629501E-004;-3.603546065278351E-004;
2.404000000000000E+009;1.694896370172501E-001;1.968819275498390E-002;-4.290234937798232E-004;-3.310792089905590E-004;
2.404166666666667E+009;1.703127026557922E-001;1.834635622799397E-002;-5.265370709821582E-004;-2.735012385528535E-004;
2.404333333333334E+009;1.712985485792160E-001;1.749742217361927E-002;-5.849308799952269E-004;-2.153794775949791E-004;
2.404500000000000E+009;1.722135841846466E-001;1.663271524012089E-002;-4.733041569124907E-004;-4.067313857376576E-004;
2.404666666666667E+009;1.731846332550049E-001;1.556838955730200E-002;-3.638749185483903E-004;-2.970946370624006E-004;
2.404833333333334E+009;1.741239726543427E-001;1.498874928802252E-002;-3.900367883034051E-004;-3.798131947405636E-004;
2.405000000000000E+009;1.748357713222504E-001;1.406310871243477E-002;-3.846923646051437E-004;-4.697878612205386E-004;
2.405166666666667E+009;1.758310943841934E-001;1.347078848630190E-002;-3.765751898754388E-004;-6.188141414895654E-004;
2.405333333333334E+009;1.765688806772232E-001;1.275967713445425E-002;-3.656967892311513E-004;-6.064219051040709E-004;
2.405500000000000E+009;1.773247867822647E-001;1.249847374856472E-002;-3.726242575794458E-004;-6.363241118378937E-004;
2.405666666666667E+009;1.779966205358505E-001;1.187542080879211E-002;-5.629294901154935E-004;-7.389752427116036E-004;
2.405833333333334E+009;1.784667968750000E-001;1.158169284462929E-002;-4.186590958852321E-004;-7.173464982770383E-004;
2.406000000000000E+009;1.790853738784790E-001;1.116210501641035E-002;-3.075699496548623E-004;-7.577594951726496E-004;
2.406166666666667E+009;1.794125288724899E-001;1.090109441429377E-002;-4.915183526463807E-004;-9.057785500772297E-004;
2.406333333333334E+009;1.800351440906525E-001;1.049233879894018E-002;-5.422568647190929E-004;-8.856648928485811E-004;
2.406500000000000E+009;1.802832484245300E-001;1.021675486117601E-002;-5.522468127310276E-004;-8.063969435170293E-004;
2.406666666666667E+009;1.803344041109085E-001;9.817615151405335E-003;-5.341385840438306E-004;-7.702037692070007E-004;
2.406833333333334E+009;1.805967539548874E-001;9.581050835549831E-003;-4.996143979951739E-004;-9.357015951536596E-004;
2.407000000000000E+009;1.806975156068802E-001;9.223778732120991E-003;-5.931715131737292E-004;-9.160295594483614E-004;
2.407166666666667E+009;1.808279454708099E-001;8.852734230458736E-003;-7.622020784765482E-004;-9.623357327654958E-004;
2.407333333333334E+009;1.806355863809586E-001;8.389613591134548E-003;-9.040375589393079E-004;-1.081911032088101E-003;
2.407500000000000E+009;1.805309355258942E-001;8.035976439714432E-003;-7.664113072678447E-004;-8.535463130101562E-004;
2.407666666666667E+009;1.803050488233566E-001;7.675972767174244E-003;-9.361937991343439E-004;-9.948799852281809E-004;
2.407833333333334E+009;1.797467619180679E-001;7.027392275631428E-003;-1.017219386994839E-003;-9.321023244410753E-004;
2.408000000000000E+009;1.795705705881119E-001;6.338812410831451E-003;-9.752827463671565E-004;-7.774379919283092E-004;
2.408166666666667E+009;1.790667623281479E-001;6.018051411956549E-003;-9.967779042199254E-004;-8.811734733171761E-004;
2.408333333333334E+009;1.786782443523407E-001;5.091818049550057E-003;-1.038194517605007E-003;-9.519666782580316E-004;
2.408500000000000E+009;1.780985146760941E-001;4.296361003071070E-003;-9.292119648307562E-004;-8.924652356654406E-004;
2.408666666666667E+009;1.775884628295898E-001;3.229058813303709E-003;-1.135915401391685E-003;-7.450426928699017E-004;
2.408833333333334E+009;1.768247634172440E-001;2.416515024378896E-003;-1.076810760423541E-003;-9.915997507050633E-004;
2.409000000000000E+009;1.759601533412933E-001;1.376815955154598E-003;-9.712374885566533E-004;-8.889866876415908E-004;
2.409166666666667E+009;1.756245195865631E-001;2.971670473925769E-004;-1.186722773127258E-003;-8.934359066188335E-004;
2.409333333333334E+009;1.749574989080429E-001;-1.015116809867322E-003;-1.242408878169954E-003;-8.296879823319614E-004;
2.409500000000000E+009;1.741000115871429E-001;-2.405250445008278E-003;-1.231612171977758E-003;-8.901342516764998E-004;
2.409666666666667E+009;1.733290702104569E-001;-3.733476623892784E-003;-1.265280297957361E-003;-9.512824472039938E-004;
2.409833333333334E+009;1.726704090833664E-001;-5.114683415740728E-003;-1.335995388217270E-003;-7.512671872973442E-004;
2.410000000000000E+009;1.721570938825607E-001;-6.570892408490181E-003;-1.408422132954001E-003;-9.324956918135285E-004;
2.410166666666667E+009;1.714538037776947E-001;-8.334876038134098E-003;-1.239196863025427E-003;-6.210337742231786E-004;
2.410333333333334E+009;1.708385497331619E-001;-9.947186335921288E-003;-1.435743877664208E-003;-8.620731532573700E-004;
2.410500000000000E+009;1.703504920005798E-001;-1.159668806940317E-002;-1.396969193592668E-003;-6.407766486518085E-004;
2.410666666666667E+009;1.696711331605911E-001;-1.357642188668251E-002;-1.339592156000435E-003;-7.702279835939407E-004;
2.410833333333334E+009;1.692554056644440E-001;-1.514026429504156E-002;-1.503452425822616E-003;-7.875093724578619E-004;
2.411000000000000E+009;1.689621508121491E-001;-1.692941412329674E-002;-1.518643926829100E-003;-9.743660921230912E-004;
2.411166666666667E+009;1.685541123151779E-001;-1.907270215451717E-002;-1.572292181663215E-003;-7.106746197678149E-004;
2.411333333333334E+009;1.683571338653565E-001;-2.081540226936340E-002;-1.605223747901619E-003;-6.781368865631521E-004;
2.411500000000000E+009;1.679390370845795E-001;-2.281510084867477E-002;-1.713415025733411E-003;-6.498922011815012E-004;
2.411666666666667E+009;1.679832190275192E-001;-2.471215836703777E-002;-1.696110120974481E-003;-7.622271659784019E-004;
2.411833333333334E+009;1.680103689432144E-001;-2.653012983500958E-002;-1.756753656081855E-003;-6.978782475925982E-004;
2.412000000000000E+009;1.681685000658035E-001;-2.856364846229553E-002;-1.791864051483572E-003;-5.933998618274927E-004;
2.412166666666667E+009;1.681600064039230E-001;-3.066402673721314E-002;-2.072124276310206E-003;-5.349862622097135E-004;
2.412333333333334E+009;1.684125214815140E-001;-3.240049630403519E-002;-2.036899561062455E-003;-5.851487512700260E-004;
2.412500000000000E+009;1.686638593673706E-001;-3.439423069357872E-002;-2.201028168201447E-003;-4.713361558970064E-004;
2.412666666666667E+009;1.690255999565125E-001;-3.643630445003510E-002;-2.163810655474663E-003;-4.605222493410111E-004;
2.412833333333334E+009;1.692418158054352E-001;-3.805536404252052E-002;-2.251740312203765E-003;-4.133060283493251E-004;
2.413000000000000E+009;1.697032898664475E-001;-3.976823389530182E-002;-2.305879490450025E-003;-2.466320001985878E-004;
2.413166666666667E+009;1.700277477502823E-001;-4.158758372068405E-002;-2.430769382044673E-003;-2.238622400909662E-004;
2.413333333333334E+009;1.704315990209580E-001;-4.334143921732903E-002;-2.255464205518365E-003;-1.336341374553740E-004;
2.413500000000000E+009;1.711516082286835E-001;-4.496182873845100E-002;-2.523124916478992E-003;-1.963579125003889E-004;
2.413666666666667E+009;1.715461164712906E-001;-4.651251807808876E-002;-2.638136036694050E-003;-9.282680548494682E-005;
2.413833333333334E+009;1.719418019056320E-001;-4.805464670062065E-002;-2.641449449583888E-003;8.137820987030864E-005;
2.414000000000000E+009;1.725064516067505E-001;-4.936249181628227E-002;-2.717410447075963E-003;2.422865072730929E-004;
2.414166666666667E+009;1.733190268278122E-001;-5.069281905889511E-002;-2.702098572626710E-003;2.071272901957855E-004;
2.414333333333334E+009;1.737413555383682E-001;-5.192311480641365E-002;-2.797324443235993E-003;1.938128116307780E-004;
2.414500000000000E+009;1.745093017816544E-001;-5.313209816813469E-002;-2.759649651125073E-003;4.572855250444263E-004;
2.414666666666667E+009;1.749330013990402E-001;-5.407914891839027E-002;-2.750988351181150E-003;5.516447126865387E-004;
2.414833333333334E+009;1.752451956272125E-001;-5.511589720845223E-002;-2.737520728260279E-003;7.101413211785257E-004;
2.415000000000000E+009;1.757579445838928E-001;-5.589661374688149E-002;-2.805076073855162E-003;9.093960397876799E-004;
2.415166666666667E+009;1.762644499540329E-001;-5.660347640514374E-002;-3.073266707360745E-003;9.355417569167912E-004;
2.415333333333334E+009;1.767572164535523E-001;-5.742361769080162E-002;-3.004482481628656E-003;1.160238170996308E-003;
2.415500000000000E+009;1.769335269927979E-001;-5.806268379092217E-002;-2.824032446369529E-003;1.325536752119660E-003;
2.415666666666667E+009;1.771391183137894E-001;-5.853018537163734E-002;-2.844677306711674E-003;1.490366295911372E-003;
2.415833333333334E+009;1.775417029857636E-001;-5.917347222566605E-002;-2.867238596081734E-003;1.541428035125136E-003;
2.416000000000000E+009;1.773817688226700E-001;-5.950377508997917E-002;-2.890082774683833E-003;1.778836827725172E-003;
2.416166666666667E+009;1.777136325836182E-001;-5.984961241483688E-002;-2.819555578753352E-003;1.883436692878604E-003;
2.416333333333334E+009;1.777195632457733E-001;-6.018125638365746E-002;-2.782341791316867E-003;2.161468844860792E-003;
2.416500000000000E+009;1.774873286485672E-001;-6.051596999168396E-002;-2.814379287883639E-003;2.130897250026465E-003;
2.416666666666667E+009;1.772897243499756E-001;-6.055821850895882E-002;-2.709570573642850E-003;2.349357120692730E-003;
2.416833333333334E+009;1.771749854087830E-001;-6.101953983306885E-002;-2.642829203978181E-003;2.552076242864132E-003;
2.417000000000000E+009;1.765824854373932E-001;-6.119595840573311E-002;-2.480888040736318E-003;2.713799942284823E-003;
2.417166666666667E+009;1.763661205768585E-001;-6.125543266534805E-002;-2.377636265009642E-003;2.689776010811329E-003;
2.417333333333334E+009;1.757207363843918E-001;-6.141766905784607E-002;-2.393141621723771E-003;2.863552886992693E-003;
2.417500000000000E+009;1.750673055648804E-001;-6.194008141756058E-002;-2.089110203087330E-003;3.000669414177537E-003;
2.417666666666667E+009;1.744235903024674E-001;-6.190107017755508E-002;-2.176146255806088E-003;3.067213809117675E-003;
2.417833333333334E+009;1.735715121030808E-001;-6.224117428064346E-002;-1.985736889764667E-003;3.294057212769985E-003;
2.418000000000000E+009;1.727058291435242E-001;-6.260132789611816E-002;-1.851115608587861E-003;3.473131218925118E-003;
2.418166666666667E+009;1.717180609703064E-001;-6.278491765260696E-002;-1.729358802549541E-003;3.330439329147339E-003;
2.418333333333334E+009;1.710131913423538E-001;-6.321256607770920E-002;-1.425826456397772E-003;3.453076817095280E-003;
2.418500000000000E+009;1.699704825878143E-001;-6.346768140792847E-002;-1.277107279747725E-003;3.524574683979154E-003;
2.418666666666667E+009;1.689910739660263E-001;-6.404897570610046E-002;-1.189184375107288E-003;3.647782839834690E-003;
2.418833333333334E+009;1.676827520132065E-001;-6.463773548603058E-002;-1.053808722645044E-003;3.562024096027017E-003;
2.419000000000000E+009;1.664548963308334E-001;-6.522872298955917E-002;-9.665718534961343E-004;3.682278562337160E-003;
2.419166666666667E+009;1.652071774005890E-001;-6.590101122856140E-002;-7.387392688542604E-004;3.882102901116014E-003;
2.419333333333334E+009;1.639654189348221E-001;-6.651187688112259E-002;-5.975511739961803E-004;3.809462068602443E-003;
2.419500000000000E+009;1.627742648124695E-001;-6.747971475124359E-002;-4.546185082290322E-004;3.996198531240225E-003;
2.419666666666667E+009;1.617357581853867E-001;-6.846647709608078E-002;-3.109440731350333E-004;3.876751521602273E-003;
2.419833333333334E+009;1.604619771242142E-001;-6.914594769477844E-002;-1.981911627808586E-004;3.804496256634593E-003;
2.420000000000000E+009;1.594701111316681E-001;-7.022141665220261E-002;1.039802446030080E-004;3.810994094237685E-003;
2.420166666666667E+009;1.583301424980164E-001;-7.147043943405151E-002;-3.659694357338594E-006;3.850398585200310E-003;
2.420333333333334E+009;1.572770178318024E-001;-7.254895567893982E-002;3.190432616975159E-004;3.847168525680900E-003;
2.420500000000000E+009;1.563119888305664E-001;-7.374054938554764E-002;3.586611419450492E-004;3.660989226773381E-003;
2.420666666666667E+009;1.552367955446243E-001;-7.503929734230042E-002;6.241792580112815E-004;3.742837114259601E-003;
2.420833333333334E+009;1.543549597263336E-001;-7.665472477674484E-002;7.282719016075134E-004;3.720815526321530E-003;
2.421000000000000E+009;1.533527225255966E-001;-7.807532697916031E-002;6.824200390838087E-004;3.681627567857504E-003;
2.421166666666667E+009;1.526342928409576E-001;-7.951968163251877E-002;8.439507801085711E-004;3.549757413566113E-003;
2.421333333333334E+009;1.519796699285507E-001;-8.121007680892944E-002;9.103100164793432E-004;3.680177032947540E-003;
2.421500000000000E+009;1.513683199882507E-001;-8.267235010862351E-002;1.086397212930024E-003;3.572223708033562E-003;
2.421666666666667E+009;1.507464200258255E-001;-8.456014841794968E-002;1.273620640859008E-003;3.483738983049989E-003;
2.421833333333334E+009;1.505468785762787E-001;-8.612827956676483E-002;1.338293077424169E-003;3.480871906504035E-003;
2.422000000000000E+009;1.499873697757721E-001;-8.785176277160645E-002;1.353160594590008E-003;3.257485572248697E-003;
2.422166666666667E+009;1.497678905725479E-001;-8.961875736713409E-002;1.540220808237791E-003;3.442595712840557E-003;
2.422333333333334E+009;1.494413614273071E-001;-9.135704487562180E-002;1.597063266672194E-003;3.331986255943775E-003;
2.422500000000000E+009;1.494696140289307E-001;-9.278954565525055E-002;1.733731711283326E-003;3.357728477567434E-003;
2.422666666666667E+009;1.493271589279175E-001;-9.461965411901474E-002;1.727438648231328E-003;3.254403593018651E-003;
2.422833333333334E+009;1.493209451436997E-001;-9.646762162446976E-002;1.936933258548379E-003;3.014370799064636E-003;
2.423000000000000E+009;1.494886279106140E-001;-9.809668362140656E-002;2.060566097497940E-003;3.123139264062047E-003;
2.423166666666667E+009;1.496910750865936E-001;-9.978775680065155E-002;1.949940924532712E-003;2.967100590467453E-003;
2.423333333333334E+009;1.501293778419495E-001;-1.013124063611031E-001;2.219175221398473E-003;2.936789067462087E-003;
2.423500000000000E+009;1.502321511507034E-001;-1.028124615550041E-001;2.294817939400673E-003;3.046379890292883E-003;
2.423666666666667E+009;1.505130529403687E-001;-1.045278012752533E-001;2.402135636657476E-003;2.961327088996768E-003;
2.423833333333334E+009;1.509381383657455E-001;-1.057637780904770E-001;2.573641482740641E-003;2.836090745404363E-003;
2.424000000000000E+009;1.513381749391556E-001;-1.070681735873222E-001;2.593054203316569E-003;2.794828033074737E-003;
2.424166666666667E+009;1.517420262098312E-001;-1.086372360587120E-001;2.767252270132303E-003;2.740397350862622E-003;
2.424333333333334E+009;1.522571891546249E-001;-1.097488328814507E-001;2.786685246974230E-003;2.645068801939488E-003;
2.424500000000000E+009;1.528553962707520E-001;-1.108512282371521E-001;2.996618626639247E-003;2.657197182998061E-003;
2.424666666666667E+009;1.534305363893509E-001;-1.118779927492142E-001;3.087051678448916E-003;2.545102266594768E-003;
2.424833333333334E+009;1.537209302186966E-001;-1.128580719232559E-001;3.182386048138142E-003;2.506914315745235E-003;
2.425000000000000E+009;1.541695296764374E-001;-1.137871220707893E-001;3.350566606968641E-003;2.253963146358728E-003;
2.425166666666667E+009;1.545248776674271E-001;-1.147699207067490E-001;3.434297628700733E-003;2.185792196542025E-003;
2.425333333333334E+009;1.549080759286881E-001;-1.154709979891777E-001;3.482625354081392E-003;2.147301100194454E-003;
2.425500000000000E+009;1.553642898797989E-001;-1.161071956157684E-001;3.743315814062953E-003;1.906427089124918E-003;
2.425666666666667E+009;1.554630100727081E-001;-1.166917756199837E-001;3.724473295733333E-003;1.929157064296305E-003;
2.425833333333334E+009;1.557767689228058E-001;-1.172424256801605E-001;3.951396327465773E-003;1.806396874599159E-003;
2.426000000000000E+009;1.560707986354828E-001;-1.177987083792687E-001;3.845383413136005E-003;1.636983244679868E-003;
2.426166666666667E+009;1.563525199890137E-001;-1.181571260094643E-001;3.950940445065498E-003;1.484990585595369E-003;
2.426333333333334E+009;1.561883091926575E-001;-1.182978674769402E-001;3.947503864765167E-003;1.217622542753816E-003;
2.426500000000000E+009;1.563940346240997E-001;-1.186710447072983E-001;4.164772108197212E-003;1.103212474845350E-003;
2.426666666666667E+009;1.562987267971039E-001;-1.186765804886818E-001;4.103774204850197E-003;9.089824743568897E-004;
2.426833333333334E+009;1.560578495264053E-001;-1.188987940549851E-001;4.176400601863861E-003;9.996825829148293E-004;
2.427000000000000E+009;1.557749807834625E-001;-1.192882731556892E-001;4.425883758813143E-003;7.637795642949641E-004;
2.427166666666667E+009;1.554378122091293E-001;-1.191413998603821E-001;4.278529901057482E-003;5.198718863539398E-004;
2.427333333333334E+009;1.549802720546722E-001;-1.193900927901268E-001;4.230316262692213E-003;5.216021672822535E-004;
2.427500000000000E+009;1.545291990041733E-001;-1.194005385041237E-001;4.137113224714994E-003;1.230307534569874E-004;
2.427666666666667E+009;1.537813842296600E-001;-1.195236518979073E-001;4.306757822632790E-003;8.348766277777031E-005;
