# Version 1.00
#
freq[Hz];re:Trc1_S11;im:Trc1_S11;re:Trc2_S21;im:Trc2_S21;
2.400000000000000E+009;1.583093553781509E-001;6.237397715449333E-002;-1.024674740619957E-003;-1.081964466720820E-003;
2.400166666666667E+009;1.582852900028229E-001;6.076196953654289E-002;-9.749786113388836E-004;-1.212082803249359E-003;
2.400333333333334E+009;1.581376641988754E-001;5.886161327362061E-002;-1.128926291130483E-003;-1.068719313479960E-003;
2.400500000000000E+009;1.582909226417542E-001;5.702086910605431E-002;-9.151915437541902E-004;-1.011448097415268E-003;
2.400666666666667E+009;1.581145823001862E-001;5.489622429013252E-002;-1.039340044371784E-003;-9.522034088149667E-004;
2.400833333333334E+009;1.581736654043198E-001;5.309060588479042E-002;-1.033760607242584E-003;-9.483369649387896E-004;
2.401000000000000E+009;1.581409275531769E-001;5.101955682039261E-002;-1.062095398083329E-003;-8.305090595968068E-004;
2.401166666666667E+009;1.584594994783402E-001;4.886778071522713E-002;-1.080545829609036E-003;-8.660113671794534E-004;
2.401333333333334E+009;1.584854573011398E-001;4.686675220727921E-002;-1.088840304873884E-003;-7.195342332124710E-004;
2.401500000000000E+009;1.588991284370422E-001;4.478639736771584E-002;-1.016948139294982E-003;-7.323652389459312E-004;
2.401666666666667E+009;1.593731343746185E-001;4.276914149522781E-002;-1.002837787382305E-003;-7.611896144226193E-004;
2.401833333333334E+009;1.595941036939621E-001;4.084519296884537E-002;-9.740205714479089E-004;-5.835763295181096E-004;
2.402000000000000E+009;1.598678380250931E-001;3.874452412128449E-002;-9.390274644829333E-004;-5.494298529811204E-004;
2.402166666666667E+009;1.606037765741348E-001;3.677369654178619E-002;-8.810816798359156E-004;-6.613543955609202E-004;
2.402333333333334E+009;1.609165817499161E-001;3.486838191747665E-002;-9.302170365117490E-004;-5.056726513430476E-004;
2.402500000000000E+009;1.618340760469437E-001;3.313022479414940E-002;-8.616200648248196E-004;-4.860048939008266E-004;
2.402666666666667E+009;1.625369340181351E-001;3.126100450754166E-002;-7.083381060510874E-004;-5.020076059736311E-004;
2.402833333333334E+009;1.632026433944702E-001;2.969722449779511E-002;-8.843329269438982E-004;-3.347154124639928E-004;
2.403000000000000E+009;1.640834510326386E-001;2.800049446523190E-002;-7.076456095091999E-004;-4.051560827065259E-004;
2.403166666666667E+009;1.648686081171036E-001;2.642650157213211E-002;-7.395877619273961E-004;-3.275617200415582E-004;
2.403333333333334E+009;1.657508462667465E-001;2.504544332623482E-002;-6.185108213685453E-004;-3.465145127847791E-004;
2.403500000000000E+009;1.665694415569305E-001;2.350210398435593E-002;-7.115997141227126E-004;-3.860809083562344E-004;
2.403666666666667E+009;1.674025803804398E-001;2.214434742927551E-002;-6.173404981382191E-004;-5.434396443888545E-004;
2.403833333333334E+009;1.685941815376282E-001;2.073514461517334E-002;-5.527535686269403E-004;-4.734522663056850E-004;
2.404000000000000E+009;1.694191694259644E-001;1.978309266269207E-002;-5.139709683135152E-004;-3.239497600588948E-004;
2.404166666666667E+009;1.704374551773071E-001;1.862815394997597E-002;-4.965417901985347E-004;-5.126937176100910E-004;
2.404333333333334E+009;1.715263575315476E-001;1.763223670423031E-002;-4.187927115708590E-004;-5.298544419929385E-004;
2.404500000000000E+009;1.722849011421204E-001;1.652216538786888E-002;-4.115652700420469E-004;-5.315123125910759E-004;
2.404666666666667E+009;1.731707602739334E-001;1.569290645420551E-002;-4.343417531345040E-004;-3.658609057310969E-004;
2.404833333333334E+009;1.740732043981552E-001;1.489648688584566E-002;-3.723348199855536E-004;-5.597826093435288E-004;
2.405000000000000E+009;1.750616431236267E-001;1.410144381225109E-002;-2.902968553826213E-004;-6.710726302117109E-004;
2.405166666666667E+009;1.758514046669006E-001;1.342297531664372E-002;-3.867397026624531E-004;-7.366873323917389E-004;
2.405333333333334E+009;1.765876859426498E-001;1.279258634895086E-002;-2.396902855252847E-004;-5.265315412543714E-004;
2.405500000000000E+009;1.773951351642609E-001;1.236211322247982E-002;-2.801032969728112E-004;-7.681840797886252E-004;
2.405666666666667E+009;1.780982315540314E-001;1.188731193542481E-002;-3.175377787556499E-004;-9.312011534348130E-004;
2.405833333333334E+009;1.785726994276047E-001;1.157343760132790E-002;-3.071282408200204E-004;-7.778524886816740E-004;
2.406000000000000E+009;1.793065071105957E-001;1.107376720756292E-002;-2.975923707708716E-004;-7.844258216209710E-004;
2.406166666666667E+009;1.794902831315994E-001;1.088736113160849E-002;-3.781718260142952E-004;-8.539069676771760E-004;
2.406333333333334E+009;1.801251620054245E-001;1.040363591164351E-002;-4.890115815214813E-004;-8.075127843767405E-004;
2.406500000000000E+009;1.803100407123566E-001;1.017741113901138E-002;-4.950783331878483E-004;-9.749448508955538E-004;
2.406666666666667E+009;1.803351640701294E-001;9.902166202664375E-003;-4.588081792462617E-004;-1.050010672770441E-003;
2.406833333333334E+009;1.805106848478317E-001;9.461415931582451E-003;-6.990021793171763E-004;-9.946150239557028E-004;
2.407000000000000E+009;1.807333230972290E-001;9.109026752412319E-003;-7.392520201392472E-004;-1.051094965077937E-003;
2.407166666666667E+009;1.809760630130768E-001;8.884331211447716E-003;-7.614860078319907E-004;-9.859169367700815E-004;
2.407333333333334E+009;1.805711090564728E-001;8.280085399746895E-003;-6.835254607722163E-004;-9.313134360127151E-004;
2.407500000000000E+009;1.805146932601929E-001;7.974144071340561E-003;-7.651036721654236E-004;-9.434397798031569E-004;
2.407666666666667E+009;1.802255511283875E-001;7.660305127501488E-003;-8.745458908379078E-004;-1.030373852699995E-003;
2.407833333333334E+009;1.798462122678757E-001;7.004787214100361E-003;-9.538038284517825E-004;-1.167004811577499E-003;
2.408000000000000E+009;1.795014739036560E-001;6.194403860718012E-003;-1.036284840665758E-003;-9.553809068165720E-004;
2.408166666666667E+009;1.791388988494873E-001;5.963181145489216E-003;-1.062263734638691E-003;-1.051063300110400E-003;
2.408333333333334E+009;1.787504404783249E-001;5.071702878922224E-003;-1.019905088469386E-003;-9.710842277854681E-004;
2.408500000000000E+009;1.782829463481903E-001;4.268621094524860E-003;-1.007546670734882E-003;-1.014996902085841E-003;
2.408666666666667E+009;1.775312870740891E-001;3.406843403354287E-003;-1.166789676062763E-003;-1.134700258262456E-003;
2.408833333333334E+009;1.767774969339371E-001;2.267478033900261E-003;-1.174387987703085E-003;-9.094324195757508E-004;
2.409000000000000E+009;1.761167645454407E-001;1.372887636534870E-003;-1.324888551607728E-003;-8.287447271868587E-004;
2.409166666666667E+009;1.755107939243317E-001;1.134439007728361E-004;-1.267538056708872E-003;-9.710575104691088E-004;
2.409333333333334E+009;1.749325096607208E-001;-1.011452637612820E-003;-1.295328955166042E-003;-8.858111687004566E-004;
2.409500000000000E+009;1.741992235183716E-001;-2.537521068006754E-003;-1.258260919712484E-003;-8.027116418816149E-004;
2.409666666666667E+009;1.734609305858612E-001;-3.738204948604107E-003;-1.384694711305201E-003;-8.356988546438515E-004;
2.409833333333334E+009;1.727550923824310E-001;-5.149493459612131E-003;-1.315851113758981E-003;-8.204368641600013E-004;
2.410000000000000E+009;1.720457524061203E-001;-6.686560809612274E-003;-1.511890674009919E-003;-8.807325502857566E-004;
2.410166666666667E+009;1.713723242282867E-001;-8.319406770169735E-003;-1.417301129549742E-003;-7.337054703384638E-004;
2.410333333333334E+009;1.708627939224243E-001;-9.885770268738270E-003;-1.418862724676728E-003;-9.571210830472410E-004;
2.410500000000000E+009;1.703899502754211E-001;-1.162506081163883E-002;-1.515808980911970E-003;-8.068521274253726E-004;
2.410666666666667E+009;1.698815971612930E-001;-1.351342815905809E-002;-1.478065620176494E-003;-6.948211812414229E-004;
2.410833333333334E+009;1.693724840879440E-001;-1.519040763378143E-002;-1.605925383046269E-003;-8.043614216148853E-004;
2.411000000000000E+009;1.691110581159592E-001;-1.695132814347744E-002;-1.665015355683863E-003;-7.313014939427376E-004;
2.411166666666667E+009;1.687135696411133E-001;-1.896749995648861E-002;-1.690215663984418E-003;-7.245343294925988E-004;
2.411333333333334E+009;1.684365123510361E-001;-2.077013626694679E-002;-1.555832917802036E-003;-7.559153600595892E-004;
2.411500000000000E+009;1.681360304355621E-001;-2.280888147652149E-002;-1.815117895603180E-003;-7.563533727079630E-004;
2.411666666666667E+009;1.681559532880783E-001;-2.468888647854328E-002;-1.950577483512461E-003;-7.979265647009015E-004;
2.411833333333334E+009;1.681166440248489E-001;-2.655122056603432E-002;-1.866916776634753E-003;-6.991839036345482E-004;
2.412000000000000E+009;1.681930422782898E-001;-2.869552560150623E-002;-1.910825958475471E-003;-6.545817013829947E-004;
2.412166666666667E+009;1.681666076183319E-001;-3.056563809514046E-002;-2.007291419431567E-003;-7.028934778645635E-004;
2.412333333333334E+009;1.687320917844772E-001;-3.248057886958122E-002;-2.060986356809735E-003;-7.092503365129232E-004;
2.412500000000000E+009;1.686734110116959E-001;-3.439874202013016E-002;-2.182019641622901E-003;-6.844167364761233E-004;
2.412666666666667E+009;1.688311547040939E-001;-3.633037954568863E-002;-2.133279806002975E-003;-4.707321349997073E-004;
2.412833333333334E+009;1.692433059215546E-001;-3.822879865765572E-002;-2.326629823073745E-003;-2.571296645328403E-004;
2.413000000000000E+009;1.696341484785080E-001;-3.991927951574326E-002;-2.657176461070776E-003;-3.882217279169709E-004;
2.413166666666667E+009;1.702635884284973E-001;-4.173395410180092E-002;-2.617048332467675E-003;-2.798128116410226E-004;
2.413333333333334E+009;1.705728769302368E-001;-4.327587038278580E-002;-2.586746122688055E-003;-2.925294211308938E-005;
2.413500000000000E+009;1.711411327123642E-001;-4.503929987549782E-002;-2.591567346826196E-003;-1.929015998030081E-004;
2.413666666666667E+009;1.716996878385544E-001;-4.657008871436119E-002;-2.709432737901807E-003;-7.442191645168350E-007;
2.413833333333334E+009;1.722347289323807E-001;-4.808003082871437E-002;-2.720004180446267E-003;1.824345672503114E-004;
2.414000000000000E+009;1.726321727037430E-001;-4.944501072168350E-002;-2.572724130004644E-003;1.294870453421027E-004;
2.414166666666667E+009;1.732677966356278E-001;-5.075924843549728E-002;-2.734827343374491E-003;3.838674456346780E-004;
2.414333333333334E+009;1.738179922103882E-001;-5.197409167885780E-002;-2.893435535952449E-003;4.856010782532394E-004;
2.414500000000000E+009;1.745595037937164E-001;-5.307962372899056E-002;-3.005144186317921E-003;6.458483403548598E-004;
2.414666666666667E+009;1.749124228954315E-001;-5.401952192187309E-002;-2.973037073388696E-003;7.701833965256810E-004;
2.414833333333334E+009;1.753686219453812E-001;-5.518501996994019E-002;-2.951948437839747E-003;8.763165678828955E-004;
2.415000000000000E+009;1.758140772581101E-001;-5.589589849114418E-002;-3.010914195328951E-003;8.629338117316365E-004;
2.415166666666667E+009;1.761743575334549E-001;-5.673905834555626E-002;-2.991104265674949E-003;1.064290525391698E-003;
2.415333333333334E+009;1.766895055770874E-001;-5.754853785037994E-002;-3.032420994713903E-003;1.236837124451995E-003;
2.415500000000000E+009;1.769552975893021E-001;-5.800765380263329E-002;-3.003055928274989E-003;1.296496018767357E-003;
2.415666666666667E+009;1.772626787424088E-001;-5.863559618592262E-002;-3.025338752195239E-003;1.505119376815856E-003;
2.415833333333334E+009;1.774931102991104E-001;-5.909638106822968E-002;-3.169828327372670E-003;1.549349515698850E-003;
2.416000000000000E+009;1.775381565093994E-001;-5.952212214469910E-002;-2.986825304105878E-003;1.714439014904201E-003;
2.416166666666667E+009;1.777984052896500E-001;-5.994658917188644E-002;-2.825934905558825E-003;2.074094722047448E-003;
2.416333333333334E+009;1.776920109987259E-001;-6.010824441909790E-002;-3.019730327650905E-003;2.155624097213149E-003;
2.416500000000000E+009;1.775493919849396E-001;-6.044576317071915E-002;-2.780903130769730E-003;2.150799846276641E-003;
2.416666666666667E+009;1.773896366357803E-001;-6.062002852559090E-002;-2.778965746983886E-003;2.515277359634638E-003;
2.416833333333334E+009;1.771315783262253E-001;-6.106156110763550E-002;-2.603458706289530E-003;2.496691886335611E-003;
2.417000000000000E+009;1.766043305397034E-001;-6.120914220809937E-002;-2.536176471039653E-003;2.670972840860486E-003;
2.417166666666667E+009;1.761943697929382E-001;-6.124646961688995E-002;-2.434344962239265E-003;2.886108588427305E-003;
2.417333333333334E+009;1.757642924785614E-001;-6.145704910159111E-002;-2.315933816134930E-003;2.962077734991908E-003;
2.417500000000000E+009;1.750546246767044E-001;-6.191769242286682E-002;-2.165849320590496E-003;3.089488949626684E-003;
2.417666666666667E+009;1.744575351476669E-001;-6.194591522216797E-002;-1.990544376894832E-003;3.339523915201426E-003;
2.417833333333334E+009;1.736633330583572E-001;-6.216787174344063E-002;-1.813720446079969E-003;3.346918849274516E-003;
2.418000000000000E+009;1.727009266614914E-001;-6.260814517736435E-002;-1.773909432813525E-003;3.334289416670799E-003;
2.418166666666667E+009;1.718208342790604E-001;-6.272455304861069E-002;-1.687246724031866E-003;3.577219787985086E-003;
2.418333333333334E+009;1.709430068731308E-001;-6.309989839792252E-002;-1.514128642156720E-003;3.558210562914610E-003;
2.418500000000000E+009;1.698486506938934E-001;-6.364045292139053E-002;-1.409069634974003E-003;3.662555711343885E-003;
2.418666666666667E+009;1.690143495798111E-001;-6.407672166824341E-002;-1.173353637568653E-003;3.637922927737236E-003;
2.418833333333334E+009;1.675657033920288E-001;-6.467118114233017E-002;-1.007943181321025E-003;3.813325194641948E-003;
2.419000000000000E+009;1.663151383399963E-001;-6.516657769680023E-002;-8.915411890484393E-004;3.872865345329046E-003;
2.419166666666667E+009;1.652328968048096E-001;-6.585437804460526E-002;-8.587691118009388E-004;3.771406132727861E-003;
2.419333333333334E+009;1.639633029699326E-001;-6.639045476913452E-002;-6.023626192472875E-004;3.925668075680733E-003;
2.419500000000000E+009;1.627918928861618E-001;-6.743988394737244E-002;-3.860225551761687E-004;3.810325870290399E-003;
2.419666666666667E+009;1.618574559688568E-001;-6.833571195602417E-002;-3.454597026575357E-004;3.943569026887417E-003;
2.419833333333334E+009;1.604747325181961E-001;-6.914147734642029E-002;-9.720719390315935E-005;3.857113653793931E-003;
2.420000000000000E+009;1.594459861516953E-001;-7.019001245498657E-002;4.157797229709104E-005;3.845248138532043E-003;
2.420166666666667E+009;1.582473069429398E-001;-7.144999504089356E-002;7.955986802699044E-005;4.021600820124149E-003;
2.420333333333334E+009;1.571833938360214E-001;-7.252490520477295E-002;1.851428824011236E-004;3.871286520734429E-003;
2.420500000000000E+009;1.563023626804352E-001;-7.371969521045685E-002;3.920537710655481E-004;3.973833750933409E-003;
2.420666666666667E+009;1.551432460546494E-001;-7.508131116628647E-002;7.319693104363978E-004;3.952064551413059E-003;
2.420833333333334E+009;1.542997807264328E-001;-7.657679170370102E-002;6.401339196600020E-004;3.744548652321100E-003;
2.421000000000000E+009;1.534011662006378E-001;-7.813986390829086E-002;9.407603065483272E-004;3.781165927648544E-003;
2.421166666666667E+009;1.528061032295227E-001;-7.963837683200836E-002;1.064517186023295E-003;3.827857552096248E-003;
2.421333333333334E+009;1.520511209964752E-001;-8.119289577007294E-002;1.107899937778711E-003;3.704834729433060E-003;
2.421500000000000E+009;1.514505594968796E-001;-8.266551792621613E-002;1.275621121749282E-003;3.563448553904891E-003;
2.421666666666667E+009;1.509534716606140E-001;-8.438999950885773E-002;1.316394540481269E-003;3.657526569440961E-003;
2.421833333333334E+009;1.504298597574234E-001;-8.612848818302155E-002;1.452744472771883E-003;3.638108260929585E-003;
2.422000000000000E+009;1.501083225011826E-001;-8.778477460145950E-002;1.519757905043662E-003;3.436610102653503E-003;
2.422166666666667E+009;1.497838348150253E-001;-8.962363749742508E-002;1.692371093668044E-003;3.311187261715531E-003;
2.422333333333334E+009;1.496820747852325E-001;-9.130481630563736E-002;1.722989953123033E-003;3.357931738719344E-003;
2.422500000000000E+009;1.494166105985642E-001;-9.301050007343292E-002;1.894651795737445E-003;3.348904661834240E-003;
2.422666666666667E+009;1.492884606122971E-001;-9.473834186792374E-002;1.974553102627397E-003;3.275599330663681E-003;
2.422833333333334E+009;1.493608057498932E-001;-9.651394933462143E-002;2.034680917859078E-003;3.128264332190156E-003;
2.423000000000000E+009;1.494505554437637E-001;-9.823268651962280E-002;2.073483075946569E-003;3.228094195947051E-003;
2.423166666666667E+009;1.496549844741821E-001;-9.988636523485184E-002;2.033079275861383E-003;3.216762328520417E-003;
2.423333333333334E+009;1.502104699611664E-001;-1.011944487690926E-001;2.409148961305618E-003;3.047305857762694E-003;
2.423500000000000E+009;1.502442210912705E-001;-1.029182448983192E-001;2.301127417013049E-003;2.934978343546391E-003;
2.423666666666667E+009;1.505149006843567E-001;-1.044973358511925E-001;2.338729565963149E-003;2.875377656891942E-003;
2.423833333333334E+009;1.510764956474304E-001;-1.058479994535446E-001;2.548832213506103E-003;2.897751983255148E-003;
2.424000000000000E+009;1.512909233570099E-001;-1.071247607469559E-001;2.788292942568660E-003;2.853342564776540E-003;
2.424166666666667E+009;1.517186462879181E-001;-1.084857210516930E-001;2.791456878185272E-003;2.744100289419293E-003;
2.424333333333334E+009;1.522405445575714E-001;-1.097258105874062E-001;2.916913013905287E-003;2.626990899443626E-003;
2.424500000000000E+009;1.527764201164246E-001;-1.109080165624619E-001;2.995940623804927E-003;2.735298825427890E-003;
2.424666666666667E+009;1.533727645874023E-001;-1.118016317486763E-001;3.148829797282815E-003;2.660104772076011E-003;
2.424833333333334E+009;1.536165028810501E-001;-1.129146441817284E-001;3.217972116544843E-003;2.433113520964980E-003;
2.425000000000000E+009;1.541973203420639E-001;-1.139111295342445E-001;3.375644562765956E-003;2.290234202519059E-003;
2.425166666666667E+009;1.545246988534927E-001;-1.146148890256882E-001;3.511722199618816E-003;2.224066760390997E-003;
2.425333333333334E+009;1.549534946680069E-001;-1.153525188565254E-001;3.508026944473386E-003;2.130066975951195E-003;
2.425500000000000E+009;1.553579121828079E-001;-1.161788254976273E-001;3.510824171826243E-003;1.984632574021816E-003;
2.425666666666667E+009;1.555975079536438E-001;-1.165929883718491E-001;3.698798594996333E-003;1.957396743819118E-003;
2.425833333333334E+009;1.558397263288498E-001;-1.171444654464722E-001;3.906722646206617E-003;1.728957751765847E-003;
2.426000000000000E+009;1.559957861900330E-001;-1.177061423659325E-001;3.906978759914637E-003;1.506329281255603E-003;
2.426166666666667E+009;1.563798785209656E-001;-1.179818809032440E-001;4.000516608357430E-003;1.487536705099046E-003;
2.426333333333334E+009;1.562650501728058E-001;-1.183876693248749E-001;4.161477088928223E-003;1.323429169133306E-003;
2.426500000000000E+009;1.563659161329269E-001;-1.186227649450302E-001;4.229526966810226E-003;1.240286161191762E-003;
2.426666666666667E+009;1.563505530357361E-001;-1.186097487807274E-001;4.210813902318478E-003;1.059488975442946E-003;
2.426833333333334E+009;1.560740023851395E-001;-1.188327521085739E-001;4.238587338477373E-003;8.496735244989395E-004;
2.427000000000000E+009;1.558516621589661E-001;-1.190680935978890E-001;4.135365132242441E-003;6.209634593687952E-004;
2.427166666666667E+009;1.554961800575256E-001;-1.191221550107002E-001;4.177003633230925E-003;6.990653928369284E-004;
2.427333333333334E+009;1.550752967596054E-001;-1.191765442490578E-001;4.271938931196928E-003;4.209909529890865E-004;
2.427500000000000E+009;1.544531583786011E-001;-1.193448454141617E-001;4.248843062669039E-003;2.751981955952942E-004;
2.427666666666667E+009;1.538680493831635E-001;-1.194481626152992E-001;4.308818839490414E-003;1.033634544000961E-004;
