# Version 1.00
#
freq[Hz];re:Trc1_S11;im:Trc1_S11;re:Trc2_S21;im:Trc2_S21;
2.400000000000000E+009;1.583395600318909E-001;6.249394640326500E-002;-1.219082158058882E-003;-1.286580576561391E-003;
2.400166666666667E+009;1.582937687635422E-001;6.065206974744797E-002;-1.070111989974976E-003;-1.123445690609515E-003;
2.400333333333334E+009;1.580021828413010E-001;5.889870598912239E-002;-1.040559611283243E-003;-1.065553398802877E-003;
2.400500000000000E+009;1.581550240516663E-001;5.688914284110069E-002;-1.089497003704310E-003;-1.067953649908304E-003;
2.400666666666667E+009;1.579105108976364E-001;5.502545088529587E-002;-9.305414278060198E-004;-9.617061004973948E-004;
2.400833333333334E+009;1.581601500511169E-001;5.311669409275055E-002;-1.198267797008157E-003;-8.293283754028380E-004;
2.401000000000000E+009;1.582874059677124E-001;5.104884877800942E-002;-1.003957819193602E-003;-8.568306220695376E-004;
2.401166666666667E+009;1.584074497222900E-001;4.875238239765167E-002;-1.133071025833488E-003;-7.349267834797502E-004;
2.401333333333334E+009;1.584942340850830E-001;4.685542359948158E-002;-1.105686998926103E-003;-7.807926158420742E-004;
2.401500000000000E+009;1.589938551187515E-001;4.468328505754471E-002;-8.330582641065121E-004;-8.048432646319270E-004;
2.401666666666667E+009;1.594059020280838E-001;4.293872043490410E-002;-1.085823867470026E-003;-5.353551823645830E-004;
2.401833333333334E+009;1.594652980566025E-001;4.077915102243424E-002;-9.680332732386887E-004;-6.674085743725300E-004;
2.402000000000000E+009;1.600452959537506E-001;3.876980021595955E-002;-9.711512830108404E-004;-6.008448544889689E-004;
2.402166666666667E+009;1.605766117572784E-001;3.677478805184364E-002;-9.214302408508956E-004;-4.426867526490241E-004;
2.402333333333334E+009;1.610879600048065E-001;3.488634899258614E-002;-1.012190012261272E-003;-4.751237866003066E-004;
2.402500000000000E+009;1.617565453052521E-001;3.307728469371796E-002;-8.653273689560592E-004;-3.691990568768233E-004;
2.402666666666667E+009;1.625083833932877E-001;3.133100643754005E-002;-1.164235058240593E-003;-2.864041889552027E-004;
2.402833333333334E+009;1.630866527557373E-001;2.955026738345623E-002;-8.788024424575269E-004;-3.910489031113684E-004;
2.403000000000000E+009;1.639582514762878E-001;2.799270488321781E-002;-6.994215073063970E-004;-4.433861759025604E-004;
2.403166666666667E+009;1.648101806640625E-001;2.639343217015266E-002;-6.679875659756362E-004;-3.142348141409457E-004;
2.403333333333334E+009;1.656986773014069E-001;2.496664226055145E-002;-6.836986285634339E-004;-4.164405690971762E-004;
2.403500000000000E+009;1.664900183677673E-001;2.354298904538155E-002;-4.849613178521395E-004;-3.069541126023978E-004;
2.403666666666667E+009;1.675878912210465E-001;2.217364124953747E-002;-4.964133840985596E-004;-3.203508094884455E-004;
2.403833333333334E+009;1.684337109327316E-001;2.084278874099255E-002;-5.051088519394398E-004;-2.594993275124580E-004;
2.404000000000000E+009;1.695068031549454E-001;1.968265883624554E-002;-3.999566833954305E-004;-5.096503882668912E-004;
2.404166666666667E+009;1.705026924610138E-001;1.851177401840687E-002;-5.922812270000577E-004;-4.260967252776027E-004;
2.404333333333334E+009;1.712132841348648E-001;1.758778281509876E-002;-3.573089488781989E-004;-4.646121524274349E-004;
2.404500000000000E+009;1.722893863916397E-001;1.646904461085796E-002;-3.555099538061768E-004;-3.869900829158723E-004;
2.404666666666667E+009;1.731512546539307E-001;1.562171615660191E-002;-4.112583701498807E-004;-4.131751193199307E-004;
2.404833333333334E+009;1.740541458129883E-001;1.488665677607060E-002;-1.637007371755317E-004;-5.126585019752383E-004;
2.405000000000000E+009;1.750549226999283E-001;1.407121866941452E-002;-3.403619630262256E-004;-5.585746839642525E-004;
2.405166666666667E+009;1.758321225643158E-001;1.355915796011686E-002;-4.611274343915284E-004;-4.396553558763117E-004;
2.405333333333334E+009;1.765709370374680E-001;1.278252247720957E-002;-3.735781356226653E-004;-6.334939389489591E-004;
2.405500000000000E+009;1.773207485675812E-001;1.233702991157770E-002;-4.157049406785518E-004;-7.897925097495318E-004;
2.405666666666667E+009;1.779775023460388E-001;1.206376217305660E-002;-3.685736155603081E-004;-7.387906662188470E-004;
2.405833333333334E+009;1.784708648920059E-001;1.151037588715553E-002;-2.557567495387048E-004;-6.213366286829114E-004;
2.406000000000000E+009;1.790743470191956E-001;1.113467570394278E-002;-4.705026512965560E-004;-8.259867317974567E-004;
2.406166666666667E+009;1.794415563344955E-001;1.086614467203617E-002;-5.387648125179112E-004;-9.461526060476899E-004;
2.406333333333334E+009;1.800296902656555E-001;1.051316037774086E-002;-4.805336648132652E-004;-6.907475180923939E-004;
2.406500000000000E+009;1.802168935537338E-001;1.020963490009308E-002;-6.103771156631410E-004;-8.779375348240137E-004;
2.406666666666667E+009;1.803952902555466E-001;9.992364794015884E-003;-5.450341268442571E-004;-8.920041145756841E-004;
2.406833333333334E+009;1.806884706020355E-001;9.581793099641800E-003;-5.675600841641426E-004;-9.760292014107108E-004;
2.407000000000000E+009;1.806304901838303E-001;9.191672317683697E-003;-6.644704262726009E-004;-1.011343440040946E-003;
2.407166666666667E+009;1.808038800954819E-001;8.941896259784699E-003;-6.780922994948924E-004;-1.077926950529218E-003;
2.407333333333334E+009;1.806299537420273E-001;8.264138363301754E-003;-8.690092945471406E-004;-1.086425385437906E-003;
2.407500000000000E+009;1.803668588399887E-001;8.069907315075398E-003;-7.614713977091014E-004;-9.006508043967187E-004;
2.407666666666667E+009;1.801951825618744E-001;7.696785964071751E-003;-8.761867647990584E-004;-9.533585980534554E-004;
2.407833333333334E+009;1.797495335340500E-001;7.034850772470236E-003;-8.889137534424663E-004;-8.760076598264277E-004;
2.408000000000000E+009;1.794488579034805E-001;6.385146174579859E-003;-9.340962278656662E-004;-1.063205883838236E-003;
2.408166666666667E+009;1.790665835142136E-001;5.894116591662169E-003;-1.056882087141275E-003;-9.533634874969721E-004;
2.408333333333334E+009;1.786945164203644E-001;5.047132261097431E-003;-8.775024907663465E-004;-8.587749907746911E-004;
2.408500000000000E+009;1.780556291341782E-001;4.266066476702690E-003;-1.067442470230162E-003;-1.028260216116905E-003;
2.408666666666667E+009;1.774701029062271E-001;3.337394911795855E-003;-1.103003160096705E-003;-9.854037780314684E-004;
2.408833333333334E+009;1.768311858177185E-001;2.337500918656588E-003;-1.144360867328942E-003;-8.816773770377040E-004;
2.409000000000000E+009;1.761592775583267E-001;1.420466811396182E-003;-1.078506000339985E-003;-8.936994126997888E-004;
2.409166666666667E+009;1.755086034536362E-001;2.148492785636336E-004;-1.223495346494019E-003;-8.804214885458350E-004;
2.409333333333334E+009;1.749152988195419E-001;-1.089393859729171E-003;-1.109900535084307E-003;-9.960313327610493E-004;
2.409500000000000E+009;1.741360127925873E-001;-2.320328494533896E-003;-1.238054712302983E-003;-8.652145043015480E-004;
2.409666666666667E+009;1.734688580036163E-001;-3.598702140152454E-003;-1.453059725463390E-003;-8.433921029791236E-004;
2.409833333333334E+009;1.727172881364822E-001;-5.087162367999554E-003;-1.365382107906044E-003;-8.673336124047637E-004;
2.410000000000000E+009;1.721786111593247E-001;-6.755556445568800E-003;-1.442684093490243E-003;-8.622910827398300E-004;
2.410166666666667E+009;1.715956479310989E-001;-8.198774419724941E-003;-1.384426956064999E-003;-7.993589388206601E-004;
2.410333333333334E+009;1.707497388124466E-001;-9.788908995687962E-003;-1.371665624901652E-003;-7.966228877194226E-004;
2.410500000000000E+009;1.703021675348282E-001;-1.151064317673445E-002;-1.478987280279398E-003;-8.633584948256612E-004;
2.410666666666667E+009;1.696885526180267E-001;-1.345712225884199E-002;-1.509095192886889E-003;-8.176576811820269E-004;
2.410833333333334E+009;1.694254130125046E-001;-1.516099460422993E-002;-1.617352245375514E-003;-8.653943077661097E-004;
2.411000000000000E+009;1.689756363630295E-001;-1.706415601074696E-002;-1.534758484922350E-003;-7.857409073039889E-004;
2.411166666666667E+009;1.686086952686310E-001;-1.903522014617920E-002;-1.617319881916046E-003;-7.754347752779722E-004;
2.411333333333334E+009;1.682484745979309E-001;-2.090124972164631E-002;-1.667053787969053E-003;-6.583121721632779E-004;
2.411500000000000E+009;1.681150794029236E-001;-2.275823615491390E-002;-1.617994741536677E-003;-5.898290546610951E-004;
2.411666666666667E+009;1.680372804403305E-001;-2.474696561694145E-002;-1.569578656926751E-003;-7.011566776782274E-004;
2.411833333333334E+009;1.678912043571472E-001;-2.672763727605343E-002;-1.768577145412564E-003;-7.387830992229283E-004;
2.412000000000000E+009;1.681060492992401E-001;-2.882912382483482E-002;-1.765816472470760E-003;-5.319007323123515E-004;
2.412166666666667E+009;1.681056618690491E-001;-3.074011765420437E-002;-1.864394987933338E-003;-6.948078516870737E-004;
2.412333333333334E+009;1.684159189462662E-001;-3.227290883660317E-002;-2.162688877433538E-003;-5.436373758129776E-004;
2.412500000000000E+009;1.685332804918289E-001;-3.440389782190323E-002;-2.036616904661059E-003;-5.481028347276151E-004;
2.412666666666667E+009;1.690227091312408E-001;-3.628556057810783E-002;-2.205492230132222E-003;-5.622515454888344E-004;
2.412833333333334E+009;1.693562567234039E-001;-3.812526166439056E-002;-2.349628601223230E-003;-2.529706398490816E-004;
2.413000000000000E+009;1.697645336389542E-001;-3.986742720007896E-002;-2.352818148210645E-003;-5.090666236355901E-004;
2.413166666666667E+009;1.700972765684128E-001;-4.154939949512482E-002;-2.490450395271182E-003;-3.058528527617455E-004;
2.413333333333334E+009;1.704484373331070E-001;-4.325868561863899E-002;-2.546177711337805E-003;-3.361387935001403E-004;
2.413500000000000E+009;1.709332019090653E-001;-4.498358070850372E-002;-2.518829889595509E-003;-1.232770591741428E-004;
2.413666666666667E+009;1.715811640024185E-001;-4.651077464222908E-002;-2.668345114216209E-003;-2.253168349852786E-005;
2.413833333333334E+009;1.719809174537659E-001;-4.798294603824616E-002;-2.737416420131922E-003;1.295941474381834E-004;
2.414000000000000E+009;1.725091040134430E-001;-4.951806738972664E-002;-2.747641876339912E-003;2.340959181310609E-004;
2.414166666666667E+009;1.732158362865448E-001;-5.069711059331894E-002;-2.635511569678783E-003;3.066431672777981E-004;
2.414333333333334E+009;1.737256050109863E-001;-5.194366723299027E-002;-2.772495150566101E-003;4.743363242596388E-004;
2.414500000000000E+009;1.744029521942139E-001;-5.308211222290993E-002;-2.891624113544822E-003;5.011938628740609E-004;
2.414666666666667E+009;1.748124063014984E-001;-5.404145270586014E-002;-2.948072971776128E-003;6.033037207089365E-004;
2.414833333333334E+009;1.753856241703033E-001;-5.501839518547058E-002;-2.911202376708388E-003;6.277048378251493E-004;
2.415000000000000E+009;1.757874935865402E-001;-5.586874857544899E-002;-2.993240719661117E-003;8.853174513205886E-004;
2.415166666666667E+009;1.762817502021790E-001;-5.686230212450028E-002;-2.969592344015837E-003;1.054976368322969E-003;
2.415333333333334E+009;1.766213178634644E-001;-5.747822672128677E-002;-3.183966502547264E-003;1.120798755437136E-003;
2.415500000000000E+009;1.770049929618835E-001;-5.793987959623337E-002;-3.044188721105456E-003;1.203141058795154E-003;
2.415666666666667E+009;1.772657483816147E-001;-5.851192027330399E-002;-2.967832377180457E-003;1.412673038430512E-003;
2.415833333333334E+009;1.774155497550964E-001;-5.913574248552322E-002;-3.042014315724373E-003;1.648942008614540E-003;
2.416000000000000E+009;1.773979365825653E-001;-5.948214977979660E-002;-2.926985500380397E-003;1.928795478306711E-003;
2.416166666666667E+009;1.776727586984634E-001;-5.984928086400032E-002;-3.020759206265211E-003;2.082756254822016E-003;
2.416333333333334E+009;1.776950806379318E-001;-6.019170582294464E-002;-2.786570461466909E-003;2.089562360197306E-003;
2.416500000000000E+009;1.775010228157044E-001;-6.055890768766403E-002;-2.799570094794035E-003;2.169314539059997E-003;
2.416666666666667E+009;1.772321164608002E-001;-6.069384887814522E-002;-2.803432522341609E-003;2.446969971060753E-003;
2.416833333333334E+009;1.771320551633835E-001;-6.094696745276451E-002;-2.697400748729706E-003;2.489445963874459E-003;
2.417000000000000E+009;1.766641587018967E-001;-6.123888865113258E-002;-2.615756820887327E-003;2.646703738719225E-003;
2.417166666666667E+009;1.762751191854477E-001;-6.129877269268036E-002;-2.443201141431928E-003;2.824813593178988E-003;
2.417333333333334E+009;1.757084280252457E-001;-6.145671755075455E-002;-2.314213197678328E-003;2.905203262344003E-003;
2.417500000000000E+009;1.750091463327408E-001;-6.183142587542534E-002;-2.161929151043296E-003;3.027296392247081E-003;
2.417666666666667E+009;1.744963526725769E-001;-6.187383830547333E-002;-2.095395233482122E-003;3.105728654190898E-003;
2.417833333333334E+009;1.736761927604675E-001;-6.214420497417450E-002;-1.951547805219889E-003;3.376045031473041E-003;
2.418000000000000E+009;1.727207154035568E-001;-6.258034706115723E-002;-1.782067585736513E-003;3.434618934988976E-003;
2.418166666666667E+009;1.716860979795456E-001;-6.279044598340988E-002;-1.726705697365105E-003;3.346181940287352E-003;
2.418333333333334E+009;1.709042042493820E-001;-6.320703774690628E-002;-1.480899401940405E-003;3.502026433125138E-003;
2.418500000000000E+009;1.697852015495300E-001;-6.364181637763977E-002;-1.371144200675190E-003;3.542758058756590E-003;
2.418666666666667E+009;1.688741147518158E-001;-6.413547694683075E-002;-1.323150005191565E-003;3.662562696263194E-003;
2.418833333333334E+009;1.675936877727509E-001;-6.470558047294617E-002;-1.088747754693031E-003;3.634665627032518E-003;
2.419000000000000E+009;1.664324849843979E-001;-6.514518707990646E-002;-9.506562491878867E-004;3.875863971188664E-003;
2.419166666666667E+009;1.653096079826355E-001;-6.592949479818344E-002;-6.839278503321111E-004;3.773455740883946E-003;
2.419333333333334E+009;1.638751626014710E-001;-6.644021719694138E-002;-6.604330264963210E-004;3.792562754824758E-003;
2.419500000000000E+009;1.628266870975494E-001;-6.733507663011551E-002;-3.769604954868555E-004;3.863029647618532E-003;
2.419666666666667E+009;1.617370396852493E-001;-6.836143136024475E-002;-2.768615086097270E-004;3.871466265991330E-003;
2.419833333333334E+009;1.605123132467270E-001;-6.928824633359909E-002;-1.336962595814839E-004;3.941064234822989E-003;
2.420000000000000E+009;1.594462543725967E-001;-7.027883082628250E-002;3.780724000534974E-005;3.793550888076425E-003;
2.420166666666667E+009;1.582391858100891E-001;-7.141754776239395E-002;8.780345524428412E-006;3.937688656151295E-003;
2.420333333333334E+009;1.571663320064545E-001;-7.263583689928055E-002;3.341091505717486E-004;3.837539348751307E-003;
2.420500000000000E+009;1.561736315488815E-001;-7.390714436769486E-002;4.129822482354939E-004;3.811445552855730E-003;
2.420666666666667E+009;1.552332043647766E-001;-7.507306337356567E-002;6.145534571260214E-004;3.778450889512897E-003;
2.420833333333334E+009;1.542930901050568E-001;-7.657536864280701E-002;6.933645345270634E-004;3.639491740614176E-003;
2.421000000000000E+009;1.534979045391083E-001;-7.821712642908096E-002;8.294102735817432E-004;3.737906925380230E-003;
2.421166666666667E+009;1.527116447687149E-001;-7.952239364385605E-002;8.774764719419181E-004;3.645451739430428E-003;
2.421333333333334E+009;1.520096063613892E-001;-8.122900873422623E-002;9.493706747889519E-004;3.665815806016326E-003;
2.421500000000000E+009;1.513317227363586E-001;-8.275639265775681E-002;1.096718595363200E-003;3.516294760629535E-003;
2.421666666666667E+009;1.508242189884186E-001;-8.429809659719467E-002;1.190489972941577E-003;3.597699338570237E-003;
2.421833333333334E+009;1.504582315683365E-001;-8.615123480558395E-002;1.515225390903652E-003;3.372316947206855E-003;
2.422000000000000E+009;1.499541550874710E-001;-8.785449713468552E-002;1.364180934615433E-003;3.377172863110900E-003;
2.422166666666667E+009;1.497797071933746E-001;-8.976409584283829E-002;1.497033634223044E-003;3.387285396456718E-003;
2.422333333333334E+009;1.495259106159210E-001;-9.113973379135132E-002;1.608073478564620E-003;3.255004761740565E-003;
2.422500000000000E+009;1.493542641401291E-001;-9.287980943918228E-002;1.589323626831174E-003;3.113265614956617E-003;
2.422666666666667E+009;1.492895632982254E-001;-9.468474239110947E-002;1.765973283909261E-003;3.106999443843961E-003;
2.422833333333334E+009;1.494400650262833E-001;-9.648658335208893E-002;1.977227628231049E-003;3.131325356662273E-003;
2.423000000000000E+009;1.494283527135849E-001;-9.809932112693787E-002;2.054901095107198E-003;3.150210948660970E-003;
2.423166666666667E+009;1.497017443180084E-001;-9.973440319299698E-002;2.147553255781531E-003;3.184861736372113E-003;
2.423333333333334E+009;1.500463932752609E-001;-1.011087074875832E-001;2.216036198660731E-003;3.043765667825937E-003;
2.423500000000000E+009;1.501837074756622E-001;-1.028711944818497E-001;2.337786136195064E-003;2.973040333017707E-003;
2.423666666666667E+009;1.503711789846420E-001;-1.045126989483833E-001;2.412954811006784E-003;2.858948195353150E-003;
2.423833333333334E+009;1.509188264608383E-001;-1.059003621339798E-001;2.648422028869391E-003;2.883535809814930E-003;
2.424000000000000E+009;1.513788700103760E-001;-1.071796417236328E-001;2.481060102581978E-003;2.857689978554845E-003;
2.424166666666667E+009;1.516682207584381E-001;-1.085791215300560E-001;2.680382225662470E-003;2.712821355089545E-003;
2.424333333333334E+009;1.523492783308029E-001;-1.097375601530075E-001;2.860441571101546E-003;2.664372092112899E-003;
2.424500000000000E+009;1.527904272079468E-001;-1.108950227499008E-001;2.776865847408772E-003;2.686243271455169E-003;
2.424666666666667E+009;1.533558219671249E-001;-1.118051335215569E-001;3.118828637525439E-003;2.535318490117788E-003;
2.424833333333334E+009;1.536922305822372E-001;-1.128560975193977E-001;3.242963226512075E-003;2.314202021807432E-003;
2.425000000000000E+009;1.541711688041687E-001;-1.137815937399864E-001;3.214729018509388E-003;2.355499891564250E-003;
2.425166666666667E+009;1.544546633958817E-001;-1.147235557436943E-001;3.329624887555838E-003;2.318580402061343E-003;
2.425333333333334E+009;1.549112498760223E-001;-1.154792755842209E-001;3.502784064039588E-003;2.271749544888735E-003;
2.425500000000000E+009;1.553822755813599E-001;-1.161313876509666E-001;3.476317506283522E-003;2.143857302144170E-003;
2.425666666666667E+009;1.555608361959457E-001;-1.166957244277000E-001;3.800168400630355E-003;1.973980804905295E-003;
2.425833333333334E+009;1.558918207883835E-001;-1.171431094408035E-001;3.879142459481955E-003;1.730995718389750E-003;
2.426000000000000E+009;1.560550481081009E-001;-1.177005395293236E-001;3.831575624644756E-003;1.502686529420316E-003;
2.426166666666667E+009;1.563260108232498E-001;-1.179844439029694E-001;3.887154394760728E-003;1.573937595821917E-003;
2.426333333333334E+009;1.561886072158814E-001;-1.183789968490601E-001;4.164984449744225E-003;1.425634138286114E-003;
2.426500000000000E+009;1.562721580266953E-001;-1.186650693416596E-001;3.991362638771534E-003;1.150380354374647E-003;
2.426666666666667E+009;1.563614010810852E-001;-1.187549307942390E-001;4.208527971059084E-003;1.054994063451886E-003;
2.426833333333334E+009;1.561831384897232E-001;-1.190270781517029E-001;4.274963866919279E-003;9.343702695332468E-004;
2.427000000000000E+009;1.557299643754959E-001;-1.191480532288551E-001;4.288338124752045E-003;7.201354601420462E-004;
2.427166666666667E+009;1.555369049310684E-001;-1.191837042570114E-001;4.241050221025944E-003;5.282020429149270E-004;
2.427333333333334E+009;1.549296826124191E-001;-1.192967742681503E-001;4.361310508102179E-003;3.605565580073744E-004;
2.427500000000000E+009;1.545238345861435E-001;-1.193892210721970E-001;4.273864440619946E-003;2.731452696025372E-004;
2.427666666666667E+009;1.536741554737091E-001;-1.195583790540695E-001;4.297138657420874E-003;1.347359502688050E-004;
