# Version 1.00
#
freq[Hz];re:Trc1_S11;im:Trc1_S11;re:Trc2_S21;im:Trc2_S21;
2.400000000000000E+009;1.581785529851914E-001;6.247623637318611E-002;-1.045314595103264E-003;-1.259622280485928E-003;
2.400166666666667E+009;1.582092642784119E-001;6.090665608644486E-002;-9.911376982927322E-004;-1.300374628044665E-003;
2.400333333333334E+009;1.580194085836411E-001;5.899640545248985E-002;-1.107925199903548E-003;-1.186498557217419E-003;
2.400500000000000E+009;1.580136120319367E-001;5.712595954537392E-002;-9.488638606853783E-004;-1.134028309024870E-003;
2.400666666666667E+009;1.579217463731766E-001;5.516203492879868E-002;-9.715555934235454E-004;-9.548245579935610E-004;
2.400833333333334E+009;1.580647975206375E-001;5.316776782274246E-002;-1.065897871740162E-003;-9.095222922042012E-004;
2.401000000000000E+009;1.581436395645142E-001;5.097753182053566E-002;-1.012294902466238E-003;-9.352467604912818E-004;
2.401166666666667E+009;1.584320217370987E-001;4.892810061573982E-002;-9.319885284639895E-004;-8.774649468250573E-004;
2.401333333333334E+009;1.584129482507706E-001;4.690776765346527E-002;-1.101714908145368E-003;-8.258309680968523E-004;
2.401500000000000E+009;1.587907671928406E-001;4.479987919330597E-002;-9.853357914835215E-004;-6.893023964948952E-004;
2.401666666666667E+009;1.591361016035080E-001;4.284921661019325E-002;-1.070341560989618E-003;-6.093726260587573E-004;
2.401833333333334E+009;1.597216129302979E-001;4.090122878551483E-002;-8.829841390252113E-004;-6.646291585639119E-004;
2.402000000000000E+009;1.599300205707550E-001;3.882161900401115E-002;-9.124450734816492E-004;-7.217777310870588E-004;
2.402166666666667E+009;1.604366004467011E-001;3.675777837634087E-002;-1.061556045897305E-003;-5.386249977163971E-004;
2.402333333333334E+009;1.610029190778732E-001;3.496364504098892E-002;-7.989574223756790E-004;-5.055919755250216E-004;
2.402500000000000E+009;1.619569957256317E-001;3.316435962915421E-002;-7.137616630643606E-004;-4.386361397337169E-004;
2.402666666666667E+009;1.624622344970703E-001;3.142043203115463E-002;-8.031072793528438E-004;-5.295352311804891E-004;
2.402833333333334E+009;1.631094664335251E-001;2.978241629898548E-002;-8.656095596961677E-004;-3.807603206951171E-004;
2.403000000000000E+009;1.637655645608902E-001;2.789853140711784E-002;-7.609927561134100E-004;-5.800008075311780E-004;
2.403166666666667E+009;1.648871004581451E-001;2.638098970055580E-002;-6.311191827990115E-004;-3.756507940124720E-004;
2.403333333333334E+009;1.657911241054535E-001;2.512294054031372E-002;-6.851415964774787E-004;-4.118635260965675E-004;
2.403500000000000E+009;1.665064394474030E-001;2.352363802492619E-002;-6.262718816287816E-004;-2.471419284120202E-004;
2.403666666666667E+009;1.674141138792038E-001;2.209904789924622E-002;-6.108981324359775E-004;-5.477537051774561E-004;
2.403833333333334E+009;1.686880886554718E-001;2.092869766056538E-002;-4.594949423335493E-004;-5.149327917024493E-004;
2.404000000000000E+009;1.695266664028168E-001;1.975959353148937E-002;-5.620818119496107E-004;-5.451887845993042E-004;
2.404166666666667E+009;1.705504059791565E-001;1.858105510473251E-002;-3.563073987606913E-004;-3.032417444046587E-004;
2.404333333333334E+009;1.712549030780792E-001;1.752719096839428E-002;-4.661515704356134E-004;-5.521302227862179E-004;
2.404500000000000E+009;1.722901314496994E-001;1.646520942449570E-002;-3.988996904809028E-004;-4.609536845237017E-004;
2.404666666666667E+009;1.731597185134888E-001;1.572772674262524E-002;-4.146435530856252E-004;-4.288311465643346E-004;
2.404833333333334E+009;1.741245537996292E-001;1.485466212034226E-002;-3.236865741200745E-004;-6.322191911749542E-004;
2.405000000000000E+009;1.750581264495850E-001;1.425012107938528E-002;-3.434266254771501E-004;-5.473724449984729E-004;
2.405166666666667E+009;1.758014708757401E-001;1.339805591851473E-002;-3.832612710539252E-004;-6.700393860228360E-004;
2.405333333333334E+009;1.767054498195648E-001;1.276019122451544E-002;-4.622652195394039E-004;-7.118701469153166E-004;
2.405500000000000E+009;1.772652268409729E-001;1.244771201163530E-002;-3.694648621603847E-004;-7.046401733532548E-004;
2.405666666666667E+009;1.781489700078964E-001;1.200589165091515E-002;-3.063429030589759E-004;-8.916095248423517E-004;
2.405833333333334E+009;1.784919053316116E-001;1.156278513371944E-002;-4.982924438081682E-004;-9.090168168768287E-004;
2.406000000000000E+009;1.790488362312317E-001;1.102376915514469E-002;-4.154938505962491E-004;-8.468618034385145E-004;
2.406166666666667E+009;1.793460100889206E-001;1.087385974824429E-002;-4.381169565021992E-004;-8.782134391367436E-004;
2.406333333333334E+009;1.800635010004044E-001;1.053494494408369E-002;-5.006059072911739E-004;-8.922306005842984E-004;
2.406500000000000E+009;1.803261190652847E-001;1.004737336188555E-002;-5.555230309255421E-004;-1.055168919265270E-003;
2.406666666666667E+009;1.802981495857239E-001;9.858516044914722E-003;-5.376222543418407E-004;-1.034447690472007E-003;
2.406833333333334E+009;1.806069463491440E-001;9.528491646051407E-003;-7.117157801985741E-004;-9.931931272149086E-004;
2.407000000000000E+009;1.806412041187286E-001;9.284944273531437E-003;-6.755577633157373E-004;-1.003373297862709E-003;
2.407166666666667E+009;1.807471960783005E-001;8.885495364665985E-003;-8.383028907701373E-004;-1.011275802738965E-003;
2.407333333333334E+009;1.806563436985016E-001;8.429783396422863E-003;-6.380413542501628E-004;-8.636402199044824E-004;
2.407500000000000E+009;1.804134696722031E-001;8.020794019103050E-003;-7.267610635608435E-004;-1.057088491506875E-003;
2.407666666666667E+009;1.801927238702774E-001;7.759662810713053E-003;-8.346833637915552E-004;-1.128701958805323E-003;
2.407833333333334E+009;1.798207759857178E-001;7.087748963385820E-003;-9.233710588887334E-004;-9.987486992031336E-004;
2.408000000000000E+009;1.794271916151047E-001;6.380089092999697E-003;-8.508916362188757E-004;-9.604771621525288E-004;
2.408166666666667E+009;1.790761798620224E-001;5.847758613526821E-003;-1.067242817953229E-003;-1.006486709229648E-003;
2.408333333333334E+009;1.788068562746048E-001;5.143540911376476E-003;-1.022995333187282E-003;-1.087441574782133E-003;
2.408500000000000E+009;1.780159324407578E-001;4.195795860141516E-003;-1.203959458507597E-003;-9.862530278041959E-004;
2.408666666666667E+009;1.774432212114334E-001;3.433801233768463E-003;-1.127302297390997E-003;-9.764218120835722E-004;
2.408833333333334E+009;1.768408268690109E-001;2.249593846499920E-003;-1.105922157876194E-003;-1.099111861549318E-003;
2.409000000000000E+009;1.762546449899674E-001;1.421243185177445E-003;-1.211291761137545E-003;-8.742365753278136E-004;
2.409166666666667E+009;1.755188852548599E-001;2.129244239768013E-004;-1.126911141909659E-003;-8.991568465717137E-004;
2.409333333333334E+009;1.748459190130234E-001;-1.041855663061142E-003;-1.206121756695211E-003;-8.348243427462876E-004;
2.409500000000000E+009;1.740833669900894E-001;-2.454248955473304E-003;-1.317282905802131E-003;-9.090363164432347E-004;
2.409666666666667E+009;1.733803898096085E-001;-3.830934641882777E-003;-1.327478559687734E-003;-7.947169360704720E-004;
2.409833333333334E+009;1.727634519338608E-001;-5.058793351054192E-003;-1.240122364833951E-003;-8.625955088064075E-004;
2.410000000000000E+009;1.721176207065582E-001;-6.551214493811131E-003;-1.326297991909087E-003;-8.296989253722131E-004;
2.410166666666667E+009;1.715241670608521E-001;-8.371863514184952E-003;-1.428173854947090E-003;-7.449511904269457E-004;
2.410333333333334E+009;1.708368957042694E-001;-9.779396466910839E-003;-1.406920491717756E-003;-8.483917918056250E-004;
2.410500000000000E+009;1.702669858932495E-001;-1.171332783997059E-002;-1.559704309329391E-003;-6.892164819873869E-004;
2.410666666666667E+009;1.698830872774124E-001;-1.347179431468248E-002;-1.489918446168304E-003;-9.274946642108262E-004;
2.410833333333334E+009;1.692960709333420E-001;-1.521369442343712E-002;-1.609346130862832E-003;-6.727995933033526E-004;
2.411000000000000E+009;1.689704507589340E-001;-1.688581146299839E-002;-1.554835936985910E-003;-7.253572111949325E-004;
2.411166666666667E+009;1.686732172966003E-001;-1.902280375361443E-002;-1.709673670120537E-003;-7.749015931040049E-004;
2.411333333333334E+009;1.685710102319717E-001;-2.087902091443539E-002;-1.836725627072156E-003;-6.697375793009996E-004;
2.411500000000000E+009;1.681719273328781E-001;-2.288326993584633E-002;-1.732085947878659E-003;-8.094424265436828E-004;
2.411666666666667E+009;1.681447029113770E-001;-2.468504011631012E-002;-1.777263823896647E-003;-7.308734930120409E-004;
2.411833333333334E+009;1.682841777801514E-001;-2.651123516261578E-002;-1.935987849719822E-003;-6.125257932581008E-004;
2.412000000000000E+009;1.682418286800385E-001;-2.880469150841236E-002;-1.857542432844639E-003;-5.633609835058451E-004;
2.412166666666667E+009;1.680708974599838E-001;-3.055981360375881E-002;-2.030448522418737E-003;-6.619184277951717E-004;
2.412333333333334E+009;1.685710549354553E-001;-3.247091919183731E-002;-2.062393352389336E-003;-5.377412890084088E-004;
2.412500000000000E+009;1.684733629226685E-001;-3.436046093702316E-002;-2.133238362148404E-003;-4.783590848091990E-004;
2.412666666666667E+009;1.690802425146103E-001;-3.655905276536942E-002;-2.124760765582323E-003;-5.414041806943715E-004;
2.412833333333334E+009;1.693045347929001E-001;-3.820257261395454E-002;-2.254903782159090E-003;-5.236759898252785E-004;
2.413000000000000E+009;1.698932647705078E-001;-3.989605605602264E-002;-2.439292846247554E-003;-2.870986063499004E-004;
2.413166666666667E+009;1.699961870908737E-001;-4.167563840746880E-002;-2.370409201830626E-003;-6.903867324581370E-005;
2.413333333333334E+009;1.704911589622498E-001;-4.352211207151413E-002;-2.503887051716447E-003;-8.958066609920934E-005;
2.413500000000000E+009;1.710263639688492E-001;-4.505793377757072E-002;-2.692846581339836E-003;-7.790892414050177E-005;
2.413666666666667E+009;1.716610342264175E-001;-4.658171907067299E-002;-2.669710433110595E-003;1.491778239142150E-004;
2.413833333333334E+009;1.720672845840454E-001;-4.811777174472809E-002;-2.782322233542800E-003;1.423522335244343E-004;
2.414000000000000E+009;1.724807918071747E-001;-4.948907718062401E-002;-2.853283658623695E-003;3.048213839065284E-004;
2.414166666666667E+009;1.733137071132660E-001;-5.075463652610779E-002;-2.807902637869120E-003;2.138366689905524E-004;
2.414333333333334E+009;1.738045662641525E-001;-5.199037492275238E-002;-2.991457702592015E-003;4.187851445749402E-004;
2.414500000000000E+009;1.744285076856613E-001;-5.317220836877823E-002;-2.742919139564037E-003;5.199296865612268E-004;
2.414666666666667E+009;1.748765558004379E-001;-5.411203205585480E-002;-2.832909813150764E-003;5.475578363984823E-004;
2.414833333333334E+009;1.752554029226303E-001;-5.509446933865547E-002;-2.890786156058312E-003;7.810331298969686E-004;
2.415000000000000E+009;1.757189035415649E-001;-5.589447170495987E-002;-3.043798729777336E-003;8.155488758347929E-004;
2.415166666666667E+009;1.761120408773422E-001;-5.669778957962990E-002;-2.955935196951032E-003;1.046915422193706E-003;
2.415333333333334E+009;1.766092181205750E-001;-5.748854577541351E-002;-3.029914572834969E-003;1.238674973137677E-003;
2.415500000000000E+009;1.770429164171219E-001;-5.793626978993416E-002;-3.012810600921512E-003;1.287916209548712E-003;
2.415666666666667E+009;1.771240383386612E-001;-5.844031274318695E-002;-3.033565590158105E-003;1.346603618003428E-003;
2.415833333333334E+009;1.774690449237824E-001;-5.903765186667442E-002;-3.079255344346166E-003;1.638867193832994E-003;
2.416000000000000E+009;1.774881333112717E-001;-5.940947309136391E-002;-3.115045139566064E-003;1.763104926794767E-003;
2.416166666666667E+009;1.776958703994751E-001;-5.972801148891449E-002;-2.922821324318647E-003;1.925713266246021E-003;
2.416333333333334E+009;1.776285469532013E-001;-6.010546907782555E-002;-2.772479318082333E-003;2.063881838694215E-003;
2.416500000000000E+009;1.776315420866013E-001;-6.037523597478867E-002;-2.882018452510238E-003;2.252674661576748E-003;
2.416666666666667E+009;1.773145645856857E-001;-6.061748415231705E-002;-2.732843859121203E-003;2.510897815227509E-003;
2.416833333333334E+009;1.771746724843979E-001;-6.093126535415649E-002;-2.613276476040483E-003;2.555700251832604E-003;
2.417000000000000E+009;1.766421496868134E-001;-6.115868687629700E-002;-2.565016737207770E-003;2.780678914859891E-003;
2.417166666666667E+009;1.761652678251267E-001;-6.130922958254814E-002;-2.451221225783229E-003;2.775826724246144E-003;
2.417333333333334E+009;1.756443530321121E-001;-6.144876405596733E-002;-2.322630723938346E-003;3.036741167306900E-003;
2.417500000000000E+009;1.749985367059708E-001;-6.182115897536278E-002;-2.228510566055775E-003;3.057466354221106E-003;
2.417666666666667E+009;1.744295209646225E-001;-6.186932697892189E-002;-2.061488805338740E-003;3.130681347101927E-003;
2.417833333333334E+009;1.735920906066895E-001;-6.213236600160599E-002;-1.856161863543093E-003;3.279108321294189E-003;
2.418000000000000E+009;1.727032363414764E-001;-6.250566989183426E-002;-1.958576496690512E-003;3.271108726039529E-003;
2.418166666666667E+009;1.717989742755890E-001;-6.267150491476059E-002;-1.582745579071343E-003;3.470006631687284E-003;
2.418333333333334E+009;1.710382550954819E-001;-6.319773942232132E-002;-1.591776497662067E-003;3.628707723692060E-003;
2.418500000000000E+009;1.698675006628037E-001;-6.351166963577271E-002;-1.329755526967347E-003;3.692135913297534E-003;
2.418666666666667E+009;1.689574718475342E-001;-6.408042460680008E-002;-1.246222644113004E-003;3.800860373303294E-003;
2.418833333333334E+009;1.676798611879349E-001;-6.468799710273743E-002;-1.141508109867573E-003;3.737158840522170E-003;
2.419000000000000E+009;1.664246469736099E-001;-6.526315212249756E-002;-7.984184194356203E-004;3.803934203460813E-003;
2.419166666666667E+009;1.652350276708603E-001;-6.592205166816711E-002;-9.204472880810499E-004;3.843665355816484E-003;
2.419333333333334E+009;1.639366000890732E-001;-6.642755866050720E-002;-5.898993113078177E-004;3.715977538377047E-003;
2.419500000000000E+009;1.628747135400772E-001;-6.747261434793472E-002;-4.518163041211665E-004;3.890301566570997E-003;
2.419666666666667E+009;1.617709994316101E-001;-6.835904717445374E-002;-2.866732538677752E-004;3.899132134392858E-003;
2.419833333333334E+009;1.605095863342285E-001;-6.922484934329987E-002;-1.751098025124520E-004;3.957190550863743E-003;
2.420000000000000E+009;1.594209522008896E-001;-7.019454240798950E-002;-1.119354201364331E-004;3.867592429742217E-003;
2.420166666666667E+009;1.583209037780762E-001;-7.143791019916534E-002;2.113411755999550E-004;3.898125374689698E-003;
2.420333333333334E+009;1.572604924440384E-001;-7.273770868778229E-002;3.742624248843640E-004;3.874441841617227E-003;
2.420500000000000E+009;1.563027352094650E-001;-7.379139959812164E-002;3.836780088022351E-004;3.924255259335041E-003;
2.420666666666667E+009;1.552335470914841E-001;-7.519791275262833E-002;5.168317584320903E-004;3.764602821320295E-003;
2.420833333333334E+009;1.542680412530899E-001;-7.663279771804810E-002;5.344410310499370E-004;3.649684367701411E-003;
2.421000000000000E+009;1.533612906932831E-001;-7.812564074993134E-002;7.990145822986960E-004;3.712188918143511E-003;
2.421166666666667E+009;1.527548134326935E-001;-7.961130142211914E-002;9.194091544486582E-004;3.568140557035804E-003;
2.421333333333334E+009;1.520673781633377E-001;-8.127257972955704E-002;1.072534010745585E-003;3.532898146659136E-003;
2.421500000000000E+009;1.512185931205750E-001;-8.270935714244843E-002;1.181822153739631E-003;3.623033408075571E-003;
2.421666666666667E+009;1.508042365312576E-001;-8.428864926099777E-002;1.220367616042495E-003;3.567251376807690E-003;
2.421833333333334E+009;1.503484100103378E-001;-8.610944449901581E-002;1.319538801908493E-003;3.433746751397848E-003;
2.422000000000000E+009;1.500668525695801E-001;-8.777850121259689E-002;1.368557801470161E-003;3.536966163665056E-003;
2.422166666666667E+009;1.496594399213791E-001;-8.972149342298508E-002;1.696192892268300E-003;3.419528948143125E-003;
2.422333333333334E+009;1.495867073535919E-001;-9.125589579343796E-002;1.637371606193483E-003;3.358236048370600E-003;
2.422500000000000E+009;1.493787169456482E-001;-9.296318888664246E-002;1.687289681285620E-003;3.341424744576216E-003;
2.422666666666667E+009;1.491815894842148E-001;-9.463426470756531E-002;1.775694894604385E-003;3.260401077568531E-003;
2.422833333333334E+009;1.492816060781479E-001;-9.651264548301697E-002;1.970244105905294E-003;3.217697609215975E-003;
2.423000000000000E+009;1.495133936405182E-001;-9.819589555263519E-002;2.004567999392748E-003;3.137166379019618E-003;
2.423166666666667E+009;1.497355103492737E-001;-9.967888891696930E-002;2.146809129044414E-003;3.099590539932251E-003;
2.423333333333334E+009;1.499541401863098E-001;-1.011215448379517E-001;2.268954413011670E-003;3.271389985457063E-003;
2.423500000000000E+009;1.501464098691940E-001;-1.029112040996552E-001;2.273937221616507E-003;3.080059541389346E-003;
2.423666666666667E+009;1.504016965627670E-001;-1.044289767742157E-001;2.479869639500976E-003;3.095829160884023E-003;
2.423833333333334E+009;1.510139554738998E-001;-1.059325411915779E-001;2.540410496294498E-003;2.846980933099985E-003;
2.424000000000000E+009;1.511380672454834E-001;-1.070887297391892E-001;2.610207069665194E-003;2.800340531393886E-003;
2.424166666666667E+009;1.515818983316422E-001;-1.084603890776634E-001;2.743523335084319E-003;2.701239660382271E-003;
2.424333333333334E+009;1.522098183631897E-001;-1.096187457442284E-001;2.900167368352413E-003;2.732271328568459E-003;
2.424500000000000E+009;1.526703238487244E-001;-1.108089610934258E-001;2.896092599257827E-003;2.590697724372149E-003;
2.424666666666667E+009;1.532077640295029E-001;-1.118212267756462E-001;3.022209042683244E-003;2.655953168869019E-003;
2.424833333333334E+009;1.536298692226410E-001;-1.129289269447327E-001;3.128915792331100E-003;2.453345339745283E-003;
2.425000000000000E+009;1.541588306427002E-001;-1.138072162866592E-001;3.224180778488517E-003;2.389092463999987E-003;
2.425166666666667E+009;1.543880999088287E-001;-1.145586892962456E-001;3.519121091812849E-003;2.104375977069140E-003;
2.425333333333334E+009;1.550092846155167E-001;-1.153964772820473E-001;3.521163249388337E-003;2.109061926603317E-003;
2.425500000000000E+009;1.553567349910736E-001;-1.161299869418144E-001;3.562006168067455E-003;1.921577029861510E-003;
2.425666666666667E+009;1.555346399545670E-001;-1.166346222162247E-001;3.640768583863974E-003;1.772958552464843E-003;
2.425833333333334E+009;1.557953804731369E-001;-1.171756237745285E-001;3.720639040693641E-003;1.678313594311476E-003;
2.426000000000000E+009;1.560668796300888E-001;-1.176144704222679E-001;3.901897231116891E-003;1.592277665622532E-003;
2.426166666666667E+009;1.563682705163956E-001;-1.180883496999741E-001;4.056058358401060E-003;1.484249602071941E-003;
2.426333333333334E+009;1.563091576099396E-001;-1.183637604117394E-001;3.948587924242020E-003;1.448660623282194E-003;
2.426500000000000E+009;1.562731415033341E-001;-1.185169890522957E-001;4.024689551442862E-003;1.042983494699001E-003;
2.426666666666667E+009;1.563884764909744E-001;-1.187600791454315E-001;4.088747315108776E-003;1.049563405103982E-003;
2.426833333333334E+009;1.561452448368073E-001;-1.188452765345573E-001;4.105958156287670E-003;8.375827455893159E-004;
2.427000000000000E+009;1.557814627885819E-001;-1.191217303276062E-001;4.309693351387978E-003;7.178804371505976E-004;
2.427166666666667E+009;1.554636508226395E-001;-1.190194115042687E-001;4.349261056631804E-003;6.011880468577147E-004;
2.427333333333334E+009;1.549610942602158E-001;-1.192384213209152E-001;4.219051916152239E-003;4.738869029097259E-004;
2.427500000000000E+009;1.545840054750443E-001;-1.193057969212532E-001;4.196347203105688E-003;2.449333551339805E-004;
2.427666666666667E+009;1.538308560848236E-001;-1.194155141711235E-001;4.335321485996246E-003;6.357341771945357E-005;
