# Version 1.00
#
freq[Hz];re:Trc1_S11;im:Trc1_S11;re:Trc2_S21;im:Trc2_S21;
2.400000000000000E+009;1.567553132772446E-001;1.115930527448654E-001;-3.075678367167711E-003;4.721296951174736E-003;
2.400166666666667E+009;1.562335342168808E-001;1.091949269175530E-001;-2.928723115473986E-003;5.015373695641756E-003;
2.400333333333334E+009;1.560755074024200E-001;1.068820804357529E-001;-2.658623503521085E-003;5.172099918127060E-003;
2.400500000000000E+009;1.555532515048981E-001;1.043941974639893E-001;-2.359875943511725E-003;5.396946799010038E-003;
2.400666666666667E+009;1.554764211177826E-001;1.016887500882149E-001;-2.060876460745931E-003;5.448414478451014E-003;
2.400833333333334E+009;1.551369875669479E-001;9.871259331703186E-002;-1.925990916788578E-003;5.749673582613468E-003;
2.401000000000000E+009;1.550954282283783E-001;9.575934708118439E-002;-1.752424868755043E-003;5.759393330663443E-003;
2.401166666666667E+009;1.547466367483139E-001;9.291843324899674E-002;-1.593840192072094E-003;5.842556711286306E-003;
2.401333333333334E+009;1.549110710620880E-001;9.007723629474640E-002;-1.499392557889223E-003;5.901580676436424E-003;
2.401500000000000E+009;1.550490558147430E-001;8.696733415126801E-002;-1.362435054033995E-003;5.791512783616781E-003;
2.401666666666667E+009;1.549935340881348E-001;8.380717784166336E-002;-8.986226166598499E-004;5.820346064865589E-003;
2.401833333333334E+009;1.555462330579758E-001;8.082634955644608E-002;-9.363971767015755E-004;5.887379869818687E-003;
2.402000000000000E+009;1.561149656772614E-001;7.799800485372543E-002;-7.497993065044284E-004;6.065801251679659E-003;
2.402166666666667E+009;1.566758155822754E-001;7.498250901699066E-002;-6.179180345498025E-004;5.965933669358492E-003;
2.402333333333334E+009;1.574300378561020E-001;7.238138467073441E-002;-5.428303848020732E-004;6.191531661897898E-003;
2.402500000000000E+009;1.585615575313568E-001;6.936228275299072E-002;-3.508763620629907E-004;6.404927931725979E-003;
2.402666666666667E+009;1.594394296407700E-001;6.683421880006790E-002;-1.371768885292113E-004;6.331952754408121E-003;
2.402833333333334E+009;1.606743782758713E-001;6.412740796804428E-002;7.293081580428407E-005;6.330364849418402E-003;
2.403000000000000E+009;1.619712263345718E-001;6.133604422211647E-002;3.733521734829992E-004;6.725775077939034E-003;
2.403166666666667E+009;1.637799739837647E-001;5.897769704461098E-002;6.008233758620918E-004;6.733050569891930E-003;
2.403333333333334E+009;1.650667488574982E-001;5.662623792886734E-002;9.322601254098117E-004;6.762956269085407E-003;
2.403500000000000E+009;1.667918115854263E-001;5.408757925033569E-002;1.240896992385387E-003;6.886540912091732E-003;
2.403666666666667E+009;1.687316596508026E-001;5.194616317749023E-002;1.638777903281152E-003;6.868799217045307E-003;
2.403833333333334E+009;1.704247742891312E-001;4.979203641414642E-002;2.048734808340669E-003;6.841157563030720E-003;
2.404000000000000E+009;1.718845814466476E-001;4.789446666836739E-002;2.355272416025400E-003;6.897390820086002E-003;
2.404166666666667E+009;1.737335920333862E-001;4.601762443780899E-002;2.657383447512984E-003;6.917473394423723E-003;
2.404333333333334E+009;1.755402684211731E-001;4.432489350438118E-002;2.941882470622659E-003;6.825993768870831E-003;
2.404500000000000E+009;1.775593459606171E-001;4.285904392600060E-002;3.447686787694693E-003;6.644157227128744E-003;
2.404666666666667E+009;1.792790293693543E-001;4.163917154073715E-002;3.779934020712972E-003;6.401560734957457E-003;
2.404833333333334E+009;1.812023073434830E-001;4.028613120317459E-002;3.966887481510639E-003;6.335567217320204E-003;
2.405000000000000E+009;1.828312575817108E-001;3.962086141109467E-002;4.484902136027813E-003;6.068111397325993E-003;
2.405166666666667E+009;1.843003928661346E-001;3.869338706135750E-002;4.603239707648754E-003;5.702243652194738E-003;
2.405333333333334E+009;1.860208958387375E-001;3.812027722597122E-002;5.044577177613974E-003;5.530337803065777E-003;
2.405500000000000E+009;1.877343505620956E-001;3.741307184100151E-002;5.043070297688246E-003;5.349161103367806E-003;
2.405666666666667E+009;1.890458762645721E-001;3.711013495922089E-002;5.433650221675634E-003;5.031929817050695E-003;
2.405833333333334E+009;1.907021701335907E-001;3.688548877835274E-002;5.624382756650448E-003;4.815247375518084E-003;
2.406000000000000E+009;1.919230669736862E-001;3.684464097023010E-002;5.742846522480249E-003;4.350952804088593E-003;
2.406166666666667E+009;1.931110620498657E-001;3.671874850988388E-002;6.062385626137257E-003;4.142047837376595E-003;
2.406333333333334E+009;1.941934227943420E-001;3.682439029216766E-002;6.080585066229105E-003;4.013695288449526E-003;
2.406500000000000E+009;1.952095329761505E-001;3.709346055984497E-002;6.109954323619604E-003;3.520436584949493E-003;
2.406666666666667E+009;1.960856467485428E-001;3.736618161201477E-002;6.246300414204598E-003;3.281697398051620E-003;
2.406833333333334E+009;1.967752277851105E-001;3.746849298477173E-002;6.370180752128363E-003;3.057290567085147E-003;
2.407000000000000E+009;1.972920447587967E-001;3.786167129874229E-002;6.404623389244080E-003;2.795775886625052E-003;
2.407166666666667E+009;1.979161947965622E-001;3.812861815094948E-002;6.378120277076960E-003;2.519879955798388E-003;
2.407333333333334E+009;1.980486214160919E-001;3.846384212374687E-002;6.430492736399174E-003;2.215359127148986E-003;
2.407500000000000E+009;1.982916295528412E-001;3.883572295308113E-002;6.584531627595425E-003;2.074489602819085E-003;
2.407666666666667E+009;1.984634697437286E-001;3.920011967420578E-002;6.536501925438643E-003;1.875809044577181E-003;
2.407833333333334E+009;1.980805397033691E-001;3.932360559701920E-002;6.623877678066492E-003;1.562322373501957E-003;
2.408000000000000E+009;1.982253938913345E-001;3.959550708532333E-002;6.522076204419136E-003;1.232624170370400E-003;
2.408166666666667E+009;1.976074576377869E-001;3.963289409875870E-002;6.665793713182211E-003;9.441012516617775E-004;
2.408333333333334E+009;1.975518763065338E-001;3.941962867975235E-002;6.608950905501843E-003;8.621436427347362E-004;
2.408500000000000E+009;1.967574357986450E-001;3.943806886672974E-002;6.606561597436667E-003;5.535689415410161E-004;
2.408666666666667E+009;1.961751431226730E-001;3.922641277313232E-002;6.527435500174761E-003;2.814709441736341E-004;
2.408833333333334E+009;1.954169422388077E-001;3.898203000426292E-002;6.446915678679943E-003;3.045700759685133E-005;
2.409000000000000E+009;1.943526417016983E-001;3.833878412842751E-002;6.319004110991955E-003;-1.797157747205347E-004;
2.409166666666667E+009;1.934591978788376E-001;3.771920502185822E-002;6.275102030485869E-003;-5.299210315570235E-004;
2.409333333333334E+009;1.925234198570252E-001;3.687222301959992E-002;6.179656367748976E-003;-5.408594151958823E-004;
2.409500000000000E+009;1.912207901477814E-001;3.606618940830231E-002;5.976781249046326E-003;-7.490413263440132E-004;
2.409666666666667E+009;1.901331096887589E-001;3.477859124541283E-002;6.044457666575909E-003;-7.716402178630233E-004;
2.409833333333334E+009;1.889517009258270E-001;3.335788100957871E-002;5.733970087021589E-003;-8.897814550437033E-004;
2.410000000000000E+009;1.877907365560532E-001;3.190949559211731E-002;5.618199240416288E-003;-1.029511913657188E-003;
2.410166666666667E+009;1.863805353641510E-001;3.049962408840656E-002;5.651880521327257E-003;-1.137622515670955E-003;
2.410333333333334E+009;1.853824406862259E-001;2.872113138437271E-002;5.459723994135857E-003;-1.336178742349148E-003;
2.410500000000000E+009;1.840569674968720E-001;2.702812291681767E-002;5.484683904796839E-003;-1.401440240442753E-003;
2.410666666666667E+009;1.830550879240036E-001;2.474374324083328E-002;5.479947663843632E-003;-1.437867293134332E-003;
2.410833333333334E+009;1.821862608194351E-001;2.269355021417141E-002;5.319806747138500E-003;-1.520720659755170E-003;
2.411000000000000E+009;1.811290383338928E-001;2.062930725514889E-002;5.302064120769501E-003;-1.691761659458280E-003;
2.411166666666667E+009;1.802425682544708E-001;1.845468021929264E-002;5.339351017028093E-003;-1.684947288595140E-003;
2.411333333333334E+009;1.795299947261810E-001;1.586417295038700E-002;5.077173933386803E-003;-1.876322086900473E-003;
2.411500000000000E+009;1.786828339099884E-001;1.328291837126017E-002;5.101953167468309E-003;-2.064633881673217E-003;
2.411666666666667E+009;1.782752126455307E-001;1.103917602449656E-002;4.908485803753138E-003;-2.054311335086823E-003;
2.411833333333334E+009;1.778563410043716E-001;8.562282659113407E-003;5.029749590903521E-003;-2.238347893580794E-003;
2.412000000000000E+009;1.777452677488327E-001;5.685915239155293E-003;4.928919952362776E-003;-2.110815607011318E-003;
2.412166666666667E+009;1.775502115488052E-001;3.178174374625087E-003;4.991447087377310E-003;-2.357975812628865E-003;
2.412333333333334E+009;1.775891780853272E-001;5.019146483391523E-004;4.848073236644268E-003;-2.364950254559517E-003;
2.412500000000000E+009;1.778718829154968E-001;-2.046531997621059E-003;4.877877421677113E-003;-2.481551608070731E-003;
2.412666666666667E+009;1.782934218645096E-001;-4.805158358067274E-003;4.935424309223890E-003;-2.748873550444841E-003;
2.412833333333334E+009;1.789384335279465E-001;-7.467792369425297E-003;4.700587131083012E-003;-2.713901456445456E-003;
2.413000000000000E+009;1.795499771833420E-001;-1.003603171557188E-002;4.925634711980820E-003;-2.902045147493482E-003;
2.413166666666667E+009;1.803490519523621E-001;-1.242205873131752E-002;4.775617271661758E-003;-3.136272775009275E-003;
2.413333333333334E+009;1.811109632253647E-001;-1.506790425628424E-002;4.848401062190533E-003;-3.158207749947906E-003;
2.413500000000000E+009;1.821347326040268E-001;-1.750429347157478E-002;4.753200337290764E-003;-3.225340042263269E-003;
2.413666666666667E+009;1.833661645650864E-001;-2.015431411564350E-002;4.688080400228500E-003;-3.682670183479786E-003;
2.413833333333334E+009;1.844713687896729E-001;-2.226307801902294E-002;4.735495429486036E-003;-3.795354859903455E-003;
2.414000000000000E+009;1.856265068054199E-001;-2.448723278939724E-002;4.552825819700956E-003;-4.067546688020229E-003;
2.414166666666667E+009;1.870077252388001E-001;-2.661597728729248E-002;4.439730662852526E-003;-4.164865240454674E-003;
2.414333333333334E+009;1.880802214145660E-001;-2.887824922800064E-002;4.300111439079046E-003;-4.333471413701773E-003;
2.414500000000000E+009;1.894925832748413E-001;-3.051803633570671E-002;4.284141119569540E-003;-4.584006499499083E-003;
2.414666666666667E+009;1.908576637506485E-001;-3.244420886039734E-002;4.363710526376963E-003;-4.941090941429138E-003;
2.414833333333334E+009;1.920273154973984E-001;-3.384232148528099E-002;4.122041631489992E-003;-5.136295221745968E-003;
2.415000000000000E+009;1.933492422103882E-001;-3.542632609605789E-002;3.854459384456277E-003;-5.207607522606850E-003;
2.415166666666667E+009;1.949636936187744E-001;-3.675844892859459E-002;3.726397175341845E-003;-5.411658901721239E-003;
2.415333333333334E+009;1.962400078773499E-001;-3.780711069703102E-002;3.439454128965735E-003;-5.561037920415402E-003;
2.415500000000000E+009;1.975768804550171E-001;-3.865380212664604E-002;3.323262790217996E-003;-5.571452900767326E-003;
2.415666666666667E+009;1.988665461540222E-001;-3.980460017919540E-002;3.199638798832893E-003;-5.693144164979458E-003;
2.415833333333334E+009;2.000715434551239E-001;-4.032634943723679E-002;2.811878453940153E-003;-5.940170492976904E-003;
2.416000000000000E+009;2.009948194026947E-001;-4.106042161583901E-002;2.799046225845814E-003;-6.128970067948103E-003;
2.416166666666667E+009;2.019567042589188E-001;-4.164019599556923E-002;2.492805477231741E-003;-6.311794277280569E-003;
2.416333333333334E+009;2.029154151678085E-001;-4.195545613765717E-002;2.213671803474426E-003;-6.186663638800383E-003;
2.416500000000000E+009;2.036991268396378E-001;-4.226255416870117E-002;1.978375250473619E-003;-6.494107656180859E-003;
2.416666666666667E+009;2.042796909809113E-001;-4.255638271570206E-002;1.767094247043133E-003;-6.504141259938479E-003;
2.416833333333334E+009;2.046228349208832E-001;-4.255367442965508E-002;1.481308019720018E-003;-6.676328834146261E-003;
2.417000000000000E+009;2.050163894891739E-001;-4.262998700141907E-002;1.141486805863679E-003;-6.569524295628071E-003;
2.417166666666667E+009;2.051286250352860E-001;-4.239383712410927E-002;9.326527360826731E-004;-6.599237211048603E-003;
2.417333333333334E+009;2.050212472677231E-001;-4.217649251222611E-002;6.638368940912187E-004;-6.678255274891853E-003;
2.417500000000000E+009;2.049995660781860E-001;-4.201444238424301E-002;3.990570548921824E-004;-6.523711606860161E-003;
2.417666666666667E+009;2.047296464443207E-001;-4.169128835201263E-002;2.944267180282623E-004;-6.487831939011812E-003;
2.417833333333334E+009;2.044487446546555E-001;-4.141703620553017E-002;1.556686765979976E-004;-6.712128408253193E-003;
2.418000000000000E+009;2.040118724107742E-001;-4.081631079316139E-002;-1.852857531048358E-004;-6.555768661201000E-003;
2.418166666666667E+009;2.034596800804138E-001;-4.062546044588089E-002;-2.061860723188147E-004;-6.600150838494301E-003;
2.418333333333334E+009;2.024680376052856E-001;-4.023912921547890E-002;-4.968059365637600E-004;-6.605620961636305E-003;
2.418500000000000E+009;2.016489207744598E-001;-4.001286253333092E-002;-6.611054996028543E-004;-6.761339493095875E-003;
2.418666666666667E+009;2.008052766323090E-001;-3.956694900989533E-002;-8.025140850804746E-004;-6.567533593624830E-003;
2.418833333333334E+009;1.996151655912399E-001;-3.971328958868980E-002;-9.566221851855516E-004;-6.518355105072260E-003;
2.419000000000000E+009;1.983286440372467E-001;-3.955886140465736E-002;-1.205832930281758E-003;-6.625864654779434E-003;
2.419166666666667E+009;1.971088200807571E-001;-3.963447734713554E-002;-1.394537859596312E-003;-6.753392051905394E-003;
2.419333333333334E+009;1.955981999635696E-001;-3.994122520089150E-002;-1.520853373222053E-003;-6.747962906956673E-003;
2.419500000000000E+009;1.940967291593552E-001;-4.012124240398407E-002;-1.919302972964943E-003;-6.566253490746021E-003;
2.419666666666667E+009;1.924818158149719E-001;-4.065724089741707E-002;-2.003790810704231E-003;-6.661990657448769E-003;
2.419833333333334E+009;1.907126009464264E-001;-4.105016961693764E-002;-2.293460769578815E-003;-6.776232738047838E-003;
2.420000000000000E+009;1.889279335737228E-001;-4.161157086491585E-002;-2.603237517178059E-003;-6.540028378367424E-003;
2.420166666666667E+009;1.872596740722656E-001;-4.248502478003502E-002;-2.845781156793237E-003;-6.429114844650030E-003;
2.420333333333334E+009;1.855814456939697E-001;-4.350217059254646E-002;-3.103378927335143E-003;-6.251547019928694E-003;
2.420500000000000E+009;1.837574988603592E-001;-4.456439614295960E-002;-3.315497189760208E-003;-6.334276869893074E-003;
2.420666666666667E+009;1.818530410528183E-001;-4.564406722784042E-002;-3.678768873214722E-003;-6.158161908388138E-003;
2.420833333333334E+009;1.799955964088440E-001;-4.704623296856880E-002;-3.901551477611065E-003;-6.028127856552601E-003;
2.421000000000000E+009;1.783483624458313E-001;-4.860343784093857E-002;-4.049691371619701E-003;-5.602711346000433E-003;
2.421166666666667E+009;1.767538636922836E-001;-5.010823905467987E-002;-4.323853179812431E-003;-5.538704805076122E-003;
2.421333333333334E+009;1.749767661094666E-001;-5.162388086318970E-002;-4.565875977277756E-003;-5.287751555442810E-003;
2.421500000000000E+009;1.731677949428558E-001;-5.358876660466194E-002;-4.864056129008532E-003;-5.208647809922695E-003;
2.421666666666667E+009;1.719865351915360E-001;-5.556115508079529E-002;-4.807841498404741E-003;-4.939981736242771E-003;
2.421833333333334E+009;1.706228554248810E-001;-5.721428245306015E-002;-5.052435211837292E-003;-4.904030822217464E-003;
2.422000000000000E+009;1.693423837423325E-001;-5.918814241886139E-002;-5.223427899181843E-003;-4.581253044307232E-003;
2.422166666666667E+009;1.683856695890427E-001;-6.149327009916306E-002;-5.137696396559477E-003;-4.389320500195026E-003;
2.422333333333334E+009;1.671405583620071E-001;-6.362286210060120E-002;-5.217001307755709E-003;-4.214474000036717E-003;
2.422500000000000E+009;1.662679463624954E-001;-6.575304269790649E-002;-5.472331773489714E-003;-4.152761306613684E-003;
2.422666666666667E+009;1.652240902185440E-001;-6.788223981857300E-002;-5.630555562674999E-003;-3.985932096838951E-003;
2.422833333333334E+009;1.647970974445343E-001;-6.997846812009811E-002;-5.728164222091436E-003;-3.871480701491237E-003;
2.423000000000000E+009;1.641258597373962E-001;-7.236853986978531E-002;-5.853135138750076E-003;-3.700125962495804E-003;
2.423166666666667E+009;1.636430323123932E-001;-7.448649406433106E-002;-5.896694958209992E-003;-3.535273252055049E-003;
2.423333333333334E+009;1.634357869625092E-001;-7.681483775377274E-002;-6.141829304397106E-003;-3.211590228602290E-003;
2.423500000000000E+009;1.632353365421295E-001;-7.889652252197266E-002;-6.154728587716818E-003;-3.042815951630473E-003;
2.423666666666667E+009;1.632971018552780E-001;-8.094785362482071E-002;-6.192565895617008E-003;-2.718847710639238E-003;
2.423833333333334E+009;1.631317287683487E-001;-8.314938843250275E-002;-6.389278452843428E-003;-2.790632890537381E-003;
2.424000000000000E+009;1.632890403270721E-001;-8.520285040140152E-002;-6.488031242042780E-003;-2.486207755282521E-003;
2.424166666666667E+009;1.632919460535049E-001;-8.690466731786728E-002;-6.688809953629971E-003;-2.193643013015389E-003;
2.424333333333334E+009;1.639019548892975E-001;-8.875474333763123E-002;-6.609100382775068E-003;-1.904736738651991E-003;
2.424500000000000E+009;1.641538739204407E-001;-9.105607867240906E-002;-6.708494853228331E-003;-1.658646040596068E-003;
2.424666666666667E+009;1.646032631397247E-001;-9.255173802375794E-002;-6.766315549612045E-003;-1.363427378237248E-003;
2.424833333333334E+009;1.652783006429672E-001;-9.394051879644394E-002;-6.814395543187857E-003;-1.157005433924496E-003;
2.425000000000000E+009;1.656984537839890E-001;-9.547293186187744E-002;-6.807731930166483E-003;-7.988712750375271E-004;
2.425166666666667E+009;1.661585271358490E-001;-9.674900025129318E-002;-6.752228830009699E-003;-4.754785040859133E-004;
2.425333333333334E+009;1.666583716869354E-001;-9.794197976589203E-002;-6.835379637777805E-003;-3.378499241080135E-004;
2.425500000000000E+009;1.673649251461029E-001;-9.920979291200638E-002;-6.789207924157381E-003;7.770160664222203E-006;
2.425666666666667E+009;1.680026948451996E-001;-1.000260561704636E-001;-6.747846491634846E-003;1.982080284506083E-004;
2.425833333333334E+009;1.684794425964356E-001;-1.010209321975708E-001;-6.689425557851791E-003;5.692971171811223E-004;
2.426000000000000E+009;1.691395193338394E-001;-1.016043201088905E-001;-6.561539135873318E-003;8.232212858274579E-004;
2.426166666666667E+009;1.697607934474945E-001;-1.022600233554840E-001;-6.674211937934160E-003;1.028306200169027E-003;
2.426333333333334E+009;1.700433045625687E-001;-1.028948500752449E-001;-6.504854187369347E-003;1.252732472494245E-003;
2.426500000000000E+009;1.707346290349960E-001;-1.031882092356682E-001;-6.494057830423117E-003;1.354030799120665E-003;
2.426666666666667E+009;1.712187230587006E-001;-1.035613790154457E-001;-6.424443796277046E-003;1.905529061332345E-003;
2.426833333333334E+009;1.717433333396912E-001;-1.039271056652069E-001;-6.238382775336504E-003;1.954341074451804E-003;
2.427000000000000E+009;1.719811707735062E-001;-1.041510626673698E-001;-6.109952460974455E-003;2.104316838085651E-003;
2.427166666666667E+009;1.722766160964966E-001;-1.041516810655594E-001;-6.108169909566641E-003;2.425102749839425E-003;
2.427333333333334E+009;1.723608523607254E-001;-1.044219657778740E-001;-5.947755184024572E-003;2.586089540272951E-003;
2.427500000000000E+009;1.723136603832245E-001;-1.043713614344597E-001;-5.772409029304981E-003;2.840779488906264E-003;
2.427666666666667E+009;1.722860932350159E-001;-1.045033410191536E-001;-5.604208912700415E-003;3.010113025084138E-003;
