# Version 1.00
#
freq[Hz];re:Trc1_S11;im:Trc1_S11;re:Trc2_S21;im:Trc2_S21;
2.400000000000000E+009;1.572763323783875E-001;6.029732525348663E-002;-2.215100685134530E-003;-7.348142098635435E-004;
2.400166666666667E+009;1.574827581644058E-001;5.870698019862175E-002;-2.426633611321449E-003;-8.199694566428661E-004;
2.400333333333334E+009;1.574359834194183E-001;5.660595744848251E-002;-2.400414086878300E-003;-7.354643894359469E-004;
2.400500000000000E+009;1.577354967594147E-001;5.452778562903404E-002;-2.288610441610217E-003;-8.312296122312546E-004;
2.400666666666667E+009;1.577507704496384E-001;5.262741819024086E-002;-2.359119942411780E-003;-8.641271851956844E-004;
2.400833333333334E+009;1.582173109054565E-001;5.074755474925041E-002;-2.281177323311567E-003;-6.728048902004957E-004;
2.401000000000000E+009;1.584909260272980E-001;4.883308708667755E-002;-2.424493664875627E-003;-8.289042743854225E-004;
2.401166666666667E+009;1.589186638593674E-001;4.684451967477799E-002;-2.436025766655803E-003;-7.031121640466154E-004;
2.401333333333334E+009;1.591207087039948E-001;4.474314302206039E-002;-2.453270368278027E-003;-6.667022244073451E-004;
2.401500000000000E+009;1.596140265464783E-001;4.279453307390213E-002;-2.484666416421533E-003;-5.637139547616243E-004;
2.401666666666667E+009;1.602467149496079E-001;4.106342047452927E-002;-2.345158951357007E-003;-6.197133916430175E-004;
2.401833333333334E+009;1.608369499444962E-001;3.898240625858307E-002;-2.227635588496923E-003;-6.500981398858130E-004;
2.402000000000000E+009;1.611789017915726E-001;3.715963661670685E-002;-2.467619720846415E-003;-5.635411362163723E-004;
2.402166666666667E+009;1.617872416973114E-001;3.518274426460266E-002;-2.354930620640516E-003;-6.258510984480381E-004;
2.402333333333334E+009;1.625614464282990E-001;3.360920026898384E-002;-2.578079001978040E-003;-5.742490757256746E-004;
2.402500000000000E+009;1.634895056486130E-001;3.194799274206162E-002;-2.536613261327148E-003;-5.707421805709600E-004;
2.402666666666667E+009;1.642110049724579E-001;3.048099391162396E-002;-2.581608947366476E-003;-5.666306824423373E-004;
2.402833333333334E+009;1.649842858314514E-001;2.890659309923649E-002;-2.603753702715039E-003;-3.376326058059931E-004;
2.403000000000000E+009;1.656448543071747E-001;2.741194702684879E-002;-2.802796661853790E-003;-4.549250588752329E-004;
2.403166666666667E+009;1.667956560850143E-001;2.613571844995022E-002;-2.824174705892801E-003;-4.932819283567369E-004;
2.403333333333334E+009;1.675827056169510E-001;2.485797181725502E-002;-2.747952938079834E-003;-4.442560311872512E-004;
2.403500000000000E+009;1.682031452655792E-001;2.352817729115486E-002;-2.750346204265952E-003;-1.776179269654676E-004;
2.403666666666667E+009;1.692587137222290E-001;2.244720421731472E-002;-2.854081103578210E-003;-3.183155495207757E-004;
2.403833333333334E+009;1.702198535203934E-001;2.134170755743980E-002;-2.792717656120658E-003;-2.025610301643610E-004;
2.404000000000000E+009;1.711543202400208E-001;2.041918411850929E-002;-2.770085120573640E-003;1.161974360002205E-004;
2.404166666666667E+009;1.719022393226624E-001;1.934934593737125E-002;-2.895028330385685E-003;-1.528226857772097E-004;
2.404333333333334E+009;1.728177368640900E-001;1.864592172205448E-002;-2.888006158173084E-003;9.834430238697678E-005;
2.404500000000000E+009;1.734058558940888E-001;1.775022968649864E-002;-2.649741712957621E-003;7.500583160435781E-005;
2.404666666666667E+009;1.742258220911026E-001;1.724697276949883E-002;-2.899913117289543E-003;1.908617705339566E-004;
2.404833333333334E+009;1.749558150768280E-001;1.616740413010120E-002;-2.816572552546859E-003;2.268051612190902E-004;
2.405000000000000E+009;1.757693737745285E-001;1.575473882257938E-002;-2.866543363779783E-003;2.533723891247064E-004;
2.405166666666667E+009;1.764363497495651E-001;1.519845426082611E-002;-3.107348922640085E-003;3.799097903538495E-004;
2.405333333333334E+009;1.770232170820236E-001;1.466973777860403E-002;-2.840816741809249E-003;5.296299932524562E-004;
2.405500000000000E+009;1.774870902299881E-001;1.424498483538628E-002;-3.003132529556751E-003;6.082492182031274E-004;
2.405666666666667E+009;1.779361516237259E-001;1.391369476914406E-002;-2.868080278858542E-003;5.760634085163474E-004;
2.405833333333334E+009;1.783023327589035E-001;1.361406408250332E-002;-2.811527810990810E-003;7.096209446899593E-004;
2.406000000000000E+009;1.788273751735687E-001;1.308233663439751E-002;-2.759424736723304E-003;6.476862472482026E-004;
2.406166666666667E+009;1.788143515586853E-001;1.288626808673143E-002;-2.698257099837065E-003;8.286725496873260E-004;
2.406333333333334E+009;1.792127937078476E-001;1.254231017082930E-002;-2.836940810084343E-003;9.011251386255026E-004;
2.406500000000000E+009;1.792101860046387E-001;1.203655824065208E-002;-2.749036997556686E-003;7.949862047098577E-004;
2.406666666666667E+009;1.790522933006287E-001;1.167237572371960E-002;-2.750385552644730E-003;9.679924696683884E-004;
2.406833333333334E+009;1.792751848697662E-001;1.121325790882111E-002;-2.696530194953084E-003;1.090992474928498E-003;
2.407000000000000E+009;1.792658567428589E-001;1.074625272303820E-002;-2.798492088913918E-003;1.040379167534411E-003;
2.407166666666667E+009;1.791458427906036E-001;1.045292429625988E-002;-2.733728382736445E-003;1.186527311801910E-003;
2.407333333333334E+009;1.788351088762283E-001;9.672719985246658E-003;-2.692095236852765E-003;1.033508917316794E-003;
2.407500000000000E+009;1.785058826208115E-001;9.217090904712677E-003;-2.812906168401241E-003;1.122106565162540E-003;
2.407666666666667E+009;1.782694160938263E-001;8.570778183639050E-003;-2.648968715220690E-003;1.267943414859474E-003;
2.407833333333334E+009;1.776573061943054E-001;7.894917391240597E-003;-2.678814576938748E-003;1.165683148428798E-003;
2.408000000000000E+009;1.773375719785690E-001;6.986863445490599E-003;-2.594730583950877E-003;1.277257921174169E-003;
2.408166666666667E+009;1.766993701457977E-001;6.360609084367752E-003;-2.712066518142819E-003;1.349266618490219E-003;
2.408333333333334E+009;1.763939857482910E-001;5.396870896220207E-003;-2.802547300234437E-003;1.431630691513419E-003;
2.408500000000000E+009;1.757427603006363E-001;4.345930181443691E-003;-2.460533054545522E-003;1.471865456551313E-003;
2.408666666666667E+009;1.751495450735092E-001;3.126051276922226E-003;-2.465242519974709E-003;1.484503038227558E-003;
2.408833333333334E+009;1.745030134916306E-001;2.247791737318039E-003;-2.690787659958005E-003;1.403010217472911E-003;
2.409000000000000E+009;1.739218533039093E-001;1.009993953630328E-003;-2.488344442099333E-003;1.516465679742396E-003;
2.409166666666667E+009;1.732864975929260E-001;-4.508088168222457E-004;-2.586952876299620E-003;1.624519471079111E-003;
2.409333333333334E+009;1.726072579622269E-001;-1.832553069107235E-003;-2.555870451033115E-003;1.756912213750184E-003;
2.409500000000000E+009;1.720056980848312E-001;-3.375488566234708E-003;-2.621711930260062E-003;1.707852701656520E-003;
2.409666666666667E+009;1.714544743299484E-001;-4.719167482107878E-003;-2.658218145370483E-003;1.793207251466811E-003;
2.409833333333334E+009;1.709388494491577E-001;-6.358479149639607E-003;-2.447616308927536E-003;1.939897891134024E-003;
2.410000000000000E+009;1.705025285482407E-001;-7.952432148158550E-003;-2.581845037639141E-003;1.966404030099511E-003;
2.410166666666667E+009;1.700894236564636E-001;-9.545927867293358E-003;-2.620403887704015E-003;2.091097412630916E-003;
2.410333333333334E+009;1.695758551359177E-001;-1.127675827592611E-002;-2.524978714063764E-003;2.009440213441849E-003;
2.410500000000000E+009;1.689865887165070E-001;-1.304015889763832E-002;-2.615655073896051E-003;2.238828921690583E-003;
2.410666666666667E+009;1.688272953033447E-001;-1.501026097685099E-002;-2.588672796264291E-003;2.205236116424203E-003;
2.410833333333334E+009;1.687962263822556E-001;-1.681434549391270E-002;-2.458615228533745E-003;2.434700727462769E-003;
2.411000000000000E+009;1.684442460536957E-001;-1.849646866321564E-002;-2.470779465511441E-003;2.591167576611042E-003;
2.411166666666667E+009;1.682739853858948E-001;-2.053087204694748E-002;-2.365228720009327E-003;2.602249616757035E-003;
2.411333333333334E+009;1.682233810424805E-001;-2.234961837530136E-002;-2.613940043374896E-003;2.742979442700744E-003;
2.411500000000000E+009;1.682443320751190E-001;-2.434092760086060E-002;-2.477971836924553E-003;2.891621552407742E-003;
2.411666666666667E+009;1.685278713703156E-001;-2.608193457126617E-002;-2.385945059359074E-003;2.886837581172586E-003;
2.411833333333334E+009;1.685902774333954E-001;-2.797036617994309E-002;-2.356236567720771E-003;3.177123842760921E-003;
2.412000000000000E+009;1.688545197248459E-001;-2.995081618428230E-002;-2.298521343618631E-003;3.160270862281323E-003;
2.412166666666667E+009;1.688944846391678E-001;-3.180805593729019E-002;-2.246055519208312E-003;3.426652401685715E-003;
2.412333333333334E+009;1.694908887147903E-001;-3.345945104956627E-002;-2.110267290845513E-003;3.370979800820351E-003;
2.412500000000000E+009;1.697154492139816E-001;-3.506232053041458E-002;-2.099050208926201E-003;3.657674416899681E-003;
2.412666666666667E+009;1.704194545745850E-001;-3.706072643399239E-002;-2.027423586696386E-003;3.802216611802578E-003;
2.412833333333334E+009;1.707322001457214E-001;-3.859617933630943E-002;-1.908014179207385E-003;4.053272306919098E-003;
2.413000000000000E+009;1.712547242641449E-001;-4.038117080926895E-002;-1.819515833631158E-003;4.074814729392529E-003;
2.413166666666667E+009;1.715997606515884E-001;-4.189093038439751E-002;-1.654359861277044E-003;4.101991653442383E-003;
2.413333333333334E+009;1.720422506332398E-001;-4.343004152178764E-002;-1.351826358586550E-003;4.167631268501282E-003;
2.413500000000000E+009;1.727920174598694E-001;-4.491026327013969E-002;-1.163001288659871E-003;4.343998618423939E-003;
2.413666666666667E+009;1.734525561332703E-001;-4.620518162846565E-002;-1.194665324874222E-003;4.586102906614542E-003;
2.413833333333334E+009;1.738634854555130E-001;-4.750423505902290E-002;-9.772151242941618E-004;4.478161223232746E-003;
2.414000000000000E+009;1.742656677961350E-001;-4.896158352494240E-002;-6.432001828216016E-004;4.715155810117722E-003;
2.414166666666667E+009;1.749191135168076E-001;-5.000476911664009E-002;-4.495011817198247E-004;4.672794137150049E-003;
2.414333333333334E+009;1.755943596363068E-001;-5.098548904061317E-002;-2.581073204055429E-004;4.782268777489662E-003;
2.414500000000000E+009;1.761806756258011E-001;-5.197083950042725E-002;-1.620047405594960E-004;4.800126887857914E-003;
2.414666666666667E+009;1.763783246278763E-001;-5.286667868494988E-002;1.363526534987614E-004;4.701044410467148E-003;
2.414833333333334E+009;1.767757833003998E-001;-5.379046127200127E-002;2.269677352160215E-004;4.932119976729155E-003;
2.415000000000000E+009;1.771995872259140E-001;-5.439022183418274E-002;5.357595509849489E-004;4.741252399981022E-003;
2.415166666666667E+009;1.774837374687195E-001;-5.514320731163025E-002;7.122862734831870E-004;4.722751211374998E-003;
2.415333333333334E+009;1.776956766843796E-001;-5.585486441850662E-002;8.847565623000264E-004;4.806758370250464E-003;
2.415500000000000E+009;1.778864711523056E-001;-5.635763332247734E-002;1.111228833906353E-003;4.613241646438837E-003;
2.415666666666667E+009;1.780722439289093E-001;-5.679476261138916E-002;1.238298835232854E-003;4.686690401285887E-003;
2.415833333333334E+009;1.781560182571411E-001;-5.724970623850822E-002;1.388672855682671E-003;4.410793073475361E-003;
2.416000000000000E+009;1.779486984014511E-001;-5.755224451422691E-002;1.666488242335618E-003;4.378454294055700E-003;
2.416166666666667E+009;1.778848916292191E-001;-5.800996348261833E-002;1.760905142873526E-003;4.342501983046532E-003;
2.416333333333334E+009;1.777309626340866E-001;-5.818919092416763E-002;1.851999782957137E-003;4.265737254172564E-003;
2.416500000000000E+009;1.774896234273911E-001;-5.860101059079170E-002;1.969919539988041E-003;4.167379811406136E-003;
2.416666666666667E+009;1.771546155214310E-001;-5.884142965078354E-002;2.163467695936561E-003;4.140400793403387E-003;
2.416833333333334E+009;1.766324192285538E-001;-5.919720232486725E-002;2.193464199081063E-003;4.044874105602503E-003;
2.417000000000000E+009;1.760264039039612E-001;-5.949831381440163E-002;2.411881927400827E-003;3.894381923601031E-003;
2.417166666666667E+009;1.753588467836380E-001;-5.966430902481079E-002;2.512207021936774E-003;3.761952277272940E-003;
2.417333333333334E+009;1.747672408819199E-001;-5.985113978385925E-002;2.722514560446143E-003;3.826180007308722E-003;
2.417500000000000E+009;1.738484501838684E-001;-6.041829288005829E-002;2.730260835960507E-003;3.566338913515210E-003;
2.417666666666667E+009;1.731678098440170E-001;-6.064710766077042E-002;2.842826303094626E-003;3.541162004694343E-003;
2.417833333333334E+009;1.723072230815888E-001;-6.098336726427078E-002;2.894577104598284E-003;3.394078230485320E-003;
2.418000000000000E+009;1.712070405483246E-001;-6.162414699792862E-002;3.129416378214955E-003;3.280874807387590E-003;
2.418166666666667E+009;1.702598929405212E-001;-6.196596845984459E-002;3.144429996609688E-003;3.164583118632436E-003;
2.418333333333334E+009;1.693569719791412E-001;-6.251336634159088E-002;3.305124351754785E-003;3.009326290339232E-003;
2.418500000000000E+009;1.681188941001892E-001;-6.298021972179413E-002;3.239671699702740E-003;2.945352112874389E-003;
2.418666666666667E+009;1.671521961688995E-001;-6.371275335550308E-002;3.251231042668223E-003;2.986585954204202E-003;
2.418833333333334E+009;1.657593399286270E-001;-6.447968631982803E-002;3.447845345363021E-003;2.657453296706080E-003;
2.419000000000000E+009;1.645478457212448E-001;-6.516472250223160E-002;3.658553585410118E-003;2.631247276440263E-003;
2.419166666666667E+009;1.633979082107544E-001;-6.604969501495361E-002;3.712824080139399E-003;2.502218121662736E-003;
2.419333333333334E+009;1.621062904596329E-001;-6.677790731191635E-002;3.766477573662996E-003;2.339721657335758E-003;
2.419500000000000E+009;1.611397564411163E-001;-6.799391657114029E-002;3.717235522344708E-003;2.282786415889859E-003;
2.419666666666667E+009;1.600572317838669E-001;-6.909310072660446E-002;3.950268961489201E-003;2.234392566606402E-003;
2.419833333333334E+009;1.587476730346680E-001;-6.990884244441986E-002;3.851162036880851E-003;1.918941154144704E-003;
2.420000000000000E+009;1.579097509384155E-001;-7.115822285413742E-002;4.028835333883762E-003;1.866496517322958E-003;
2.420166666666667E+009;1.568437814712524E-001;-7.248531281948090E-002;3.887771628797054E-003;1.824006205424666E-003;
2.420333333333334E+009;1.559439301490784E-001;-7.389372587203980E-002;4.130886401981115E-003;1.638233312405646E-003;
2.420500000000000E+009;1.549942642450333E-001;-7.494419068098068E-002;4.172458779066801E-003;1.358435372821987E-003;
2.420666666666667E+009;1.541663259267807E-001;-7.632541656494141E-002;4.346197471022606E-003;1.213085022754967E-003;
2.420833333333334E+009;1.532912999391556E-001;-7.792783528566361E-002;4.182097967714071E-003;1.122828340157867E-003;
2.421000000000000E+009;1.526716649532318E-001;-7.928982377052307E-002;4.141231067478657E-003;9.161613415926695E-004;
2.421166666666667E+009;1.519982069730759E-001;-8.094596117734909E-002;4.162537399679422E-003;9.593404247425497E-004;
2.421333333333334E+009;1.517160534858704E-001;-8.256936818361282E-002;4.200788680464029E-003;8.259606547653675E-004;
2.421500000000000E+009;1.511161029338837E-001;-8.410556614398956E-002;4.052882082760334E-003;6.053607794456184E-004;
2.421666666666667E+009;1.506642997264862E-001;-8.571820706129074E-002;4.258957691490650E-003;3.954835701733828E-004;
2.421833333333334E+009;1.504071354866028E-001;-8.735406398773193E-002;4.161587450653315E-003;3.282716206740588E-004;
2.422000000000000E+009;1.501940786838532E-001;-8.912418782711029E-002;4.223679658025503E-003;-3.069324156967923E-005;
2.422166666666667E+009;1.500515341758728E-001;-9.091109037399292E-002;4.164986312389374E-003;-1.890295097837225E-004;
2.422333333333334E+009;1.499819755554199E-001;-9.228673577308655E-002;4.115681629627943E-003;-2.438866795273498E-004;
2.422500000000000E+009;1.501081287860870E-001;-9.371545165777206E-002;3.962111659348011E-003;-3.217523626517505E-004;
2.422666666666667E+009;1.501285284757614E-001;-9.546443074941635E-002;3.984923940151930E-003;-5.278293974697590E-004;
2.422833333333334E+009;1.502831280231476E-001;-9.715531766414642E-002;3.944151569157839E-003;-7.849622052162886E-004;
2.423000000000000E+009;1.504575908184052E-001;-9.848851710557938E-002;3.789753653109074E-003;-6.293241167441011E-004;
2.423166666666667E+009;1.507419496774674E-001;-1.001073047518730E-001;3.730366704985499E-003;-8.913138881325722E-004;
2.423333333333334E+009;1.511694639921188E-001;-1.014593541622162E-001;3.736582817509770E-003;-8.914519567042589E-004;
2.423500000000000E+009;1.514340043067932E-001;-1.029125824570656E-001;3.637643763795495E-003;-1.047118683345616E-003;
2.423666666666667E+009;1.516914218664169E-001;-1.042568683624268E-001;3.596497932448983E-003;-1.234232680872083E-003;
2.423833333333334E+009;1.522296071052551E-001;-1.056153252720833E-001;3.474048338830471E-003;-1.084463088773191E-003;
2.424000000000000E+009;1.523703783750534E-001;-1.066665425896645E-001;3.409624332562089E-003;-1.209148671478033E-003;
2.424166666666667E+009;1.528805941343308E-001;-1.078872904181480E-001;3.366385586559773E-003;-1.538483309559524E-003;
2.424333333333334E+009;1.535210758447647E-001;-1.088165864348412E-001;3.234858158975840E-003;-1.463003689423204E-003;
2.424500000000000E+009;1.539085507392883E-001;-1.098951324820519E-001;3.173220204189420E-003;-1.619940274395049E-003;
2.424666666666667E+009;1.544200778007507E-001;-1.106469854712486E-001;2.934850519523025E-003;-1.547797350212932E-003;
2.424833333333334E+009;1.547980606555939E-001;-1.116514354944229E-001;3.050544299185276E-003;-1.547266030684114E-003;
2.425000000000000E+009;1.551183760166168E-001;-1.124567985534668E-001;3.097310895100236E-003;-1.584092387929559E-003;
2.425166666666667E+009;1.554177403450012E-001;-1.130989417433739E-001;2.880674786865711E-003;-1.666962751187384E-003;
2.425333333333334E+009;1.556933820247650E-001;-1.136940047144890E-001;2.794176572933793E-003;-1.704469672404230E-003;
2.425500000000000E+009;1.561629921197891E-001;-1.143415719270706E-001;2.816899679601193E-003;-1.878404291346669E-003;
2.425666666666667E+009;1.561637073755264E-001;-1.147513389587402E-001;2.428039442747831E-003;-1.710587646812201E-003;
2.425833333333334E+009;1.564506888389587E-001;-1.152314841747284E-001;2.518199849873781E-003;-1.854318310506642E-003;
2.426000000000000E+009;1.564133167266846E-001;-1.157233417034149E-001;2.603211440145969E-003;-1.903668278828263E-003;
2.426166666666667E+009;1.566571593284607E-001;-1.161022633314133E-001;2.442880533635616E-003;-1.921134418807924E-003;
2.426333333333334E+009;1.563074886798859E-001;-1.163289994001389E-001;2.279023174196482E-003;-1.960983499884605E-003;
2.426500000000000E+009;1.562777161598206E-001;-1.166051253676415E-001;2.324315719306469E-003;-2.102429047226906E-003;
2.426666666666667E+009;1.562290936708450E-001;-1.166181862354279E-001;2.289489842951298E-003;-2.040843712165952E-003;
2.426833333333334E+009;1.557830125093460E-001;-1.169172376394272E-001;2.243204740807414E-003;-1.972017576918006E-003;
2.427000000000000E+009;1.552819609642029E-001;-1.171784102916718E-001;2.257620450109243E-003;-2.034252975136042E-003;
2.427166666666667E+009;1.548399329185486E-001;-1.172003895044327E-001;2.137975301593542E-003;-2.105314750224352E-003;
2.427333333333334E+009;1.541706323623657E-001;-1.174641624093056E-001;2.034851349890232E-003;-1.978149404749274E-003;
2.427500000000000E+009;1.535587310791016E-001;-1.176912412047386E-001;1.973941922187805E-003;-1.994726480916143E-003;
2.427666666666667E+009;1.527672559022903E-001;-1.178016215562820E-001;1.944758463650942E-003;-2.177486661821604E-003;
2.427833333333334E+009;1.518448144197464E-001;-1.180909276008606E-001;1.875300542451441E-003;-2.341717714443803E-003;
