# Version 1.00
#
freq[Hz];re:Trc1_S11;im:Trc1_S11;re:Trc2_S21;im:Trc2_S21;
2.400000000000000E+009;1.572341471910477E-001;6.014698743820190E-002;-2.453739754855633E-003;-8.786373073235154E-004;
2.400166666666667E+009;1.572969555854797E-001;5.869875475764275E-002;-2.446755999699235E-003;-7.144876290112734E-004;
2.400333333333334E+009;1.574574708938599E-001;5.655974522233009E-002;-2.207011217251420E-003;-7.605734863318503E-004;
2.400500000000000E+009;1.576713621616364E-001;5.479835346341133E-002;-2.435270696878433E-003;-7.201653788797557E-004;
2.400666666666667E+009;1.578366905450821E-001;5.270192027091980E-002;-2.298449166119099E-003;-7.598196971230209E-004;
2.400833333333334E+009;1.581418961286545E-001;5.101713165640831E-002;-2.434363355860114E-003;-6.434439565055072E-004;
2.401000000000000E+009;1.583807319402695E-001;4.873293638229370E-002;-2.366232918575406E-003;-6.519474554806948E-004;
2.401166666666667E+009;1.587940156459808E-001;4.677974432706833E-002;-2.369232941418886E-003;-5.594662507064641E-004;
2.401333333333334E+009;1.591896712779999E-001;4.489206150174141E-002;-2.406349172815681E-003;-5.308302352204919E-004;
2.401500000000000E+009;1.596633642911911E-001;4.298443347215653E-002;-2.419010037556291E-003;-7.504063542000949E-004;
2.401666666666667E+009;1.602946072816849E-001;4.110827669501305E-002;-2.567946678027511E-003;-7.118660141713917E-004;
2.401833333333334E+009;1.608026176691055E-001;3.896261379122734E-002;-2.510570921003819E-003;-5.211483221501112E-004;
2.402000000000000E+009;1.612175405025482E-001;3.730454295873642E-002;-2.491325838491321E-003;-6.483140750788152E-004;
2.402166666666667E+009;1.619277596473694E-001;3.537417203187943E-002;-2.559033688157797E-003;-6.929038208909333E-004;
2.402333333333334E+009;1.625191867351532E-001;3.374974057078362E-002;-2.501869807019830E-003;-6.275299238041043E-004;
2.402500000000000E+009;1.634742021560669E-001;3.194421529769898E-002;-2.647962421178818E-003;-4.590918542817235E-004;
2.402666666666667E+009;1.641790717840195E-001;3.050588816404343E-002;-2.570442855358124E-003;-4.812590777873993E-004;
2.402833333333334E+009;1.647857129573822E-001;2.901409752666950E-002;-2.649476984515786E-003;-4.866919189225882E-004;
2.403000000000000E+009;1.658069789409638E-001;2.751205302774906E-002;-2.615566132590175E-003;-4.626878362614662E-004;
2.403166666666667E+009;1.666724979877472E-001;2.630141377449036E-002;-2.634892240166664E-003;-3.991953853983432E-004;
2.403333333333334E+009;1.676069945096970E-001;2.498666942119598E-002;-2.861523767933250E-003;-4.855092265643179E-004;
2.403500000000000E+009;1.684022843837738E-001;2.383607812225819E-002;-2.736871829256415E-003;-2.203322655986995E-004;
2.403666666666667E+009;1.691985279321671E-001;2.253252826631069E-002;-2.881529740989208E-003;-9.644227247918025E-006;
2.403833333333334E+009;1.703490316867828E-001;2.140676230192184E-002;-2.743961289525032E-003;-1.535907795187086E-004;
2.404000000000000E+009;1.712877154350281E-001;2.049524337053299E-002;-2.698377473279834E-003;-1.205981025123037E-004;
2.404166666666667E+009;1.720587015151978E-001;1.950841210782528E-002;-2.945327898487449E-003;5.141142173670232E-005;
2.404333333333334E+009;1.728533655405045E-001;1.868803612887859E-002;-2.797410357743502E-003;4.877092214883305E-005;
2.404500000000000E+009;1.735428124666214E-001;1.775189675390720E-002;-2.796685788780451E-003;1.708686468191445E-004;
2.404666666666667E+009;1.744483560323715E-001;1.708285138010979E-002;-2.992436289787293E-003;2.512212959118187E-004;
2.404833333333334E+009;1.749462932348251E-001;1.633212901651859E-002;-2.853320678696036E-003;4.054988094139844E-004;
2.405000000000000E+009;1.757935881614685E-001;1.583172939717770E-002;-2.811560407280922E-003;5.831185262650251E-004;
2.405166666666667E+009;1.763925403356552E-001;1.514855027198792E-002;-2.789430320262909E-003;4.372035618871450E-004;
2.405333333333334E+009;1.769603788852692E-001;1.465103961527348E-002;-2.679409692063928E-003;6.181583157740533E-004;
2.405500000000000E+009;1.776758730411530E-001;1.434670761227608E-002;-2.648224122822285E-003;4.420437908265740E-004;
2.405666666666667E+009;1.779588758945465E-001;1.385596580803394E-002;-2.674168441444635E-003;6.370499031618238E-004;
2.405833333333334E+009;1.782958805561066E-001;1.357757393270731E-002;-2.726161852478981E-003;6.669610738754273E-004;
2.406000000000000E+009;1.786956191062927E-001;1.305993180721998E-002;-2.643880667164922E-003;6.288750446401537E-004;
2.406166666666667E+009;1.787950098514557E-001;1.300699450075626E-002;-2.777994610369206E-003;6.687762797810137E-004;
2.406333333333334E+009;1.791899800300598E-001;1.250006072223187E-002;-2.601191634312272E-003;9.783774148672819E-004;
2.406500000000000E+009;1.792230010032654E-001;1.206321828067303E-002;-2.743998775258660E-003;9.154434083029628E-004;
2.406666666666667E+009;1.790643185377121E-001;1.185434218496084E-002;-2.560329623520374E-003;9.405993623659015E-004;
2.406833333333334E+009;1.792099773883820E-001;1.128224097192287E-002;-2.626992762088776E-003;1.009442843496800E-003;
2.407000000000000E+009;1.791470199823380E-001;1.081676594913006E-002;-2.732738852500916E-003;9.922507451847196E-004;
2.407166666666667E+009;1.790829896926880E-001;1.043769344687462E-002;-2.682025777176023E-003;1.097840140573680E-003;
2.407333333333334E+009;1.786505281925201E-001;9.906109422445297E-003;-2.611286239698529E-003;1.164694316685200E-003;
2.407500000000000E+009;1.784932017326355E-001;9.422009810805321E-003;-2.485168864950538E-003;1.218172721564770E-003;
2.407666666666667E+009;1.782828718423843E-001;8.729026652872562E-003;-2.654871437698603E-003;1.336310524493456E-003;
2.407833333333334E+009;1.776898354291916E-001;8.008071221411228E-003;-2.687155269086361E-003;1.343237119726837E-003;
2.408000000000000E+009;1.772673428058624E-001;7.121828384697437E-003;-2.619795501232147E-003;1.356615335680544E-003;
2.408166666666667E+009;1.767107993364334E-001;6.548047531396151E-003;-2.595174126327038E-003;1.402497640810907E-003;
2.408333333333334E+009;1.763069778680801E-001;5.422480870038271E-003;-2.546772826462984E-003;1.453580567613244E-003;
2.408500000000000E+009;1.756683588027954E-001;4.430207423865795E-003;-2.472650725394487E-003;1.414245925843716E-003;
2.408666666666667E+009;1.751530021429062E-001;3.412729594856501E-003;-2.481122966855764E-003;1.522868173196912E-003;
2.408833333333334E+009;1.744421720504761E-001;2.101234858855605E-003;-2.519168891012669E-003;1.631575520150363E-003;
2.409000000000000E+009;1.739288568496704E-001;1.042887917719781E-003;-2.569702919572592E-003;1.672567334026098E-003;
2.409166666666667E+009;1.733317524194717E-001;-3.632792795542628E-004;-2.578777493909001E-003;1.715682679787278E-003;
2.409333333333334E+009;1.727826297283173E-001;-1.849497435614467E-003;-2.573738805949688E-003;1.749225659295917E-003;
2.409500000000000E+009;1.720946133136749E-001;-3.381708869710565E-003;-2.472556196153164E-003;1.837951480410993E-003;
2.409666666666667E+009;1.714428365230560E-001;-4.743106197565794E-003;-2.626877976581454E-003;1.927258679643273E-003;
2.409833333333334E+009;1.708363294601440E-001;-6.212485488504171E-003;-2.551362384110689E-003;1.827867934480310E-003;
2.410000000000000E+009;1.706018298864365E-001;-7.707952521741390E-003;-2.611254109069705E-003;1.849300228059292E-003;
2.410166666666667E+009;1.700062006711960E-001;-9.590467438101769E-003;-2.718364121392369E-003;2.092813141644001E-003;
2.410333333333334E+009;1.695694327354431E-001;-1.130375545471907E-002;-2.548956545069814E-003;2.102314028888941E-003;
2.410500000000000E+009;1.692437827587128E-001;-1.308065652847290E-002;-2.442814409732819E-003;2.174732508137822E-003;
2.410666666666667E+009;1.687452495098114E-001;-1.482311356812716E-002;-2.356682671234012E-003;2.288089133799076E-003;
2.410833333333334E+009;1.686496883630753E-001;-1.670099236071110E-002;-2.569851232692599E-003;2.340135397389531E-003;
2.411000000000000E+009;1.684040129184723E-001;-1.859100908041000E-002;-2.609205665066838E-003;2.535994863137603E-003;
2.411166666666667E+009;1.683996170759201E-001;-2.050852403044701E-002;-2.378180390223861E-003;2.723663812503219E-003;
2.411333333333334E+009;1.683814972639084E-001;-2.236751839518547E-002;-2.412086352705956E-003;2.627260750159621E-003;
2.411500000000000E+009;1.682586967945099E-001;-2.429800853133202E-002;-2.444736659526825E-003;2.866304013878107E-003;
2.411666666666667E+009;1.684137433767319E-001;-2.618498355150223E-002;-2.480559283867478E-003;2.966381376609206E-003;
2.411833333333334E+009;1.685312986373901E-001;-2.796427533030510E-002;-2.285076072439551E-003;3.197471611201763E-003;
2.412000000000000E+009;1.688538938760757E-001;-2.991367317736149E-002;-2.260090550407767E-003;3.164689289405942E-003;
2.412166666666667E+009;1.691420972347260E-001;-3.149332106113434E-002;-2.174904104322195E-003;3.260123776271939E-003;
2.412333333333334E+009;1.695227622985840E-001;-3.346862643957138E-002;-2.112178830429912E-003;3.570676781237125E-003;
2.412500000000000E+009;1.697742938995361E-001;-3.514767810702324E-002;-2.005176385864615E-003;3.616929985582829E-003;
2.412666666666667E+009;1.701574027538300E-001;-3.714873641729355E-002;-1.996902748942375E-003;3.824052400887013E-003;
2.412833333333334E+009;1.706737428903580E-001;-3.874833136796951E-002;-1.855681533925235E-003;3.900918178260326E-003;
2.413000000000000E+009;1.711600422859192E-001;-4.031648486852646E-002;-1.658429508097470E-003;4.077618476003408E-003;
2.413166666666667E+009;1.716738790273666E-001;-4.180123284459114E-002;-1.644529518671334E-003;4.063532222062349E-003;
2.413333333333334E+009;1.720664203166962E-001;-4.346986114978790E-002;-1.525342231616378E-003;4.258530214428902E-003;
2.413500000000000E+009;1.728838533163071E-001;-4.500927031040192E-002;-1.041227718815208E-003;4.340579267591238E-003;
2.413666666666667E+009;1.733411997556686E-001;-4.628614336252213E-002;-1.191271585412324E-003;4.371900577098131E-003;
2.413833333333334E+009;1.738173663616180E-001;-4.754655063152313E-002;-9.547003428451717E-004;4.785677418112755E-003;
2.414000000000000E+009;1.743512004613876E-001;-4.878784343600273E-002;-7.210292969830334E-004;4.638243000954390E-003;
2.414166666666667E+009;1.749219000339508E-001;-4.986318200826645E-002;-4.878913168795407E-004;4.791731480509043E-003;
2.414333333333334E+009;1.754655092954636E-001;-5.101489275693893E-002;-3.289435408078134E-004;4.744693636894226E-003;
2.414500000000000E+009;1.760883480310440E-001;-5.203908681869507E-002;-5.488359965966083E-005;4.800430033355951E-003;
2.414666666666667E+009;1.764450967311859E-001;-5.288354679942131E-002;1.864099758677185E-004;4.754791036248207E-003;
2.414833333333334E+009;1.767773032188416E-001;-5.376003682613373E-002;2.052222116617486E-004;4.607566632330418E-003;
2.415000000000000E+009;1.770677864551544E-001;-5.442304909229279E-002;5.788263515569270E-004;4.899981897324324E-003;
2.415166666666667E+009;1.774293482303619E-001;-5.517399311065674E-002;8.893933845683932E-004;4.764948040246964E-003;
2.415333333333334E+009;1.776421219110489E-001;-5.583511665463448E-002;8.995311218313873E-004;4.706834908574820E-003;
2.415500000000000E+009;1.777801513671875E-001;-5.631541833281517E-002;1.108022639527917E-003;4.518658388406038E-003;
2.415666666666667E+009;1.780184209346771E-001;-5.674213171005249E-002;1.215232419781387E-003;4.604151006788015E-003;
2.415833333333334E+009;1.781072765588760E-001;-5.714221671223640E-002;1.367960125207901E-003;4.500709939748049E-003;
2.416000000000000E+009;1.778983473777771E-001;-5.758817493915558E-002;1.770872389897704E-003;4.441582132130861E-003;
2.416166666666667E+009;1.779461652040482E-001;-5.801395699381828E-002;1.841814490035176E-003;4.324060399085283E-003;
2.416333333333334E+009;1.778189539909363E-001;-5.821838602423668E-002;1.914393389597535E-003;4.375590942800045E-003;
2.416500000000000E+009;1.773711740970612E-001;-5.851220712065697E-002;2.068268600851297E-003;4.253080114722252E-003;
2.416666666666667E+009;1.769895255565643E-001;-5.882884562015533E-002;2.223593182861805E-003;4.080237355083227E-003;
2.416833333333334E+009;1.766640692949295E-001;-5.921727791428566E-002;2.297593746334314E-003;4.077854100614786E-003;
2.417000000000000E+009;1.759824752807617E-001;-5.951305851340294E-002;2.421862445771694E-003;3.944423981010914E-003;
2.417166666666667E+009;1.753989160060883E-001;-5.962360650300980E-002;2.619867213070393E-003;3.818886354565620E-003;
2.417333333333334E+009;1.747224330902100E-001;-6.001260131597519E-002;2.666800981387496E-003;3.622538642957807E-003;
2.417500000000000E+009;1.739647984504700E-001;-6.045556813478470E-002;2.877260558307171E-003;3.685698378831148E-003;
2.417666666666667E+009;1.732878684997559E-001;-6.056442856788635E-002;2.886152826249600E-003;3.593919798731804E-003;
2.417833333333334E+009;1.722403019666672E-001;-6.106942147016525E-002;3.025216748937964E-003;3.606868907809258E-003;
2.418000000000000E+009;1.711703836917877E-001;-6.148602068424225E-002;3.146799514070153E-003;3.361638868227601E-003;
2.418166666666667E+009;1.701930314302445E-001;-6.185532361268997E-002;3.074853215366602E-003;3.219567704945803E-003;
2.418333333333334E+009;1.694720238447189E-001;-6.237042695283890E-002;3.226957516744733E-003;2.978950506076217E-003;
2.418500000000000E+009;1.682178527116776E-001;-6.303822249174118E-002;3.423325950279832E-003;3.033121582120657E-003;
2.418666666666667E+009;1.672114133834839E-001;-6.372664123773575E-002;3.524037310853601E-003;2.975899027660489E-003;
2.418833333333334E+009;1.658401489257813E-001;-6.442673504352570E-002;3.659325651824474E-003;2.663572551682591E-003;
2.419000000000000E+009;1.646264344453812E-001;-6.511257588863373E-002;3.616431960836053E-003;2.642504870891571E-003;
2.419166666666667E+009;1.634579449892044E-001;-6.610267609357834E-002;3.619286231696606E-003;2.569722244516015E-003;
2.419333333333334E+009;1.621164679527283E-001;-6.688316166400909E-002;3.851728048175573E-003;2.231539227068424E-003;
2.419500000000000E+009;1.611750423908234E-001;-6.783545762300491E-002;3.787601366639137E-003;2.278186148032546E-003;
2.419666666666667E+009;1.600850969552994E-001;-6.898464262485504E-002;3.972689155489206E-003;2.189934719353914E-003;
2.419833333333334E+009;1.588977426290512E-001;-7.007690519094467E-002;3.899494651705027E-003;2.035302808508277E-003;
2.420000000000000E+009;1.580713689327240E-001;-7.119327038526535E-002;3.971537575125694E-003;2.007680013775826E-003;
2.420166666666667E+009;1.569558233022690E-001;-7.247284799814224E-002;3.975370898842812E-003;1.693466911092401E-003;
2.420333333333334E+009;1.559177041053772E-001;-7.372254133224487E-002;4.084244836121798E-003;1.576879643835127E-003;
2.420500000000000E+009;1.550624221563339E-001;-7.512446492910385E-002;4.162333905696869E-003;1.350547652691603E-003;
2.420666666666667E+009;1.542158424854279E-001;-7.639601081609726E-002;4.180209245532751E-003;1.356812426820397E-003;
2.420833333333334E+009;1.535258442163467E-001;-7.790704816579819E-002;4.233891610056162E-003;1.055332715623081E-003;
2.421000000000000E+009;1.525431126356125E-001;-7.939188927412033E-002;4.287376534193754E-003;9.946515783667564E-004;
2.421166666666667E+009;1.521662920713425E-001;-8.105754107236862E-002;4.269507713615894E-003;8.611272787675262E-004;
2.421333333333334E+009;1.517551094293594E-001;-8.255827426910400E-002;4.139038734138012E-003;6.721882382407785E-004;
2.421500000000000E+009;1.510002762079239E-001;-8.407493680715561E-002;4.306043032556772E-003;4.794911656063050E-004;
2.421666666666667E+009;1.508936285972595E-001;-8.553681522607803E-002;4.139526747167110E-003;3.367046592757106E-004;
2.421833333333334E+009;1.505514681339264E-001;-8.731164038181305E-002;4.218352492898703E-003;1.421589549863711E-004;
2.422000000000000E+009;1.502023190259934E-001;-8.906695246696472E-002;4.238985944539309E-003;6.075998317101039E-005;
2.422166666666667E+009;1.500918120145798E-001;-9.065272659063339E-002;4.083899781107903E-003;-1.377022854285315E-004;
2.422333333333334E+009;1.500959843397141E-001;-9.229690581560135E-002;4.004402551800013E-003;-2.756878093350679E-004;
2.422500000000000E+009;1.498338729143143E-001;-9.382741898298264E-002;4.124784842133522E-003;-3.836316464003176E-004;
2.422666666666667E+009;1.499454975128174E-001;-9.540962427854538E-002;3.954030107706785E-003;-4.240506095811725E-004;
2.422833333333334E+009;1.500773727893829E-001;-9.696101397275925E-002;3.992724232375622E-003;-7.592248148284853E-004;
2.423000000000000E+009;1.503669619560242E-001;-9.852532297372818E-002;3.790692891925573E-003;-8.381792576983571E-004;
2.423166666666667E+009;1.507305353879929E-001;-1.000381559133530E-001;3.803328610956669E-003;-9.306987631134689E-004;
2.423333333333334E+009;1.511506885290146E-001;-1.012186557054520E-001;3.538081189617515E-003;-9.654826135374606E-004;
2.423500000000000E+009;1.513830125331879E-001;-1.029398739337921E-001;3.538779448717833E-003;-1.169588533230126E-003;
2.423666666666667E+009;1.516279578208923E-001;-1.042308509349823E-001;3.450745018199086E-003;-1.199164660647512E-003;
2.423833333333334E+009;1.522575765848160E-001;-1.055023744702339E-001;3.526372369378805E-003;-1.295505673624575E-003;
2.424000000000000E+009;1.524617373943329E-001;-1.066057160496712E-001;3.276009578257799E-003;-1.025499659590423E-003;
2.424166666666667E+009;1.530633270740509E-001;-1.078301444649696E-001;3.114341991022229E-003;-1.432012068107724E-003;
2.424333333333334E+009;1.535303145647049E-001;-1.087701097130776E-001;3.259442048147321E-003;-1.463737222366035E-003;
2.424500000000000E+009;1.539983302354813E-001;-1.097913980484009E-001;3.086037468165159E-003;-1.673415536060929E-003;
2.424666666666667E+009;1.544661670923233E-001;-1.105993017554283E-001;3.018359187990427E-003;-1.718342071399093E-003;
2.424833333333334E+009;1.547736525535584E-001;-1.115926653146744E-001;2.793913939967752E-003;-1.687896787188947E-003;
2.425000000000000E+009;1.551727056503296E-001;-1.123010516166687E-001;2.804041607305408E-003;-1.711314776912332E-003;
2.425166666666667E+009;1.553664803504944E-001;-1.130096167325974E-001;2.748647937551141E-003;-1.849085441790521E-003;
2.425333333333334E+009;1.557726413011551E-001;-1.136348918080330E-001;2.900855382904410E-003;-1.682402333244681E-003;
2.425500000000000E+009;1.561454534530640E-001;-1.143207922577858E-001;2.848424948751926E-003;-1.810964429751039E-003;
2.425666666666667E+009;1.561535298824310E-001;-1.147006228566170E-001;2.689957618713379E-003;-1.944012823514640E-003;
2.425833333333334E+009;1.562964469194412E-001;-1.152462288737297E-001;2.609524410218000E-003;-1.921425107866526E-003;
2.426000000000000E+009;1.563559770584106E-001;-1.157086342573166E-001;2.440459094941616E-003;-1.933913445100188E-003;
2.426166666666667E+009;1.566360592842102E-001;-1.160281300544739E-001;2.539372071623802E-003;-1.867947052232921E-003;
2.426333333333334E+009;1.564322859048843E-001;-1.163127720355988E-001;2.341375919058919E-003;-2.035053679719567E-003;
2.426500000000000E+009;1.562767475843430E-001;-1.164823099970818E-001;2.184086712077260E-003;-1.907052355818451E-003;
2.426666666666667E+009;1.561715602874756E-001;-1.165801882743835E-001;2.389799803495407E-003;-2.065633423626423E-003;
2.426833333333334E+009;1.557033658027649E-001;-1.169549301266670E-001;2.205902244895697E-003;-2.147259656339884E-003;
2.427000000000000E+009;1.552898436784744E-001;-1.172177270054817E-001;2.062213141471148E-003;-2.184808719903231E-003;
2.427166666666667E+009;1.548013091087341E-001;-1.173510178923607E-001;2.213510684669018E-003;-2.167675178498030E-003;
2.427333333333334E+009;1.542075723409653E-001;-1.174655929207802E-001;2.169674029573798E-003;-2.273388905450702E-003;
2.427500000000000E+009;1.536196470260620E-001;-1.176815479993820E-001;1.990434713661671E-003;-2.102307043969631E-003;
2.427666666666667E+009;1.528230756521225E-001;-1.179356649518013E-001;1.957981847226620E-003;-2.177699469029903E-003;
2.427833333333334E+009;1.518094837665558E-001;-1.181718632578850E-001;1.862192177213728E-003;-2.278923057019711E-003;
