# Version 1.00
#
freq[Hz];re:Trc1_S11;im:Trc1_S11;re:Trc2_S21;im:Trc2_S21;
2.400000000000000E+009;1.572865247726440E-001;6.023404002189636E-002;-2.415744820609689E-003;-5.612215609289706E-004;
2.400166666666667E+009;1.574329882860184E-001;5.855347216129303E-002;-2.182608470320702E-003;-6.222725496627390E-004;
2.400333333333334E+009;1.574605703353882E-001;5.665659159421921E-002;-2.374881180003285E-003;-6.112253176979721E-004;
2.400500000000000E+009;1.575778424739838E-001;5.463927984237671E-002;-2.264358103275299E-003;-7.084165117703378E-004;
2.400666666666667E+009;1.579155474901199E-001;5.268301814794540E-002;-2.355882897973061E-003;-7.769892690703273E-004;
2.400833333333334E+009;1.581470817327499E-001;5.079912766814232E-002;-2.416029106825590E-003;-6.084918859414756E-004;
2.401000000000000E+009;1.585950851440430E-001;4.874195903539658E-002;-2.333778655156493E-003;-6.591584533452988E-004;
2.401166666666667E+009;1.588171869516373E-001;4.686376079916954E-002;-2.374559408053756E-003;-7.040940108709037E-004;
2.401333333333334E+009;1.591168493032455E-001;4.484206438064575E-002;-2.344971755519509E-003;-6.480037700384855E-004;
2.401500000000000E+009;1.597485244274139E-001;4.285454750061035E-002;-2.357275923714042E-003;-5.131260841153562E-004;
2.401666666666667E+009;1.603047400712967E-001;4.090908542275429E-002;-2.441893331706524E-003;-5.610539810732007E-004;
2.401833333333334E+009;1.606919318437576E-001;3.900217264890671E-002;-2.502056770026684E-003;-4.800578753929585E-004;
2.402000000000000E+009;1.611800491809845E-001;3.711564466357231E-002;-2.467250451445580E-003;-6.318836822174490E-004;
2.402166666666667E+009;1.618520170450211E-001;3.519811853766441E-002;-2.449079649522901E-003;-5.428902222774923E-004;
2.402333333333334E+009;1.626399308443070E-001;3.373715654015541E-002;-2.575713675469160E-003;-6.129804532974958E-004;
2.402500000000000E+009;1.635121554136276E-001;3.199885413050652E-002;-2.576669212430716E-003;-3.960079338867217E-004;
2.402666666666667E+009;1.641707867383957E-001;3.040540032088757E-002;-2.557533094659448E-003;-5.518030375242233E-004;
2.402833333333334E+009;1.649240255355835E-001;2.878746576607227E-002;-2.664600731804967E-003;-3.626881807576865E-004;
2.403000000000000E+009;1.658321470022202E-001;2.744318731129170E-002;-2.548507880419493E-003;-3.040744632016867E-004;
2.403166666666667E+009;1.666842848062515E-001;2.599579282104969E-002;-2.599340630695224E-003;-4.151219909545034E-004;
2.403333333333334E+009;1.676375865936279E-001;2.490839920938015E-002;-2.800077665597200E-003;-2.840196539182216E-004;
2.403500000000000E+009;1.683281064033508E-001;2.367187663912773E-002;-2.787302481010556E-003;-2.872489276342094E-004;
2.403666666666667E+009;1.692993491888046E-001;2.236533351242542E-002;-2.665614709258080E-003;-1.959279179573059E-004;
2.403833333333334E+009;1.703730076551437E-001;2.132743410766125E-002;-2.883843146264553E-003;-1.187054513138719E-004;
2.404000000000000E+009;1.711560636758804E-001;2.040852978825569E-002;-2.923529595136643E-003;-1.362835319014266E-004;
2.404166666666667E+009;1.721366196870804E-001;1.937538199126720E-002;-2.882929984480143E-003;-4.473976878216490E-005;
2.404333333333334E+009;1.726651042699814E-001;1.853372342884541E-002;-2.872035838663578E-003;1.467326947022229E-004;
2.404500000000000E+009;1.734609901905060E-001;1.777580194175243E-002;-2.974299015477300E-003;1.131744356825948E-004;
2.404666666666667E+009;1.744175255298615E-001;1.702993921935558E-002;-2.868912881240249E-003;2.520575944799930E-004;
2.404833333333334E+009;1.752281337976456E-001;1.636102981865406E-002;-2.867452101781964E-003;4.058187187183648E-004;
2.405000000000000E+009;1.759691089391708E-001;1.568183675408363E-002;-2.701027086004615E-003;3.658839559648186E-004;
2.405166666666667E+009;1.764343380928040E-001;1.519911270588636E-002;-2.739585237577558E-003;6.113715353421867E-004;
2.405333333333334E+009;1.771370619535446E-001;1.465586852282286E-002;-2.748232567682862E-003;6.210400024428964E-004;
2.405500000000000E+009;1.775215715169907E-001;1.432422734797001E-002;-2.812712918967009E-003;8.295049774460495E-004;
2.405666666666667E+009;1.780852675437927E-001;1.393906120210886E-002;-2.825118601322174E-003;6.078863516449928E-004;
2.405833333333334E+009;1.783113926649094E-001;1.352175697684288E-002;-2.709622727707028E-003;7.005861843936145E-004;
2.406000000000000E+009;1.786965280771256E-001;1.296664495021105E-002;-2.609780756756663E-003;8.571950020268560E-004;
2.406166666666667E+009;1.788299828767777E-001;1.291212160140276E-002;-2.684516832232475E-003;8.675751741975546E-004;
2.406333333333334E+009;1.791935861110687E-001;1.254608575254679E-002;-2.821632893756032E-003;7.231702911667526E-004;
2.406500000000000E+009;1.791577041149139E-001;1.200373563915491E-002;-2.680796431377530E-003;7.112958119250834E-004;
2.406666666666667E+009;1.790922731161118E-001;1.176417618989945E-002;-2.567826071754098E-003;1.002202625386417E-003;
2.406833333333334E+009;1.791787445545197E-001;1.135561242699623E-002;-2.625205554068089E-003;9.805004810914397E-004;
2.407000000000000E+009;1.790651082992554E-001;1.088819652795792E-002;-2.487215213477612E-003;1.093515427783132E-003;
2.407166666666667E+009;1.791447997093201E-001;1.037852838635445E-002;-2.596896840259433E-003;1.027046353556216E-003;
2.407333333333334E+009;1.787326931953430E-001;9.885697625577450E-003;-2.791018690913916E-003;1.193279400467873E-003;
2.407500000000000E+009;1.784100681543350E-001;9.326943196356297E-003;-2.620557090267539E-003;1.288809347897768E-003;
2.407666666666667E+009;1.780770421028137E-001;8.665920235216618E-003;-2.543537877500057E-003;1.182965119369328E-003;
2.407833333333334E+009;1.775122135877609E-001;7.902163080871105E-003;-2.649732632562518E-003;1.295230234973133E-003;
2.408000000000000E+009;1.771847158670425E-001;7.014743983745575E-003;-2.507603494450450E-003;1.281837816350162E-003;
2.408166666666667E+009;1.766210049390793E-001;6.439547520130873E-003;-2.482062904164195E-003;1.305111334659159E-003;
2.408333333333334E+009;1.763112545013428E-001;5.395721644163132E-003;-2.545802388340235E-003;1.380680827423930E-003;
2.408500000000000E+009;1.756813973188400E-001;4.410040099173784E-003;-2.680785488337278E-003;1.651180675253272E-003;
2.408666666666667E+009;1.750661581754684E-001;3.366083838045597E-003;-2.442877506837249E-003;1.506573287770152E-003;
2.408833333333334E+009;1.745275408029556E-001;2.128325169906020E-003;-2.602416323497891E-003;1.620655646547675E-003;
2.409000000000000E+009;1.738494336605072E-001;1.055975561030209E-003;-2.614420140162110E-003;1.637443900108337E-003;
2.409166666666667E+009;1.732035130262375E-001;-2.751510764937848E-004;-2.571340650320053E-003;1.631996128708124E-003;
2.409333333333334E+009;1.728031784296036E-001;-1.742476481013000E-003;-2.553265076130629E-003;1.748892711475492E-003;
2.409500000000000E+009;1.720395535230637E-001;-3.285134676843882E-003;-2.519970992580056E-003;1.757780672051013E-003;
2.409666666666667E+009;1.714703291654587E-001;-4.761490505188704E-003;-2.544787712395191E-003;1.809736713767052E-003;
2.409833333333334E+009;1.707639396190643E-001;-6.126098800450563E-003;-2.431896049529314E-003;2.028425224125385E-003;
2.410000000000000E+009;1.706122308969498E-001;-7.920794188976288E-003;-2.625151537358761E-003;2.018618630245328E-003;
2.410166666666667E+009;1.699525117874146E-001;-9.428364224731922E-003;-2.381952246651053E-003;1.963802846148610E-003;
2.410333333333334E+009;1.694888621568680E-001;-1.126824691891670E-002;-2.459421521052718E-003;2.147611696273089E-003;
2.410500000000000E+009;1.691978722810745E-001;-1.305556297302246E-002;-2.428937936201692E-003;2.315246732905507E-003;
2.410666666666667E+009;1.686534136533737E-001;-1.506617665290833E-002;-2.538183936849237E-003;2.298069885000587E-003;
2.410833333333334E+009;1.687184423208237E-001;-1.684264838695526E-002;-2.504402538761497E-003;2.453670836985111E-003;
2.411000000000000E+009;1.684918403625488E-001;-1.864708214998245E-002;-2.455354435369372E-003;2.607518574222922E-003;
2.411166666666667E+009;1.682699024677277E-001;-2.043508365750313E-002;-2.456904388964176E-003;2.774441614747047E-003;
2.411333333333334E+009;1.682117134332657E-001;-2.217061072587967E-002;-2.471748972311616E-003;2.655134769156575E-003;
2.411500000000000E+009;1.682276725769043E-001;-2.433048933744431E-002;-2.430306049063802E-003;2.909281058236957E-003;
2.411666666666667E+009;1.684812605381012E-001;-2.618995308876038E-002;-2.548103686422110E-003;3.029535990208387E-003;
2.411833333333334E+009;1.685457378625870E-001;-2.791439369320869E-002;-2.301541855558753E-003;2.984358463436365E-003;
2.412000000000000E+009;1.687711179256439E-001;-2.993015758693218E-002;-2.370919100940228E-003;3.306838218122721E-003;
2.412166666666667E+009;1.690237820148468E-001;-3.155661374330521E-002;-2.141360659152269E-003;3.276328556239605E-003;
2.412333333333334E+009;1.695577502250671E-001;-3.344001248478890E-002;-2.199430717155337E-003;3.532783361151815E-003;
2.412500000000000E+009;1.696882843971252E-001;-3.513681143522263E-002;-2.001296030357480E-003;3.645217744633555E-003;
2.412666666666667E+009;1.702538728713989E-001;-3.708897158503532E-002;-1.861159806139767E-003;3.704271744936705E-003;
2.412833333333334E+009;1.707101613283157E-001;-3.852031379938126E-002;-1.888796337880194E-003;3.975654020905495E-003;
2.413000000000000E+009;1.713022291660309E-001;-4.025377333164215E-002;-1.691312063485384E-003;3.988290205597878E-003;
2.413166666666667E+009;1.718323081731796E-001;-4.186775907874107E-002;-1.767809037119150E-003;4.146712832152844E-003;
2.413333333333334E+009;1.721955239772797E-001;-4.326853528618813E-002;-1.548338099382818E-003;4.304907750338316E-003;
2.413500000000000E+009;1.727021187543869E-001;-4.493859037756920E-002;-1.339890761300921E-003;4.290411248803139E-003;
2.413666666666667E+009;1.733902692794800E-001;-4.633120819926262E-002;-9.564795182086527E-004;4.493446089327335E-003;
2.413833333333334E+009;1.738470643758774E-001;-4.752376675605774E-002;-8.087537134997547E-004;4.596163053065538E-003;
2.414000000000000E+009;1.743672937154770E-001;-4.886582121253014E-002;-7.169463206082583E-004;4.532455001026392E-003;
2.414166666666667E+009;1.751118153333664E-001;-5.000657588243485E-002;-5.430183955468237E-004;4.803023766726255E-003;
2.414333333333334E+009;1.754259169101715E-001;-5.105845257639885E-002;-3.008470230270177E-004;4.685699008405209E-003;
2.414500000000000E+009;1.761101931333542E-001;-5.194641649723053E-002;-2.196787681896240E-004;4.798519425094128E-003;
2.414666666666667E+009;1.764869540929794E-001;-5.282892659306526E-002;1.820128236431629E-004;4.772325046360493E-003;
2.414833333333334E+009;1.767723113298416E-001;-5.375669151544571E-002;3.330863255541772E-004;4.677643533796072E-003;
2.415000000000000E+009;1.770445257425308E-001;-5.444837361574173E-002;5.396071355789900E-004;4.747119266539812E-003;
2.415166666666667E+009;1.773912757635117E-001;-5.520930513739586E-002;8.039380772970617E-004;4.691459704190493E-003;
2.415333333333334E+009;1.778350919485092E-001;-5.578576400876045E-002;8.610846707597375E-004;4.795902874320746E-003;
2.415500000000000E+009;1.779403537511826E-001;-5.626570433378220E-002;1.023359829559922E-003;4.663512110710144E-003;
2.415666666666667E+009;1.780595481395721E-001;-5.677748098969460E-002;1.403052592650056E-003;4.574493039399386E-003;
2.415833333333334E+009;1.780280470848084E-001;-5.711612105369568E-002;1.570490072481334E-003;4.571757744997740E-003;
2.416000000000000E+009;1.779849678277969E-001;-5.765724927186966E-002;1.558586605824530E-003;4.356618504971266E-003;
2.416166666666667E+009;1.779728680849075E-001;-5.798863992094994E-002;1.741143292747438E-003;4.319354426115751E-003;
2.416333333333334E+009;1.777816414833069E-001;-5.818751454353333E-002;1.879518036730588E-003;4.240777809172869E-003;
2.416500000000000E+009;1.774780899286270E-001;-5.859373137354851E-002;2.124736318364739E-003;4.097288474440575E-003;
2.416666666666667E+009;1.769802570343018E-001;-5.887770280241966E-002;2.258760156109929E-003;4.147711209952831E-003;
2.416833333333334E+009;1.767330765724182E-001;-5.919953435659409E-002;2.443611854687333E-003;3.979898057878017E-003;
2.417000000000000E+009;1.760897785425186E-001;-5.942570790648460E-002;2.501681679859757E-003;3.923864103853703E-003;
2.417166666666667E+009;1.753521412611008E-001;-5.965974926948547E-002;2.661402337253094E-003;3.898755647242069E-003;
2.417333333333334E+009;1.748134642839432E-001;-5.994356423616409E-002;2.707574516534805E-003;3.715527243912220E-003;
2.417500000000000E+009;1.738764643669128E-001;-6.040499359369278E-002;2.753566019237042E-003;3.623635740950704E-003;
2.417666666666667E+009;1.732130795717239E-001;-6.064942851662636E-002;2.892709337174892E-003;3.537142649292946E-003;
2.417833333333334E+009;1.722749769687653E-001;-6.107591465115547E-002;3.049870952963829E-003;3.349986160174012E-003;
2.418000000000000E+009;1.711218059062958E-001;-6.153185665607452E-002;3.146436996757984E-003;3.290693042799830E-003;
2.418166666666667E+009;1.701955050230026E-001;-6.183518096804619E-002;3.197206184267998E-003;3.165135858580470E-003;
2.418333333333334E+009;1.693333089351654E-001;-6.256122887134552E-002;3.345249919220805E-003;3.102785907685757E-003;
2.418500000000000E+009;1.681752502918243E-001;-6.308960914611816E-002;3.425997449085116E-003;2.982669277116656E-003;
2.418666666666667E+009;1.671089679002762E-001;-6.369473785161972E-002;3.387818811461330E-003;2.901066094636917E-003;
2.418833333333334E+009;1.657187193632126E-001;-6.438808143138886E-002;3.525618463754654E-003;2.814193954691291E-003;
2.419000000000000E+009;1.646196544170380E-001;-6.512619554996491E-002;3.621458541601896E-003;2.765504177659750E-003;
2.419166666666667E+009;1.635452806949616E-001;-6.593257933855057E-002;3.650838509202004E-003;2.594285411760211E-003;
2.419333333333334E+009;1.622134149074554E-001;-6.675662845373154E-002;3.778684651479125E-003;2.498515415936709E-003;
2.419500000000000E+009;1.612803936004639E-001;-6.796026974916458E-002;3.940528724342585E-003;2.245363080874085E-003;
2.419666666666667E+009;1.601422578096390E-001;-6.897171586751938E-002;4.042209126055241E-003;2.309457166120410E-003;
2.419833333333334E+009;1.589735001325607E-001;-6.998872011899948E-002;3.981889225542545E-003;2.024848014116287E-003;
2.420000000000000E+009;1.579282879829407E-001;-7.121118903160095E-002;4.127447493374348E-003;1.909275073558092E-003;
2.420166666666667E+009;1.569461822509766E-001;-7.233856618404388E-002;4.178907256573439E-003;1.785313128493726E-003;
2.420333333333334E+009;1.559797227382660E-001;-7.375840842723846E-002;4.087480250746012E-003;1.573610352352262E-003;
2.420500000000000E+009;1.550920158624649E-001;-7.495398074388504E-002;4.165831487625837E-003;1.439103973098099E-003;
2.420666666666667E+009;1.542823761701584E-001;-7.632656395435333E-002;4.376584663987160E-003;1.279625226743519E-003;
2.420833333333334E+009;1.534184962511063E-001;-7.795462757349014E-002;4.365573171526194E-003;1.153357676230371E-003;
2.421000000000000E+009;1.526923179626465E-001;-7.928682118654251E-002;4.418316762894392E-003;9.281756938435137E-004;
2.421166666666667E+009;1.522284746170044E-001;-8.091377466917038E-002;4.397594835609198E-003;8.325967355631292E-004;
2.421333333333334E+009;1.516037881374359E-001;-8.251343667507172E-002;4.388573113828898E-003;6.875569815747440E-004;
2.421500000000000E+009;1.511715948581696E-001;-8.416084200143814E-002;4.431311041116715E-003;5.277549498714507E-004;
2.421666666666667E+009;1.506793051958084E-001;-8.568169921636581E-002;4.370483569800854E-003;2.645532367751002E-004;
2.421833333333334E+009;1.505040228366852E-001;-8.723531663417816E-002;4.346008412539959E-003;2.353260060772300E-004;
2.422000000000000E+009;1.501944065093994E-001;-8.896784484386444E-002;4.172171000391245E-003;6.376025703502819E-005;
2.422166666666667E+009;1.500567644834518E-001;-9.076775610446930E-002;4.114862997084856E-003;-1.522184902569279E-004;
2.422333333333334E+009;1.499727368354797E-001;-9.242474287748337E-002;4.113486036658287E-003;-2.468336897436529E-004;
2.422500000000000E+009;1.498388648033142E-001;-9.374374896287918E-002;4.122707527130842E-003;-3.583949292078614E-004;
2.422666666666667E+009;1.500000655651093E-001;-9.554640948772430E-002;4.044443368911743E-003;-5.801282823085785E-004;
2.422833333333334E+009;1.502560973167419E-001;-9.708105772733688E-002;3.960687201470137E-003;-6.486424244940281E-004;
2.423000000000000E+009;1.504103839397430E-001;-9.850348532199860E-002;3.914073109626770E-003;-6.803707801736891E-004;
2.423166666666667E+009;1.507706493139267E-001;-1.002160608768463E-001;3.783800173550844E-003;-9.179031476378441E-004;
2.423333333333334E+009;1.510100960731506E-001;-1.012799069285393E-001;3.834663424640894E-003;-1.065689022652805E-003;
2.423500000000000E+009;1.513347029685974E-001;-1.028676256537437E-001;3.603213233873248E-003;-1.128642470575869E-003;
2.423666666666667E+009;1.516832262277603E-001;-1.042711213231087E-001;3.420669818297029E-003;-1.107216114178300E-003;
2.423833333333334E+009;1.521512269973755E-001;-1.055812835693359E-001;3.592040389776230E-003;-1.305877696722746E-003;
2.424000000000000E+009;1.524952352046967E-001;-1.065575629472733E-001;3.467798698693514E-003;-1.449809526093304E-003;
2.424166666666667E+009;1.530539393424988E-001;-1.077286303043366E-001;3.313150722533464E-003;-1.432210905477405E-003;
2.424333333333334E+009;1.536433994770050E-001;-1.087684780359268E-001;3.291894216090441E-003;-1.636503147892654E-003;
2.424500000000000E+009;1.539819240570068E-001;-1.098533868789673E-001;3.108589211478829E-003;-1.583761419169605E-003;
2.424666666666667E+009;1.545044332742691E-001;-1.104594767093658E-001;3.150930628180504E-003;-1.673746039159596E-003;
2.424833333333334E+009;1.546972692012787E-001;-1.115855649113655E-001;3.031545784324408E-003;-1.662835129536688E-003;
2.425000000000000E+009;1.553000807762146E-001;-1.124094352126122E-001;2.869932912290096E-003;-1.633585430681706E-003;
2.425166666666667E+009;1.553247720003128E-001;-1.129762530326843E-001;2.780461451038718E-003;-1.821430865675211E-003;
2.425333333333334E+009;1.557595282793045E-001;-1.135749295353890E-001;2.796660643070936E-003;-1.719035091809928E-003;
2.425500000000000E+009;1.560963988304138E-001;-1.141765862703323E-001;2.714757574722171E-003;-1.967464108020067E-003;
2.425666666666667E+009;1.561083048582077E-001;-1.148105338215828E-001;2.726200036704540E-003;-1.788115128874779E-003;
2.425833333333334E+009;1.562286019325256E-001;-1.152211800217629E-001;2.530287485569716E-003;-2.035674173384905E-003;
2.426000000000000E+009;1.564026772975922E-001;-1.156118586659432E-001;2.529602497816086E-003;-2.035438781604171E-003;
2.426166666666667E+009;1.565186083316803E-001;-1.160561963915825E-001;2.458352828398347E-003;-1.970755867660046E-003;
2.426333333333334E+009;1.563800573348999E-001;-1.162883713841438E-001;2.424049889668822E-003;-1.876311376690865E-003;
2.426500000000000E+009;1.563017070293427E-001;-1.165079921483994E-001;2.215669257566333E-003;-2.061980776488781E-003;
2.426666666666667E+009;1.561367511749268E-001;-1.166518032550812E-001;2.282788045704365E-003;-2.144202357158065E-003;
2.426833333333334E+009;1.557743102312088E-001;-1.169055625796318E-001;2.176861278712750E-003;-2.203787676990032E-003;
2.427000000000000E+009;1.553105860948563E-001;-1.171877756714821E-001;2.182848751544952E-003;-2.228489611297846E-003;
2.427166666666667E+009;1.547361463308334E-001;-1.171648129820824E-001;2.020785352215171E-003;-2.205934608355165E-003;
2.427333333333334E+009;1.541837006807327E-001;-1.173732131719589E-001;2.129392465576530E-003;-2.265935065224767E-003;
2.427500000000000E+009;1.535723507404327E-001;-1.176727339625359E-001;1.994293648749590E-003;-2.383726183325052E-003;
2.427666666666667E+009;1.526473015546799E-001;-1.178986579179764E-001;2.048172522336245E-003;-2.171433996409178E-003;
2.427833333333334E+009;1.517527699470520E-001;-1.181247979402542E-001;2.010071184486151E-003;-2.403834369033575E-003;
