# Version 1.00
#
freq[Hz];re:Trc1_S11;im:Trc1_S11;re:Trc2_S21;im:Trc2_S21;
2.400000000000000E+009;1.690348684787750E-001;4.580243676900864E-002;-4.676383920013905E-003;-8.322614012286067E-004;
2.400166666666667E+009;1.701738536357880E-001;4.477881267666817E-002;-4.860360641032457E-003;-7.925987010821700E-004;
2.400333333333334E+009;1.710310131311417E-001;4.356270283460617E-002;-4.766595084220171E-003;-3.723536792676896E-004;
2.400500000000000E+009;1.721159517765045E-001;4.249487072229385E-002;-4.924567881971598E-003;-9.746388968778774E-005;
2.400666666666667E+009;1.728390604257584E-001;4.155567660927773E-002;-5.020647775381804E-003;1.089770157705061E-004;
2.400833333333334E+009;1.736427545547485E-001;4.081965610384941E-002;-5.128310527652502E-003;3.233340976294130E-004;
2.401000000000000E+009;1.745082139968872E-001;3.993988409638405E-002;-5.156150087714195E-003;5.969685153104365E-004;
2.401166666666667E+009;1.753605604171753E-001;3.916741535067558E-002;-5.042790435254574E-003;8.584521128796041E-004;
2.401333333333334E+009;1.757827550172806E-001;3.852841258049011E-002;-5.145446863025427E-003;1.094061066396534E-003;
2.401500000000000E+009;1.767137050628662E-001;3.792772069573402E-002;-5.157886538654566E-003;1.334993052296341E-003;
2.401666666666667E+009;1.771493256092072E-001;3.743996098637581E-002;-5.233503412455320E-003;1.601212308742106E-003;
2.401833333333334E+009;1.776378005743027E-001;3.686757013201714E-002;-4.972161725163460E-003;1.943234121426940E-003;
2.402000000000000E+009;1.782161146402359E-001;3.614014387130737E-002;-4.863900132477284E-003;2.081619109958410E-003;
2.402166666666667E+009;1.786718815565109E-001;3.559578955173492E-002;-4.873830359429121E-003;2.443784615024924E-003;
2.402333333333334E+009;1.788166761398315E-001;3.499373793601990E-002;-4.629283677786589E-003;2.705756574869156E-003;
2.402500000000000E+009;1.793591231107712E-001;3.433401882648468E-002;-4.501149058341980E-003;2.902592997997999E-003;
2.402666666666667E+009;1.795741915702820E-001;3.361796960234642E-002;-4.255542531609535E-003;3.242964623495936E-003;
2.402833333333334E+009;1.795112490653992E-001;3.325127437710762E-002;-3.956992179155350E-003;3.266733372583985E-003;
2.403000000000000E+009;1.795908212661743E-001;3.256377950310707E-002;-3.800187492743135E-003;3.555416129529476E-003;
2.403166666666667E+009;1.797353327274323E-001;3.160049393773079E-002;-3.789966460317373E-003;3.642659867182374E-003;
2.403333333333334E+009;1.797551363706589E-001;3.106047771871090E-002;-3.296734765172005E-003;3.774091601371765E-003;
2.403500000000000E+009;1.795942932367325E-001;3.010084480047226E-002;-3.054287983104587E-003;3.908470273017883E-003;
2.403666666666667E+009;1.792712658643723E-001;2.912715822458267E-002;-2.818069420754910E-003;3.916998393833637E-003;
2.403833333333334E+009;1.790907382965088E-001;2.817615866661072E-002;-2.587271621450782E-003;3.938540350645781E-003;
2.404000000000000E+009;1.786793470382690E-001;2.699252218008041E-002;-2.497066743671894E-003;3.819877747446299E-003;
2.404166666666667E+009;1.783788800239563E-001;2.590874768793583E-002;-2.177807735279203E-003;3.896402660757303E-003;
2.404333333333334E+009;1.777689903974533E-001;2.477904595434666E-002;-2.044218359515071E-003;3.943227231502533E-003;
2.404500000000000E+009;1.773295402526856E-001;2.326405607163906E-002;-1.986847957596183E-003;3.885404206812382E-003;
2.404666666666667E+009;1.769280880689621E-001;2.192145399749279E-002;-1.927401055581868E-003;3.843832761049271E-003;
2.404833333333334E+009;1.764206737279892E-001;2.065140940248966E-002;-1.772592891938984E-003;3.899647621437907E-003;
2.405000000000000E+009;1.760330051183701E-001;1.896107941865921E-002;-1.694126054644585E-003;3.787711728364229E-003;
2.405166666666667E+009;1.754742711782455E-001;1.741020195186138E-002;-1.587717444635928E-003;3.761960892006755E-003;
2.405333333333334E+009;1.751979440450668E-001;1.563663594424725E-002;-1.539958058856428E-003;3.780933097004890E-003;
2.405500000000000E+009;1.746277660131455E-001;1.404340658336878E-002;-1.531097455881536E-003;3.661074675619602E-003;
2.405666666666667E+009;1.742535233497620E-001;1.233115326613188E-002;-1.397020416334271E-003;3.891141852363944E-003;
2.405833333333334E+009;1.738111078739166E-001;1.050248369574547E-002;-1.282165991142392E-003;3.886675927788019E-003;
2.406000000000000E+009;1.735742390155792E-001;8.690491318702698E-003;-1.338639762252569E-003;3.889201441779733E-003;
2.406166666666667E+009;1.731954514980316E-001;6.841629277914763E-003;-1.272158580832183E-003;3.839375916868448E-003;
2.406333333333334E+009;1.730508804321289E-001;4.848987329751253E-003;-1.099150395020843E-003;3.920601680874825E-003;
2.406500000000000E+009;1.727972328662872E-001;2.769493963569403E-003;-1.172970398329198E-003;4.070871975272894E-003;
2.406666666666667E+009;1.726801097393036E-001;7.506493129767478E-004;-1.062234514392912E-003;3.770768642425537E-003;
2.406833333333334E+009;1.728346645832062E-001;-1.354904845356941E-003;-1.091864192858338E-003;4.126048181205988E-003;
2.407000000000000E+009;1.728176027536392E-001;-3.470417344942689E-003;-7.439075270667672E-004;4.107259213924408E-003;
2.407166666666667E+009;1.730964928865433E-001;-5.468169692903757E-003;-8.616909617558122E-004;4.321875050663948E-003;
2.407333333333334E+009;1.730241328477860E-001;-7.780893240123987E-003;-6.206634570844472E-004;4.291457589715719E-003;
2.407500000000000E+009;1.731145083904266E-001;-9.788147173821926E-003;-5.372403538785875E-004;4.435892216861248E-003;
2.407666666666667E+009;1.734329611063004E-001;-1.181626785546541E-002;-3.015814290847629E-004;4.470982123166323E-003;
2.407833333333334E+009;1.736350953578949E-001;-1.398824434727430E-002;-1.829006796469912E-004;4.567941650748253E-003;
2.408000000000000E+009;1.741145700216293E-001;-1.603435352444649E-002;-1.204822983709164E-004;4.695711191743612E-003;
2.408166666666667E+009;1.743360757827759E-001;-1.798011735081673E-002;2.260561132061412E-006;4.737672861665487E-003;
2.408333333333334E+009;1.749497205018997E-001;-1.994241587817669E-002;1.719651045277715E-004;4.781481344252825E-003;
2.408500000000000E+009;1.751025617122650E-001;-2.198102697730064E-002;4.578317457344383E-004;4.884545691311359E-003;
2.408666666666667E+009;1.754888594150543E-001;-2.374345250427723E-002;6.412007496692240E-004;4.805775824934244E-003;
2.408833333333334E+009;1.758532971143723E-001;-2.553586103022099E-002;8.395863696932793E-004;4.870258271694183E-003;
2.409000000000000E+009;1.762586683034897E-001;-2.719150483608246E-002;1.049661310389638E-003;4.755754489451647E-003;
2.409166666666667E+009;1.769154518842697E-001;-2.868714742362499E-002;1.200448139570653E-003;4.759360104799271E-003;
2.409333333333334E+009;1.772849261760712E-001;-3.022138960659504E-002;1.359923626296222E-003;4.807638004422188E-003;
2.409500000000000E+009;1.777952015399933E-001;-3.150713443756104E-002;1.614803564734757E-003;4.775966051965952E-003;
2.409666666666667E+009;1.782210618257523E-001;-3.286842256784439E-002;1.737138489261270E-003;4.803944844752550E-003;
2.409833333333334E+009;1.785523146390915E-001;-3.385321423411369E-002;1.988155068829656E-003;4.731375258415937E-003;
2.410000000000000E+009;1.791073381900787E-001;-3.492007777094841E-002;2.175026573240757E-003;4.664904903620482E-003;
2.410166666666667E+009;1.796544492244721E-001;-3.571971878409386E-002;2.284675370901823E-003;4.481146112084389E-003;
2.410333333333334E+009;1.799310296773911E-001;-3.658331930637360E-002;2.584722824394703E-003;4.593768157064915E-003;
2.410500000000000E+009;1.805095076560974E-001;-3.744570910930634E-002;2.761258743703365E-003;4.358887206763029E-003;
2.410666666666667E+009;1.808226108551025E-001;-3.824853524565697E-002;2.952563343569636E-003;4.416522104293108E-003;
2.410833333333334E+009;1.812305003404617E-001;-3.877130150794983E-002;3.190609859302640E-003;4.423045553267002E-003;
2.411000000000000E+009;1.812444925308228E-001;-3.943406790494919E-002;3.395961597561836E-003;4.437884781509638E-003;
2.411166666666667E+009;1.816807389259338E-001;-4.008413478732109E-002;3.653532825410366E-003;4.218369722366333E-003;
2.411333333333334E+009;1.817757636308670E-001;-4.035097733139992E-002;3.989227116107941E-003;3.928359597921372E-003;
2.411500000000000E+009;1.818963289260864E-001;-4.096129536628723E-002;4.121423233300448E-003;3.908080048859119E-003;
2.411666666666667E+009;1.818646043539047E-001;-4.150308668613434E-002;4.509626887738705E-003;3.712220815941691E-003;
2.411833333333334E+009;1.817252635955811E-001;-4.170748591423035E-002;4.615160170942545E-003;3.519204678013921E-003;
2.412000000000000E+009;1.816690266132355E-001;-4.217259958386421E-002;4.861877299845219E-003;3.255030140280724E-003;
2.412166666666667E+009;1.810975074768066E-001;-4.251225292682648E-002;5.030643194913864E-003;3.058152040466666E-003;
2.412333333333334E+009;1.809869259595871E-001;-4.294361174106598E-002;5.154585465788841E-003;2.778644673526287E-003;
2.412500000000000E+009;1.803904473781586E-001;-4.306070506572723E-002;5.203637294471264E-003;2.475133631378412E-003;
2.412666666666667E+009;1.799094229936600E-001;-4.357954859733582E-002;5.313324742019177E-003;2.034606412053108E-003;
2.412833333333334E+009;1.793977618217468E-001;-4.400249943137169E-002;5.600574892014265E-003;1.903606229461730E-003;
2.413000000000000E+009;1.785467118024826E-001;-4.429194331169128E-002;5.498957820236683E-003;1.658122171647847E-003;
2.413166666666667E+009;1.776434779167175E-001;-4.473409801721573E-002;5.647318437695503E-003;1.244549988768995E-003;
2.413333333333334E+009;1.766898185014725E-001;-4.518905654549599E-002;5.486428271979094E-003;7.834566640667617E-004;
2.413500000000000E+009;1.758970469236374E-001;-4.566408321261406E-002;5.577796138823032E-003;7.863475475460291E-004;
2.413666666666667E+009;1.748046427965164E-001;-4.624477401375771E-002;5.471924785524607E-003;2.837149368133396E-004;
2.413833333333334E+009;1.735987663269043E-001;-4.677319526672363E-002;5.441332701593638E-003;1.778736914275214E-004;
2.414000000000000E+009;1.725064814090729E-001;-4.740204662084580E-002;5.371281411498785E-003;-1.405236107530072E-004;
2.414166666666667E+009;1.713975220918655E-001;-4.802004620432854E-002;5.198148079216480E-003;-4.338494909461588E-004;
2.414333333333334E+009;1.702745705842972E-001;-4.893088713288307E-002;5.065767094492912E-003;-6.545576616190374E-004;
2.414500000000000E+009;1.691050827503204E-001;-4.954659193754196E-002;5.133802536875010E-003;-8.378829807043076E-004;
2.414666666666667E+009;1.679016351699829E-001;-5.063498765230179E-002;4.987413994967938E-003;-7.796952850185335E-004;
2.414833333333334E+009;1.665148138999939E-001;-5.170535296201706E-002;4.803888499736786E-003;-1.063205767422915E-003;
2.415000000000000E+009;1.653270870447159E-001;-5.264186486601830E-002;4.873365629464388E-003;-1.426095957867801E-003;
2.415166666666667E+009;1.641924530267716E-001;-5.399729311466217E-002;4.709495697170496E-003;-1.605905476026237E-003;
2.415333333333334E+009;1.630584150552750E-001;-5.532880127429962E-002;4.496531095355749E-003;-1.612652908079326E-003;
2.415500000000000E+009;1.619067043066025E-001;-5.656712129712105E-002;4.234389867633581E-003;-1.722533837892115E-003;
2.415666666666667E+009;1.607092916965485E-001;-5.804459378123283E-002;4.208740778267384E-003;-1.906361896544695E-003;
2.415833333333334E+009;1.597568094730377E-001;-5.965313315391541E-002;3.999044653028250E-003;-1.910256571136415E-003;
2.416000000000000E+009;1.585317850112915E-001;-6.128677353262901E-002;3.973318263888359E-003;-2.123845042660832E-003;
2.416166666666667E+009;1.577830016613007E-001;-6.304211169481278E-002;3.793893847614527E-003;-2.227771328762174E-003;
2.416333333333334E+009;1.565937250852585E-001;-6.474913656711578E-002;3.553168615326285E-003;-2.531344769522548E-003;
2.416500000000000E+009;1.557705998420715E-001;-6.649300456047058E-002;3.458785824477673E-003;-2.355862408876419E-003;
2.416666666666667E+009;1.548318117856979E-001;-6.840471923351288E-002;3.299551317468286E-003;-2.567501505836844E-003;
2.416833333333334E+009;1.541263908147812E-001;-7.035445421934128E-002;3.201543120667338E-003;-2.616250421851873E-003;
2.417000000000000E+009;1.530619561672211E-001;-7.231903076171875E-002;2.896467223763466E-003;-2.594998804852366E-003;
2.417166666666667E+009;1.524985283613205E-001;-7.408659905195236E-002;2.720804885029793E-003;-2.741164062172175E-003;
2.417333333333334E+009;1.519304215908051E-001;-7.595918327569962E-002;2.475237473845482E-003;-2.856464823707938E-003;
2.417500000000000E+009;1.513489335775375E-001;-7.804378867149353E-002;2.410323126241565E-003;-2.706897677853704E-003;
2.417666666666667E+009;1.510809510946274E-001;-7.974985241889954E-002;2.120663644745946E-003;-2.735156333073974E-003;
2.417833333333334E+009;1.505343616008759E-001;-8.159588277339935E-002;2.014916855841875E-003;-2.672442700713873E-003;
2.418000000000000E+009;1.501304209232330E-001;-8.364094048738480E-002;1.844225451350212E-003;-2.568125491961837E-003;
2.418166666666667E+009;1.499190330505371E-001;-8.505377173423767E-002;1.674711704254150E-003;-2.631244482472539E-003;
2.418333333333334E+009;1.498498171567917E-001;-8.674123138189316E-002;1.573001267388463E-003;-2.514278749004006E-003;
2.418500000000000E+009;1.496319025754929E-001;-8.835580199956894E-002;1.469817711040378E-003;-2.463060198351741E-003;
2.418666666666667E+009;1.496380567550659E-001;-8.999419212341309E-002;1.435318612493575E-003;-2.233659382909536E-003;
2.418833333333334E+009;1.493646502494812E-001;-9.160190820693970E-002;1.418106839992106E-003;-2.151378430426121E-003;
2.419000000000000E+009;1.494042575359345E-001;-9.283287823200226E-002;1.343068084679544E-003;-2.067888621240854E-003;
2.419166666666667E+009;1.493831723928452E-001;-9.407037496566773E-002;1.437509083189070E-003;-1.839976990595460E-003;
2.419333333333334E+009;1.494156122207642E-001;-9.501058608293533E-002;1.467437017709017E-003;-1.731947646476328E-003;
2.419500000000000E+009;1.496989428997040E-001;-9.620138257741928E-002;1.464345492422581E-003;-1.613188651390374E-003;
2.419666666666667E+009;1.500232368707657E-001;-9.720359742641449E-002;1.719576306641102E-003;-1.739675179123879E-003;
2.419833333333334E+009;1.500120908021927E-001;-9.777832031250000E-002;1.810612622648478E-003;-1.531068002805114E-003;
2.420000000000000E+009;1.503298729658127E-001;-9.842590242624283E-002;1.779774553142488E-003;-1.648607547394931E-003;
2.420166666666667E+009;1.505344063043594E-001;-9.918894618749619E-002;1.994311576709151E-003;-1.679787295870483E-003;
2.420333333333334E+009;1.509084552526474E-001;-9.964521974325180E-002;2.000707900151610E-003;-1.725917332805693E-003;
2.420500000000000E+009;1.511386930942535E-001;-9.967057406902313E-002;2.146713668480516E-003;-1.745578832924366E-003;
2.420666666666667E+009;1.513851583003998E-001;-9.998343139886856E-002;2.314333803951740E-003;-1.941374503076077E-003;
2.420833333333334E+009;1.516086906194687E-001;-1.002655923366547E-001;2.377409720793366E-003;-2.014326862990856E-003;
2.421000000000000E+009;1.517549604177475E-001;-1.003730967640877E-001;2.407633932307363E-003;-2.232240047305822E-003;
2.421166666666667E+009;1.520785987377167E-001;-1.002303734421730E-001;2.417135983705521E-003;-2.405165927484632E-003;
2.421333333333334E+009;1.522646546363831E-001;-1.003973409533501E-001;2.624465618282557E-003;-2.636097138747573E-003;
2.421500000000000E+009;1.522745192050934E-001;-1.001827269792557E-001;2.358807716518641E-003;-2.733149100095034E-003;
2.421666666666667E+009;1.521603018045425E-001;-1.001149490475655E-001;2.565505681559444E-003;-3.024440724402666E-003;
2.421833333333334E+009;1.522697359323502E-001;-9.979426115751267E-002;2.436503302305937E-003;-3.356519620865583E-003;
2.422000000000000E+009;1.521838605403900E-001;-9.966148436069489E-002;2.400220604613423E-003;-3.413036931306124E-003;
2.422166666666667E+009;1.518057286739349E-001;-9.947965294122696E-002;2.217645989730954E-003;-3.784782718867064E-003;
2.422333333333334E+009;1.516370773315430E-001;-9.892188757658005E-002;2.179998205974698E-003;-3.915071953088045E-003;
2.422500000000000E+009;1.509672254323959E-001;-9.865076839923859E-002;2.030771458521485E-003;-4.119935911148787E-003;
2.422666666666667E+009;1.503911912441254E-001;-9.843589365482330E-002;1.817438984289765E-003;-4.364127758890390E-003;
2.422833333333334E+009;1.499127149581909E-001;-9.819045662879944E-002;1.574007328599691E-003;-4.602631088346243E-003;
2.423000000000000E+009;1.492223590612412E-001;-9.785787761211395E-002;1.220512087456882E-003;-4.682305268943310E-003;
2.423166666666667E+009;1.483242064714432E-001;-9.754348546266556E-002;1.018664799630642E-003;-5.050204228609800E-003;
2.423333333333334E+009;1.476294994354248E-001;-9.705610573291779E-002;7.040324853733182E-004;-4.896872676908970E-003;
2.423500000000000E+009;1.463353782892227E-001;-9.689599275588989E-002;3.553693823050708E-004;-5.079730879515410E-003;
2.423666666666667E+009;1.449342966079712E-001;-9.679731726646423E-002;4.934448588755913E-005;-5.138765554875135E-003;
2.423833333333334E+009;1.439438611268997E-001;-9.658588469028473E-002;-1.451393909519538E-004;-5.164361093193293E-003;
2.424000000000000E+009;1.426555365324020E-001;-9.616564959287643E-002;-4.989385488443077E-004;-5.133587867021561E-003;
2.424166666666667E+009;1.412676274776459E-001;-9.616203606128693E-002;-9.230914874933660E-004;-5.011688917875290E-003;
2.424333333333334E+009;1.399402767419815E-001;-9.598819911479950E-002;-1.021368778310716E-003;-5.080741364508867E-003;
2.424500000000000E+009;1.385684907436371E-001;-9.617719799280167E-002;-1.380303176119924E-003;-4.842208232730627E-003;
2.424666666666667E+009;1.370731890201569E-001;-9.605338424444199E-002;-1.538245123811066E-003;-4.657623823732138E-003;
2.424833333333334E+009;1.355158686637878E-001;-9.647257626056671E-002;-1.915124361403287E-003;-4.603282082825899E-003;
2.425000000000000E+009;1.340860277414322E-001;-9.686437994241715E-002;-1.972172409296036E-003;-4.446630831807852E-003;
2.425166666666667E+009;1.323454678058624E-001;-9.707581251859665E-002;-2.311541233211756E-003;-4.472148139029741E-003;
2.425333333333334E+009;1.310535073280335E-001;-9.768354892730713E-002;-2.463868819177151E-003;-4.077296238392592E-003;
2.425500000000000E+009;1.296960562467575E-001;-9.825844317674637E-002;-2.703168196603656E-003;-3.866129554808140E-003;
2.425666666666667E+009;1.279518157243729E-001;-9.895625710487366E-002;-2.836883068084717E-003;-3.643572563305497E-003;
2.425833333333334E+009;1.266661137342453E-001;-9.994862973690033E-002;-3.085357835516334E-003;-3.520322265103459E-003;
2.426000000000000E+009;1.253502964973450E-001;-1.009620949625969E-001;-3.112320788204670E-003;-3.402615198865533E-003;
2.426166666666667E+009;1.240315139293671E-001;-1.020594686269760E-001;-3.188268514350057E-003;-3.112147329375148E-003;
2.426333333333334E+009;1.227423921227455E-001;-1.031788811087608E-001;-3.267939668148756E-003;-2.709544030949473E-003;
2.426500000000000E+009;1.214776933193207E-001;-1.045325770974159E-001;-3.126834053546190E-003;-2.733457600697875E-003;
2.426666666666667E+009;1.203834712505341E-001;-1.057860776782036E-001;-3.259587800130248E-003;-2.309104893356562E-003;
2.426833333333334E+009;1.192566528916359E-001;-1.073161661624908E-001;-3.363592782989144E-003;-2.230038167908788E-003;
2.427000000000000E+009;1.180838271975517E-001;-1.088871359825134E-001;-3.366350661963224E-003;-1.980086090043187E-003;
2.427166666666667E+009;1.171993315219879E-001;-1.103598698973656E-001;-3.211575793102384E-003;-1.724017085507512E-003;
2.427333333333334E+009;1.162344664335251E-001;-1.119978502392769E-001;-3.036702517420054E-003;-1.673741266131401E-003;
2.427500000000000E+009;1.155193001031876E-001;-1.137381643056870E-001;-2.986941486597061E-003;-1.480237930081785E-003;
2.427666666666667E+009;1.148770824074745E-001;-1.155705079436302E-001;-3.004652680829167E-003;-1.306800288148224E-003;
