# Version 1.00
#
freq[Hz];re:Trc1_S11;im:Trc1_S11;re:Trc2_S21;im:Trc2_S21;
2.400000000000000E+009;1.503137946128845E-001;1.149885430932045E-001;6.638426333665848E-003;3.665232565253973E-003;
2.400166666666667E+009;1.499498337507248E-001;1.129084751009941E-001;6.921454798430204E-003;3.139622509479523E-003;
2.400333333333334E+009;1.498870402574539E-001;1.106947287917137E-001;7.334140595048666E-003;2.835547551512718E-003;
2.400500000000000E+009;1.496223211288452E-001;1.082008108496666E-001;7.495527621358633E-003;2.392137423157692E-003;
2.400666666666667E+009;1.495896726846695E-001;1.057306006550789E-001;7.550373207777739E-003;1.977229258045554E-003;
2.400833333333334E+009;1.495619714260101E-001;1.030447110533714E-001;7.743415888398886E-003;1.190173556096852E-003;
2.401000000000000E+009;1.496566534042358E-001;1.004242748022080E-001;7.596793118864298E-003;7.698599947616458E-004;
2.401166666666667E+009;1.496701538562775E-001;9.747805446386337E-002;7.500970736145973E-003;2.245357172796503E-004;
2.401333333333334E+009;1.499870419502258E-001;9.495880454778671E-002;7.573774084448814E-003;-2.615057164803147E-004;
2.401500000000000E+009;1.505649834871292E-001;9.198690205812454E-002;7.518446538597345E-003;-5.356367910280824E-004;
2.401666666666667E+009;1.509763449430466E-001;8.911506086587906E-002;7.022068835794926E-003;-1.247246051207185E-003;
2.401833333333334E+009;1.512630581855774E-001;8.649910241365433E-002;6.776285357773304E-003;-1.449142117053270E-003;
2.402000000000000E+009;1.520546823740006E-001;8.366360515356064E-002;6.581971887499094E-003;-1.700405846349895E-003;
2.402166666666667E+009;1.530039012432098E-001;8.095309883356094E-002;6.281964015215635E-003;-1.867155078798533E-003;
2.402333333333334E+009;1.539845913648605E-001;7.835304737091065E-002;6.130486726760864E-003;-2.293530851602554E-003;
2.402500000000000E+009;1.551695615053177E-001;7.560255378484726E-002;5.740317050367594E-003;-2.248821547254920E-003;
2.402666666666667E+009;1.565146744251251E-001;7.329404354095459E-002;5.628580227494240E-003;-2.529849298298359E-003;
2.402833333333334E+009;1.580345779657364E-001;7.062818855047226E-002;5.538606550544500E-003;-2.478509908542037E-003;
2.403000000000000E+009;1.594190895557404E-001;6.824239343404770E-002;5.332747008651495E-003;-2.494466956704855E-003;
2.403166666666667E+009;1.613839268684387E-001;6.590948998928070E-002;5.247836001217365E-003;-2.689065877348185E-003;
2.403333333333334E+009;1.630186140537262E-001;6.330078095197678E-002;5.068903788924217E-003;-2.838282380253077E-003;
2.403500000000000E+009;1.649919748306274E-001;6.141468137502670E-002;4.887846298515797E-003;-3.010499756783247E-003;
2.403666666666667E+009;1.669134944677353E-001;5.910005047917366E-002;4.820880480110645E-003;-3.035287372767925E-003;
2.403833333333334E+009;1.688981503248215E-001;5.725945159792900E-002;4.640195053070784E-003;-3.163638990372419E-003;
2.404000000000000E+009;1.706808358430862E-001;5.526885762810707E-002;4.713902249932289E-003;-3.359871450811625E-003;
2.404166666666667E+009;1.729849278926849E-001;5.345079675316811E-002;4.462203010916710E-003;-3.569239284843206E-003;
2.404333333333334E+009;1.747745126485825E-001;5.183590948581696E-002;4.525978583842516E-003;-3.718988737091422E-003;
2.404500000000000E+009;1.767036467790604E-001;5.029107630252838E-002;4.329250659793615E-003;-3.883255412802100E-003;
2.404666666666667E+009;1.785753965377808E-001;4.889791458845139E-002;4.227889701724052E-003;-4.182518925517798E-003;
2.404833333333334E+009;1.804003864526749E-001;4.765377566218376E-002;3.839856246486306E-003;-4.299601074308157E-003;
2.405000000000000E+009;1.822521388530731E-001;4.686884954571724E-002;3.684947267174721E-003;-4.662621766328812E-003;
2.405166666666667E+009;1.840167343616486E-001;4.598776996135712E-002;3.477364080026746E-003;-4.726989194750786E-003;
2.405333333333334E+009;1.859318017959595E-001;4.536034539341927E-002;3.236954798921943E-003;-4.914936609566212E-003;
2.405500000000000E+009;1.877362579107285E-001;4.470866918563843E-002;2.782948547974229E-003;-5.145620089024305E-003;
2.405666666666667E+009;1.892392635345459E-001;4.427557066082954E-002;2.505012089386582E-003;-5.065444856882095E-003;
2.405833333333334E+009;1.908194571733475E-001;4.390008375048637E-002;2.324339468032122E-003;-5.138174630701542E-003;
2.406000000000000E+009;1.921835243701935E-001;4.358695447444916E-002;1.898609218187630E-003;-5.111404228955507E-003;
2.406166666666667E+009;1.935558617115021E-001;4.337875917553902E-002;1.505614840425551E-003;-5.131855141371489E-003;
2.406333333333334E+009;1.947204023599625E-001;4.340202733874321E-002;1.480051781982184E-003;-5.182126536965370E-003;
2.406500000000000E+009;1.957979649305344E-001;4.335175454616547E-002;1.051126397214830E-003;-4.955590236932039E-003;
2.406666666666667E+009;1.966105699539185E-001;4.337235912680626E-002;8.724071085453033E-004;-4.909705836325884E-003;
2.406833333333334E+009;1.974497288465500E-001;4.339252784848213E-002;5.732516874559224E-004;-4.662561230361462E-003;
2.407000000000000E+009;1.979489028453827E-001;4.369391500949860E-002;4.875786835327745E-004;-4.676754120737314E-003;
2.407166666666667E+009;1.985840797424316E-001;4.347257688641548E-002;2.718553878366947E-004;-4.399817902594805E-003;
2.407333333333334E+009;1.987248808145523E-001;4.369853064417839E-002;2.871477918233722E-004;-4.184394609183073E-003;
2.407500000000000E+009;1.988807171583176E-001;4.375240579247475E-002;1.131235767388716E-004;-4.169140011072159E-003;
2.407666666666667E+009;1.990443617105484E-001;4.375554993748665E-002;2.671153015398886E-005;-4.006907343864441E-003;
2.407833333333334E+009;1.987397670745850E-001;4.371324926614761E-002;9.787806902750162E-007;-3.830994246527553E-003;
2.408000000000000E+009;1.987140923738480E-001;4.360287636518478E-002;2.220226160716265E-004;-3.782376879826188E-003;
2.408166666666667E+009;1.982792317867279E-001;4.346266388893127E-002;-1.392706035403535E-004;-3.591062733903527E-003;
2.408333333333334E+009;1.978879570960999E-001;4.315359890460968E-002;-5.049102037446573E-005;-3.553499467670918E-003;
2.408500000000000E+009;1.972312033176422E-001;4.294061288237572E-002;6.062450484023430E-005;-3.536402946338058E-003;
2.408666666666667E+009;1.965090632438660E-001;4.252524673938751E-002;7.785011985106394E-005;-3.345774952322245E-003;
2.408833333333334E+009;1.957263201475143E-001;4.193167760968208E-002;2.825985429808497E-004;-3.580488963052630E-003;
2.409000000000000E+009;1.947111785411835E-001;4.110078886151314E-002;2.406266867183149E-004;-3.457481972873211E-003;
2.409166666666667E+009;1.937131434679031E-001;4.036159440875053E-002;2.237295120721683E-004;-3.383262781426311E-003;
2.409333333333334E+009;1.926182657480240E-001;3.954866528511047E-002;2.252316480735317E-004;-3.559010103344917E-003;
2.409500000000000E+009;1.913755983114243E-001;3.839435800909996E-002;2.824414696078748E-004;-3.674160689115524E-003;
2.409666666666667E+009;1.904008090496063E-001;3.720152378082275E-002;1.894800661830232E-004;-3.762689186260104E-003;
2.409833333333334E+009;1.890899091959000E-001;3.582196310162544E-002;1.799140009097755E-004;-3.633036045357585E-003;
2.410000000000000E+009;1.879415065050125E-001;3.427013754844666E-002;9.775270154932514E-005;-3.905522637069225E-003;
2.410166666666667E+009;1.867326050996780E-001;3.274123370647430E-002;4.209171311231330E-005;-3.926452249288559E-003;
2.410333333333334E+009;1.855740696191788E-001;3.088162094354630E-002;-9.847965884546284E-006;-4.106538370251656E-003;
2.410500000000000E+009;1.843584477901459E-001;2.927031554281712E-002;-3.881382508552633E-005;-4.203855991363525E-003;
2.410666666666667E+009;1.833037436008453E-001;2.704347483813763E-002;-2.950433408841491E-004;-4.250080324709415E-003;
2.410833333333334E+009;1.826278269290924E-001;2.502523548901081E-002;-5.305925733409822E-004;-4.299249965697527E-003;
2.411000000000000E+009;1.815437227487564E-001;2.279215492308140E-002;-6.668356945738196E-004;-4.445814527571201E-003;
2.411166666666667E+009;1.807931512594223E-001;2.071370929479599E-002;-8.111682836897671E-004;-4.480334464460611E-003;
2.411333333333334E+009;1.800531595945358E-001;1.809605583548546E-002;-9.643377270549536E-004;-4.375271964818239E-003;
2.411500000000000E+009;1.794812083244324E-001;1.556034199893475E-002;-1.193212345242500E-003;-4.453126806765795E-003;
2.411666666666667E+009;1.790105104446411E-001;1.337302383035421E-002;-1.372653408907354E-003;-4.424741026014090E-003;
2.411833333333334E+009;1.785195171833038E-001;1.090552564710379E-002;-1.675504609011114E-003;-4.455235321074724E-003;
2.412000000000000E+009;1.785093396902084E-001;8.242626674473286E-003;-1.653059269301593E-003;-4.454897250980139E-003;
2.412166666666667E+009;1.783517301082611E-001;5.782455671578646E-003;-1.906888443045318E-003;-4.348044283688068E-003;
2.412333333333334E+009;1.784522980451584E-001;3.038518596440554E-003;-2.084416802972555E-003;-4.357892554253340E-003;
2.412500000000000E+009;1.788097769021988E-001;4.575173661578447E-004;-2.175178378820419E-003;-4.242192488163710E-003;
2.412666666666667E+009;1.790750473737717E-001;-2.006749622523785E-003;-2.379836747422814E-003;-4.007381852716208E-003;
2.412833333333334E+009;1.796031445264816E-001;-4.674271680414677E-003;-2.505986951291561E-003;-4.020997323095799E-003;
2.413000000000000E+009;1.803500652313232E-001;-7.090067025274038E-003;-2.803289098665118E-003;-4.022625740617514E-003;
2.413166666666667E+009;1.811151653528214E-001;-9.562304243445396E-003;-2.906516194343567E-003;-3.981066867709160E-003;
2.413333333333334E+009;1.821283996105194E-001;-1.206002477556467E-002;-2.879434032365680E-003;-3.679662710055709E-003;
2.413500000000000E+009;1.828125417232513E-001;-1.442710682749748E-002;-3.057099180296063E-003;-3.797729499638081E-003;
2.413666666666667E+009;1.840385794639587E-001;-1.700621470808983E-002;-3.218551399186254E-003;-3.751473035663366E-003;
2.413833333333334E+009;1.850380748510361E-001;-1.899414882063866E-002;-3.146460745483637E-003;-3.465515561401844E-003;
2.414000000000000E+009;1.862112730741501E-001;-2.121217362582684E-002;-3.351887222379446E-003;-3.526600776240230E-003;
2.414166666666667E+009;1.875137686729431E-001;-2.301497943699360E-002;-3.325741970911622E-003;-3.472205717116594E-003;
2.414333333333334E+009;1.886738985776901E-001;-2.524571493268013E-002;-3.590033389627934E-003;-3.401601687073708E-003;
2.414500000000000E+009;1.900150030851364E-001;-2.678361535072327E-002;-3.835365641862154E-003;-3.295402508229017E-003;
2.414666666666667E+009;1.912136226892471E-001;-2.850883267819881E-002;-3.885749028995633E-003;-3.240896621719003E-003;
2.414833333333334E+009;1.925828456878662E-001;-3.005652129650116E-002;-4.142575897276402E-003;-3.199172439053655E-003;
2.415000000000000E+009;1.937371641397476E-001;-3.142186999320984E-002;-4.384983796626329E-003;-3.111779922619462E-003;
2.415166666666667E+009;1.952513605356216E-001;-3.278629109263420E-002;-4.654644988477230E-003;-2.954968251287937E-003;
2.415333333333334E+009;1.965518444776535E-001;-3.372543305158615E-002;-4.870519973337650E-003;-3.042025025933981E-003;
2.415500000000000E+009;1.976695805788040E-001;-3.464530780911446E-002;-5.199509672820568E-003;-2.753484062850475E-003;
2.415666666666667E+009;1.989849060773850E-001;-3.565801680088043E-002;-5.234468728303909E-003;-2.501891925930977E-003;
2.415833333333334E+009;1.999967992305756E-001;-3.631145134568214E-002;-5.648591089993715E-003;-2.277341205626726E-003;
2.416000000000000E+009;2.010082006454468E-001;-3.697581589221954E-002;-5.821506027132273E-003;-1.854831818491221E-003;
2.416166666666667E+009;2.019646763801575E-001;-3.761307150125504E-002;-5.954325664788485E-003;-1.629752689041197E-003;
2.416333333333334E+009;2.026604712009430E-001;-3.795764222741127E-002;-6.072415504604578E-003;-1.163797336630523E-003;
2.416500000000000E+009;2.033718675374985E-001;-3.808453306555748E-002;-6.125397980213165E-003;-7.483304943889380E-004;
2.416666666666667E+009;2.038576602935791E-001;-3.844754025340080E-002;-6.227370351552963E-003;-4.156948707532138E-004;
2.416833333333334E+009;2.042884081602097E-001;-3.856217861175537E-002;-6.200888194143772E-003;-3.240085425204597E-005;
2.417000000000000E+009;2.045861482620239E-001;-3.850542008876801E-002;-6.080810446292162E-003;2.408949076198041E-004;
2.417166666666667E+009;2.045112997293472E-001;-3.835049271583557E-002;-5.874900147318840E-003;7.280654972419143E-004;
2.417333333333334E+009;2.044323235750198E-001;-3.808200731873512E-002;-5.849346052855253E-003;8.687824010848999E-004;
2.417500000000000E+009;2.045010030269623E-001;-3.799027577042580E-002;-5.587530322372913E-003;1.266662613488734E-003;
2.417666666666667E+009;2.041001468896866E-001;-3.767898306250572E-002;-5.521061364561319E-003;1.430367468856275E-003;
2.417833333333334E+009;2.039030194282532E-001;-3.731258213520050E-002;-5.291404668241739E-003;1.619941205717623E-003;
2.418000000000000E+009;2.034084200859070E-001;-3.706156462430954E-002;-5.190262570977211E-003;1.659260713495314E-003;
2.418166666666667E+009;2.028384506702423E-001;-3.668915107846260E-002;-5.085378885269165E-003;2.010566880926490E-003;
2.418333333333334E+009;2.021264135837555E-001;-3.637662529945374E-002;-4.877444356679916E-003;2.101259073242545E-003;
2.418500000000000E+009;2.012875229120255E-001;-3.621622920036316E-002;-4.712463822215796E-003;2.145321108400822E-003;
2.418666666666667E+009;2.003866285085678E-001;-3.595804795622826E-002;-4.634816199541092E-003;2.161820651963353E-003;
2.418833333333334E+009;1.994020193815231E-001;-3.603430837392807E-002;-4.456870257854462E-003;2.388584194704890E-003;
2.419000000000000E+009;1.980609148740768E-001;-3.609076514840126E-002;-4.485848825424910E-003;2.587335184216499E-003;
2.419166666666667E+009;1.970021277666092E-001;-3.621034696698189E-002;-4.597964230924845E-003;2.531891688704491E-003;
2.419333333333334E+009;1.957535892724991E-001;-3.655926883220673E-002;-4.415821284055710E-003;2.764762146398425E-003;
2.419500000000000E+009;1.942363530397415E-001;-3.690927848219872E-002;-4.186758771538734E-003;2.946068067103624E-003;
2.419666666666667E+009;1.927596926689148E-001;-3.751042485237122E-002;-4.303373862057924E-003;3.146058414131403E-003;
2.419833333333334E+009;1.911310553550720E-001;-3.812166675925255E-002;-4.096214193850756E-003;3.347766352817416E-003;
2.420000000000000E+009;1.895588338375092E-001;-3.882202133536339E-002;-4.170121625065804E-003;3.488741349428892E-003;
2.420166666666667E+009;1.878535300493240E-001;-3.975492715835571E-002;-4.060981329530478E-003;3.631887491792440E-003;
2.420333333333334E+009;1.862763613462448E-001;-4.082389175891876E-002;-3.719681175425649E-003;3.848529653623700E-003;
2.420500000000000E+009;1.842977106571198E-001;-4.198198765516281E-002;-3.703305264934897E-003;4.188521299511194E-003;
2.420666666666667E+009;1.826545447111130E-001;-4.320901259779930E-002;-3.332440974190831E-003;4.559066612273455E-003;
2.420833333333334E+009;1.809286922216415E-001;-4.449679329991341E-002;-3.115856787189841E-003;4.618810489773750E-003;
2.421000000000000E+009;1.792168021202087E-001;-4.598230496048927E-002;-2.937081269919872E-003;4.739333875477314E-003;
2.421166666666667E+009;1.777482628822327E-001;-4.776410013437271E-002;-2.467990154400468E-003;5.039154086261988E-003;
2.421333333333334E+009;1.758188158273697E-001;-4.916575551033020E-002;-2.149421954527497E-003;4.988620057702065E-003;
2.421500000000000E+009;1.744948327541351E-001;-5.111170187592506E-002;-1.759065547958016E-003;5.080889910459518E-003;
2.421666666666667E+009;1.730796843767166E-001;-5.285406485199928E-002;-1.453933422453702E-003;5.100803915411234E-003;
2.421833333333334E+009;1.717567443847656E-001;-5.478136986494064E-002;-1.161604537628591E-003;5.037052556872368E-003;
2.422000000000000E+009;1.703642010688782E-001;-5.661977455019951E-002;-7.684099255129695E-004;4.988534841686487E-003;
2.422166666666667E+009;1.693333685398102E-001;-5.884910374879837E-002;-3.438676067162305E-004;4.806035198271275E-003;
2.422333333333334E+009;1.681452542543411E-001;-6.091942638158798E-002;-2.003696863539517E-004;4.816101863980293E-003;
2.422500000000000E+009;1.673999130725861E-001;-6.267289817333221E-002;1.555360649945214E-004;4.543477669358254E-003;
2.422666666666667E+009;1.664604991674423E-001;-6.494201719760895E-002;3.265635168645531E-004;4.454611334949732E-003;
2.422833333333334E+009;1.659522354602814E-001;-6.704006344079971E-002;5.963200819678605E-004;3.946664277464151E-003;
2.423000000000000E+009;1.653830856084824E-001;-6.928063929080963E-002;6.536199362017214E-004;3.844420192763209E-003;
2.423166666666667E+009;1.648187488317490E-001;-7.126603275537491E-002;7.156026549637318E-004;3.616509959101677E-003;
2.423333333333334E+009;1.646143347024918E-001;-7.336997240781784E-002;8.871081518009305E-004;3.212998853996396E-003;
2.423500000000000E+009;1.645670086145401E-001;-7.525115460157394E-002;8.950238116085529E-004;3.110265824943781E-003;
2.423666666666667E+009;1.644950360059738E-001;-7.746906578540802E-002;8.014598861336708E-004;2.937570912763476E-003;
2.423833333333334E+009;1.644180119037628E-001;-7.931976765394211E-002;8.389300201088190E-004;2.820217749103904E-003;
2.424000000000000E+009;1.644984632730484E-001;-8.131573349237442E-002;8.705304353497922E-004;2.704397542402148E-003;
2.424166666666667E+009;1.646635681390762E-001;-8.295013755559921E-002;8.972233626991510E-004;2.590003423392773E-003;
2.424333333333334E+009;1.648512482643127E-001;-8.463076502084732E-002;7.816189317964017E-004;2.547582145780325E-003;
2.424500000000000E+009;1.653448492288590E-001;-8.664926141500473E-002;6.513022817671299E-004;2.303919987753034E-003;
2.424666666666667E+009;1.655047982931137E-001;-8.809025585651398E-002;5.485716392286122E-004;2.254052320495248E-003;
2.424833333333334E+009;1.662398427724838E-001;-8.947984129190445E-002;5.016759387217462E-004;2.386946231126785E-003;
2.425000000000000E+009;1.667401492595673E-001;-9.080721437931061E-002;5.008011939935386E-004;2.232507569715381E-003;
2.425166666666667E+009;1.671219617128372E-001;-9.214192628860474E-002;5.684877978637815E-004;2.359002828598023E-003;
2.425333333333334E+009;1.677291393280029E-001;-9.305655211210251E-002;4.818438610527664E-004;2.247432712465525E-003;
2.425500000000000E+009;1.683341860771179E-001;-9.427779912948608E-002;6.115028518252075E-004;2.429898129776120E-003;
2.425666666666667E+009;1.687950640916824E-001;-9.506632387638092E-002;4.044194647576660E-004;2.331622876226902E-003;
2.425833333333334E+009;1.693465858697891E-001;-9.600167721509934E-002;5.356092005968094E-004;2.353133866563439E-003;
2.426000000000000E+009;1.700167953968048E-001;-9.661284834146500E-002;3.227126726415008E-004;2.390023088082671E-003;
2.426166666666667E+009;1.706842184066773E-001;-9.717656672000885E-002;5.703499773517251E-004;2.552680671215057E-003;
2.426333333333334E+009;1.710126847028732E-001;-9.770379960536957E-002;5.230028182268143E-004;2.382896142080426E-003;
2.426500000000000E+009;1.716092228889465E-001;-9.811198711395264E-002;6.848626653663814E-004;2.384787891060114E-003;
2.426666666666667E+009;1.721655428409576E-001;-9.851390868425369E-002;6.674308679066598E-004;2.453662687912583E-003;
2.426833333333334E+009;1.726174056529999E-001;-9.889185428619385E-002;8.383611566387117E-004;2.343481639400125E-003;
2.427000000000000E+009;1.729368716478348E-001;-9.922853857278824E-002;8.406150154769421E-004;2.489842241629958E-003;
2.427166666666667E+009;1.731762439012528E-001;-9.930207580327988E-002;9.550475515425205E-004;2.449926221743226E-003;
2.427333333333334E+009;1.733290255069733E-001;-9.965562820434570E-002;9.660919313319027E-004;2.387119922786951E-003;
2.427500000000000E+009;1.732667237520218E-001;-9.988168627023697E-002;8.257232839241624E-004;2.465019933879376E-003;
2.427666666666667E+009;1.732443571090698E-001;-9.996189922094345E-002;9.486075723543763E-004;2.281429711729288E-003;
2.427833333333334E+009;1.730621308088303E-001;-1.000431254506111E-001;1.020815456286073E-003;2.232402097433806E-003;
