# Version 1.00
#
freq[Hz];re:Trc1_S11;im:Trc1_S11;re:Trc2_S21;im:Trc2_S21;
2.400000000000000E+009;1.508916765451431E-001;1.141506433486939E-001;6.539230234920979E-003;3.690173383802176E-003;
2.400166666666667E+009;1.505527347326279E-001;1.119757071137428E-001;6.827097851783037E-003;3.339254762977362E-003;
2.400333333333334E+009;1.504644602537155E-001;1.097312122583389E-001;7.174590136855841E-003;2.912936033681035E-003;
2.400500000000000E+009;1.502579152584076E-001;1.072591096162796E-001;7.453593425452709E-003;2.425015904009342E-003;
2.400666666666667E+009;1.502727568149567E-001;1.050068810582161E-001;7.588731590658426E-003;1.818512217141688E-003;
2.400833333333334E+009;1.500836461782455E-001;1.021345630288124E-001;7.619314361363649E-003;1.255862414836884E-003;
2.401000000000000E+009;1.501111537218094E-001;9.941164404153824E-002;7.669537793844938E-003;9.066911879926920E-004;
2.401166666666667E+009;1.500720977783203E-001;9.674114733934403E-002;7.665311917662621E-003;1.825530634960160E-004;
2.401333333333334E+009;1.503595709800720E-001;9.401316195726395E-002;7.485969923436642E-003;-1.364055933663622E-004;
2.401500000000000E+009;1.506431400775909E-001;9.086760133504868E-002;7.242509163916111E-003;-6.267817807383835E-004;
2.401666666666667E+009;1.510546058416367E-001;8.828322589397430E-002;7.060010917484760E-003;-1.083955750800669E-003;
2.401833333333334E+009;1.514943242073059E-001;8.544704318046570E-002;6.823599804192781E-003;-1.133404206484556E-003;
2.402000000000000E+009;1.522383987903595E-001;8.253482729196549E-002;6.686272565275431E-003;-1.575739006511867E-003;
2.402166666666667E+009;1.531510949134827E-001;8.002291619777679E-002;6.383603438735008E-003;-1.833993126638234E-003;
2.402333333333334E+009;1.540960669517517E-001;7.718265801668167E-002;6.163018755614758E-003;-2.164065372198820E-003;
2.402500000000000E+009;1.553306430578232E-001;7.458708435297012E-002;5.812498275190592E-003;-2.121195429936051E-003;
2.402666666666667E+009;1.565765291452408E-001;7.222914695739746E-002;5.660978145897389E-003;-2.217305824160576E-003;
2.402833333333334E+009;1.579323410987854E-001;6.969121843576431E-002;5.439154338091612E-003;-2.426381455734372E-003;
2.403000000000000E+009;1.594677716493607E-001;6.709656119346619E-002;5.239380523562431E-003;-2.587084425613284E-003;
2.403166666666667E+009;1.612849980592728E-001;6.492996215820313E-002;5.209641996771097E-003;-2.723721554502845E-003;
2.403333333333334E+009;1.628389209508896E-001;6.256239861249924E-002;5.032863002270460E-003;-2.874584170058370E-003;
2.403500000000000E+009;1.646903008222580E-001;6.020150333642960E-002;4.894422367215157E-003;-3.011838765814900E-003;
2.403666666666667E+009;1.667693108320236E-001;5.817154794931412E-002;4.895066376775503E-003;-2.958304248750210E-003;
2.403833333333334E+009;1.687499284744263E-001;5.623739957809448E-002;4.859368316829205E-003;-3.259019460529089E-003;
2.404000000000000E+009;1.704060882329941E-001;5.424626171588898E-002;4.689989611506462E-003;-3.593043424189091E-003;
2.404166666666667E+009;1.724463999271393E-001;5.264434590935707E-002;4.703510552644730E-003;-3.469971707090735E-003;
2.404333333333334E+009;1.744038611650467E-001;5.095879733562470E-002;4.363028798252344E-003;-3.598249051719904E-003;
2.404500000000000E+009;1.763153672218323E-001;4.933957383036614E-002;4.298920743167400E-003;-3.987072501331568E-003;
2.404666666666667E+009;1.781054288148880E-001;4.821772500872612E-002;4.248055163770914E-003;-4.183682613074780E-003;
2.404833333333334E+009;1.802180409431458E-001;4.685459285974503E-002;4.054886754602194E-003;-4.343905020505190E-003;
2.405000000000000E+009;1.817752867937088E-001;4.608498513698578E-002;3.854457521811128E-003;-4.596029873937368E-003;
2.405166666666667E+009;1.837650686502457E-001;4.515284299850464E-002;3.402505302801728E-003;-4.731358960270882E-003;
2.405333333333334E+009;1.853305101394653E-001;4.470085725188255E-002;3.054151777178049E-003;-4.785020835697651E-003;
2.405500000000000E+009;1.871036887168884E-001;4.409417882561684E-002;2.913922537118197E-003;-5.015725735574961E-003;
2.405666666666667E+009;1.887214183807373E-001;4.361778125166893E-002;2.723293611779809E-003;-5.136809777468443E-003;
2.405833333333334E+009;1.903279125690460E-001;4.328533262014389E-002;2.279679989442229E-003;-5.110044497996569E-003;
2.406000000000000E+009;1.915542781352997E-001;4.307512566447258E-002;2.052537631243467E-003;-5.039312876760960E-003;
2.406166666666667E+009;1.928916275501251E-001;4.282677918672562E-002;1.702215289697051E-003;-5.108354147523642E-003;
2.406333333333334E+009;1.942333877086639E-001;4.282436892390251E-002;1.243582344613969E-003;-5.008594132959843E-003;
2.406500000000000E+009;1.952057480812073E-001;4.278597980737686E-002;1.109123113565147E-003;-4.925319459289312E-003;
2.406666666666667E+009;1.961069405078888E-001;4.286840930581093E-002;8.970147464424372E-004;-4.787839017808437E-003;
2.406833333333334E+009;1.969519406557083E-001;4.279077053070068E-002;6.178762414492667E-004;-4.717301577329636E-003;
2.407000000000000E+009;1.974647194147110E-001;4.300331324338913E-002;5.107867182232440E-004;-4.590895026922226E-003;
2.407166666666667E+009;1.981505900621414E-001;4.295853525400162E-002;3.338866226840764E-004;-4.465867765247822E-003;
2.407333333333334E+009;1.981456279754639E-001;4.292966425418854E-002;2.546345058362931E-004;-4.311264026910067E-003;
2.407500000000000E+009;1.983352899551392E-001;4.323309659957886E-002;2.892171323765069E-006;-4.170599859207869E-003;
2.407666666666667E+009;1.985238641500473E-001;4.320473223924637E-002;6.562483031302691E-005;-3.936104942113161E-003;
2.407833333333334E+009;1.982000917196274E-001;4.328506439924240E-002;7.633628410985693E-005;-3.977701067924500E-003;
2.408000000000000E+009;1.980347633361816E-001;4.328207299113274E-002;6.658226629951969E-005;-3.702599322423339E-003;
2.408166666666667E+009;1.975566893815994E-001;4.293838515877724E-002;7.783070032019168E-005;-3.549168119207025E-003;
2.408333333333334E+009;1.971063613891602E-001;4.268728941679001E-002;-2.320961903023999E-005;-3.563454141840339E-003;
2.408500000000000E+009;1.964980363845825E-001;4.232179746031761E-002;1.817060729081277E-005;-3.546831430867314E-003;
2.408666666666667E+009;1.958810538053513E-001;4.218949005007744E-002;7.061040378175676E-006;-3.420645836740732E-003;
2.408833333333334E+009;1.950279176235199E-001;4.147272557020187E-002;2.141064906027168E-004;-3.412601770833135E-003;
2.409000000000000E+009;1.941250562667847E-001;4.088572412729263E-002;3.189675917383283E-004;-3.525089239701629E-003;
2.409166666666667E+009;1.930838227272034E-001;4.013321176171303E-002;1.334209991910029E-005;-3.600463736802340E-003;
2.409333333333334E+009;1.918799728155136E-001;3.938128426671028E-002;2.664819185156375E-004;-3.545482875779271E-003;
2.409500000000000E+009;1.907054781913757E-001;3.813862428069115E-002;2.510307531338185E-004;-3.600012976676226E-003;
2.409666666666667E+009;1.894852966070175E-001;3.693868964910507E-002;1.043151496560313E-004;-3.582698293030262E-003;
2.409833333333334E+009;1.882842183113098E-001;3.576322644948959E-002;1.711344084469602E-004;-3.749179188162088E-003;
2.410000000000000E+009;1.872597038745880E-001;3.404308483004570E-002;1.968644937733188E-004;-3.888806561008096E-003;
2.410166666666667E+009;1.861606687307358E-001;3.248244524002075E-002;2.086639506160282E-005;-4.026202484965324E-003;
2.410333333333334E+009;1.848103702068329E-001;3.091433085501194E-002;-1.289744250243530E-004;-4.149391315877438E-003;
2.410500000000000E+009;1.836481243371964E-001;2.910708449780941E-002;-2.155112015316263E-004;-4.240975249558687E-003;
2.410666666666667E+009;1.826033294200897E-001;2.684541791677475E-002;-2.711403067223728E-004;-4.345808178186417E-003;
2.410833333333334E+009;1.817659288644791E-001;2.483016811311245E-002;-4.466405080165714E-004;-4.418968688696623E-003;
2.411000000000000E+009;1.808166652917862E-001;2.277329005300999E-002;-4.907644470222294E-004;-4.497161600738764E-003;
2.411166666666667E+009;1.800639778375626E-001;2.058684267103672E-002;-7.898550247773528E-004;-4.640505649149418E-003;
2.411333333333334E+009;1.791679263114929E-001;1.806217618286610E-002;-9.609399130567908E-004;-4.450000822544098E-003;
2.411500000000000E+009;1.787719130516052E-001;1.554770488291979E-002;-1.214863383211196E-003;-4.461279604583979E-003;
2.411666666666667E+009;1.782883405685425E-001;1.344417128711939E-002;-1.334596425294876E-003;-4.483481403440237E-003;
2.411833333333334E+009;1.778500825166702E-001;1.070524193346500E-002;-1.625774079002440E-003;-4.368224181234837E-003;
2.412000000000000E+009;1.776506602764130E-001;7.934486493468285E-003;-1.776019693352282E-003;-4.508405458182097E-003;
2.412166666666667E+009;1.777553111314774E-001;5.706773605197668E-003;-2.053573494777083E-003;-4.448702093213797E-003;
2.412333333333334E+009;1.776223778724670E-001;3.162859240546823E-003;-2.065167995169759E-003;-4.235046915709972E-003;
2.412500000000000E+009;1.780079603195190E-001;6.194253801368177E-004;-2.348144771531224E-003;-4.208731465041637E-003;
2.412666666666667E+009;1.783176064491272E-001;-1.978466287255287E-003;-2.558286068961024E-003;-4.053520970046520E-003;
2.412833333333334E+009;1.789892464876175E-001;-4.643529653549194E-003;-2.600970445200801E-003;-4.045167937874794E-003;
2.413000000000000E+009;1.795082837343216E-001;-7.003332488238812E-003;-2.667597960680723E-003;-4.128773231059313E-003;
2.413166666666667E+009;1.803364902734757E-001;-9.429393336176872E-003;-2.886640839278698E-003;-3.826683387160301E-003;
2.413333333333334E+009;1.813668161630631E-001;-1.189639884978533E-002;-2.834131475538015E-003;-3.773131407797337E-003;
2.413500000000000E+009;1.820253729820252E-001;-1.444206014275551E-002;-3.009275300428271E-003;-3.818331984803081E-003;
2.413666666666667E+009;1.831786483526230E-001;-1.647470332682133E-002;-3.176963189616799E-003;-3.716607345268130E-003;
2.413833333333334E+009;1.842902302742004E-001;-1.889359205961227E-002;-3.312681103125215E-003;-3.615865251049399E-003;
2.414000000000000E+009;1.854634732007980E-001;-2.105186507105827E-002;-3.330587875097990E-003;-3.449389012530446E-003;
2.414166666666667E+009;1.867944151163101E-001;-2.277906052768230E-002;-3.511426970362663E-003;-3.382496768608689E-003;
2.414333333333334E+009;1.880239099264145E-001;-2.508502826094627E-002;-3.628887236118317E-003;-3.429177217185497E-003;
2.414500000000000E+009;1.892239153385162E-001;-2.658111788332462E-002;-3.740621497854590E-003;-3.550992114469409E-003;
2.414666666666667E+009;1.906670331954956E-001;-2.834151871502399E-002;-3.926244564354420E-003;-3.322281641885638E-003;
2.414833333333334E+009;1.917953640222549E-001;-2.980408258736134E-002;-4.127576947212219E-003;-3.073221771046519E-003;
2.415000000000000E+009;1.928837299346924E-001;-3.124810196459293E-002;-4.370525944977999E-003;-3.201704006642103E-003;
2.415166666666667E+009;1.945095807313919E-001;-3.249273449182510E-002;-4.476774018257856E-003;-2.904306631535292E-003;
2.415333333333334E+009;1.957684010267258E-001;-3.351214528083801E-002;-4.898892715573311E-003;-2.867049770429730E-003;
2.415500000000000E+009;1.969344615936279E-001;-3.427655249834061E-002;-5.187001079320908E-003;-2.718503819778562E-003;
2.415666666666667E+009;1.981679797172546E-001;-3.516251593828201E-002;-5.356338340789080E-003;-2.435130300000310E-003;
2.415833333333334E+009;1.993012279272080E-001;-3.587745130062103E-002;-5.564010702073574E-003;-2.112179528921843E-003;
2.416000000000000E+009;2.003396451473236E-001;-3.652658686041832E-002;-5.816481541842222E-003;-1.889031962491572E-003;
2.416166666666667E+009;2.010621130466461E-001;-3.701216727495194E-002;-5.946226883679628E-003;-1.599190523847938E-003;
2.416333333333334E+009;2.020608037710190E-001;-3.735630214214325E-002;-6.140834651887417E-003;-1.331443549133837E-003;
2.416500000000000E+009;2.026390284299851E-001;-3.761167451739311E-002;-6.056846585124731E-003;-7.405960932374001E-004;
2.416666666666667E+009;2.032082676887512E-001;-3.792019560933113E-002;-6.254671607166529E-003;-5.209316150285304E-004;
2.416833333333334E+009;2.035323530435562E-001;-3.785878047347069E-002;-6.156525108963251E-003;-2.817884706018958E-005;
2.417000000000000E+009;2.039252519607544E-001;-3.780310228466988E-002;-6.079533137381077E-003;2.806826960295439E-004;
2.417166666666667E+009;2.038824260234833E-001;-3.764903917908669E-002;-6.025431212037802E-003;6.964400527067483E-004;
2.417333333333334E+009;2.040240913629532E-001;-3.731435164809227E-002;-5.837486591190100E-003;9.646723046898842E-004;
2.417500000000000E+009;2.040149867534638E-001;-3.726724907755852E-002;-5.687933415174484E-003;1.106865820474923E-003;
2.417666666666667E+009;2.036475390195847E-001;-3.687128424644470E-002;-5.572964902967215E-003;1.474422169849277E-003;
2.417833333333334E+009;2.034691274166107E-001;-3.659057617187500E-002;-5.276807583868504E-003;1.626691315323114E-003;
2.418000000000000E+009;2.030305117368698E-001;-3.610888868570328E-002;-5.137610714882612E-003;1.897988957352936E-003;
2.418166666666667E+009;2.024091929197311E-001;-3.595738112926483E-002;-5.046419333666563E-003;2.008082577958703E-003;
2.418333333333334E+009;2.017081081867218E-001;-3.562398627400398E-002;-4.890872165560722E-003;2.013302408158779E-003;
2.418500000000000E+009;2.009674459695816E-001;-3.551189601421356E-002;-4.777188878506422E-003;2.231737598776817E-003;
2.418666666666667E+009;2.001602649688721E-001;-3.526451811194420E-002;-4.670664202421904E-003;2.273488324135542E-003;
2.418833333333334E+009;1.991629451513290E-001;-3.515771031379700E-002;-4.481048788875341E-003;2.342202235013247E-003;
2.419000000000000E+009;1.980228126049042E-001;-3.522843867540360E-002;-4.466286860406399E-003;2.522520488128066E-003;
2.419166666666667E+009;1.968185752630234E-001;-3.526436910033226E-002;-4.450771026313305E-003;2.626466797664762E-003;
2.419333333333334E+009;1.956061273813248E-001;-3.573549166321755E-002;-4.284219350665808E-003;2.878487342968583E-003;
2.419500000000000E+009;1.941233277320862E-001;-3.602698072791100E-002;-4.336732439696789E-003;2.950368681922555E-003;
2.419666666666667E+009;1.926968693733215E-001;-3.666827827692032E-002;-4.335775040090084E-003;3.091013291850686E-003;
2.419833333333334E+009;1.908870190382004E-001;-3.714814409613609E-002;-4.104795865714550E-003;3.208658192306757E-003;
2.420000000000000E+009;1.895000487565994E-001;-3.795875236392021E-002;-4.238072317093611E-003;3.417294472455978E-003;
2.420166666666667E+009;1.878730952739716E-001;-3.891071677207947E-002;-3.832743503153324E-003;3.717645071446896E-003;
2.420333333333334E+009;1.861275285482407E-001;-3.984908759593964E-002;-3.927294630557299E-003;4.018827807158232E-003;
2.420500000000000E+009;1.843409240245819E-001;-4.096473753452301E-002;-3.672648919746280E-003;4.293471574783325E-003;
2.420666666666667E+009;1.827329099178314E-001;-4.224766790866852E-002;-3.346262499690056E-003;4.471575375646353E-003;
2.420833333333334E+009;1.809499710798264E-001;-4.376409202814102E-002;-3.094497835263610E-003;4.585494752973318E-003;
2.421000000000000E+009;1.793832927942276E-001;-4.524610191583633E-002;-2.879272913560271E-003;4.788981750607491E-003;
2.421166666666667E+009;1.779802888631821E-001;-4.681620001792908E-002;-2.581258304417133E-003;4.982989281415939E-003;
2.421333333333334E+009;1.761410087347031E-001;-4.831064492464066E-002;-2.313470467925072E-003;5.145272705703974E-003;
2.421500000000000E+009;1.745736002922058E-001;-5.012095719575882E-002;-1.729513402096927E-003;5.137438420206308E-003;
2.421666666666667E+009;1.733519136905670E-001;-5.201232805848122E-002;-1.357333501800895E-003;5.169259384274483E-003;
2.421833333333334E+009;1.718773841857910E-001;-5.388467013835907E-002;-1.075842301361263E-003;5.057289730757475E-003;
2.422000000000000E+009;1.706706434488297E-001;-5.566827952861786E-002;-6.681060185655952E-004;4.917674697935581E-003;
2.422166666666667E+009;1.697205603122711E-001;-5.783515423536301E-002;-4.227184108458459E-004;4.816555418074131E-003;
2.422333333333334E+009;1.683986335992813E-001;-5.994302779436112E-002;-7.391819963231683E-005;4.613313358277082E-003;
2.422500000000000E+009;1.677526235580444E-001;-6.181591004133225E-002;1.077511114999652E-004;4.457798786461353E-003;
2.422666666666667E+009;1.669172346591950E-001;-6.402228772640228E-002;3.930973180104047E-004;4.312075674533844E-003;
2.422833333333334E+009;1.664150804281235E-001;-6.627139449119568E-002;6.221664370968938E-004;3.841224592179060E-003;
2.423000000000000E+009;1.657116860151291E-001;-6.837566941976547E-002;6.405584281310439E-004;3.832260612398386E-003;
2.423166666666667E+009;1.653431951999664E-001;-7.048457860946655E-002;8.829143480397761E-004;3.617944195866585E-003;
2.423333333333334E+009;1.651339679956436E-001;-7.263167202472687E-002;7.301265723071992E-004;3.461506916210055E-003;
2.423500000000000E+009;1.651266366243362E-001;-7.452994585037231E-002;7.757499115541577E-004;3.237242344766855E-003;
2.423666666666667E+009;1.650843471288681E-001;-7.664875686168671E-002;7.754269172437489E-004;2.964115701615810E-003;
2.423833333333334E+009;1.649962216615677E-001;-7.871375977993012E-002;9.594585862942040E-004;2.897223224863410E-003;
2.424000000000000E+009;1.651208698749542E-001;-8.058629184961319E-002;8.505604928359389E-004;2.676127245649695E-003;
2.424166666666667E+009;1.652105003595352E-001;-8.239180594682694E-002;8.107881876640022E-004;2.575048478320241E-003;
2.424333333333334E+009;1.655873656272888E-001;-8.409846574068070E-002;6.695263436995447E-004;2.425646642223001E-003;
2.424500000000000E+009;1.659907996654511E-001;-8.595079183578491E-002;7.684748270548880E-004;2.323184162378311E-003;
2.424666666666667E+009;1.664007753133774E-001;-8.760906010866165E-002;7.462616777047515E-004;2.500667236745358E-003;
2.424833333333334E+009;1.669896095991135E-001;-8.907674998044968E-002;6.208788254298270E-004;2.313949633389711E-003;
2.425000000000000E+009;1.675252616405487E-001;-9.046929329633713E-002;4.986432613804936E-004;2.350299153476954E-003;
2.425166666666667E+009;1.680400222539902E-001;-9.169016778469086E-002;3.617457114160061E-004;2.257832325994968E-003;
2.425333333333334E+009;1.683500856161118E-001;-9.276158362627029E-002;3.582673380151391E-004;2.338963793590665E-003;
2.425500000000000E+009;1.690798103809357E-001;-9.387654066085815E-002;5.308617837727070E-004;2.249995945021510E-003;
2.425666666666667E+009;1.695868372917175E-001;-9.479087591171265E-002;3.538679738994688E-004;2.304815920069814E-003;
2.425833333333334E+009;1.702296286821365E-001;-9.576124697923660E-002;4.707318730652332E-004;2.356445416808128E-003;
2.426000000000000E+009;1.707468330860138E-001;-9.620017558336258E-002;4.236548847984523E-004;2.417836105450988E-003;
2.426166666666667E+009;1.714804023504257E-001;-9.698860347270966E-002;5.244101630523801E-004;2.553227590397000E-003;
2.426333333333334E+009;1.716260462999344E-001;-9.758389741182327E-002;6.044464535079897E-004;2.499387133866549E-003;
2.426500000000000E+009;1.723642498254776E-001;-9.796322137117386E-002;5.326935788616538E-004;2.546836156398058E-003;
2.426666666666667E+009;1.729058027267456E-001;-9.846113622188568E-002;6.909668445587158E-004;2.584511181339622E-003;
2.426833333333334E+009;1.734155863523483E-001;-9.881831705570221E-002;9.557229350320995E-004;2.451051259413362E-003;
2.427000000000000E+009;1.735528260469437E-001;-9.920078516006470E-002;8.758052717894316E-004;2.429349115118384E-003;
2.427166666666667E+009;1.740032881498337E-001;-9.940915554761887E-002;9.424210293218494E-004;2.444260520860553E-003;
2.427333333333334E+009;1.740169525146484E-001;-9.974415600299835E-002;9.204219095408917E-004;2.508158795535564E-003;
2.427500000000000E+009;1.739959716796875E-001;-9.997864812612534E-002;1.009557861834765E-003;2.349242335185409E-003;
2.427666666666667E+009;1.739734560251236E-001;-9.998930990695953E-002;1.099292770959437E-003;2.386459149420261E-003;
2.427833333333334E+009;1.738001704216003E-001;-1.001571640372276E-001;1.085947733372450E-003;2.298659412190318E-003;
