# Version 1.00
#
freq[Hz];re:Trc1_S11;im:Trc1_S11;re:Trc2_S21;im:Trc2_S21;
2.400000000000000E+009;1.507115960121155E-001;1.145687028765678E-001;6.765555590391159E-003;3.726274240761995E-003;
2.400166666666667E+009;1.502265930175781E-001;1.125176101922989E-001;6.837326101958752E-003;3.404140705242753E-003;
2.400333333333334E+009;1.500707417726517E-001;1.103519946336746E-001;7.291272282600403E-003;2.985233440995216E-003;
2.400500000000000E+009;1.499689966440201E-001;1.077149584889412E-001;7.419228088110685E-003;2.542083384469152E-003;
2.400666666666667E+009;1.498642712831497E-001;1.052744835615158E-001;7.653953041881323E-003;1.917875488288701E-003;
2.400833333333334E+009;1.498465538024902E-001;1.026277393102646E-001;7.563192397356033E-003;1.257170573808253E-003;
2.401000000000000E+009;1.499044746160507E-001;9.997356683015823E-002;7.634582929313183E-003;9.011363727040589E-004;
2.401166666666667E+009;1.498629003763199E-001;9.726458042860031E-002;7.641595322638750E-003;5.232666735537350E-004;
2.401333333333334E+009;1.502271741628647E-001;9.434866905212402E-002;7.512190844863653E-003;-1.054858075804077E-004;
2.401500000000000E+009;1.506916582584381E-001;9.147459268569946E-002;7.336353417485952E-003;-6.308633019216359E-004;
2.401666666666667E+009;1.509259790182114E-001;8.870223164558411E-002;7.037868723273277E-003;-9.800770785659552E-004;
2.401833333333334E+009;1.513740122318268E-001;8.582002669572830E-002;6.961898412555456E-003;-1.261836499907076E-003;
2.402000000000000E+009;1.522219032049179E-001;8.310920000076294E-002;6.705116480588913E-003;-1.581186777912080E-003;
2.402166666666667E+009;1.530493646860123E-001;8.055061101913452E-002;6.252403371036053E-003;-1.882389304228127E-003;
2.402333333333334E+009;1.539437025785446E-001;7.765570282936096E-002;6.221075542271137E-003;-1.948757329955697E-003;
2.402500000000000E+009;1.551407575607300E-001;7.514938712120056E-002;5.953058134764433E-003;-2.179960487410426E-003;
2.402666666666667E+009;1.564877480268478E-001;7.263056188821793E-002;5.827128421515226E-003;-2.276808256283402E-003;
2.402833333333334E+009;1.578564494848251E-001;7.002152502536774E-002;5.555247422307730E-003;-2.426349557936192E-003;
2.403000000000000E+009;1.592488884925842E-001;6.758166104555130E-002;5.472189746797085E-003;-2.521886955946684E-003;
2.403166666666667E+009;1.610064208507538E-001;6.516355276107788E-002;5.295183509588242E-003;-2.484428929165006E-003;
2.403333333333334E+009;1.627143919467926E-001;6.288497149944305E-002;5.216031335294247E-003;-2.764732111245394E-003;
2.403500000000000E+009;1.648554205894470E-001;6.062106415629387E-002;5.197987426072359E-003;-2.947228727862239E-003;
2.403666666666667E+009;1.666384786367416E-001;5.859680473804474E-002;5.044364370405674E-003;-3.022828605026007E-003;
2.403833333333334E+009;1.686841696500778E-001;5.667677894234657E-002;4.727347288280726E-003;-3.173943376168609E-003;
2.404000000000000E+009;1.703274250030518E-001;5.478555709123612E-002;4.676519893109798E-003;-3.394793253391981E-003;
2.404166666666667E+009;1.725315302610397E-001;5.309884622693062E-002;4.640834406018257E-003;-3.580854274332523E-003;
2.404333333333334E+009;1.742902547121048E-001;5.128947272896767E-002;4.723907448351383E-003;-3.676307620480657E-003;
2.404500000000000E+009;1.763792037963867E-001;4.985807463526726E-002;4.434377420693636E-003;-3.888220060616732E-003;
2.404666666666667E+009;1.783070117235184E-001;4.860175400972366E-002;4.360144026577473E-003;-4.133489914238453E-003;
2.404833333333334E+009;1.803206056356430E-001;4.728583991527557E-002;4.072535783052445E-003;-4.407131113111973E-003;
2.405000000000000E+009;1.821359246969223E-001;4.665932431817055E-002;3.947920165956020E-003;-4.563869908452034E-003;
2.405166666666667E+009;1.837394982576370E-001;4.582082852721214E-002;3.582093166187406E-003;-4.824161995202303E-003;
2.405333333333334E+009;1.855583041906357E-001;4.514091089367867E-002;3.259619232267141E-003;-4.881043918430805E-003;
2.405500000000000E+009;1.872648149728775E-001;4.454318061470985E-002;2.985067199915648E-003;-5.007807165384293E-003;
2.405666666666667E+009;1.887633204460144E-001;4.392750188708305E-002;2.788004931062460E-003;-5.029679741710424E-003;
2.405833333333334E+009;1.904050111770630E-001;4.363426938652992E-002;2.366245491430163E-003;-5.228522699326277E-003;
2.406000000000000E+009;1.917684674263001E-001;4.342367872595787E-002;2.067872090265155E-003;-5.095372907817364E-003;
2.406166666666667E+009;1.932314187288284E-001;4.329220950603485E-002;1.742469379678369E-003;-5.267088301479816E-003;
2.406333333333334E+009;1.944524198770523E-001;4.316160455346108E-002;1.496597542427480E-003;-5.260826554149389E-003;
2.406500000000000E+009;1.955288052558899E-001;4.317631572484970E-002;1.170843373984098E-003;-4.903581459075213E-003;
2.406666666666667E+009;1.963268518447876E-001;4.313243553042412E-002;1.018321956507862E-003;-4.803657531738281E-003;
2.406833333333334E+009;1.972101479768753E-001;4.327037185430527E-002;7.323725149035454E-004;-4.725920502096415E-003;
2.407000000000000E+009;1.977416425943375E-001;4.337062314152718E-002;5.552986403927207E-004;-4.639592021703720E-003;
2.407166666666667E+009;1.982576400041580E-001;4.326660558581352E-002;4.749495710711926E-004;-4.535931628197432E-003;
2.407333333333334E+009;1.985824257135391E-001;4.338457435369492E-002;2.352298324694857E-004;-4.411731846630573E-003;
2.407500000000000E+009;1.985539495944977E-001;4.360177740454674E-002;2.867206057999283E-004;-4.195378627628088E-003;
2.407666666666667E+009;1.987987160682678E-001;4.365349933505058E-002;1.810631365515292E-004;-4.136992618441582E-003;
2.407833333333334E+009;1.983651965856552E-001;4.347559809684753E-002;1.298627466894686E-004;-3.973345737904310E-003;
2.408000000000000E+009;1.985713392496109E-001;4.351585730910301E-002;2.017936276388355E-005;-3.977965563535690E-003;
2.408166666666667E+009;1.978788524866104E-001;4.332816973328590E-002;3.269483568146825E-005;-3.600105410441756E-003;
2.408333333333334E+009;1.974729001522064E-001;4.298526421189308E-002;5.956149470875971E-005;-3.733522491529584E-003;
2.408500000000000E+009;1.967538744211197E-001;4.289431124925613E-002;1.516992633696646E-004;-3.561668330803514E-003;
2.408666666666667E+009;1.962105035781860E-001;4.239830374717712E-002;1.395630533806980E-004;-3.432139754295349E-003;
2.408833333333334E+009;1.953592300415039E-001;4.176582768559456E-002;1.001938871922903E-004;-3.486629109829664E-003;
2.409000000000000E+009;1.942932307720184E-001;4.108955338597298E-002;1.013634173432365E-004;-3.378504421561956E-003;
2.409166666666667E+009;1.933002769947052E-001;4.025343805551529E-002;2.390801237197593E-004;-3.588624764233828E-003;
2.409333333333334E+009;1.923364251852036E-001;3.945266827940941E-002;1.684470917098224E-004;-3.629223443567753E-003;
2.409500000000000E+009;1.910981833934784E-001;3.832614421844482E-002;2.171117084799334E-004;-3.706483868882060E-003;
2.409666666666667E+009;1.899189949035645E-001;3.705788403749466E-002;6.359813414746895E-005;-3.622265299782157E-003;
2.409833333333334E+009;1.886741816997528E-001;3.580719977617264E-002;2.054076612694189E-004;-3.933318890631199E-003;
2.410000000000000E+009;1.875953227281570E-001;3.432352840900421E-002;2.276721352245659E-005;-3.901064861565828E-003;
2.410166666666667E+009;1.864203959703445E-001;3.267451375722885E-002;1.311529049417004E-004;-4.149224609136581E-003;
2.410333333333334E+009;1.853049695491791E-001;3.107701241970062E-002;-1.600671530468389E-004;-4.244357813149691E-003;
2.410500000000000E+009;1.841097176074982E-001;2.932432666420937E-002;-2.150631917174906E-004;-4.217992536723614E-003;
2.410666666666667E+009;1.828801333904266E-001;2.700706943869591E-002;-3.000691940542311E-004;-4.333570133894682E-003;
2.410833333333334E+009;1.822042763233185E-001;2.491931430995464E-002;-5.024942220188677E-004;-4.429738037288189E-003;
2.411000000000000E+009;1.812707334756851E-001;2.283521555364132E-002;-6.581489578820765E-004;-4.614811856299639E-003;
2.411166666666667E+009;1.804112792015076E-001;2.069270797073841E-002;-8.227053331211209E-004;-4.619007464498282E-003;
2.411333333333334E+009;1.796661764383316E-001;1.819401234388351E-002;-1.021133037284017E-003;-4.622282460331917E-003;
2.411500000000000E+009;1.791315823793411E-001;1.564127951860428E-002;-1.164264976978302E-003;-4.562181886285543E-003;
2.411666666666667E+009;1.786080300807953E-001;1.333427615463734E-002;-1.525953412055969E-003;-4.695782903581858E-003;
2.411833333333334E+009;1.782669574022293E-001;1.087401993572712E-002;-1.699927728623152E-003;-4.583946894854307E-003;
2.412000000000000E+009;1.781806498765945E-001;8.291457779705524E-003;-1.816461677663028E-003;-4.538564011454582E-003;
2.412166666666667E+009;1.780637651681900E-001;5.940438713878393E-003;-1.967621268704534E-003;-4.406369291245937E-003;
2.412333333333334E+009;1.781903058290482E-001;3.351985942572355E-003;-2.053054515272379E-003;-4.365632776170969E-003;
2.412500000000000E+009;1.784668564796448E-001;6.266534910537303E-004;-2.402269514277577E-003;-4.299027845263481E-003;
2.412666666666667E+009;1.788108199834824E-001;-2.053570235148072E-003;-2.531259786337614E-003;-4.220199305564165E-003;
2.412833333333334E+009;1.794837415218353E-001;-4.412981681525707E-003;-2.557130996137857E-003;-4.066833760589361E-003;
2.413000000000000E+009;1.800029128789902E-001;-6.837655790150166E-003;-2.676531672477722E-003;-3.975649829953909E-003;
2.413166666666667E+009;1.806320995092392E-001;-9.425651282072067E-003;-2.916713245213032E-003;-3.987261559814215E-003;
2.413333333333334E+009;1.817826032638550E-001;-1.193768810480833E-002;-3.141112858429551E-003;-3.837827825918794E-003;
2.413500000000000E+009;1.825622767210007E-001;-1.434456463903189E-002;-3.226071828976274E-003;-3.645992605015636E-003;
2.413666666666667E+009;1.838885247707367E-001;-1.670522801578045E-002;-3.321453230455518E-003;-3.500142833217979E-003;
2.413833333333334E+009;1.848124414682388E-001;-1.882655918598175E-002;-3.299462143331766E-003;-3.526424290612340E-003;
2.414000000000000E+009;1.859161555767059E-001;-2.089169807732105E-002;-3.490839386358857E-003;-3.492696909233928E-003;
2.414166666666667E+009;1.872554570436478E-001;-2.307625114917755E-002;-3.603534074500203E-003;-3.442151006311178E-003;
2.414333333333334E+009;1.884175091981888E-001;-2.512262761592865E-002;-3.687328658998013E-003;-3.495655721053481E-003;
2.414500000000000E+009;1.896947920322418E-001;-2.679547481238842E-002;-3.908386453986168E-003;-3.380941459909082E-003;
2.414666666666667E+009;1.909732073545456E-001;-2.839372493326664E-002;-4.066324792802334E-003;-3.184063360095024E-003;
2.414833333333334E+009;1.922263950109482E-001;-2.994775772094727E-002;-4.269303753972054E-003;-3.209682414308190E-003;
2.415000000000000E+009;1.934027075767517E-001;-3.128597512841225E-002;-4.361469764262438E-003;-3.192645730450749E-003;
2.415166666666667E+009;1.949067115783691E-001;-3.259854391217232E-002;-4.635293036699295E-003;-2.898382954299450E-003;
2.415333333333334E+009;1.962152868509293E-001;-3.361695259809494E-002;-4.870933014899492E-003;-2.863665111362934E-003;
2.415500000000000E+009;1.974151879549027E-001;-3.444022312760353E-002;-5.159511230885983E-003;-2.669843612238765E-003;
2.415666666666667E+009;1.985938996076584E-001;-3.541020676493645E-002;-5.477464292198420E-003;-2.374223666265607E-003;
2.415833333333334E+009;1.997263431549072E-001;-3.597906976938248E-002;-5.662713199853897E-003;-2.209954662248492E-003;
2.416000000000000E+009;2.005837559700012E-001;-3.672838583588600E-002;-5.871498491615057E-003;-1.964311115443707E-003;
2.416166666666667E+009;2.017084211111069E-001;-3.727588802576065E-002;-5.945501849055290E-003;-1.550235552713275E-003;
2.416333333333334E+009;2.023951113224030E-001;-3.758507966995239E-002;-6.158283911645412E-003;-1.106692012399435E-003;
2.416500000000000E+009;2.030500769615173E-001;-3.792329877614975E-002;-6.269495934247971E-003;-7.902086945250630E-004;
2.416666666666667E+009;2.036585062742233E-001;-3.803648799657822E-002;-6.166571751236916E-003;-3.069411031901836E-004;
2.416833333333334E+009;2.039366960525513E-001;-3.805513679981232E-002;-6.264148280024529E-003;5.183380380913150E-006;
2.417000000000000E+009;2.044107913970947E-001;-3.813295438885689E-002;-6.070258095860481E-003;3.999755135737360E-004;
2.417166666666667E+009;2.042740732431412E-001;-3.800147771835327E-002;-5.929452832788229E-003;6.174704758450389E-004;
2.417333333333334E+009;2.043323665857315E-001;-3.762115538120270E-002;-5.821214988827705E-003;9.536916040815413E-004;
2.417500000000000E+009;2.043115943670273E-001;-3.754809126257896E-002;-5.641189403831959E-003;1.209891168400645E-003;
2.417666666666667E+009;2.041091769933701E-001;-3.723872452974320E-002;-5.573556292802095E-003;1.501689665019512E-003;
2.417833333333334E+009;2.037939578294754E-001;-3.685773536562920E-002;-5.262435413897038E-003;1.617167145013809E-003;
2.418000000000000E+009;2.033643573522568E-001;-3.660489991307259E-002;-5.313814152032137E-003;1.816188334487379E-003;
2.418166666666667E+009;2.026786357164383E-001;-3.631392866373062E-002;-5.032750777900219E-003;2.145850798115134E-003;
2.418333333333334E+009;2.021599709987640E-001;-3.592205047607422E-002;-4.887340124696493E-003;2.157089766114950E-003;
2.418500000000000E+009;2.013618946075440E-001;-3.585153073072434E-002;-4.917441401630640E-003;2.333519281819463E-003;
2.418666666666667E+009;2.005214095115662E-001;-3.563183173537254E-002;-4.710861947387457E-003;2.289962023496628E-003;
2.418833333333334E+009;1.993159502744675E-001;-3.555759042501450E-002;-4.603386390954256E-003;2.571861492469907E-003;
2.419000000000000E+009;1.982157826423645E-001;-3.556762263178825E-002;-4.460393916815519E-003;2.565723378211260E-003;
2.419166666666667E+009;1.970741003751755E-001;-3.575896844267845E-002;-4.392650444060564E-003;2.853805432096124E-003;
2.419333333333334E+009;1.958219856023789E-001;-3.606958314776421E-002;-4.381160251796246E-003;2.881721593439579E-003;
2.419500000000000E+009;1.944248378276825E-001;-3.641336411237717E-002;-4.225541371852160E-003;3.071706974878907E-003;
2.419666666666667E+009;1.928120404481888E-001;-3.698193654417992E-002;-4.230176564306021E-003;3.110280726104975E-003;
2.419833333333334E+009;1.911287903785706E-001;-3.755671903491020E-002;-4.092083778232336E-003;3.379001980647445E-003;
2.420000000000000E+009;1.896071285009384E-001;-3.841515630483627E-002;-4.094872623682022E-003;3.608643542975187E-003;
2.420166666666667E+009;1.879517287015915E-001;-3.920404985547066E-002;-3.878726856783032E-003;3.557369112968445E-003;
2.420333333333334E+009;1.862065345048904E-001;-4.034320265054703E-002;-3.824520623311400E-003;4.016012419015169E-003;
2.420500000000000E+009;1.845654249191284E-001;-4.151753336191177E-002;-3.653133288025856E-003;4.224582575261593E-003;
2.420666666666667E+009;1.827920973300934E-001;-4.260842874646187E-002;-3.312990535050631E-003;4.478320945054293E-003;
2.420833333333334E+009;1.810510903596878E-001;-4.396996647119522E-002;-3.170807147398591E-003;4.647220019251108E-003;
2.421000000000000E+009;1.792284697294235E-001;-4.569074884057045E-002;-2.958316355943680E-003;4.778230562806130E-003;
2.421166666666667E+009;1.779016256332398E-001;-4.712679609656334E-002;-2.725796308368444E-003;5.125248804688454E-003;
2.421333333333334E+009;1.761206984519959E-001;-4.859531670808792E-002;-2.258435357362032E-003;5.095833912491798E-003;
2.421500000000000E+009;1.746672391891480E-001;-5.057290568947792E-002;-1.708184019662440E-003;5.186773370951414E-003;
2.421666666666667E+009;1.732105016708374E-001;-5.244978144764900E-002;-1.446287147700787E-003;5.205073859542608E-003;
2.421833333333334E+009;1.719773411750794E-001;-5.432016029953957E-002;-1.067443983629346E-003;5.114406347274780E-003;
2.422000000000000E+009;1.706013679504395E-001;-5.622494593262672E-002;-7.778793806210160E-004;5.015513394027948E-003;
2.422166666666667E+009;1.696848273277283E-001;-5.851050093770027E-002;-3.953785926569253E-004;4.916870035231113E-003;
2.422333333333334E+009;1.685768067836762E-001;-6.036160141229630E-002;6.115544238127768E-005;4.607261624187231E-003;
2.422500000000000E+009;1.676869988441467E-001;-6.232572346925736E-002;3.090119862463325E-004;4.582986701279879E-003;
2.422666666666667E+009;1.667674183845520E-001;-6.451383233070374E-002;4.114235634915531E-004;4.239212721586227E-003;
2.422833333333334E+009;1.662782579660416E-001;-6.674374639987946E-002;5.883934209123254E-004;3.973765764385462E-003;
2.423000000000000E+009;1.656999588012695E-001;-6.887722015380859E-002;7.150603341870010E-004;3.767470363527536E-003;
2.423166666666667E+009;1.652811318635941E-001;-7.084177434444428E-002;7.628962048329413E-004;3.595312824472785E-003;
2.423333333333334E+009;1.651844531297684E-001;-7.309162616729736E-002;8.575033862143755E-004;3.384192707017064E-003;
2.423500000000000E+009;1.649763137102127E-001;-7.504393905401230E-002;8.762889774516225E-004;3.158428007736802E-003;
2.423666666666667E+009;1.649237275123596E-001;-7.709820568561554E-002;9.218342602252960E-004;3.009111387655139E-003;
2.423833333333334E+009;1.648348569869995E-001;-7.892835885286331E-002;8.311818819493055E-004;2.923608990386128E-003;
2.424000000000000E+009;1.649741977453232E-001;-8.110324293375015E-002;8.718843455426395E-004;2.623601583763957E-003;
2.424166666666667E+009;1.651424318552017E-001;-8.265803009271622E-002;9.072140092030168E-004;2.487543970346451E-003;
2.424333333333334E+009;1.653438955545425E-001;-8.456226438283920E-002;7.530087605118752E-004;2.492742147296667E-003;
2.424500000000000E+009;1.657054722309113E-001;-8.653078973293304E-002;7.703871233388782E-004;2.398541197180748E-003;
2.424666666666667E+009;1.661031097173691E-001;-8.796482533216476E-002;5.136380787007511E-004;2.379516139626503E-003;
2.424833333333334E+009;1.667623817920685E-001;-8.947119116783142E-002;4.418010357767344E-004;2.379943151026964E-003;
2.425000000000000E+009;1.671254038810730E-001;-9.089217334985733E-002;6.036658305674791E-004;2.365754684433341E-003;
2.425166666666667E+009;1.676197350025177E-001;-9.203381091356278E-002;5.008126026950777E-004;2.417435403913260E-003;
2.425333333333334E+009;1.681596487760544E-001;-9.319251030683518E-002;5.249202949926257E-004;2.310869283974171E-003;
2.425500000000000E+009;1.687254607677460E-001;-9.437687695026398E-002;5.003843689337373E-004;2.280367305502296E-003;
2.425666666666667E+009;1.694315075874329E-001;-9.512186050415039E-002;4.692383809015155E-004;2.441528951749206E-003;
2.425833333333334E+009;1.698303073644638E-001;-9.614565223455429E-002;3.726483846548945E-004;2.301583299413323E-003;
2.426000000000000E+009;1.705196648836136E-001;-9.663563966751099E-002;5.695777945220470E-004;2.374312607571483E-003;
2.426166666666667E+009;1.710844635963440E-001;-9.728389233350754E-002;4.829047538805753E-004;2.492810832336545E-003;
2.426333333333334E+009;1.713820546865463E-001;-9.783274680376053E-002;7.338052382692695E-004;2.493765205144882E-003;
2.426500000000000E+009;1.720956116914749E-001;-9.831342846155167E-002;7.097484194673598E-004;2.460552612319589E-003;
2.426666666666667E+009;1.725283712148666E-001;-9.876850992441177E-002;8.408651920035482E-004;2.367372158914805E-003;
2.426833333333334E+009;1.731627136468887E-001;-9.902620315551758E-002;8.900382672436535E-004;2.518549794331193E-003;
2.427000000000000E+009;1.732341349124908E-001;-9.942525625228882E-002;1.009307336062193E-003;2.457428490743041E-003;
2.427166666666667E+009;1.735239624977112E-001;-9.953533858060837E-002;9.812052594497800E-004;2.465642523020506E-003;
2.427333333333334E+009;1.736387461423874E-001;-9.999056905508041E-002;9.974727872759104E-004;2.419809345155954E-003;
2.427500000000000E+009;1.736927181482315E-001;-1.002100184559822E-001;9.872120572254062E-004;2.479661023244262E-003;
2.427666666666667E+009;1.735466718673706E-001;-1.002216711640358E-001;1.113939681090415E-003;2.233795356005430E-003;
2.427833333333334E+009;1.734082102775574E-001;-1.004566624760628E-001;1.285521546378732E-003;2.201030729338527E-003;
