# Version 1.00
#
freq[Hz];re:Trc1_S11;im:Trc1_S11;re:Trc2_S21;im:Trc2_S21;
2.400000000000000E+009;1.505191475152969E-001;1.147071644663811E-001;6.473162211477757E-003;3.774606157094240E-003;
2.400166666666667E+009;1.501045227050781E-001;1.126637607812882E-001;6.946752313524485E-003;3.462709952145815E-003;
2.400333333333334E+009;1.500082015991211E-001;1.103053018450737E-001;7.178992033004761E-003;2.963661914691329E-003;
2.400500000000000E+009;1.499065607786179E-001;1.078946217894554E-001;7.327622734010220E-003;2.441407879814506E-003;
2.400666666666667E+009;1.499901264905930E-001;1.055015251040459E-001;7.388749159872532E-003;2.012983895838261E-003;
2.400833333333334E+009;1.497456878423691E-001;1.028890982270241E-001;7.584548555314541E-003;1.384652568958700E-003;
2.401000000000000E+009;1.498131453990936E-001;1.001399755477905E-001;7.635390385985375E-003;7.272270158864558E-004;
2.401166666666667E+009;1.498122066259384E-001;9.752179682254791E-002;7.634090725332499E-003;4.327211645431817E-004;
2.401333333333334E+009;1.501390337944031E-001;9.464982897043228E-002;7.350998930633068E-003;3.285377715656068E-006;
2.401500000000000E+009;1.505903005599976E-001;9.164693951606751E-002;7.276752498000860E-003;-5.772762233391404E-004;
2.401666666666667E+009;1.510231047868729E-001;8.897165209054947E-002;6.946608889847994E-003;-8.676933939568698E-004;
2.401833333333334E+009;1.513191014528275E-001;8.625870198011398E-002;6.769291125237942E-003;-1.348148332908750E-003;
2.402000000000000E+009;1.521130353212357E-001;8.321379870176315E-002;6.543151568621397E-003;-1.689390745013952E-003;
2.402166666666667E+009;1.530403345823288E-001;8.070780336856842E-002;6.256161723285914E-003;-1.753676333464682E-003;
2.402333333333334E+009;1.540937423706055E-001;7.767653465270996E-002;6.172927096486092E-003;-2.115317387506366E-003;
2.402500000000000E+009;1.553242206573486E-001;7.513114064931870E-002;5.916913505643606E-003;-2.160671865567565E-003;
2.402666666666667E+009;1.563848555088043E-001;7.289601862430573E-002;5.672074388712645E-003;-2.383877988904715E-003;
2.402833333333334E+009;1.579782068729401E-001;7.017084211111069E-002;5.456644576042891E-003;-2.405540551990271E-003;
2.403000000000000E+009;1.593012362718582E-001;6.785853207111359E-002;5.341012496501207E-003;-2.616408281028271E-003;
2.403166666666667E+009;1.612512171268463E-001;6.548723578453064E-002;5.060577765107155E-003;-2.609403105452657E-003;
2.403333333333334E+009;1.630162894725800E-001;6.312058120965958E-002;5.182428285479546E-003;-2.713370835408568E-003;
2.403500000000000E+009;1.649779826402664E-001;6.087550148367882E-002;5.002239719033241E-003;-2.841042354702950E-003;
2.403666666666667E+009;1.668483912944794E-001;5.886754021048546E-002;4.934770986437798E-003;-3.089166246354580E-003;
2.403833333333334E+009;1.686721146106720E-001;5.688995867967606E-002;4.796024411916733E-003;-3.173374570906162E-003;
2.404000000000000E+009;1.704940646886826E-001;5.469186976552010E-002;4.775833804160357E-003;-3.297850023955107E-003;
2.404166666666667E+009;1.726956814527512E-001;5.349797010421753E-002;4.630880896002054E-003;-3.309631720185280E-003;
2.404333333333334E+009;1.744997054338455E-001;5.151355266571045E-002;4.521304275840521E-003;-3.762679174542427E-003;
2.404500000000000E+009;1.764337867498398E-001;4.990288615226746E-002;4.429812543094158E-003;-3.950066398829222E-003;
2.404666666666667E+009;1.784297376871109E-001;4.880307614803314E-002;4.228250589221716E-003;-4.048118833452463E-003;
2.404833333333334E+009;1.803628653287888E-001;4.745576158165932E-002;3.948514815419912E-003;-4.479249939322472E-003;
2.405000000000000E+009;1.819581240415573E-001;4.666284471750259E-002;3.718187799677253E-003;-4.427437670528889E-003;
2.405166666666667E+009;1.837936192750931E-001;4.580325260758400E-002;3.585711121559143E-003;-4.700125660747290E-003;
2.405333333333334E+009;1.854853481054306E-001;4.544614255428314E-002;3.322529373690486E-003;-4.864224698394537E-003;
2.405500000000000E+009;1.874933391809464E-001;4.461817070841789E-002;2.941147424280644E-003;-4.904475528746843E-003;
2.405666666666667E+009;1.889609247446060E-001;4.432650655508041E-002;2.753340173512697E-003;-4.998246673494577E-003;
2.405833333333334E+009;1.905844509601593E-001;4.389357939362526E-002;2.422584919258952E-003;-5.302467383444309E-003;
2.406000000000000E+009;1.917684972286224E-001;4.371882230043411E-002;2.093145856633782E-003;-5.194224417209625E-003;
2.406166666666667E+009;1.931814104318619E-001;4.321293532848358E-002;1.857043011114001E-003;-5.139487329870462E-003;
2.406333333333334E+009;1.945252120494843E-001;4.327058792114258E-002;1.428889692761004E-003;-5.015828646719456E-003;
2.406500000000000E+009;1.955768465995789E-001;4.328431934118271E-002;1.229357556439936E-003;-4.915328230708838E-003;
2.406666666666667E+009;1.965265423059464E-001;4.332372918725014E-002;9.732064791023731E-004;-4.855204839259386E-003;
2.406833333333334E+009;1.972870677709580E-001;4.326745495200157E-002;7.900495547801256E-004;-4.717164672911167E-003;
2.407000000000000E+009;1.978406757116318E-001;4.347555339336395E-002;6.144001963548362E-004;-4.638253245502710E-003;
2.407166666666667E+009;1.984522193670273E-001;4.328316077589989E-002;5.153100937604904E-004;-4.472150932997465E-003;
2.407333333333334E+009;1.985456794500351E-001;4.354462772607803E-002;4.503208328969777E-004;-4.509520251303911E-003;
2.407500000000000E+009;1.987412273883820E-001;4.354090616106987E-002;1.569037412991747E-004;-4.195370245724917E-003;
2.407666666666667E+009;1.989517956972122E-001;4.364404827356339E-002;2.030561008723453E-004;-4.070274066179991E-003;
2.407833333333334E+009;1.985645741224289E-001;4.365316405892372E-002;-3.984857812611153E-006;-3.790899645537138E-003;
2.408000000000000E+009;1.985621750354767E-001;4.359495267271996E-002;1.541757374070585E-004;-3.762235864996910E-003;
2.408166666666667E+009;1.979422867298126E-001;4.338503256440163E-002;4.525245094555430E-005;-3.706234740093350E-003;
2.408333333333334E+009;1.976154446601868E-001;4.292969405651093E-002;9.405212949786801E-006;-3.550143912434578E-003;
2.408500000000000E+009;1.968961358070374E-001;4.286206513643265E-002;1.799944147933275E-004;-3.496126504614949E-003;
2.408666666666667E+009;1.962328553199768E-001;4.244836419820786E-002;7.904187077656388E-005;-3.561676247045398E-003;
2.408833333333334E+009;1.954651474952698E-001;4.185553267598152E-002;9.116004366660491E-005;-3.419098909944296E-003;
2.409000000000000E+009;1.945338845252991E-001;4.102518782019615E-002;2.039489190792665E-004;-3.615901339799166E-003;
2.409166666666667E+009;1.934878826141357E-001;4.028345644474030E-002;2.276992017868906E-004;-3.672081977128983E-003;
2.409333333333334E+009;1.924870312213898E-001;3.953220322728157E-002;2.491376362740994E-004;-3.600991796702147E-003;
2.409500000000000E+009;1.912116855382919E-001;3.833390027284622E-002;2.874745405279100E-004;-3.706177696585655E-003;
2.409666666666667E+009;1.900480985641480E-001;3.702346235513687E-002;2.988416526932269E-004;-3.721070475876331E-003;
2.409833333333334E+009;1.888062655925751E-001;3.575128689408302E-002;2.549320051912218E-004;-3.821136197075248E-003;
2.410000000000000E+009;1.876840293407440E-001;3.419591113924980E-002;1.971055025933310E-004;-3.968478180468082E-003;
2.410166666666667E+009;1.864603161811829E-001;3.275036066770554E-002;1.179027094622143E-004;-4.068900365382433E-003;
2.410333333333334E+009;1.854162216186523E-001;3.097035363316536E-002;-8.786571561358869E-005;-4.305323585867882E-003;
2.410500000000000E+009;1.842612922191620E-001;2.931075729429722E-002;-1.971266901819035E-004;-4.268468823283911E-003;
2.410666666666667E+009;1.833105087280273E-001;2.709884569048882E-002;-2.139889547834173E-004;-4.353201482445002E-003;
2.410833333333334E+009;1.824900358915329E-001;2.485470287501812E-002;-4.367731453385204E-004;-4.361320752650499E-003;
2.411000000000000E+009;1.813511997461319E-001;2.269922383129597E-002;-4.956070333719254E-004;-4.466507118195295E-003;
2.411166666666667E+009;1.804817169904709E-001;2.051658369600773E-002;-8.527008467353880E-004;-4.708117339760065E-003;
2.411333333333334E+009;1.796910017728806E-001;1.811775192618370E-002;-9.608965483494103E-004;-4.554043058305979E-003;
2.411500000000000E+009;1.792490333318710E-001;1.563339121639729E-002;-1.127452473156154E-003;-4.660091828554869E-003;
2.411666666666667E+009;1.788772046566010E-001;1.339258532971144E-002;-1.458465470932424E-003;-4.604022018611431E-003;
2.411833333333334E+009;1.782250553369522E-001;1.090006157755852E-002;-1.655294559895992E-003;-4.631647374480963E-003;
2.412000000000000E+009;1.783310920000076E-001;8.080453611910343E-003;-1.914489315822721E-003;-4.736266564577818E-003;
2.412166666666667E+009;1.781288236379623E-001;5.729410331696272E-003;-2.043107990175486E-003;-4.364150110632181E-003;
2.412333333333334E+009;1.781906187534332E-001;3.128208685666323E-003;-2.057420322671533E-003;-4.392772447317839E-003;
2.412500000000000E+009;1.784957945346832E-001;7.758808787912130E-004;-2.383874030783773E-003;-4.371013026684523E-003;
2.412666666666667E+009;1.790333986282349E-001;-1.991922035813332E-003;-2.458831295371056E-003;-4.171451553702354E-003;
2.412833333333334E+009;1.794966012239456E-001;-4.507772624492645E-003;-2.570750657469034E-003;-4.211082123219967E-003;
2.413000000000000E+009;1.802838593721390E-001;-6.840423680841923E-003;-2.802216680720449E-003;-4.108575172722340E-003;
2.413166666666667E+009;1.808764934539795E-001;-9.482280351221561E-003;-2.976380521431565E-003;-4.025918897241354E-003;
2.413333333333334E+009;1.817963868379593E-001;-1.184074860066176E-002;-3.087142016738653E-003;-3.913230262696743E-003;
2.413500000000000E+009;1.826885640621185E-001;-1.445689424872398E-002;-3.223171224817634E-003;-3.619718831032515E-003;
2.413666666666667E+009;1.838469207286835E-001;-1.658863760530949E-002;-3.476858837530017E-003;-3.743339795619249E-003;
2.413833333333334E+009;1.849183142185211E-001;-1.885174401104450E-002;-3.400574671104550E-003;-3.509799251332879E-003;
2.414000000000000E+009;1.859911233186722E-001;-2.102294191718102E-002;-3.626014105975628E-003;-3.507897723466158E-003;
2.414166666666667E+009;1.874248981475830E-001;-2.305114455521107E-002;-3.539593657478690E-003;-3.474732162430883E-003;
2.414333333333334E+009;1.884884238243103E-001;-2.505256049335003E-002;-3.689965233206749E-003;-3.317806636914611E-003;
2.414500000000000E+009;1.898638606071472E-001;-2.671278640627861E-002;-3.951619844883680E-003;-3.359348513185978E-003;
2.414666666666667E+009;1.910208314657211E-001;-2.835310064256191E-002;-4.024929832667112E-003;-3.298373660072684E-003;
2.414833333333334E+009;1.922938972711563E-001;-2.999233454465866E-002;-4.181349650025368E-003;-3.262401325628161E-003;
2.415000000000000E+009;1.935891360044479E-001;-3.141463175415993E-002;-4.547048360109329E-003;-3.183349035680294E-003;
2.415166666666667E+009;1.950718015432358E-001;-3.274225071072578E-002;-4.764051642268896E-003;-3.038994502276182E-003;
2.415333333333334E+009;1.962929219007492E-001;-3.377502411603928E-002;-4.829864948987961E-003;-2.839642344042659E-003;
2.415500000000000E+009;1.975638866424561E-001;-3.446727246046066E-002;-5.301958881318569E-003;-2.664332976564765E-003;
2.415666666666667E+009;1.986745893955231E-001;-3.540092334151268E-002;-5.543787032365799E-003;-2.283238572999835E-003;
2.415833333333334E+009;1.996823400259018E-001;-3.620908781886101E-002;-5.621676798909903E-003;-2.095998963341117E-003;
2.416000000000000E+009;2.007361054420471E-001;-3.681303933262825E-002;-5.965876393020153E-003;-1.921576331369579E-003;
2.416166666666667E+009;2.015974074602127E-001;-3.743794187903404E-002;-6.047844886779785E-003;-1.579336007125676E-003;
2.416333333333334E+009;2.024669796228409E-001;-3.769453242421150E-002;-6.142068188637495E-003;-1.172607764601708E-003;
2.416500000000000E+009;2.032824456691742E-001;-3.800956532359123E-002;-6.202978082001209E-003;-7.581750978715718E-004;
2.416666666666667E+009;2.036004364490509E-001;-3.823448717594147E-002;-6.328110583126545E-003;-3.014915564563125E-004;
2.416833333333334E+009;2.040449231863022E-001;-3.818006068468094E-002;-6.167136598378420E-003;4.707011976279318E-005;
2.417000000000000E+009;2.043827325105667E-001;-3.833346441388130E-002;-6.132037378847599E-003;4.149622400291264E-004;
2.417166666666667E+009;2.042177468538284E-001;-3.815507143735886E-002;-6.179387215524912E-003;8.008491131477058E-004;
2.417333333333334E+009;2.043509930372238E-001;-3.786070644855499E-002;-5.985929630696774E-003;9.891196386888623E-004;
2.417500000000000E+009;2.043652981519699E-001;-3.776933625340462E-002;-5.647248122841120E-003;1.427926588803530E-003;
2.417666666666667E+009;2.040682584047318E-001;-3.740977868437767E-002;-5.485368892550468E-003;1.614499022252858E-003;
2.417833333333334E+009;2.037848085165024E-001;-3.708362579345703E-002;-5.338339135050774E-003;1.658434164710343E-003;
2.418000000000000E+009;2.034181952476502E-001;-3.665778040885925E-002;-5.153157748281956E-003;2.059832913801074E-003;
2.418166666666667E+009;2.027074396610260E-001;-3.646868839859963E-002;-4.988083150237799E-003;1.938804169185460E-003;
2.418333333333334E+009;2.020220011472702E-001;-3.608906269073486E-002;-4.941943101584911E-003;2.081769984215498E-003;
2.418500000000000E+009;2.011406570672989E-001;-3.604391589760780E-002;-4.970513284206390E-003;2.381088444963098E-003;
2.418666666666667E+009;2.004276961088181E-001;-3.576800972223282E-002;-4.630115814507008E-003;2.385291503742337E-003;
2.418833333333334E+009;1.992859989404678E-001;-3.578188642859459E-002;-4.511956125497818E-003;2.590306103229523E-003;
2.419000000000000E+009;1.981626898050308E-001;-3.574566915631294E-002;-4.417053889483213E-003;2.519480651244521E-003;
2.419166666666667E+009;1.969766467809677E-001;-3.584244847297669E-002;-4.442542791366577E-003;2.741487231105566E-003;
2.419333333333334E+009;1.957445889711380E-001;-3.617568314075470E-002;-4.397279117256403E-003;2.923352643847466E-003;
2.419500000000000E+009;1.942445337772369E-001;-3.663313016295433E-002;-4.298439249396324E-003;3.040962619706988E-003;
2.419666666666667E+009;1.927561461925507E-001;-3.717730939388275E-002;-4.242094699293375E-003;3.193997545167804E-003;
2.419833333333334E+009;1.911441087722778E-001;-3.779468312859535E-002;-4.010546952486038E-003;3.316683927550912E-003;
2.420000000000000E+009;1.897487342357636E-001;-3.868670016527176E-002;-4.120185039937496E-003;3.468097653239965E-003;
2.420166666666667E+009;1.879324316978455E-001;-3.942935168743134E-002;-3.913670312613249E-003;3.756968304514885E-003;
2.420333333333334E+009;1.863341182470322E-001;-4.058232158422470E-002;-3.789338748902082E-003;4.006940405815840E-003;
2.420500000000000E+009;1.843431740999222E-001;-4.180813208222389E-002;-3.618719289079309E-003;4.288990516215563E-003;
2.420666666666667E+009;1.827564388513565E-001;-4.274362325668335E-002;-3.364491742104292E-003;4.399371799081564E-003;
2.420833333333334E+009;1.810284554958344E-001;-4.427409172058106E-002;-3.031255211681128E-003;4.752479959279299E-003;
2.421000000000000E+009;1.794463843107224E-001;-4.592784866690636E-002;-2.719531068578363E-003;4.923933651298285E-003;
2.421166666666667E+009;1.778526157140732E-001;-4.742800816893578E-002;-2.378486329689622E-003;5.037349183112383E-003;
2.421333333333334E+009;1.759266704320908E-001;-4.892496392130852E-002;-2.153759356588125E-003;5.107344593852758E-003;
2.421500000000000E+009;1.745862364768982E-001;-5.088194459676743E-002;-1.658927532844245E-003;5.149668082594872E-003;
2.421666666666667E+009;1.732719689607620E-001;-5.266112461686134E-002;-1.339313690550625E-003;4.960582125931978E-003;
2.421833333333334E+009;1.719083338975906E-001;-5.442890524864197E-002;-1.040087430737913E-003;5.180603824555874E-003;
2.422000000000000E+009;1.707481443881989E-001;-5.635247752070427E-002;-6.797591922804713E-004;5.050895735621452E-003;
2.422166666666667E+009;1.696843206882477E-001;-5.856284871697426E-002;-2.868689189199358E-004;4.886425100266933E-003;
2.422333333333334E+009;1.683409661054611E-001;-6.063624098896980E-002;-7.138997261790792E-006;4.610580392181873E-003;
2.422500000000000E+009;1.675926446914673E-001;-6.249677762389183E-002;2.129145141225308E-004;4.601438064128161E-003;
2.422666666666667E+009;1.667485237121582E-001;-6.461422890424728E-002;4.740576841868460E-004;4.406297113746405E-003;
2.422833333333334E+009;1.662117987871170E-001;-6.687889993190765E-002;5.222094478085637E-004;4.152294248342514E-003;
2.423000000000000E+009;1.655350029468536E-001;-6.902201473712921E-002;7.352292304858565E-004;3.987086005508900E-003;
2.423166666666667E+009;1.651165187358856E-001;-7.109166681766510E-002;8.014726918190718E-004;3.673538798466325E-003;
2.423333333333334E+009;1.649257689714432E-001;-7.311291992664337E-002;9.485062910243869E-004;3.416697029024363E-003;
2.423500000000000E+009;1.648151278495789E-001;-7.489906996488571E-002;9.763591806404293E-004;3.267505206167698E-003;
2.423666666666667E+009;1.647394746541977E-001;-7.732829451560974E-002;8.865236886776984E-004;3.149412106722593E-003;
2.423833333333334E+009;1.645770519971848E-001;-7.897276431322098E-002;7.981248199939728E-004;3.104271832853556E-003;
2.424000000000000E+009;1.649124473333359E-001;-8.102773874998093E-002;8.840177324600518E-004;2.662082202732563E-003;
2.424166666666667E+009;1.648318320512772E-001;-8.279369026422501E-002;8.840999216772616E-004;2.542796777561307E-003;
2.424333333333334E+009;1.652217358350754E-001;-8.445633202791214E-002;9.884278988465667E-004;2.336183097213507E-003;
2.424500000000000E+009;1.656267493963242E-001;-8.646193146705627E-002;7.625459693372250E-004;2.429421525448561E-003;
2.424666666666667E+009;1.658480465412140E-001;-8.780616521835327E-002;7.416586740873754E-004;2.186235971748829E-003;
2.424833333333334E+009;1.666676700115204E-001;-8.942386507987976E-002;7.261222344823182E-004;2.323804656043649E-003;
2.425000000000000E+009;1.669718027114868E-001;-9.075015783309937E-002;6.084464257583022E-004;2.308839466422796E-003;
2.425166666666667E+009;1.674344688653946E-001;-9.188500791788101E-002;6.968724192120135E-004;2.250004559755325E-003;
2.425333333333334E+009;1.679730117321014E-001;-9.309164434671402E-002;5.103628500364721E-004;2.418377902358770E-003;
2.425500000000000E+009;1.685517132282257E-001;-9.421657770872116E-002;6.028434145264328E-004;2.393284346908331E-003;
2.425666666666667E+009;1.693049073219299E-001;-9.509976208209992E-002;6.099931197240949E-004;2.428253646939993E-003;
2.425833333333334E+009;1.697288155555725E-001;-9.596865624189377E-002;5.430890014395118E-004;2.412082161754370E-003;
2.426000000000000E+009;1.703399270772934E-001;-9.658684581518173E-002;5.458644591271877E-004;2.314515877515078E-003;
2.426166666666667E+009;1.709905415773392E-001;-9.713048487901688E-002;4.960961523465812E-004;2.359052188694477E-003;
2.426333333333334E+009;1.713300347328186E-001;-9.790296107530594E-002;7.980724913068116E-004;2.407074207440019E-003;
2.426500000000000E+009;1.718148291110992E-001;-9.814395755529404E-002;7.633687928318977E-004;2.523642498999834E-003;
2.426666666666667E+009;1.724055558443070E-001;-9.861629456281662E-002;8.524934528395534E-004;2.383568324148655E-003;
2.426833333333334E+009;1.729435622692108E-001;-9.896986931562424E-002;8.999588317237794E-004;2.601214451715350E-003;
2.427000000000000E+009;1.731898784637451E-001;-9.930310398340225E-002;7.913500303402543E-004;2.412094734609127E-003;
2.427166666666667E+009;1.734718531370163E-001;-9.941780567169190E-002;9.350399486720562E-004;2.463010838255286E-003;
2.427333333333334E+009;1.735159903764725E-001;-9.974534809589386E-002;1.113052247092128E-003;2.391155576333404E-003;
2.427500000000000E+009;1.735916882753372E-001;-1.000829637050629E-001;1.029462087899447E-003;2.396574476733804E-003;
2.427666666666667E+009;1.734030544757843E-001;-1.002082750201225E-001;9.851041249930859E-004;2.328005386516452E-003;
2.427833333333334E+009;1.732839345932007E-001;-1.002370119094849E-001;1.111451769247651E-003;2.351278206333518E-003;
