# Version 1.00
#
freq[Hz];re:Trc1_S11;im:Trc1_S11;re:Trc2_S21;im:Trc2_S21;
2.400000000000000E+009;1.505680531263351E-001;1.147764399647713E-001;6.683043669909239E-003;3.812518436461687E-003;
2.400166666666667E+009;1.502368301153183E-001;1.125568673014641E-001;6.829471327364445E-003;3.369923681020737E-003;
2.400333333333334E+009;1.501927077770233E-001;1.103757396340370E-001;7.197490427643061E-003;2.878069411963224E-003;
2.400500000000000E+009;1.499439775943756E-001;1.077533215284348E-001;7.323374040424824E-003;2.450898755341768E-003;
2.400666666666667E+009;1.498023867607117E-001;1.053788959980011E-001;7.615600712597370E-003;1.981775043532252E-003;
2.400833333333334E+009;1.497875303030014E-001;1.026700586080551E-001;7.685074582695961E-003;1.410747412592173E-003;
2.401000000000000E+009;1.498163640499115E-001;9.999179840087891E-002;7.713873870670795E-003;8.171667577698827E-004;
2.401166666666667E+009;1.499739885330200E-001;9.725116938352585E-002;7.550929207354784E-003;4.233871295582503E-004;
2.401333333333334E+009;1.502490937709808E-001;9.446264058351517E-002;7.518432568758726E-003;-2.457814698573202E-004;
2.401500000000000E+009;1.508066803216934E-001;9.157211333513260E-002;7.406603079289198E-003;-6.932924734428525E-004;
2.401666666666667E+009;1.509880572557449E-001;8.883856236934662E-002;7.244453299790621E-003;-1.005965285003185E-003;
2.401833333333334E+009;1.515222638845444E-001;8.598107099533081E-002;6.784047931432724E-003;-1.437761238776147E-003;
2.402000000000000E+009;1.523876637220383E-001;8.326069265604019E-002;6.650075782090426E-003;-1.521701575256884E-003;
2.402166666666667E+009;1.530957072973251E-001;8.041647076606751E-002;6.302571389824152E-003;-1.907684956677258E-003;
2.402333333333334E+009;1.538289785385132E-001;7.773994654417038E-002;6.089672446250916E-003;-1.935142441652715E-003;
2.402500000000000E+009;1.554515361785889E-001;7.504535466432571E-002;5.882505793124437E-003;-2.112200250849128E-003;
2.402666666666667E+009;1.565008461475372E-001;7.246833294630051E-002;5.658288951963186E-003;-2.308883238583803E-003;
2.402833333333334E+009;1.581147015094757E-001;7.004967331886292E-002;5.418456159532070E-003;-2.498349873349071E-003;
2.403000000000000E+009;1.595675051212311E-001;6.767944991588593E-002;5.396376363933086E-003;-2.482333686202765E-003;
2.403166666666667E+009;1.615209877490997E-001;6.530599296092987E-002;5.299761891365051E-003;-2.676009666174650E-003;
2.403333333333334E+009;1.629823297262192E-001;6.304340809583664E-002;5.051451269537211E-003;-2.807087264955044E-003;
2.403500000000000E+009;1.649137288331986E-001;6.072213873267174E-002;5.021204706281424E-003;-2.945962594822049E-003;
2.403666666666667E+009;1.668411195278168E-001;5.880571529269218E-002;4.820425994694233E-003;-2.974172122776508E-003;
2.403833333333334E+009;1.688398271799088E-001;5.661448091268539E-002;4.859756212681532E-003;-3.030974417924881E-003;
2.404000000000000E+009;1.705396324396133E-001;5.482000857591629E-002;4.786383826285601E-003;-3.246606094762683E-003;
2.404166666666667E+009;1.725741177797318E-001;5.301997438073158E-002;4.621472675353289E-003;-3.570060245692730E-003;
2.404333333333334E+009;1.745437234640122E-001;5.137965083122253E-002;4.564447328448296E-003;-3.592327237129211E-003;
2.404500000000000E+009;1.763488352298737E-001;4.981727525591850E-002;4.401840269565582E-003;-4.095631651580334E-003;
2.404666666666667E+009;1.784816831350327E-001;4.865167289972305E-002;4.267374053597450E-003;-4.030030220746994E-003;
2.404833333333334E+009;1.802066117525101E-001;4.722212627530098E-002;4.050086718052626E-003;-4.265546798706055E-003;
2.405000000000000E+009;1.819730848073959E-001;4.655425250530243E-002;3.816774580627680E-003;-4.598810337483883E-003;
2.405166666666667E+009;1.838080137968063E-001;4.575378075242043E-002;3.470779862254858E-003;-4.719151649624109E-003;
2.405333333333334E+009;1.855086684226990E-001;4.502720013260841E-002;3.285089507699013E-003;-4.972324240952730E-003;
2.405500000000000E+009;1.871901452541351E-001;4.460339248180389E-002;2.937696408480406E-003;-4.976208321750164E-003;
2.405666666666667E+009;1.888003200292587E-001;4.403171315789223E-002;2.685339422896504E-003;-5.235379561781883E-003;
2.405833333333334E+009;1.903877258300781E-001;4.377196356654167E-002;2.459600102156401E-003;-5.255953408777714E-003;
2.406000000000000E+009;1.917702555656433E-001;4.351523146033287E-002;1.904489821754396E-003;-5.325483623892069E-003;
2.406166666666667E+009;1.931663155555725E-001;4.327337071299553E-002;1.815405790694058E-003;-5.145890172570944E-003;
2.406333333333334E+009;1.944174021482468E-001;4.318908601999283E-002;1.438483246602118E-003;-5.046093836426735E-003;
2.406500000000000E+009;1.955464333295822E-001;4.319370537996292E-002;1.199512975290418E-003;-5.124416202306747E-003;
2.406666666666667E+009;1.963594853878021E-001;4.317349940538406E-002;8.839697111397982E-004;-4.873931873589754E-003;
2.406833333333334E+009;1.971368342638016E-001;4.326935485005379E-002;8.108360925689340E-004;-4.808618687093258E-003;
2.407000000000000E+009;1.976784169673920E-001;4.347045347094536E-002;5.303128273226321E-004;-4.733107518404722E-003;
2.407166666666667E+009;1.983283311128616E-001;4.316613823175430E-002;3.195694298483431E-004;-4.428062587976456E-003;
2.407333333333334E+009;1.985380947589874E-001;4.352278262376785E-002;3.045685007236898E-004;-4.306175280362368E-003;
2.407500000000000E+009;1.986596882343292E-001;4.359342902898789E-002;2.006332215387374E-004;-4.089915193617344E-003;
2.407666666666667E+009;1.987302601337433E-001;4.352826625108719E-002;1.504667598055676E-004;-4.106282256543636E-003;
2.407833333333334E+009;1.983889192342758E-001;4.349821433424950E-002;1.447915856260806E-004;-3.993021324276924E-003;
2.408000000000000E+009;1.983422040939331E-001;4.344462603330612E-002;4.031199932796881E-005;-3.899303497746587E-003;
2.408166666666667E+009;1.978714019060135E-001;4.325158521533012E-002;1.423236881237244E-005;-3.777269041165710E-003;
2.408333333333334E+009;1.974933743476868E-001;4.300089180469513E-002;-4.662094215746038E-005;-3.610885003581643E-003;
2.408500000000000E+009;1.969303041696549E-001;4.285031557083130E-002;7.328526407945901E-006;-3.523373976349831E-003;
2.408666666666667E+009;1.961785107851028E-001;4.250375181436539E-002;2.802507660817355E-004;-3.421639557927847E-003;
2.408833333333334E+009;1.952775716781616E-001;4.176461324095726E-002;2.727220708038658E-004;-3.564863232895732E-003;
2.409000000000000E+009;1.943296641111374E-001;4.105503484606743E-002;2.444814599584788E-004;-3.509030910208821E-003;
2.409166666666667E+009;1.933116763830185E-001;4.019875824451447E-002;1.066382319550030E-004;-3.475177101790905E-003;
2.409333333333334E+009;1.923660635948181E-001;3.955776244401932E-002;2.370378060732037E-004;-3.696789033710957E-003;
2.409500000000000E+009;1.910633146762848E-001;3.838865458965302E-002;1.966818672372028E-004;-3.629345679655671E-003;
2.409666666666667E+009;1.900777816772461E-001;3.707395121455193E-002;2.520150446798652E-004;-3.652066923677921E-003;
2.409833333333334E+009;1.888195425271988E-001;3.582387790083885E-002;2.261800254927948E-004;-3.799714846536517E-003;
2.410000000000000E+009;1.877075433731079E-001;3.423829749226570E-002;1.128843068727292E-004;-3.973033744841814E-003;
2.410166666666667E+009;1.864467710256577E-001;3.254720568656921E-002;2.403754479018971E-004;-4.059726372361183E-003;
2.410333333333334E+009;1.852001100778580E-001;3.095533698797226E-002;5.156621773494408E-005;-4.190365783870220E-003;
2.410500000000000E+009;1.840480864048004E-001;2.912208996713162E-002;-1.745050831232220E-004;-4.368596710264683E-003;
2.410666666666667E+009;1.831128001213074E-001;2.690939232707024E-002;-4.211880150251091E-004;-4.398017656058073E-003;
2.410833333333334E+009;1.822169721126556E-001;2.484427951276302E-002;-3.287908912170678E-004;-4.489283077418804E-003;
2.411000000000000E+009;1.811722218990326E-001;2.288579382002354E-002;-6.527711520902813E-004;-4.558323416858912E-003;
2.411166666666667E+009;1.804187446832657E-001;2.063856273889542E-002;-7.846133084967732E-004;-4.578806925565004E-003;
2.411333333333334E+009;1.796104311943054E-001;1.798452623188496E-002;-1.029113889671862E-003;-4.701705183833838E-003;
2.411500000000000E+009;1.790660172700882E-001;1.574720256030560E-002;-1.188513124361634E-003;-4.584041424095631E-003;
2.411666666666667E+009;1.786807179450989E-001;1.339436043053865E-002;-1.423335867002606E-003;-4.516077227890492E-003;
2.411833333333334E+009;1.781420260667801E-001;1.105970237404108E-002;-1.589490333572030E-003;-4.593967925757170E-003;
2.412000000000000E+009;1.781603842973709E-001;8.165324106812477E-003;-1.696506747975946E-003;-4.567959811538458E-003;
2.412166666666667E+009;1.781682372093201E-001;5.989989265799522E-003;-1.910871593281627E-003;-4.480630159378052E-003;
2.412333333333334E+009;1.782016307115555E-001;3.226046450436115E-003;-2.126311417669058E-003;-4.372616764158011E-003;
2.412500000000000E+009;1.784538477659226E-001;5.976440734229982E-004;-2.278927015140653E-003;-4.272229969501495E-003;
2.412666666666667E+009;1.786704510450363E-001;-1.909323851577938E-003;-2.585756592452526E-003;-4.243756644427776E-003;
2.412833333333334E+009;1.793335378170013E-001;-4.477850627154112E-003;-2.688482869416475E-003;-4.262479022145271E-003;
2.413000000000000E+009;1.801345497369766E-001;-6.930828094482422E-003;-2.713955705985427E-003;-4.098026547580957E-003;
2.413166666666667E+009;1.807646602392197E-001;-9.357439354062080E-003;-2.911885734647512E-003;-3.953381907194853E-003;
2.413333333333334E+009;1.818188130855560E-001;-1.183906570076942E-002;-3.080665832385421E-003;-3.679634304717183E-003;
2.413500000000000E+009;1.826196163892746E-001;-1.420098915696144E-002;-3.262797836214304E-003;-3.721146145835519E-003;
2.413666666666667E+009;1.838027834892273E-001;-1.663406006991863E-002;-3.414807375520468E-003;-3.411997808143497E-003;
2.413833333333334E+009;1.849474161863327E-001;-1.865926757454872E-002;-3.442284883931279E-003;-3.580372780561447E-003;
2.414000000000000E+009;1.858117282390595E-001;-2.103271149098873E-002;-3.442515386268497E-003;-3.407518612220883E-003;
2.414166666666667E+009;1.873036175966263E-001;-2.285667322576046E-002;-3.646314842626452E-003;-3.451779251918197E-003;
2.414333333333334E+009;1.883776485919952E-001;-2.497357502579689E-002;-3.765073139220476E-003;-3.450095653533936E-003;
2.414500000000000E+009;1.896797269582748E-001;-2.657347358763218E-002;-3.801978193223476E-003;-3.353819018229842E-003;
2.414666666666667E+009;1.909793764352799E-001;-2.825206890702248E-002;-4.151335917413235E-003;-3.236356424167752E-003;
2.414833333333334E+009;1.921288669109345E-001;-3.003428131341934E-002;-4.190019331872463E-003;-3.190452232956886E-003;
2.415000000000000E+009;1.935742199420929E-001;-3.131259232759476E-002;-4.488342907279730E-003;-3.166412468999624E-003;
2.415166666666667E+009;1.949006319046021E-001;-3.257831186056137E-002;-4.536836408078671E-003;-3.192336065694690E-003;
2.415333333333334E+009;1.961550861597061E-001;-3.363136202096939E-002;-5.057020578533411E-003;-2.919241786003113E-003;
2.415500000000000E+009;1.974314898252487E-001;-3.460041061043739E-002;-5.108369514346123E-003;-2.583886729553342E-003;
2.415666666666667E+009;1.986407637596130E-001;-3.540334478020668E-002;-5.342876072973013E-003;-2.494774293154478E-003;
2.415833333333334E+009;1.997135430574417E-001;-3.602926805615425E-002;-5.631645210087299E-003;-2.097962889820337E-003;
2.416000000000000E+009;2.006738483905792E-001;-3.681821376085281E-002;-5.819643381983042E-003;-1.930645667016506E-003;
2.416166666666667E+009;2.015637904405594E-001;-3.731353953480721E-002;-6.019065622240305E-003;-1.443263376131654E-003;
2.416333333333334E+009;2.023357003927231E-001;-3.760206326842308E-002;-6.081366445869207E-003;-1.134532853029668E-003;
2.416500000000000E+009;2.030587792396545E-001;-3.786004334688187E-002;-6.145038641989231E-003;-8.610484073869884E-004;
2.416666666666667E+009;2.036803364753723E-001;-3.815635666251183E-002;-6.249673664569855E-003;-2.918863610830158E-004;
2.416833333333334E+009;2.039501518011093E-001;-3.804961591959000E-002;-6.161722354590893E-003;-2.103139922837727E-005;
2.417000000000000E+009;2.043386101722717E-001;-3.817511349916458E-002;-5.966432858258486E-003;4.016483726445586E-004;
2.417166666666667E+009;2.042282819747925E-001;-3.801343962550163E-002;-6.002190522849560E-003;7.922846707515419E-004;
2.417333333333334E+009;2.042870223522186E-001;-3.778576105833054E-002;-5.884124897420406E-003;1.085979514755309E-003;
2.417500000000000E+009;2.042145580053330E-001;-3.769249469041824E-002;-5.680337082594633E-003;1.372054801322520E-003;
2.417666666666667E+009;2.039688229560852E-001;-3.731128200888634E-002;-5.311660002917051E-003;1.421509310603142E-003;
2.417833333333334E+009;2.037431895732880E-001;-3.696714341640472E-002;-5.241113714873791E-003;1.775826327502728E-003;
2.418000000000000E+009;2.031878381967545E-001;-3.662468492984772E-002;-5.198536906391382E-003;1.950481324456632E-003;
2.418166666666667E+009;2.026990205049515E-001;-3.628789633512497E-002;-5.063472781330347E-003;1.982377143576741E-003;
2.418333333333334E+009;2.019038796424866E-001;-3.605080395936966E-002;-4.864918533712626E-003;2.133792266249657E-003;
2.418500000000000E+009;2.010740339756012E-001;-3.582922369241715E-002;-4.674126394093037E-003;2.254923805594444E-003;
2.418666666666667E+009;2.003851234912872E-001;-3.559196367859840E-002;-4.627224989235401E-003;2.308711875230074E-003;
2.418833333333334E+009;1.992732882499695E-001;-3.560683876276016E-002;-4.530716687440872E-003;2.474219072610140E-003;
2.419000000000000E+009;1.982014328241348E-001;-3.566258400678635E-002;-4.487604834139347E-003;2.607334172353149E-003;
2.419166666666667E+009;1.969913244247437E-001;-3.574797511100769E-002;-4.458823706954718E-003;2.754993271082640E-003;
2.419333333333334E+009;1.957761496305466E-001;-3.602510690689087E-002;-4.220647271722555E-003;2.826004521921277E-003;
2.419500000000000E+009;1.941706836223602E-001;-3.641428425908089E-002;-4.288550931960344E-003;3.043484175577760E-003;
2.419666666666667E+009;1.928067058324814E-001;-3.700609877705574E-002;-4.201142583042383E-003;3.118149470537901E-003;
2.419833333333334E+009;1.910925805568695E-001;-3.754339739680290E-002;-4.182138480246067E-003;3.417016472667456E-003;
2.420000000000000E+009;1.895908415317535E-001;-3.850099444389343E-002;-3.941448405385017E-003;3.541165962815285E-003;
2.420166666666667E+009;1.879690140485764E-001;-3.915574401617050E-002;-3.963448572903872E-003;3.755328943952918E-003;
2.420333333333334E+009;1.862890273332596E-001;-4.028039798140526E-002;-3.690375247970223E-003;3.911997191607952E-003;
2.420500000000000E+009;1.844404488801956E-001;-4.159515351057053E-002;-3.585901344195008E-003;4.197575151920319E-003;
2.420666666666667E+009;1.828978359699249E-001;-4.268083348870277E-002;-3.265868406742811E-003;4.463843069970608E-003;
2.420833333333334E+009;1.811460703611374E-001;-4.419057443737984E-002;-3.060361137613654E-003;4.663774278014898E-003;
2.421000000000000E+009;1.796358227729797E-001;-4.559141024947166E-002;-2.885829424485564E-003;4.934191238135099E-003;
2.421166666666667E+009;1.780043244361877E-001;-4.727738350629807E-002;-2.426327671855688E-003;5.090485326945782E-003;
2.421333333333334E+009;1.761922538280487E-001;-4.855770990252495E-002;-1.986393006518483E-003;5.091176368296146E-003;
2.421500000000000E+009;1.747055053710938E-001;-5.071502178907394E-002;-1.781295402906835E-003;5.237850360572338E-003;
2.421666666666667E+009;1.731322407722473E-001;-5.242475867271423E-002;-1.387193799018860E-003;5.264850333333015E-003;
2.421833333333334E+009;1.719393432140350E-001;-5.454422906041145E-002;-9.329649037681520E-004;5.106015130877495E-003;
2.422000000000000E+009;1.705918312072754E-001;-5.633283779025078E-002;-6.182264769449830E-004;5.063511896878481E-003;
2.422166666666667E+009;1.696314513683319E-001;-5.839113891124725E-002;-3.086297656409442E-004;4.954986739903688E-003;
2.422333333333334E+009;1.684024333953857E-001;-6.043676659464836E-002;8.152829832397401E-005;4.723477177321911E-003;
2.422500000000000E+009;1.675920188426971E-001;-6.247262284159660E-002;2.679714816622436E-004;4.433905240148306E-003;
2.422666666666667E+009;1.668292731046677E-001;-6.457781046628952E-002;2.743471122812480E-004;4.330817144364119E-003;
2.422833333333334E+009;1.664020270109177E-001;-6.664769351482391E-002;6.607911200262606E-004;4.128521308302879E-003;
2.423000000000000E+009;1.655850261449814E-001;-6.882560253143311E-002;8.009797311387956E-004;3.833359805867076E-003;
2.423166666666667E+009;1.652491092681885E-001;-7.094477862119675E-002;8.459492819383740E-004;3.531243419274688E-003;
2.423333333333334E+009;1.650724261999130E-001;-7.313980907201767E-002;1.080108573660255E-003;3.567996202036738E-003;
2.423500000000000E+009;1.649381667375565E-001;-7.499905675649643E-002;9.778379462659359E-004;3.334064036607742E-003;
2.423666666666667E+009;1.649228334426880E-001;-7.707796245813370E-002;8.751222048886120E-004;3.161035710945725E-003;
2.423833333333334E+009;1.647725552320480E-001;-7.893250137567520E-002;9.417984401807189E-004;2.940957201644778E-003;
2.424000000000000E+009;1.649037301540375E-001;-8.105204999446869E-002;1.034180633723736E-003;2.589568030089140E-003;
2.424166666666667E+009;1.649231612682343E-001;-8.276503533124924E-002;9.073040564544499E-004;2.539579523727298E-003;
2.424333333333334E+009;1.652693599462509E-001;-8.438297361135483E-002;9.415734093636274E-004;2.426604973152280E-003;
2.424500000000000E+009;1.658179163932800E-001;-8.642409741878510E-002;8.032827172428370E-004;2.350581111386418E-003;
2.424666666666667E+009;1.658882200717926E-001;-8.791477978229523E-002;6.854910170659423E-004;2.377060707658529E-003;
2.424833333333334E+009;1.666499823331833E-001;-8.932450413703919E-002;6.880180444568396E-004;2.356219338253140E-003;
2.425000000000000E+009;1.671636104583740E-001;-9.083045274019241E-002;7.543010287918150E-004;2.425627317279577E-003;
2.425166666666667E+009;1.674537062644959E-001;-9.193538129329681E-002;5.956420209258795E-004;2.222460927441716E-003;
2.425333333333334E+009;1.680947542190552E-001;-9.307873249053955E-002;6.553377606905997E-004;2.240820322185755E-003;
2.425500000000000E+009;1.686777323484421E-001;-9.407104551792145E-002;5.250857211649418E-004;2.260659122839570E-003;
2.425666666666667E+009;1.692223846912384E-001;-9.495871514081955E-002;6.301222601905465E-004;2.263171132653952E-003;
2.425833333333334E+009;1.698650717735291E-001;-9.596557915210724E-002;5.966133903712034E-004;2.455140696838498E-003;
2.426000000000000E+009;1.703961938619614E-001;-9.657651185989380E-002;6.170655833557248E-004;2.480139257386327E-003;
2.426166666666667E+009;1.711560189723969E-001;-9.725497663021088E-002;5.932779749855399E-004;2.389065688475967E-003;
2.426333333333334E+009;1.713968068361282E-001;-9.778247028589249E-002;5.093727377243340E-004;2.594348043203354E-003;
2.426500000000000E+009;1.721530407667160E-001;-9.822318702936173E-002;6.964649655856192E-004;2.339052269235253E-003;
2.426666666666667E+009;1.726076602935791E-001;-9.859585762023926E-002;7.076920010149479E-004;2.477095928043127E-003;
2.426833333333334E+009;1.730238795280457E-001;-9.902346879243851E-002;8.690520189702511E-004;2.460204763337970E-003;
2.427000000000000E+009;1.733144223690033E-001;-9.934188425540924E-002;9.109946549870074E-004;2.593139652162790E-003;
2.427166666666667E+009;1.734841614961624E-001;-9.950857609510422E-002;1.069239224307239E-003;2.483826829120517E-003;
2.427333333333334E+009;1.736965328454971E-001;-9.988043457269669E-002;1.073057996109128E-003;2.323454245924950E-003;
2.427500000000000E+009;1.735634952783585E-001;-1.000568047165871E-001;1.022495795041323E-003;2.146451268345118E-003;
2.427666666666667E+009;1.735530346632004E-001;-1.001157388091087E-001;1.349204801954329E-003;2.264989074319601E-003;
2.427833333333334E+009;1.733726114034653E-001;-1.002912893891335E-001;1.134785125032067E-003;2.324523404240608E-003;
