# Version 1.00
#
freq[Hz];re:Trc1_S11;im:Trc1_S11;re:Trc2_S21;im:Trc2_S21;
2.400000000000000E+009;1.583022773265839E-001;6.223246827721596E-002;-2.537684980779886E-003;-2.227130898972973E-004;
2.400166666666667E+009;1.584012657403946E-001;6.049809604883194E-002;-2.428287873044610E-003;-2.046035515377298E-004;
2.400333333333334E+009;1.580735296010971E-001;5.867466330528259E-002;-2.384522929787636E-003;8.486521255690604E-005;
2.400500000000000E+009;1.582017540931702E-001;5.661350116133690E-002;-2.382774837315083E-003;1.556696515763179E-004;
2.400666666666667E+009;1.581267714500427E-001;5.469234287738800E-002;-2.501412760466337E-003;8.276541484519839E-005;
2.400833333333334E+009;1.583325713872910E-001;5.288476496934891E-002;-2.367037115618587E-003;4.192581400275230E-004;
2.401000000000000E+009;1.584396511316299E-001;5.090662091970444E-002;-2.460742602124810E-003;2.753453445620835E-004;
2.401166666666667E+009;1.585279852151871E-001;4.895171895623207E-002;-2.365794498473406E-003;3.764797875192016E-004;
2.401333333333334E+009;1.587769091129303E-001;4.666124284267426E-002;-2.329190494492650E-003;4.772825050167739E-004;
2.401500000000000E+009;1.591399013996124E-001;4.473321139812470E-002;-2.173217246308923E-003;8.274935535155237E-004;
2.401666666666667E+009;1.594696640968323E-001;4.274446517229080E-002;-2.171572064980865E-003;9.308299631811678E-004;
2.401833333333334E+009;1.597735583782196E-001;4.066004231572151E-002;-2.128102816641331E-003;9.435932151973248E-004;
2.402000000000000E+009;1.601428985595703E-001;3.858536854386330E-002;-2.049519913271070E-003;1.075488398782909E-003;
2.402166666666667E+009;1.608467698097229E-001;3.668616712093353E-002;-1.859310432337225E-003;1.219103927724063E-003;
2.402333333333334E+009;1.613289266824722E-001;3.478834405541420E-002;-1.901206793263555E-003;1.250465284101665E-003;
2.402500000000000E+009;1.620452553033829E-001;3.302717953920364E-002;-1.654574763961136E-003;1.298856339417398E-003;
2.402666666666667E+009;1.625725626945496E-001;3.126572445034981E-002;-1.604637829586864E-003;1.338887726888061E-003;
2.402833333333334E+009;1.634384095668793E-001;2.956090867519379E-002;-1.570380292832851E-003;1.424278947524726E-003;
2.403000000000000E+009;1.641836911439896E-001;2.802418544888496E-002;-1.335092121735215E-003;1.411945093423128E-003;
2.403166666666667E+009;1.651529818773270E-001;2.644125744700432E-002;-1.147970673628151E-003;1.497569493949413E-003;
2.403333333333334E+009;1.660688817501068E-001;2.494896203279495E-002;-1.025213743560016E-003;1.423004781827331E-003;
2.403500000000000E+009;1.667210012674332E-001;2.361384592950344E-002;-8.554220548830926E-004;1.469012699089944E-003;
2.403666666666667E+009;1.678316146135330E-001;2.212985046207905E-002;-7.378316950052977E-004;1.610121689736843E-003;
2.403833333333334E+009;1.687280088663101E-001;2.086386457085609E-002;-9.674445027485490E-004;1.655641710385680E-003;
2.404000000000000E+009;1.696722060441971E-001;1.982006244361401E-002;-7.053454173728824E-004;1.260879449546337E-003;
2.404166666666667E+009;1.706052720546722E-001;1.876837760210037E-002;-2.267015515826643E-004;1.496483804658055E-003;
2.404333333333334E+009;1.716605573892593E-001;1.766451261937618E-002;-2.848475996870548E-004;1.586203812621534E-003;
2.404500000000000E+009;1.723049879074097E-001;1.657022908329964E-002;-3.419644199311733E-004;1.277429750189185E-003;
2.404666666666667E+009;1.732193529605866E-001;1.585023105144501E-002;-1.232990907737985E-004;1.366026350297034E-003;
2.404833333333334E+009;1.739867329597473E-001;1.495272200554609E-002;-1.935441541718319E-004;8.766693645156920E-004;
2.405000000000000E+009;1.749501675367355E-001;1.423787605017424E-002;1.057380795828067E-004;1.156962127424777E-003;
2.405166666666667E+009;1.757151186466217E-001;1.375652570277453E-002;4.124840488657355E-004;1.185644185170531E-003;
2.405333333333334E+009;1.764887571334839E-001;1.292838808149099E-002;2.150688233086839E-004;8.466705912724137E-004;
2.405500000000000E+009;1.772775650024414E-001;1.262462791055441E-002;3.384363371878862E-004;9.483222966082394E-004;
2.405666666666667E+009;1.778178513050079E-001;1.202710717916489E-002;2.970150671899319E-004;7.973773172125220E-004;
2.405833333333334E+009;1.783108562231064E-001;1.173448562622070E-002;3.401469730306417E-004;6.073731929063797E-004;
2.406000000000000E+009;1.789373159408569E-001;1.118551474064589E-002;3.830161585938186E-004;7.879703189246357E-004;
2.406166666666667E+009;1.793455630540848E-001;1.084832474589348E-002;5.333981243893504E-004;3.348376776557416E-004;
2.406333333333334E+009;1.797060519456863E-001;1.056109275668860E-002;3.696821222547442E-004;4.471703141462058E-004;
2.406500000000000E+009;1.799999326467514E-001;1.018098089843988E-002;2.895306097343564E-004;3.659161739051342E-004;
2.406666666666667E+009;1.799753457307816E-001;9.907186962664127E-003;2.679527096915990E-004;2.960374695248902E-004;
2.406833333333334E+009;1.804258525371552E-001;9.472763165831566E-003;3.739157400559634E-004;1.199696853291243E-004;
2.407000000000000E+009;1.804504394531250E-001;9.166623465716839E-003;3.156973689328879E-004;7.209574687294662E-005;
2.407166666666667E+009;1.804329454898834E-001;8.756435476243496E-003;2.251526602776721E-004;-2.425072489131708E-005;
2.407333333333334E+009;1.802942603826523E-001;8.231488056480885E-003;3.177219477947801E-004;-7.654015644220635E-005;
2.407500000000000E+009;1.801769584417343E-001;7.988191209733486E-003;1.746601046761498E-004;-2.052065392490476E-004;
2.407666666666667E+009;1.798769831657410E-001;7.419297005981207E-003;2.190143131883815E-004;-2.891362528316677E-004;
2.407833333333334E+009;1.793944239616394E-001;6.615489255636931E-003;1.805678475648165E-004;-2.542608999647200E-004;
2.408000000000000E+009;1.791580617427826E-001;5.972529295831919E-003;-2.455512731103227E-005;-2.931225462816656E-004;
2.408166666666667E+009;1.786447614431381E-001;5.651047453284264E-003;1.507020206190646E-004;-3.780896367970854E-004;
2.408333333333334E+009;1.783729344606400E-001;4.735216964036226E-003;1.728089773678221E-005;-3.596793685574085E-004;
2.408500000000000E+009;1.777248382568359E-001;3.926679957658052E-003;4.112753595109098E-005;-5.149836651980877E-004;
2.408666666666667E+009;1.772126108407974E-001;3.039735835045576E-003;-1.025379970087670E-004;-4.353512194938958E-004;
2.408833333333334E+009;1.764353215694428E-001;1.982393674552441E-003;-1.739534782245755E-004;-4.708591732196510E-004;
2.409000000000000E+009;1.757462918758392E-001;9.871992515400052E-004;-3.250864392612129E-004;-5.446177674457431E-004;
2.409166666666667E+009;1.752940565347672E-001;-1.210918562719598E-004;-2.427397557767108E-004;-5.450350581668317E-004;
2.409333333333334E+009;1.746797859668732E-001;-1.435454702004790E-003;-2.689018438104540E-004;-6.494718254543841E-004;
2.409500000000000E+009;1.739637553691864E-001;-2.887509530410171E-003;-4.309112555347383E-004;-4.994501359760761E-004;
2.409666666666667E+009;1.732494682073593E-001;-4.135002847760916E-003;-2.617424179334194E-004;-6.672400049865246E-004;
2.409833333333334E+009;1.726219356060028E-001;-5.539964418858290E-003;-3.875560068991035E-004;-7.364603807218373E-004;
2.410000000000000E+009;1.722263246774674E-001;-7.096474058926106E-003;-4.559689259622246E-004;-6.404818850569427E-004;
2.410166666666667E+009;1.713829189538956E-001;-8.577669039368630E-003;-5.268504610285163E-004;-7.427221280522645E-004;
2.410333333333334E+009;1.707980334758759E-001;-1.027407497167587E-002;-5.853629554621875E-004;-8.308133692480624E-004;
2.410500000000000E+009;1.703566461801529E-001;-1.184639148414135E-002;-7.576642674393952E-004;-6.929184892214835E-004;
2.410666666666667E+009;1.697899699211121E-001;-1.381636690348387E-002;-8.038849919103086E-004;-7.507309201173484E-004;
2.410833333333334E+009;1.694906651973724E-001;-1.539098098874092E-002;-9.346680599264801E-004;-7.053173612803221E-004;
2.411000000000000E+009;1.691573262214661E-001;-1.735335402190685E-002;-7.938799681141973E-004;-9.575952426530421E-004;
2.411166666666667E+009;1.685889363288879E-001;-1.916910521686077E-002;-1.014381996355951E-003;-7.094945758581162E-004;
2.411333333333334E+009;1.683738827705383E-001;-2.094298414885998E-002;-9.824965381994844E-004;-7.010103436186910E-004;
2.411500000000000E+009;1.682949215173721E-001;-2.304859273135662E-002;-1.123548136092722E-003;-9.035278344526887E-004;
2.411666666666667E+009;1.683131009340286E-001;-2.494999021291733E-002;-1.267103129066527E-003;-8.354210294783115E-004;
2.411833333333334E+009;1.682297587394714E-001;-2.658586204051971E-002;-1.350800273939967E-003;-7.668787147849798E-004;
2.412000000000000E+009;1.682453006505966E-001;-2.870787680149078E-002;-1.472043339163065E-003;-6.230890285223723E-004;
2.412166666666667E+009;1.683176010847092E-001;-3.053928352892399E-002;-1.553550129756331E-003;-4.916340694762766E-004;
2.412333333333334E+009;1.686970740556717E-001;-3.244483843445778E-002;-1.701923785731196E-003;-4.451835702639073E-004;
2.412500000000000E+009;1.687069237232208E-001;-3.435151278972626E-002;-1.731797005049884E-003;-5.712980055250228E-004;
2.412666666666667E+009;1.693043708801270E-001;-3.629953786730766E-002;-1.806164626032114E-003;-4.491818253882229E-004;
2.412833333333334E+009;1.696367859840393E-001;-3.792807832360268E-002;-2.007938222959638E-003;-1.841984339989722E-004;
2.413000000000000E+009;1.699213832616806E-001;-3.978576883673668E-002;-1.979022286832333E-003;-1.778709702193737E-004;
2.413166666666667E+009;1.702661365270615E-001;-4.151836037635803E-002;-2.100311918184161E-003;5.494567449204624E-005;
2.413333333333334E+009;1.707004755735397E-001;-4.321468994021416E-002;-2.285083755850792E-003;1.559043630550150E-005;
2.413500000000000E+009;1.712730079889298E-001;-4.472903534770012E-002;-2.149382838979363E-003;1.528142602182925E-004;
2.413666666666667E+009;1.717139184474945E-001;-4.622646421194077E-002;-2.247260650619865E-003;3.408676129765809E-004;
2.413833333333334E+009;1.721290200948715E-001;-4.778943583369255E-002;-2.330454299226403E-003;6.178648327477276E-004;
2.414000000000000E+009;1.724695712327957E-001;-4.915700852870941E-002;-2.274998696520925E-003;6.349231698550284E-004;
2.414166666666667E+009;1.732958704233170E-001;-5.032175406813622E-002;-2.286940580233932E-003;6.776078953407705E-004;
2.414333333333334E+009;1.738319545984268E-001;-5.156668648123741E-002;-2.264410955831409E-003;8.837868808768690E-004;
2.414500000000000E+009;1.744352430105209E-001;-5.271345004439354E-002;-2.074668882414699E-003;8.543016156181693E-004;
2.414666666666667E+009;1.749431490898132E-001;-5.373503267765045E-002;-2.235002815723419E-003;1.115981023758650E-003;
2.414833333333334E+009;1.752824634313583E-001;-5.467773973941803E-002;-2.262124326080084E-003;1.232110196724534E-003;
2.415000000000000E+009;1.757542341947556E-001;-5.554113909602165E-002;-2.090740716084838E-003;1.372197992168367E-003;
2.415166666666667E+009;1.761411875486374E-001;-5.631037056446075E-002;-2.184096025303006E-003;1.556253759190440E-003;
2.415333333333334E+009;1.764484792947769E-001;-5.702393129467964E-002;-2.160860924050212E-003;1.641196664422751E-003;
2.415500000000000E+009;1.768085509538651E-001;-5.766330286860466E-002;-2.147011691704392E-003;1.731974072754383E-003;
2.415666666666667E+009;1.770593672990799E-001;-5.814529210329056E-002;-1.994364894926548E-003;1.842505531385541E-003;
2.415833333333334E+009;1.772036999464035E-001;-5.877619609236717E-002;-2.057555830106139E-003;2.203415613621473E-003;
2.416000000000000E+009;1.772172152996063E-001;-5.919145792722702E-002;-1.852703164331615E-003;2.003469504415989E-003;
2.416166666666667E+009;1.774476766586304E-001;-5.960760638117790E-002;-1.840379671193659E-003;2.284681890159845E-003;
2.416333333333334E+009;1.773429214954376E-001;-5.989906191825867E-002;-1.718153362162411E-003;2.308511408045888E-003;
2.416500000000000E+009;1.772112846374512E-001;-6.020603701472282E-002;-1.519498880952597E-003;2.550504170358181E-003;
2.416666666666667E+009;1.769762933254242E-001;-6.052626669406891E-002;-1.563819474540651E-003;2.496811561286449E-003;
2.416833333333334E+009;1.767882108688355E-001;-6.094346195459366E-002;-1.318620401434600E-003;2.599274506792426E-003;
2.417000000000000E+009;1.761700212955475E-001;-6.117931753396988E-002;-1.229981076903641E-003;2.782963449135423E-003;
2.417166666666667E+009;1.757386028766632E-001;-6.126358360052109E-002;-1.050948980264366E-003;2.975828945636749E-003;
2.417333333333334E+009;1.752308905124664E-001;-6.149591878056526E-002;-8.891035104170442E-004;2.834423445165157E-003;
2.417500000000000E+009;1.745751351118088E-001;-6.189273297786713E-002;-9.732097969390452E-004;2.941711572930217E-003;
2.417666666666667E+009;1.739298403263092E-001;-6.208388879895210E-002;-8.147739572450519E-004;3.140689805150032E-003;
2.417833333333334E+009;1.731622815132141E-001;-6.239048391580582E-002;-5.669816164299846E-004;3.037585178390145E-003;
2.418000000000000E+009;1.722991317510605E-001;-6.282848864793778E-002;-4.659702535718679E-004;2.948410110548139E-003;
2.418166666666667E+009;1.713174879550934E-001;-6.297193467617035E-002;-3.842472797259688E-004;3.038961673155427E-003;
2.418333333333334E+009;1.706252247095108E-001;-6.350743770599365E-002;-3.610891581047326E-004;3.052086802199483E-003;
2.418500000000000E+009;1.694612354040146E-001;-6.390184909105301E-002;-5.438166226667818E-006;3.234067466109991E-003;
2.418666666666667E+009;1.685695052146912E-001;-6.452573835849762E-002;2.690861874725670E-004;3.179481253027916E-003;
2.418833333333334E+009;1.672012209892273E-001;-6.512337177991867E-002;2.839365333784372E-004;3.022156888619065E-003;
2.419000000000000E+009;1.659462004899979E-001;-6.569810211658478E-002;3.156864258926362E-004;3.151182550936937E-003;
2.419166666666667E+009;1.650066971778870E-001;-6.645664572715759E-002;5.406242562457919E-004;3.161531174555421E-003;
2.419333333333334E+009;1.636073440313339E-001;-6.699056923389435E-002;6.155263981781900E-004;3.071689978241921E-003;
2.419500000000000E+009;1.625144332647324E-001;-6.791818141937256E-002;8.664093329571188E-004;2.959520788863301E-003;
2.419666666666667E+009;1.613166183233261E-001;-6.903836876153946E-002;8.400393417105079E-004;3.153397934511304E-003;
2.419833333333334E+009;1.600310206413269E-001;-6.980108469724655E-002;1.019714865833521E-003;2.879884559661150E-003;
2.420000000000000E+009;1.590939313173294E-001;-7.088624686002731E-002;1.205134554766119E-003;2.952695824205875E-003;
2.420166666666667E+009;1.579509079456329E-001;-7.204139977693558E-002;1.159465289674699E-003;2.794992178678513E-003;
2.420333333333334E+009;1.569939851760864E-001;-7.334343343973160E-002;1.468591159209609E-003;2.801766851916909E-003;
2.420500000000000E+009;1.561448723077774E-001;-7.445522397756577E-002;1.597343594767153E-003;2.769365208223462E-003;
2.420666666666667E+009;1.549843102693558E-001;-7.579169422388077E-002;1.609318424016237E-003;2.599366707727313E-003;
2.420833333333334E+009;1.542912721633911E-001;-7.720031589269638E-002;1.789735862985253E-003;2.542455447837710E-003;
2.421000000000000E+009;1.533281654119492E-001;-7.879497110843658E-002;1.911134575493634E-003;2.341327024623752E-003;
2.421166666666667E+009;1.525254994630814E-001;-8.013818413019180E-002;1.882057171314955E-003;2.379764569923282E-003;
2.421333333333334E+009;1.520601361989975E-001;-8.168252557516098E-002;1.904948963783681E-003;2.305004512891173E-003;
2.421500000000000E+009;1.514042913913727E-001;-8.319877833127976E-002;1.983780646696687E-003;2.107438398525119E-003;
2.421666666666667E+009;1.507619470357895E-001;-8.481057733297348E-002;2.144118072465062E-003;2.083019586279988E-003;
2.421833333333334E+009;1.504590213298798E-001;-8.652342110872269E-002;2.165943384170532E-003;1.918367575854063E-003;
2.422000000000000E+009;1.500827819108963E-001;-8.799008280038834E-002;2.207678509876132E-003;1.914554508402944E-003;
2.422166666666667E+009;1.498165279626846E-001;-8.986637741327286E-002;2.268770709633827E-003;1.836703042499721E-003;
2.422333333333334E+009;1.497578471899033E-001;-9.148048609495163E-002;2.236315049231052E-003;1.797150354832411E-003;
2.422500000000000E+009;1.493420004844666E-001;-9.290940314531326E-002;2.150318119674921E-003;1.444592257030308E-003;
2.422666666666667E+009;1.493409126996994E-001;-9.486060589551926E-002;2.111362293362618E-003;1.441430300474167E-003;
2.422833333333334E+009;1.494259238243103E-001;-9.655417501926422E-002;2.206591656431556E-003;1.378354849293828E-003;
2.423000000000000E+009;1.496518999338150E-001;-9.809318929910660E-002;2.511407714337111E-003;1.362058334052563E-003;
2.423166666666667E+009;1.499065756797791E-001;-9.967073053121567E-002;2.405585721135140E-003;1.117337960749865E-003;
2.423333333333334E+009;1.500250697135925E-001;-1.011375561356545E-001;2.422493183985353E-003;1.161986379884183E-003;
2.423500000000000E+009;1.504187136888504E-001;-1.026297137141228E-001;2.519786125048995E-003;1.089122961275280E-003;
2.423666666666667E+009;1.506307572126389E-001;-1.042446419596672E-001;2.450995612889528E-003;9.965243516489863E-004;
2.423833333333334E+009;1.510800272226334E-001;-1.055823192000389E-001;2.421994460746646E-003;1.021840260364115E-003;
2.424000000000000E+009;1.513543426990509E-001;-1.067008674144745E-001;2.553749363869429E-003;8.442074758931994E-004;
2.424166666666667E+009;1.516570150852203E-001;-1.080672666430473E-001;2.596881473436952E-003;7.657877285964787E-004;
2.424333333333334E+009;1.523101031780243E-001;-1.092757284641266E-001;2.639791462570429E-003;8.525815792381764E-004;
2.424500000000000E+009;1.528463065624237E-001;-1.104094684123993E-001;2.500746399164200E-003;7.407423690892756E-004;
2.424666666666667E+009;1.533541977405548E-001;-1.113364994525909E-001;2.680621342733502E-003;6.047305068932474E-004;
2.424833333333334E+009;1.536986231803894E-001;-1.124087497591972E-001;2.768540056422353E-003;6.337083177641034E-004;
2.425000000000000E+009;1.541904509067535E-001;-1.133229956030846E-001;2.717795316129923E-003;4.421366611495614E-004;
2.425166666666667E+009;1.544468253850937E-001;-1.140791252255440E-001;2.781669609248638E-003;3.999283071607351E-004;
2.425333333333334E+009;1.547878682613373E-001;-1.149104759097099E-001;2.641544444486499E-003;1.592606276972219E-004;
2.425500000000000E+009;1.552980542182922E-001;-1.154539138078690E-001;2.792159793898463E-003;2.018745872192085E-004;
2.425666666666667E+009;1.554236412048340E-001;-1.160763576626778E-001;2.699160948395729E-003;6.309057062026113E-005;
2.425833333333334E+009;1.557513624429703E-001;-1.166088730096817E-001;2.971326000988483E-003;-4.781508687301539E-005;
2.426000000000000E+009;1.557998955249786E-001;-1.171206608414650E-001;2.946594264358282E-003;-1.910197606775910E-004;
2.426166666666667E+009;1.561130434274674E-001;-1.175222024321556E-001;2.851792378351092E-003;-3.212338488083333E-004;
2.426333333333334E+009;1.560680866241455E-001;-1.178090870380402E-001;2.709709340706468E-003;-5.016110371798277E-004;
2.426500000000000E+009;1.559936851263046E-001;-1.180716827511787E-001;2.790603786706924E-003;-5.566893378272653E-004;
2.426666666666667E+009;1.560535579919815E-001;-1.181248202919960E-001;2.682346617802978E-003;-7.882294594310224E-004;
2.426833333333334E+009;1.557275801897049E-001;-1.184140741825104E-001;2.687481464818120E-003;-8.302382775582373E-004;
2.427000000000000E+009;1.554496586322784E-001;-1.185924783349037E-001;2.600720385089517E-003;-9.463482419960201E-004;
2.427166666666667E+009;1.549600511789322E-001;-1.186359077692032E-001;2.476845635101199E-003;-1.068996731191874E-003;
2.427333333333334E+009;1.544828861951828E-001;-1.187941357493401E-001;2.599103609099984E-003;-9.786147857084870E-004;
2.427500000000000E+009;1.540756225585938E-001;-1.189580038189888E-001;2.425001701340079E-003;-9.753018966875970E-004;
2.427666666666667E+009;1.533971726894379E-001;-1.190568134188652E-001;2.386955311521888E-003;-1.236152835190296E-003;
2.427833333333334E+009;1.525370627641678E-001;-1.192317008972168E-001;2.429142128676176E-003;-1.129855867475271E-003;
