# Version 1.00
#
freq[Hz];re:Trc1_S11;im:Trc1_S11;re:Trc2_S21;im:Trc2_S21;
2.400000000000000E+009;1.584869474172592E-001;6.207561865448952E-002;-2.366373315453529E-003;-2.300090854987502E-004;
2.400166666666667E+009;1.584100425243378E-001;6.061542406678200E-002;-2.605640562251210E-003;-2.661958278622478E-004;
2.400333333333334E+009;1.581476032733917E-001;5.858812853693962E-002;-2.447712933644652E-003;-2.798549394356087E-005;
2.400500000000000E+009;1.582343578338623E-001;5.676075071096420E-002;-2.507331548258662E-003;2.410563465673477E-004;
2.400666666666667E+009;1.581420451402664E-001;5.473015829920769E-002;-2.512754173949361E-003;2.642479666974396E-004;
2.400833333333334E+009;1.582135856151581E-001;5.282158404588699E-002;-2.346112160012126E-003;2.437766816001386E-004;
2.401000000000000E+009;1.584129482507706E-001;5.077349394559860E-002;-2.429728861898184E-003;4.714980022981763E-004;
2.401166666666667E+009;1.584295928478241E-001;4.871289804577828E-002;-2.187049249187112E-003;6.518741138279438E-004;
2.401333333333334E+009;1.586898863315582E-001;4.679743573069572E-002;-2.265323884785175E-003;7.211939664557576E-004;
2.401500000000000E+009;1.590982377529144E-001;4.473166912794113E-002;-2.228066092357040E-003;6.596118328161538E-004;
2.401666666666667E+009;1.595234125852585E-001;4.273608326911926E-002;-2.214167499914765E-003;7.780534215271473E-004;
2.401833333333334E+009;1.598412841558456E-001;4.075179249048233E-002;-2.045256085693836E-003;1.022364594973624E-003;
2.402000000000000E+009;1.601427793502808E-001;3.852806985378265E-002;-1.930714584887028E-003;9.942655451595783E-004;
2.402166666666667E+009;1.608560234308243E-001;3.665326535701752E-002;-1.995362574234605E-003;1.176134916022420E-003;
2.402333333333334E+009;1.613669693470001E-001;3.495209291577339E-002;-1.599464914761484E-003;1.236687530763447E-003;
2.402500000000000E+009;1.620646566152573E-001;3.304210305213928E-002;-1.701945322565734E-003;1.328152487985790E-003;
2.402666666666667E+009;1.626267731189728E-001;3.125295788049698E-002;-1.615639310330153E-003;1.345784286968410E-003;
2.402833333333334E+009;1.633022129535675E-001;2.970018982887268E-002;-1.467725378461182E-003;1.426110393367708E-003;
2.403000000000000E+009;1.643136292695999E-001;2.812463417649269E-002;-1.220454112626612E-003;1.506416010670364E-003;
2.403166666666667E+009;1.652050465345383E-001;2.643743716180325E-002;-1.056940760463476E-003;1.355308457277715E-003;
2.403333333333334E+009;1.659628152847290E-001;2.525980956852436E-002;-9.298319346271455E-004;1.541198464110494E-003;
2.403500000000000E+009;1.667839735746384E-001;2.355780452489853E-002;-7.676729001104832E-004;1.486908877268434E-003;
2.403666666666667E+009;1.677463650703430E-001;2.226151339709759E-002;-5.723634967580438E-004;1.600816496647894E-003;
2.403833333333334E+009;1.687605828046799E-001;2.103723399341106E-002;-6.595402956008911E-004;1.442109234631062E-003;
2.404000000000000E+009;1.697091907262802E-001;1.978296041488648E-002;-4.509828868322074E-004;1.339565729722381E-003;
2.404166666666667E+009;1.707067787647247E-001;1.884586922824383E-002;-3.510726673994213E-004;1.495411735959351E-003;
2.404333333333334E+009;1.715362966060638E-001;1.765494234859943E-002;-1.881829666672275E-004;1.426554750651121E-003;
2.404500000000000E+009;1.723403483629227E-001;1.667677052319050E-002;-2.717595489230007E-004;1.248011249117553E-003;
2.404666666666667E+009;1.734546124935150E-001;1.587339863181114E-002;-3.830635614576750E-005;1.145906979218125E-003;
2.404833333333334E+009;1.741356551647186E-001;1.504385005682707E-002;-5.591969238594174E-005;1.151362666860223E-003;
2.405000000000000E+009;1.751145124435425E-001;1.422587223351002E-002;1.044459058903158E-004;9.228570270352066E-004;
2.405166666666667E+009;1.758994907140732E-001;1.366882771253586E-002;2.981228753924370E-004;8.541007409803569E-004;
2.405333333333334E+009;1.767474263906479E-001;1.296095550060272E-002;2.593653043732047E-004;8.021551184356213E-004;
2.405500000000000E+009;1.773098558187485E-001;1.254365500062704E-002;3.224170068278909E-004;6.433131056837738E-004;
2.405666666666667E+009;1.778579801321030E-001;1.214714720845223E-002;2.609048387967050E-004;8.110356284305453E-004;
2.405833333333334E+009;1.784005165100098E-001;1.167955342680216E-002;3.614679444581270E-004;5.412258324213326E-004;
2.406000000000000E+009;1.789503097534180E-001;1.118344627320766E-002;4.275951068848372E-004;5.358372000046074E-004;
2.406166666666667E+009;1.792337149381638E-001;1.085406728088856E-002;3.721215762197971E-004;4.836694570258260E-004;
2.406333333333334E+009;1.798639893531799E-001;1.051755901426077E-002;3.249756991863251E-004;2.993280068039894E-004;
2.406500000000000E+009;1.800618618726730E-001;1.019694376736879E-002;3.384922456461936E-004;2.575440157670528E-004;
2.406666666666667E+009;1.799968183040619E-001;9.938008151948452E-003;4.791274259332568E-004;2.192176762036979E-004;
2.406833333333334E+009;1.803767979145050E-001;9.456987492740154E-003;3.084449563175440E-004;8.125149179250002E-005;
2.407000000000000E+009;1.803802400827408E-001;9.042858146131039E-003;2.806191914714873E-004;4.710307257482782E-005;
2.407166666666667E+009;1.805213391780853E-001;8.743146434426308E-003;2.763513475656509E-004;5.960076123301406E-006;
2.407333333333334E+009;1.802488416433334E-001;8.313531987369061E-003;1.594087370904163E-004;-1.636662782402709E-004;
2.407500000000000E+009;1.800414770841599E-001;7.784229237586260E-003;2.443342236801982E-004;-2.742232754826546E-004;
2.407666666666667E+009;1.799226254224777E-001;7.417780812829733E-003;2.639643498696387E-004;-2.432591281831265E-004;
2.407833333333334E+009;1.795266121625900E-001;6.776480469852686E-003;1.309769140789285E-004;-3.791841154452413E-004;
2.408000000000000E+009;1.790522933006287E-001;6.073055323213339E-003;2.410243723716121E-005;-3.781279083341360E-004;
2.408166666666667E+009;1.786852627992630E-001;5.511451512575150E-003;1.666233729338273E-004;-4.377782752271742E-004;
2.408333333333334E+009;1.783490628004074E-001;4.782588686794043E-003;-1.199699545395561E-005;-3.874215763062239E-004;
2.408500000000000E+009;1.778006255626679E-001;3.923918586224318E-003;-7.575973722850904E-005;-4.176407237537205E-004;
2.408666666666667E+009;1.772422492504120E-001;2.861226210370660E-003;-6.304959242697805E-005;-5.558640114031732E-004;
2.408833333333334E+009;1.764907091856003E-001;2.084878040477634E-003;-2.064986474579200E-004;-5.486359586939216E-004;
2.409000000000000E+009;1.758166104555130E-001;1.003618002869189E-003;-2.330689167138189E-004;-5.439259111881256E-004;
2.409166666666667E+009;1.752887964248657E-001;-2.460064424667507E-004;-1.335988199571148E-004;-4.837861633859575E-004;
2.409333333333334E+009;1.747303754091263E-001;-1.377376960590482E-003;-2.853652695193887E-004;-6.660668877884746E-004;
2.409500000000000E+009;1.739906519651413E-001;-2.838534070178866E-003;-2.713685971684754E-004;-6.053492543287575E-004;
2.409666666666667E+009;1.731456965208054E-001;-4.088259302079678E-003;-2.806170668918639E-004;-7.570375455543399E-004;
2.409833333333334E+009;1.724471449851990E-001;-5.356940906494856E-003;-3.517117875162512E-004;-6.678876234218478E-004;
2.410000000000000E+009;1.722096800804138E-001;-7.150049321353436E-003;-3.694756887853146E-004;-6.739690434187651E-004;
2.410166666666667E+009;1.715585440397263E-001;-8.674416691064835E-003;-5.674326093867421E-004;-7.051515276543796E-004;
2.410333333333334E+009;1.708886623382568E-001;-1.040275674313307E-002;-6.167645333334804E-004;-8.264342322945595E-004;
2.410500000000000E+009;1.702227443456650E-001;-1.181382499635220E-002;-5.947387544438243E-004;-8.169000502675772E-004;
2.410666666666667E+009;1.698469519615173E-001;-1.368704997003079E-002;-7.322626188397408E-004;-8.772199507802725E-004;
2.410833333333334E+009;1.693179011344910E-001;-1.533282268792391E-002;-7.820978062227368E-004;-9.608016698621213E-004;
2.411000000000000E+009;1.690240204334259E-001;-1.717847585678101E-002;-9.034290560521185E-004;-7.086310652084649E-004;
2.411166666666667E+009;1.687024980783463E-001;-1.901193708181381E-002;-1.012084190733731E-003;-8.245756034739316E-004;
2.411333333333334E+009;1.686607599258423E-001;-2.075220458209515E-002;-1.109789707697928E-003;-7.322630845010281E-004;
2.411500000000000E+009;1.683768779039383E-001;-2.309688553214073E-002;-1.216451870277524E-003;-7.612623739987612E-004;
2.411666666666667E+009;1.684354692697525E-001;-2.482923865318298E-002;-1.347091281786561E-003;-7.493362645618618E-004;
2.411833333333334E+009;1.681754887104034E-001;-2.665200643241406E-002;-1.303166034631431E-003;-7.329099462367594E-004;
2.412000000000000E+009;1.683658212423325E-001;-2.863126248121262E-002;-1.594442175701261E-003;-7.332848035730422E-004;
2.412166666666667E+009;1.684653759002686E-001;-3.054388985037804E-002;-1.664688345044851E-003;-5.656966823153198E-004;
2.412333333333334E+009;1.687443405389786E-001;-3.251797333359718E-002;-1.616719877347350E-003;-6.142643978819251E-004;
2.412500000000000E+009;1.689390540122986E-001;-3.416676819324493E-002;-1.757737481966615E-003;-4.890260170213878E-004;
2.412666666666667E+009;1.691763103008270E-001;-3.620704635977745E-002;-1.869712374173105E-003;-3.478487487882376E-004;
2.412833333333334E+009;1.696434766054153E-001;-3.804399073123932E-002;-2.130710287019610E-003;-2.836828061845154E-004;
2.413000000000000E+009;1.699033081531525E-001;-3.974706679582596E-002;-2.137438859790564E-003;-2.884669520426542E-004;
2.413166666666667E+009;1.702974587678909E-001;-4.135698825120926E-002;-2.208364661782980E-003;-3.505721178953536E-005;
2.413333333333334E+009;1.707284748554230E-001;-4.312913864850998E-002;-2.268389100208879E-003;8.022841939236969E-006;
2.413500000000000E+009;1.713068336248398E-001;-4.475129023194313E-002;-2.259504282847047E-003;8.600246655987576E-005;
2.413666666666667E+009;1.718960106372833E-001;-4.633263126015663E-002;-2.199172507971525E-003;2.973528462462127E-004;
2.413833333333334E+009;1.721479594707489E-001;-4.769775271415710E-002;-2.338308142498136E-003;4.583082627505064E-004;
2.414000000000000E+009;1.726994663476944E-001;-4.896043613553047E-002;-2.484904835000634E-003;4.816452565137297E-004;
2.414166666666667E+009;1.733405292034149E-001;-5.034472420811653E-002;-2.371063455939293E-003;7.786317728459835E-004;
2.414333333333334E+009;1.737256199121475E-001;-5.156661570072174E-002;-2.243099501356483E-003;7.956864428706467E-004;
2.414500000000000E+009;1.743952929973602E-001;-5.264686793088913E-002;-2.345171757042408E-003;1.010139239951968E-003;
2.414666666666667E+009;1.748819649219513E-001;-5.359755083918572E-002;-2.260732231661677E-003;1.088961842469871E-003;
2.414833333333334E+009;1.753062754869461E-001;-5.464459210634232E-002;-2.293356228619814E-003;1.240578829310834E-003;
2.415000000000000E+009;1.756348907947540E-001;-5.548752844333649E-002;-2.308686729520559E-003;1.439184765331447E-003;
2.415166666666667E+009;1.761028617620468E-001;-5.622697994112968E-002;-2.289843279868364E-003;1.407013041898608E-003;
2.415333333333334E+009;1.765506118535996E-001;-5.714064836502075E-002;-2.253794344142079E-003;1.655588857829571E-003;
2.415500000000000E+009;1.768910288810730E-001;-5.767088383436203E-002;-2.070673275738955E-003;1.866597565822303E-003;
2.415666666666667E+009;1.770773082971573E-001;-5.812677368521690E-002;-2.013184828683734E-003;1.779600745067000E-003;
2.415833333333334E+009;1.771876960992813E-001;-5.870402604341507E-002;-2.044416964054108E-003;2.004197100177407E-003;
2.416000000000000E+009;1.772315353155136E-001;-5.919725820422173E-002;-1.793118775822222E-003;2.182574244216085E-003;
2.416166666666667E+009;1.773315370082855E-001;-5.944864451885223E-002;-1.865354133769870E-003;2.221015980467200E-003;
2.416333333333334E+009;1.772694587707520E-001;-5.981175601482391E-002;-1.758143538609147E-003;2.360755810514092E-003;
2.416500000000000E+009;1.772850155830383E-001;-6.031933054327965E-002;-1.642970484681428E-003;2.372551942244172E-003;
2.416666666666667E+009;1.769382208585739E-001;-6.047216057777405E-002;-1.408580574207008E-003;2.621842781081796E-003;
2.416833333333334E+009;1.767286658287048E-001;-6.078549474477768E-002;-1.409341813996434E-003;2.656609518453479E-003;
2.417000000000000E+009;1.762563437223434E-001;-6.101006641983986E-002;-1.313252258114517E-003;2.712965942919254E-003;
2.417166666666667E+009;1.758286505937576E-001;-6.118514761328697E-002;-1.100976020097733E-003;2.939875237643719E-003;
2.417333333333334E+009;1.751939058303833E-001;-6.144290044903755E-002;-1.027594087645412E-003;2.842357382178307E-003;
2.417500000000000E+009;1.745717823505402E-001;-6.197678670287132E-002;-9.390104678459466E-004;3.057931782677770E-003;
2.417666666666667E+009;1.739851534366608E-001;-6.198559328913689E-002;-6.921258755028248E-004;2.957777585834265E-003;
2.417833333333334E+009;1.732580363750458E-001;-6.225535273551941E-002;-7.442909409292042E-004;3.106650896370411E-003;
2.418000000000000E+009;1.722574084997177E-001;-6.272625923156738E-002;-5.410438170656562E-004;2.954637398943305E-003;
2.418166666666667E+009;1.713074892759323E-001;-6.293270736932755E-002;-4.889057017862797E-004;3.001755569130182E-003;
2.418333333333334E+009;1.706251651048660E-001;-6.336528062820435E-002;-1.405276561854407E-004;3.067267592996359E-003;
2.418500000000000E+009;1.693520992994309E-001;-6.392054259777069E-002;-3.190364805050194E-005;3.281017066910863E-003;
2.418666666666667E+009;1.685609668493271E-001;-6.449598819017410E-002;-2.287380169718745E-007;3.206585533916950E-003;
2.418833333333334E+009;1.671814620494843E-001;-6.497937440872192E-002;8.700278704054654E-005;3.244266612455249E-003;
2.419000000000000E+009;1.659835577011108E-001;-6.568986922502518E-002;3.717388317454606E-004;3.114910563454032E-003;
2.419166666666667E+009;1.649851948022842E-001;-6.635981798171997E-002;3.666508418973535E-004;3.153263591229916E-003;
2.419333333333334E+009;1.637347638607025E-001;-6.698032468557358E-002;6.532089901156724E-004;3.142624162137508E-003;
2.419500000000000E+009;1.625137925148010E-001;-6.795425713062286E-002;6.623697699978948E-004;3.181991167366505E-003;
2.419666666666667E+009;1.616132706403732E-001;-6.883970648050308E-002;8.524482836946845E-004;2.987666521221399E-003;
2.419833333333334E+009;1.602391600608826E-001;-6.966214627027512E-002;8.551382343284786E-004;3.020253730937839E-003;
2.420000000000000E+009;1.593680232763290E-001;-7.076269388198853E-002;1.038315938785672E-003;3.006313461810350E-003;
2.420166666666667E+009;1.581307351589203E-001;-7.193658500909805E-002;1.209122478030622E-003;2.922935644164681E-003;
2.420333333333334E+009;1.570771932601929E-001;-7.321517169475555E-002;1.340240356512368E-003;3.004132304340601E-003;
2.420500000000000E+009;1.561909168958664E-001;-7.430114597082138E-002;1.524291234090924E-003;2.722344826906920E-003;
2.420666666666667E+009;1.551754474639893E-001;-7.566035538911820E-002;1.650471938773990E-003;2.762499731034041E-003;
2.420833333333334E+009;1.544604450464249E-001;-7.706602662801743E-002;1.681187306530774E-003;2.640584018081427E-003;
2.421000000000000E+009;1.533287763595581E-001;-7.858993113040924E-002;1.759007689543068E-003;2.532752696424723E-003;
2.421166666666667E+009;1.527770608663559E-001;-7.998628169298172E-002;1.848737476393580E-003;2.500525908544660E-003;
2.421333333333334E+009;1.521708369255066E-001;-8.156146854162216E-002;1.792714698240161E-003;2.338033867999911E-003;
2.421500000000000E+009;1.513226479291916E-001;-8.313649892807007E-002;2.071138937026262E-003;2.257539425045252E-003;
2.421666666666667E+009;1.509875208139420E-001;-8.478992432355881E-002;2.096697455272079E-003;2.155984751880169E-003;
2.421833333333334E+009;1.505970060825348E-001;-8.651335537433624E-002;2.052760217338800E-003;2.042897744104266E-003;
2.422000000000000E+009;1.501933485269547E-001;-8.817856758832932E-002;2.223167568445206E-003;2.035450888797641E-003;
2.422166666666667E+009;1.498023271560669E-001;-8.989457041025162E-002;2.200481249019504E-003;1.770982518792152E-003;
2.422333333333334E+009;1.496723890304565E-001;-9.163520485162735E-002;2.337285084649921E-003;1.899890135973692E-003;
2.422500000000000E+009;1.496053338050842E-001;-9.303595870733261E-002;2.405018778517842E-003;1.698274980299175E-003;
2.422666666666667E+009;1.492920964956284E-001;-9.493587911128998E-002;2.360729034990072E-003;1.612231717444956E-003;
2.422833333333334E+009;1.496310681104660E-001;-9.650365263223648E-002;2.342626918107271E-003;1.458139973692596E-003;
2.423000000000000E+009;1.496864557266235E-001;-9.812834858894348E-002;2.342870226129890E-003;1.335602602921426E-003;
2.423166666666667E+009;1.498839259147644E-001;-9.975498169660568E-002;2.387302927672863E-003;1.298570772632957E-003;
2.423333333333334E+009;1.501682996749878E-001;-1.011621877551079E-001;2.359015634283423E-003;1.231544883921742E-003;
2.423500000000000E+009;1.504190266132355E-001;-1.028430759906769E-001;2.398701151832938E-003;1.160557381808758E-003;
2.423666666666667E+009;1.507240086793900E-001;-1.043031290173531E-001;2.599713392555714E-003;1.080555142834783E-003;
2.423833333333334E+009;1.511300951242447E-001;-1.056294217705727E-001;2.602800726890564E-003;9.645972750149667E-004;
2.424000000000000E+009;1.515391170978546E-001;-1.068712547421455E-001;2.634844975546002E-003;9.390689665451646E-004;
2.424166666666667E+009;1.517525613307953E-001;-1.080403029918671E-001;2.476261928677559E-003;8.208472863771021E-004;
2.424333333333334E+009;1.524123549461365E-001;-1.092373356223106E-001;2.785972319543362E-003;8.249676320701838E-004;
2.424500000000000E+009;1.527373045682907E-001;-1.103617995977402E-001;2.639414044097066E-003;7.779659354127944E-004;
2.424666666666667E+009;1.532886028289795E-001;-1.113160997629166E-001;2.582737477496266E-003;7.949373684823513E-004;
2.424833333333334E+009;1.536427885293961E-001;-1.123729348182678E-001;2.717586234211922E-003;4.176676447968930E-004;
2.425000000000000E+009;1.543031185865402E-001;-1.132408380508423E-001;2.752980217337608E-003;5.735253798775375E-004;
2.425166666666667E+009;1.544438153505325E-001;-1.140171810984612E-001;2.720829332247376E-003;2.201018942287192E-004;
2.425333333333334E+009;1.548247784376144E-001;-1.147061511874199E-001;2.773582004010677E-003;2.603737520985305E-004;
2.425500000000000E+009;1.553359329700470E-001;-1.154669597744942E-001;2.752795815467835E-003;2.104011364281178E-004;
2.425666666666667E+009;1.553988158702850E-001;-1.160391196608543E-001;2.721893833950162E-003;-3.322731936350465E-005;
2.425833333333334E+009;1.557119190692902E-001;-1.165624186396599E-001;2.701864577829838E-003;-1.691821234999225E-004;
2.426000000000000E+009;1.559898406267166E-001;-1.171039864420891E-001;2.910582115873694E-003;-3.900693554896861E-004;
2.426166666666667E+009;1.561099439859390E-001;-1.174613311886787E-001;2.731072483584285E-003;-2.345036773476750E-004;
2.426333333333334E+009;1.560659110546112E-001;-1.176615655422211E-001;2.652588766068220E-003;-4.090532311238349E-004;
2.426500000000000E+009;1.561202257871628E-001;-1.179720759391785E-001;2.738849958404899E-003;-5.126515752635896E-004;
2.426666666666667E+009;1.560326665639877E-001;-1.180948466062546E-001;2.695368835702539E-003;-6.617024191655219E-004;
2.426833333333334E+009;1.558334082365036E-001;-1.183228269219399E-001;2.634069416671991E-003;-5.839669029228389E-004;
2.427000000000000E+009;1.556292772293091E-001;-1.185909733176231E-001;2.508949022740126E-003;-7.642398122698069E-004;
2.427166666666667E+009;1.550975292921066E-001;-1.186699196696281E-001;2.621411113068461E-003;-8.853705367073417E-004;
2.427333333333334E+009;1.546064913272858E-001;-1.188223138451576E-001;2.486563287675381E-003;-8.460665121674538E-004;
2.427500000000000E+009;1.542126983404160E-001;-1.188735738396645E-001;2.471950836479664E-003;-1.058254274539650E-003;
2.427666666666667E+009;1.534531265497208E-001;-1.190923526883125E-001;2.399785211309791E-003;-1.054148422554135E-003;
2.427833333333334E+009;1.526464223861694E-001;-1.192452386021614E-001;2.484236843883991E-003;-1.303789089433849E-003;
