# Version 1.00
#
freq[Hz];re:Trc1_S11;im:Trc1_S11;re:Trc2_S21;im:Trc2_S21;
2.400000000000000E+009;1.584232598543167E-001;6.206048280000687E-002;-2.529254416003823E-003;-1.756926649250090E-004;
2.400166666666667E+009;1.583838462829590E-001;6.053916364908218E-002;-2.525572897866368E-003;-6.050142837921158E-005;
2.400333333333334E+009;1.581599265336990E-001;5.872011184692383E-002;-2.425955142825842E-003;-7.462588655471336E-006;
2.400500000000000E+009;1.582747697830200E-001;5.696453899145126E-002;-2.426612423732877E-003;-2.055979166470934E-005;
2.400666666666667E+009;1.582018584012985E-001;5.485258251428604E-002;-2.414920367300510E-003;1.441226922906935E-004;
2.400833333333334E+009;1.583105772733688E-001;5.303980410099030E-002;-2.561206929385662E-003;3.387514152564108E-004;
2.401000000000000E+009;1.583163291215897E-001;5.067190900444984E-002;-2.420249162241817E-003;3.723773697856814E-004;
2.401166666666667E+009;1.587016582489014E-001;4.879171028733254E-002;-2.438157331198454E-003;4.686378524638712E-004;
2.401333333333334E+009;1.587512940168381E-001;4.680506139993668E-002;-2.412296831607819E-003;6.246675620786846E-004;
2.401500000000000E+009;1.593196392059326E-001;4.466432705521584E-002;-2.178947208449245E-003;6.583205540664494E-004;
2.401666666666667E+009;1.595172137022018E-001;4.273625463247299E-002;-2.272025682032108E-003;9.290946181863546E-004;
2.401833333333334E+009;1.598139554262161E-001;4.057761654257774E-002;-2.235056599602103E-003;1.019457704387605E-003;
2.402000000000000E+009;1.602489203214645E-001;3.872602060437203E-002;-2.017433056607842E-003;1.070142956450582E-003;
2.402166666666667E+009;1.607597470283508E-001;3.669789433479309E-002;-1.973977079614997E-003;1.163080334663391E-003;
2.402333333333334E+009;1.613500416278839E-001;3.495975956320763E-002;-1.827194006182253E-003;1.215192023664713E-003;
2.402500000000000E+009;1.620932817459106E-001;3.306260704994202E-002;-1.713301287963986E-003;1.525586470961571E-003;
2.402666666666667E+009;1.627125740051270E-001;3.144070878624916E-002;-1.503156148828566E-003;1.404581009410322E-003;
2.402833333333334E+009;1.633774340152741E-001;2.980144135653973E-002;-1.331477891653776E-003;1.501677557826042E-003;
2.403000000000000E+009;1.643334478139877E-001;2.813429012894630E-002;-1.355316140688956E-003;1.416306942701340E-003;
2.403166666666667E+009;1.652155220508575E-001;2.663792669773102E-002;-1.099228742532432E-003;1.468453323468566E-003;
2.403333333333334E+009;1.661815792322159E-001;2.522224374115467E-002;-1.118969754315913E-003;1.386988675221801E-003;
2.403500000000000E+009;1.668270975351334E-001;2.376962266862392E-002;-8.932253695093095E-004;1.498767989687622E-003;
2.403666666666667E+009;1.677049249410629E-001;2.227511443197727E-002;-7.491394062526524E-004;1.693359459750354E-003;
2.403833333333334E+009;1.688601374626160E-001;2.096449770033360E-002;-4.771825624629855E-004;1.433611498214304E-003;
2.404000000000000E+009;1.697833240032196E-001;1.975513435900211E-002;-5.682886694557965E-004;1.642707735300064E-003;
2.404166666666667E+009;1.705690026283264E-001;1.890024729073048E-002;-3.077965811826289E-004;1.334800501354039E-003;
2.404333333333334E+009;1.715738624334335E-001;1.788183115422726E-002;-2.050152543233708E-004;1.250692293979228E-003;
2.404500000000000E+009;1.725058704614639E-001;1.668273843824863E-002;-1.499019417678937E-004;1.335233217105269E-003;
2.404666666666667E+009;1.733890175819397E-001;1.586742326617241E-002;-7.894119335105643E-005;1.285617472603917E-003;
2.404833333333334E+009;1.742218285799027E-001;1.503374520689249E-002;1.010982814477757E-004;1.137956511229277E-003;
2.405000000000000E+009;1.750536412000656E-001;1.419171597808600E-002;-4.989127774024382E-006;1.087115844711661E-003;
2.405166666666667E+009;1.755579560995102E-001;1.365183573216200E-002;2.734347654040903E-004;1.065182383172214E-003;
2.405333333333334E+009;1.765717864036560E-001;1.301262713968754E-002;1.734070829115808E-004;8.292996208183467E-004;
2.405500000000000E+009;1.773460358381271E-001;1.254551112651825E-002;3.076365392189473E-004;8.827899000607431E-004;
2.405666666666667E+009;1.778643876314163E-001;1.213069632649422E-002;4.158861411269754E-004;6.887388881295919E-004;
2.405833333333334E+009;1.783597469329834E-001;1.173267420381308E-002;3.167397517245263E-004;6.261641974560916E-004;
2.406000000000000E+009;1.789672672748566E-001;1.103550288826227E-002;3.884017642121762E-004;5.567987100221217E-004;
2.406166666666667E+009;1.792928576469421E-001;1.097549311816692E-002;4.403508792165667E-004;1.886207610368729E-004;
2.406333333333334E+009;1.797806322574616E-001;1.060341298580170E-002;4.062657244503498E-004;4.092242452315986E-004;
2.406500000000000E+009;1.799749284982681E-001;1.017546653747559E-002;3.636213659774512E-004;1.984697009902448E-004;
2.406666666666667E+009;1.800083220005035E-001;9.826399385929108E-003;3.336420631967485E-004;3.609924751799554E-004;
2.406833333333334E+009;1.803055703639984E-001;9.525168687105179E-003;3.819293342530727E-004;8.554883243050426E-005;
2.407000000000000E+009;1.804468929767609E-001;9.124197065830231E-003;2.411135501461104E-004;9.162976493826136E-005;
2.407166666666667E+009;1.805086731910706E-001;8.715926669538021E-003;1.941592636285350E-004;7.256629760377109E-005;
2.407333333333334E+009;1.803299337625504E-001;8.268420584499836E-003;2.420452656224370E-004;-2.041343395831063E-004;
2.407500000000000E+009;1.801858544349670E-001;7.941504009068012E-003;1.684853923507035E-004;1.165678440884221E-005;
2.407666666666667E+009;1.798697710037231E-001;7.320119068026543E-003;2.319085324415937E-004;-1.895403838716447E-004;
2.407833333333334E+009;1.795099377632141E-001;6.653097923845053E-003;9.985993528971449E-005;-2.020549727603793E-004;
2.408000000000000E+009;1.791628450155258E-001;6.028531119227409E-003;8.369269926333800E-005;-3.935029963031411E-004;
2.408166666666667E+009;1.786739826202393E-001;5.550061818212271E-003;3.667193232104182E-005;-2.556873369030654E-004;
2.408333333333334E+009;1.783813238143921E-001;4.803382325917482E-003;5.349213461158797E-005;-3.178488987032324E-004;
2.408500000000000E+009;1.778659075498581E-001;3.949637990444899E-003;7.593705231556669E-005;-3.951573162339628E-004;
2.408666666666667E+009;1.772295683622360E-001;2.916608937084675E-003;-9.216926264343783E-005;-4.666153981816024E-004;
2.408833333333334E+009;1.764798909425736E-001;2.021434251219034E-003;4.417337186168879E-005;-5.991493235342205E-004;
2.409000000000000E+009;1.757802963256836E-001;1.042186864651740E-003;-1.274998212466016E-004;-5.860060336999595E-004;
2.409166666666667E+009;1.752259880304337E-001;-1.470565184717998E-004;-2.145677281077951E-004;-5.557888071052730E-004;
2.409333333333334E+009;1.746747493743897E-001;-1.512054004706442E-003;-2.141648292308673E-004;-6.272107711993158E-004;
2.409500000000000E+009;1.740487515926361E-001;-2.746492158621550E-003;-2.290358825121075E-004;-5.012206966057420E-004;
2.409666666666667E+009;1.732417196035385E-001;-4.122502170503140E-003;-3.129357937723398E-004;-7.267368491739035E-004;
2.409833333333334E+009;1.726373136043549E-001;-5.530805792659521E-003;-3.348612517584115E-004;-5.946412566117942E-004;
2.410000000000000E+009;1.720414012670517E-001;-6.972494535148144E-003;-4.519990761764348E-004;-6.490554078482091E-004;
2.410166666666667E+009;1.714767217636108E-001;-8.558454923331738E-003;-5.340076750144362E-004;-7.757982821203768E-004;
2.410333333333334E+009;1.707762479782105E-001;-1.015811972320080E-002;-5.793221644125879E-004;-7.592674810439348E-004;
2.410500000000000E+009;1.704114824533463E-001;-1.191909238696098E-002;-8.171452209353447E-004;-8.350927382707596E-004;
2.410666666666667E+009;1.698166280984879E-001;-1.369356829673052E-002;-7.162065594457090E-004;-6.952099502086639E-004;
2.410833333333334E+009;1.696366667747498E-001;-1.544416882097721E-002;-8.658987935632467E-004;-6.559629691764712E-004;
2.411000000000000E+009;1.689790934324265E-001;-1.714184880256653E-002;-9.576150332577527E-004;-6.978627643547952E-004;
2.411166666666667E+009;1.687142103910446E-001;-1.910542882978916E-002;-1.039959606714547E-003;-8.626001654192805E-004;
2.411333333333334E+009;1.686142683029175E-001;-2.111596427857876E-002;-1.128296134993434E-003;-8.650620584376156E-004;
2.411500000000000E+009;1.681882739067078E-001;-2.311233058571816E-002;-1.305274316109717E-003;-8.483010460622609E-004;
2.411666666666667E+009;1.683073639869690E-001;-2.479396015405655E-002;-1.301642390899360E-003;-7.540537044405937E-004;
2.411833333333334E+009;1.682988554239273E-001;-2.669626101851463E-002;-1.343475421890616E-003;-6.804519798606634E-004;
2.412000000000000E+009;1.683696210384369E-001;-2.883093804121018E-002;-1.640641479752958E-003;-5.645999335683882E-004;
2.412166666666667E+009;1.683280467987061E-001;-3.064825199544430E-002;-1.491945004090667E-003;-7.350494852289558E-004;
2.412333333333334E+009;1.687635034322739E-001;-3.259302675724030E-002;-1.701979199424386E-003;-5.205188645049930E-004;
2.412500000000000E+009;1.688446700572968E-001;-3.431648015975952E-002;-1.772318268194795E-003;-3.912817046511918E-004;
2.412666666666667E+009;1.692420840263367E-001;-3.630979359149933E-002;-1.909920596517623E-003;-3.328152524773032E-004;
2.412833333333334E+009;1.695878654718399E-001;-3.802468627691269E-002;-2.001189161092043E-003;-1.645884476602078E-004;
2.413000000000000E+009;1.698523014783859E-001;-3.969426825642586E-002;-1.960190944373608E-003;-2.129551430698484E-004;
2.413166666666667E+009;1.703781932592392E-001;-4.134986549615860E-002;-2.088109031319618E-003;6.777001544833183E-005;
2.413333333333334E+009;1.708317995071411E-001;-4.310040920972824E-002;-2.274983096867800E-003;7.774811820127070E-005;
2.413500000000000E+009;1.712580919265747E-001;-4.477244988083839E-002;-2.153751673176885E-003;3.453256504144520E-004;
2.413666666666667E+009;1.717815250158310E-001;-4.626666009426117E-002;-2.215167507529259E-003;3.005812468472868E-004;
2.413833333333334E+009;1.721704900264740E-001;-4.769317433238030E-002;-2.157412469387054E-003;3.925244673155248E-004;
2.414000000000000E+009;1.726169437170029E-001;-4.904581978917122E-002;-2.160660689696670E-003;5.558537668548524E-004;
2.414166666666667E+009;1.733709871768951E-001;-5.044471099972725E-002;-2.254664665088058E-003;7.299043936654925E-004;
2.414333333333334E+009;1.738649755716324E-001;-5.170240625739098E-002;-2.354891737923026E-003;8.048393065109849E-004;
2.414500000000000E+009;1.744255423545837E-001;-5.274857208132744E-002;-2.235191175714135E-003;8.863345137797296E-004;
2.414666666666667E+009;1.747446358203888E-001;-5.376458913087845E-002;-2.225405769422650E-003;1.158902188763022E-003;
2.414833333333334E+009;1.752495318651199E-001;-5.472380295395851E-002;-2.263695001602173E-003;1.402386580593884E-003;
2.415000000000000E+009;1.757031679153442E-001;-5.549990013241768E-002;-2.202094765380025E-003;1.299043186008930E-003;
2.415166666666667E+009;1.761294007301331E-001;-5.628743395209312E-002;-2.208365825936198E-003;1.424959278665483E-003;
2.415333333333334E+009;1.765703409910202E-001;-5.721191316843033E-002;-2.232055878266692E-003;1.591786160133779E-003;
2.415500000000000E+009;1.769007444381714E-001;-5.759748443961144E-002;-2.133871428668499E-003;1.723612309433520E-003;
2.415666666666667E+009;1.770350635051727E-001;-5.828405544161797E-002;-2.077917102724314E-003;1.900148927234113E-003;
2.415833333333334E+009;1.771402955055237E-001;-5.871878936886787E-002;-2.048158785328269E-003;2.078047022223473E-003;
2.416000000000000E+009;1.772085726261139E-001;-5.921552702784538E-002;-1.764030545018613E-003;2.094827825203538E-003;
2.416166666666667E+009;1.774349659681320E-001;-5.952459201216698E-002;-1.692308462224901E-003;2.244694856926799E-003;
2.416333333333334E+009;1.772255301475525E-001;-5.981168523430824E-002;-1.633417792618275E-003;2.266893163323402E-003;
2.416500000000000E+009;1.772103160619736E-001;-6.030359491705895E-002;-1.600984367541969E-003;2.464565448462963E-003;
2.416666666666667E+009;1.769309937953949E-001;-6.047213450074196E-002;-1.571336993947625E-003;2.473873086273670E-003;
2.416833333333334E+009;1.767373830080032E-001;-6.070382148027420E-002;-1.325298799201846E-003;2.477389993146062E-003;
2.417000000000000E+009;1.761711686849594E-001;-6.103568896651268E-002;-1.360874623060226E-003;2.680307021364570E-003;
2.417166666666667E+009;1.757465302944183E-001;-6.118728965520859E-002;-1.138055929914117E-003;2.650740789249539E-003;
2.417333333333334E+009;1.752510368824005E-001;-6.153386086225510E-002;-1.059289905242622E-003;2.866274677217007E-003;
2.417500000000000E+009;1.746034026145935E-001;-6.186774000525475E-002;-9.278433863073587E-004;2.837527077645063E-003;
2.417666666666667E+009;1.740343868732452E-001;-6.195560097694397E-002;-9.798734681680799E-004;3.017089795321226E-003;
2.417833333333334E+009;1.732054948806763E-001;-6.235217675566673E-002;-6.750737666152418E-004;3.052378538995981E-003;
2.418000000000000E+009;1.722258478403091E-001;-6.279907375574112E-002;-5.266576772555709E-004;3.023917786777020E-003;
2.418166666666667E+009;1.712322384119034E-001;-6.291032582521439E-002;-4.158795927651227E-004;3.032986773177981E-003;
2.418333333333334E+009;1.705944091081619E-001;-6.345701962709427E-002;-3.711697354447097E-004;3.153173252940178E-003;
2.418500000000000E+009;1.694905012845993E-001;-6.392186135053635E-002;-4.979630830348469E-005;3.157877363264561E-003;
2.418666666666667E+009;1.685204058885574E-001;-6.445728242397308E-002;-1.448466355213895E-004;3.171412972733378E-003;
2.418833333333334E+009;1.672899276018143E-001;-6.499993056058884E-002;1.580812968313694E-004;3.127539763227105E-003;
2.419000000000000E+009;1.660967916250229E-001;-6.564693152904511E-002;2.000322565436363E-004;3.086533397436142E-003;
2.419166666666667E+009;1.650194078683853E-001;-6.638108193874359E-002;3.794421791099012E-004;3.186003305017948E-003;
2.419333333333334E+009;1.636357009410858E-001;-6.701559573411942E-002;5.665352218784392E-004;3.176723606884480E-003;
2.419500000000000E+009;1.624160706996918E-001;-6.802695244550705E-002;6.158457836136222E-004;3.134908154606819E-003;
2.419666666666667E+009;1.613052934408188E-001;-6.898896396160126E-002;7.257004617713392E-004;3.120281966403127E-003;
2.419833333333334E+009;1.603082418441773E-001;-6.970217823982239E-002;9.560298058204353E-004;3.029811894521117E-003;
2.420000000000000E+009;1.591958105564117E-001;-7.084985822439194E-002;1.208045519888401E-003;2.947499509900808E-003;
2.420166666666667E+009;1.580026149749756E-001;-7.206064462661743E-002;1.169659662991762E-003;2.880555344745517E-003;
2.420333333333334E+009;1.570161134004593E-001;-7.320782542228699E-002;1.288986764848232E-003;2.925727283582091E-003;
2.420500000000000E+009;1.561841964721680E-001;-7.422223687171936E-002;1.468601985834539E-003;2.746388083323836E-003;
2.420666666666667E+009;1.551333367824554E-001;-7.567139714956284E-002;1.525738975033164E-003;2.653507748618722E-003;
2.420833333333334E+009;1.542375683784485E-001;-7.692808657884598E-002;1.693294034339488E-003;2.461376832798123E-003;
2.421000000000000E+009;1.533291339874268E-001;-7.868678867816925E-002;1.841158373281360E-003;2.338622929528356E-003;
2.421166666666667E+009;1.527246236801148E-001;-8.001685887575150E-002;1.742490916512907E-003;2.364845713600516E-003;
2.421333333333334E+009;1.521511524915695E-001;-8.171135932207108E-002;1.949464553035796E-003;2.284955698996782E-003;
2.421500000000000E+009;1.513233333826065E-001;-8.320984989404678E-002;1.916749053634703E-003;2.229337813332677E-003;
2.421666666666667E+009;1.509721279144287E-001;-8.470012247562408E-002;2.090454800054431E-003;2.175866160541773E-003;
2.421833333333334E+009;1.504089832305908E-001;-8.651314675807953E-002;2.184185199439526E-003;2.142697572708130E-003;
2.422000000000000E+009;1.499661654233933E-001;-8.813559263944626E-002;2.262382768094540E-003;1.918497378937900E-003;
2.422166666666667E+009;1.498394906520844E-001;-8.984165638685226E-002;2.231910591945052E-003;1.992555567994714E-003;
2.422333333333334E+009;1.496597379446030E-001;-9.135819971561432E-002;2.182938857004046E-003;1.620799885131419E-003;
2.422500000000000E+009;1.495961695909500E-001;-9.300471097230911E-002;2.237266162410379E-003;1.742019318044186E-003;
2.422666666666667E+009;1.494657397270203E-001;-9.490017592906952E-002;2.367205685004592E-003;1.648740842938423E-003;
2.422833333333334E+009;1.495668143033981E-001;-9.638759493827820E-002;2.316276077181101E-003;1.434477977454662E-003;
2.423000000000000E+009;1.495651453733444E-001;-9.812664985656738E-002;2.397033385932446E-003;1.350542530417442E-003;
2.423166666666667E+009;1.498330235481262E-001;-9.972549229860306E-002;2.424828475341201E-003;1.454485347494483E-003;
2.423333333333334E+009;1.501049399375916E-001;-1.010604575276375E-001;2.334661083295941E-003;1.156536862254143E-003;
2.423500000000000E+009;1.503369361162186E-001;-1.026963889598846E-001;2.549176337197423E-003;1.197771634906530E-003;
2.423666666666667E+009;1.504729986190796E-001;-1.042637750506401E-001;2.572430297732353E-003;1.036734203808010E-003;
2.423833333333334E+009;1.509905159473419E-001;-1.055512353777885E-001;2.503849798813462E-003;9.971186518669128E-004;
2.424000000000000E+009;1.514160335063934E-001;-1.068279594182968E-001;2.502008806914091E-003;9.773562196642160E-004;
2.424166666666667E+009;1.519809365272522E-001;-1.080512478947640E-001;2.525529358536005E-003;8.244287455454469E-004;
2.424333333333334E+009;1.523633152246475E-001;-1.092594936490059E-001;2.579679712653160E-003;8.853678009472787E-004;
2.424500000000000E+009;1.527591496706009E-001;-1.104732230305672E-001;2.594823716208339E-003;7.100322982296348E-004;
2.424666666666667E+009;1.533696353435516E-001;-1.112814173102379E-001;2.698631258681417E-003;6.026215269230306E-004;
2.424833333333334E+009;1.536721885204315E-001;-1.123235747218132E-001;2.727326005697250E-003;6.032555247657001E-004;
2.425000000000000E+009;1.541914939880371E-001;-1.132620498538017E-001;2.565582748502493E-003;4.087366687599570E-004;
2.425166666666667E+009;1.543570011854172E-001;-1.140287667512894E-001;2.653615782037377E-003;3.850274079013616E-004;
2.425333333333334E+009;1.547999083995819E-001;-1.147050634026527E-001;2.892678836360574E-003;2.820900117512792E-004;
2.425500000000000E+009;1.553198844194412E-001;-1.154690086841583E-001;2.661213278770447E-003;-2.593459612398874E-006;
2.425666666666667E+009;1.553245037794113E-001;-1.159839332103729E-001;2.967874985188246E-003;-2.665226929821074E-005;
2.425833333333334E+009;1.556733697652817E-001;-1.164808049798012E-001;2.668641740456224E-003;-1.314541150350124E-004;
2.426000000000000E+009;1.558286100625992E-001;-1.170212849974632E-001;2.687595319002867E-003;-2.087524044327438E-004;
2.426166666666667E+009;1.560606509447098E-001;-1.173557043075562E-001;2.722618868574500E-003;-3.285770653747022E-004;
2.426333333333334E+009;1.561031192541122E-001;-1.177636682987213E-001;2.704632002860308E-003;-3.441242733970285E-004;
2.426500000000000E+009;1.560938209295273E-001;-1.179749220609665E-001;2.689073793590069E-003;-5.034005152992904E-004;
2.426666666666667E+009;1.561220586299896E-001;-1.180552840232849E-001;2.604183275252581E-003;-5.298272008076310E-004;
2.426833333333334E+009;1.557630747556686E-001;-1.183400228619576E-001;2.481112256646156E-003;-6.697217468172312E-004;
2.427000000000000E+009;1.556073427200317E-001;-1.186371445655823E-001;2.522756811231375E-003;-7.192218909040093E-004;
2.427166666666667E+009;1.550532132387161E-001;-1.185575202107430E-001;2.447823993861675E-003;-6.997059681452811E-004;
2.427333333333334E+009;1.545093059539795E-001;-1.187369525432587E-001;2.510493388399482E-003;-1.056534820236266E-003;
2.427500000000000E+009;1.541592925786972E-001;-1.187937259674072E-001;2.404605271294713E-003;-1.099157612770796E-003;
2.427666666666667E+009;1.534878164529800E-001;-1.190675348043442E-001;2.492744475603104E-003;-9.991885162889957E-004;
2.427833333333334E+009;1.526151448488236E-001;-1.191291287541390E-001;2.265350660309196E-003;-1.133712707087398E-003;
