# Version 1.00
#
freq[Hz];re:Trc1_S11;im:Trc1_S11;re:Trc2_S21;im:Trc2_S21;
2.400000000000000E+009;1.582993268966675E-001;6.208665296435356E-002;-2.597342710942030E-003;-2.701173943933100E-004;
2.400166666666667E+009;1.582666188478470E-001;6.057465076446533E-002;-2.522555412724614E-003;-2.163966419175267E-004;
2.400333333333334E+009;1.581092774868012E-001;5.860354751348496E-002;-2.462503267452121E-003;-6.288878648774698E-005;
2.400500000000000E+009;1.583437472581863E-001;5.674396082758904E-002;-2.504996489733458E-003;-8.312838326673955E-005;
2.400666666666667E+009;1.580381542444229E-001;5.482529103755951E-002;-2.366301370784640E-003;1.698142295936123E-004;
2.400833333333334E+009;1.583785712718964E-001;5.289079993963242E-002;-2.350024878978729E-003;2.663651248440146E-004;
2.401000000000000E+009;1.583475321531296E-001;5.070628970861435E-002;-2.351419301703572E-003;3.318327653687447E-004;
2.401166666666667E+009;1.585942655801773E-001;4.871430993080139E-002;-2.323701512068510E-003;5.013892077840865E-004;
2.401333333333334E+009;1.588388383388519E-001;4.662241786718369E-002;-2.301119966432452E-003;6.288649747148156E-004;
2.401500000000000E+009;1.591459810733795E-001;4.465040937066078E-002;-2.176312962546945E-003;6.875465041957796E-004;
2.401666666666667E+009;1.594396382570267E-001;4.278409853577614E-002;-2.104950835928321E-003;8.455724455416203E-004;
2.401833333333334E+009;1.599563360214233E-001;4.056497663259506E-002;-2.161627635359764E-003;1.077651977539063E-003;
2.402000000000000E+009;1.603071838617325E-001;3.866096213459969E-002;-1.986292889341712E-003;1.044055563397706E-003;
2.402166666666667E+009;1.608555316925049E-001;3.658136352896690E-002;-1.937933848239481E-003;1.119755674153566E-003;
2.402333333333334E+009;1.613426357507706E-001;3.494977205991745E-002;-1.893969019874930E-003;1.338367350399494E-003;
2.402500000000000E+009;1.622943431138992E-001;3.296652808785439E-002;-1.738984836265445E-003;1.372418832033873E-003;
2.402666666666667E+009;1.627018749713898E-001;3.137093409895897E-002;-1.412030891515315E-003;1.561948913149536E-003;
2.402833333333334E+009;1.635176390409470E-001;2.966358885169029E-002;-1.372874830849469E-003;1.460767351090908E-003;
2.403000000000000E+009;1.643335670232773E-001;2.806583978235722E-002;-1.436454942449927E-003;1.429637777619064E-003;
2.403166666666667E+009;1.652018576860428E-001;2.651047706604004E-002;-1.233411952853203E-003;1.599160255864263E-003;
2.403333333333334E+009;1.659636050462723E-001;2.497602812945843E-002;-1.023282879032195E-003;1.422662404365838E-003;
2.403500000000000E+009;1.669401228427887E-001;2.360678836703301E-002;-8.876326028257608E-004;1.442068023607135E-003;
2.403666666666667E+009;1.677131950855255E-001;2.226126939058304E-002;-7.976528140716255E-004;1.432038261555135E-003;
2.403833333333334E+009;1.686879992485046E-001;2.094989456236363E-002;-7.061230135150254E-004;1.471953350119293E-003;
2.404000000000000E+009;1.696438789367676E-001;1.985268667340279E-002;-5.215180572122335E-004;1.412763842381537E-003;
2.404166666666667E+009;1.706534326076508E-001;1.868330314755440E-002;-4.286418552510440E-004;1.419930486008525E-003;
2.404333333333334E+009;1.715011149644852E-001;1.772762835025787E-002;-3.647865960374475E-004;1.298896037042141E-003;
2.404500000000000E+009;1.724005639553070E-001;1.656915806233883E-002;-1.546465791761875E-004;1.263336511328816E-003;
2.404666666666667E+009;1.733742952346802E-001;1.578133739531040E-002;-8.778354094829410E-005;1.197321224026382E-003;
2.404833333333334E+009;1.741961538791657E-001;1.505915261805058E-002;5.264746141619980E-005;1.221525482833386E-003;
2.405000000000000E+009;1.749524027109146E-001;1.420242991298437E-002;6.840794958407059E-005;1.044127275235951E-003;
2.405166666666667E+009;1.757169961929321E-001;1.368400640785694E-002;1.442716747988015E-004;9.284911211580038E-004;
2.405333333333334E+009;1.765628010034561E-001;1.283856481313705E-002;2.754059096332640E-004;8.892560144886375E-004;
2.405500000000000E+009;1.772049516439438E-001;1.240748539566994E-002;3.381745773367584E-004;8.196394774131477E-004;
2.405666666666667E+009;1.779030114412308E-001;1.212996337562800E-002;2.266703377244994E-004;6.748908781446517E-004;
2.405833333333334E+009;1.781581342220306E-001;1.169825624674559E-002;3.096262516919524E-004;6.144747021608055E-004;
2.406000000000000E+009;1.789446473121643E-001;1.107553858309984E-002;4.788645892404020E-004;5.590402870438993E-004;
2.406166666666667E+009;1.793152838945389E-001;1.103929802775383E-002;1.961513626156375E-004;3.546394291333854E-004;
2.406333333333334E+009;1.797390878200531E-001;1.053447183221579E-002;3.460349107626826E-004;3.061054740101099E-004;
2.406500000000000E+009;1.800015717744827E-001;1.019243150949478E-002;4.261495778337121E-004;3.106156655121595E-004;
2.406666666666667E+009;1.800400614738464E-001;9.912557899951935E-003;4.289522476028651E-004;1.851817796705291E-004;
2.406833333333334E+009;1.802251785993576E-001;9.481407701969147E-003;2.967417531181127E-004;2.270312688779086E-004;
2.407000000000000E+009;1.804452091455460E-001;9.079633280634880E-003;3.378900000825524E-004;-1.114348469855031E-005;
2.407166666666667E+009;1.804287135601044E-001;8.711359463632107E-003;9.376496745971963E-005;-1.356982684228569E-004;
2.407333333333334E+009;1.802331954240799E-001;8.185728453099728E-003;2.193163236370310E-004;-1.214609656017274E-004;
2.407500000000000E+009;1.801271885633469E-001;7.809021044522524E-003;2.397005009697750E-004;-1.384137140121311E-004;
2.407666666666667E+009;1.798740625381470E-001;7.416394073516130E-003;1.731446391204372E-004;-2.532001235522330E-004;
2.407833333333334E+009;1.795094758272171E-001;6.865565665066242E-003;1.287343620788306E-004;-2.313350851181895E-004;
2.408000000000000E+009;1.791310012340546E-001;6.049457937479019E-003;6.470068910857663E-005;-2.377455530222505E-004;
2.408166666666667E+009;1.786966025829315E-001;5.511463619768620E-003;8.657683792989701E-005;-3.295667411293834E-004;
2.408333333333334E+009;1.784407645463944E-001;4.879594780504704E-003;-1.005405138130300E-004;-3.682015230879188E-004;
2.408500000000000E+009;1.776806861162186E-001;3.797552548348904E-003;2.436482463963330E-005;-4.546838172245771E-004;
2.408666666666667E+009;1.770804226398468E-001;2.912903204560280E-003;-6.423298327717930E-005;-4.920386709272862E-004;
2.408833333333334E+009;1.764935404062271E-001;1.919834059663117E-003;-1.024478260660544E-004;-4.931883886456490E-004;
2.409000000000000E+009;1.757941842079163E-001;8.935510995797813E-004;-1.970994926523417E-004;-4.243357107043266E-004;
2.409166666666667E+009;1.753874719142914E-001;-1.921984512591735E-004;-1.054389576893300E-004;-5.469138268381357E-004;
2.409333333333334E+009;1.746230274438858E-001;-1.388581353239715E-003;-2.619820588734001E-004;-6.104789208620787E-004;
2.409500000000000E+009;1.740568578243256E-001;-2.888030605390668E-003;-2.825294504873455E-004;-7.921295473352075E-004;
2.409666666666667E+009;1.732678860425949E-001;-4.158610943704844E-003;-3.254777693655342E-004;-6.958232843317092E-004;
2.409833333333334E+009;1.725015491247177E-001;-5.581717938184738E-003;-4.205951408948749E-004;-6.876609986647964E-004;
2.410000000000000E+009;1.720319837331772E-001;-7.167339324951172E-003;-4.675085656344891E-004;-7.298779091797769E-004;
2.410166666666667E+009;1.713966280221939E-001;-8.676698431372643E-003;-4.818204033654183E-004;-6.700264639221132E-004;
2.410333333333334E+009;1.708129495382309E-001;-1.029122341424227E-002;-6.551214028149843E-004;-7.866548839956522E-004;
2.410500000000000E+009;1.701939851045609E-001;-1.191048696637154E-002;-6.582490168511868E-004;-7.981513626873493E-004;
2.410666666666667E+009;1.697945594787598E-001;-1.381100993603468E-002;-8.191060042008758E-004;-7.886641542427242E-004;
2.410833333333334E+009;1.692863255739212E-001;-1.555453985929489E-002;-7.938015041872859E-004;-8.200635202229023E-004;
2.411000000000000E+009;1.691169291734695E-001;-1.748274452984333E-002;-8.193774265237153E-004;-7.978588109835982E-004;
2.411166666666667E+009;1.686740815639496E-001;-1.933899335563183E-002;-9.308717562817037E-004;-6.963509367778897E-004;
2.411333333333334E+009;1.684992015361786E-001;-2.096373401582241E-002;-9.874301031231880E-004;-8.807767299003899E-004;
2.411500000000000E+009;1.685208231210709E-001;-2.319488115608692E-002;-1.140296924859285E-003;-7.489925483241677E-004;
2.411666666666667E+009;1.682840883731842E-001;-2.483513206243515E-002;-1.211770577356219E-003;-7.924751844257116E-004;
2.411833333333334E+009;1.681918948888779E-001;-2.666225098073483E-002;-1.318922615610063E-003;-6.101487088017166E-004;
2.412000000000000E+009;1.682381182909012E-001;-2.868092805147171E-002;-1.362287788651884E-003;-5.812680465169251E-004;
2.412166666666667E+009;1.684528291225433E-001;-3.053304925560951E-002;-1.655294559895992E-003;-6.243857787922025E-004;
2.412333333333334E+009;1.687520891427994E-001;-3.249503299593926E-002;-1.589472638443112E-003;-6.540604517795146E-004;
2.412500000000000E+009;1.687708795070648E-001;-3.431534394621849E-002;-1.848668907769024E-003;-4.957696073688567E-004;
2.412666666666667E+009;1.691682785749435E-001;-3.632438555359840E-002;-1.846646191552281E-003;-2.584523754194379E-004;
2.412833333333334E+009;1.694935560226440E-001;-3.810441493988037E-002;-2.032767515629530E-003;-2.978107950184494E-004;
2.413000000000000E+009;1.698572784662247E-001;-3.987075388431549E-002;-2.162094693630934E-003;-4.358705336926505E-005;
2.413166666666667E+009;1.702759563922882E-001;-4.142894595861435E-002;-2.101312624290586E-003;-2.269737306050956E-004;
2.413333333333334E+009;1.706841737031937E-001;-4.309466853737831E-002;-2.148672239854932E-003;1.507109263911843E-004;
2.413500000000000E+009;1.711083650588989E-001;-4.480027779936791E-002;-2.186028286814690E-003;1.587410515639931E-004;
2.413666666666667E+009;1.718453466892242E-001;-4.627975448966026E-002;-2.217001980170608E-003;2.462300762999803E-004;
2.413833333333334E+009;1.722711175680161E-001;-4.766716063022614E-002;-2.267622156068683E-003;3.753757628146559E-004;
2.414000000000000E+009;1.727597117424011E-001;-4.931389912962914E-002;-2.387261716648936E-003;7.039452902972698E-004;
2.414166666666667E+009;1.734080463647842E-001;-5.037818476557732E-002;-2.245042007416487E-003;7.208359893411398E-004;
2.414333333333334E+009;1.738646924495697E-001;-5.156927183270454E-002;-2.383879153057933E-003;8.016958599910140E-004;
2.414500000000000E+009;1.746539920568466E-001;-5.272101983428001E-002;-2.337221289053559E-003;9.969042148441076E-004;
2.414666666666667E+009;1.748804748058319E-001;-5.375849083065987E-002;-2.300778403878212E-003;1.043115276843309E-003;
2.414833333333334E+009;1.752460151910782E-001;-5.471009761095047E-002;-2.298566978424788E-003;1.319449162110686E-003;
2.415000000000000E+009;1.757559925317764E-001;-5.558466538786888E-002;-2.204662887379527E-003;1.460452913306654E-003;
2.415166666666667E+009;1.760056763887405E-001;-5.632632598280907E-002;-2.091011498123407E-003;1.482084393501282E-003;
2.415333333333334E+009;1.764830648899078E-001;-5.706616491079330E-002;-2.180697163566947E-003;1.541534787975252E-003;
2.415500000000000E+009;1.767648607492447E-001;-5.773354694247246E-002;-2.205594442784786E-003;1.711129676550627E-003;
2.415666666666667E+009;1.770381927490234E-001;-5.822939053177834E-002;-2.123997779563069E-003;1.838923548348248E-003;
2.415833333333334E+009;1.773043572902679E-001;-5.874124914407730E-002;-1.989122712984681E-003;1.917046844027937E-003;
2.416000000000000E+009;1.770506650209427E-001;-5.916775763034821E-002;-1.972851343452931E-003;2.070915652438998E-003;
2.416166666666667E+009;1.774106174707413E-001;-5.965642258524895E-002;-1.880029798485339E-003;2.211216138675809E-003;
2.416333333333334E+009;1.773473620414734E-001;-5.992205068469048E-002;-1.708350493572652E-003;2.308695809915662E-003;
2.416500000000000E+009;1.773183494806290E-001;-6.024827808141708E-002;-1.565701444633305E-003;2.413771580904722E-003;
2.416666666666667E+009;1.769501119852066E-001;-6.051455438137054E-002;-1.554174232296646E-003;2.591028111055493E-003;
2.416833333333334E+009;1.767592728137970E-001;-6.085876375436783E-002;-1.208223751746118E-003;2.740324474871159E-003;
2.417000000000000E+009;1.762333512306213E-001;-6.115693971514702E-002;-1.185554545372725E-003;2.616458106786013E-003;
2.417166666666667E+009;1.756382733583450E-001;-6.127726286649704E-002;-1.135966973379254E-003;2.689867047592998E-003;
2.417333333333334E+009;1.753312349319458E-001;-6.147881597280502E-002;-1.081759925000370E-003;3.019404597580433E-003;
2.417500000000000E+009;1.747269332408905E-001;-6.187552213668823E-002;-8.564724703319371E-004;2.884991699829698E-003;
2.417666666666667E+009;1.740506589412689E-001;-6.213507801294327E-002;-7.290060166269541E-004;3.048785962164402E-003;
2.417833333333334E+009;1.732839196920395E-001;-6.231638416647911E-002;-6.075663841329515E-004;3.007121151313186E-003;
2.418000000000000E+009;1.722873449325562E-001;-6.287787854671478E-002;-4.759191360790283E-004;3.088560886681080E-003;
2.418166666666667E+009;1.712913960218430E-001;-6.304976344108582E-002;-4.440313205122948E-004;3.083524294197559E-003;
2.418333333333334E+009;1.705614477396011E-001;-6.358905136585236E-002;-1.365916978102177E-004;3.174770157784224E-003;
2.418500000000000E+009;1.694232523441315E-001;-6.401512771844864E-002;-1.095439583878033E-004;3.235814627259970E-003;
2.418666666666667E+009;1.684213280677795E-001;-6.449826806783676E-002;1.154864730779082E-004;3.064864315092564E-003;
2.418833333333334E+009;1.672321856021881E-001;-6.505470722913742E-002;2.356087061343715E-004;3.164800815284252E-003;
2.419000000000000E+009;1.659095436334610E-001;-6.576174497604370E-002;4.453757428564131E-004;3.161161905154586E-003;
2.419166666666667E+009;1.648862212896347E-001;-6.635028868913651E-002;5.138957640156150E-004;3.036106005311012E-003;
2.419333333333334E+009;1.635906994342804E-001;-6.692375242710114E-002;6.894231773912907E-004;3.117463551461697E-003;
2.419500000000000E+009;1.624734401702881E-001;-6.797464191913605E-002;7.430496625602245E-004;3.115894505754113E-003;
2.419666666666667E+009;1.614147722721100E-001;-6.894557178020477E-002;9.522688924334943E-004;2.964415587484837E-003;
2.419833333333334E+009;1.602364927530289E-001;-6.985674798488617E-002;1.204720232635737E-003;2.988609950989485E-003;
2.420000000000000E+009;1.591453999280930E-001;-7.082767039537430E-002;1.283573918044567E-003;2.779140369966626E-003;
2.420166666666667E+009;1.579653769731522E-001;-7.200490683317184E-002;1.219066907651722E-003;2.751490566879511E-003;
2.420333333333334E+009;1.569381654262543E-001;-7.315115630626679E-002;1.554210786707699E-003;2.789794234558940E-003;
2.420500000000000E+009;1.561757624149323E-001;-7.445216923952103E-002;1.545341219753027E-003;2.789279446005821E-003;
2.420666666666667E+009;1.551763713359833E-001;-7.578861713409424E-002;1.671348349191248E-003;2.624750137329102E-003;
2.420833333333334E+009;1.542240381240845E-001;-7.714740186929703E-002;1.653186511248350E-003;2.553070196881890E-003;
2.421000000000000E+009;1.534619480371475E-001;-7.853189110755920E-002;1.883267657831311E-003;2.470319392159581E-003;
2.421166666666667E+009;1.526349782943726E-001;-8.019933849573135E-002;1.834268565289676E-003;2.334935590624809E-003;
2.421333333333334E+009;1.521641463041306E-001;-8.168759942054749E-002;2.061635022982955E-003;2.301290631294251E-003;
2.421500000000000E+009;1.513103246688843E-001;-8.324371278285980E-002;1.873828936368227E-003;2.129511442035437E-003;
2.421666666666667E+009;1.507882475852966E-001;-8.475386351346970E-002;2.124020364135504E-003;2.008951967582107E-003;
2.421833333333334E+009;1.504326462745667E-001;-8.657529950141907E-002;2.183563308790326E-003;2.034678589552641E-003;
2.422000000000000E+009;1.500403732061386E-001;-8.798392117023468E-002;2.120765158906579E-003;1.846221042796969E-003;
2.422166666666667E+009;1.496197432279587E-001;-8.998052775859833E-002;2.223457675427198E-003;1.806223997846246E-003;
2.422333333333334E+009;1.496265977621079E-001;-9.147085249423981E-002;2.289014635607600E-003;1.741668093018234E-003;
2.422500000000000E+009;1.494423747062683E-001;-9.300518035888672E-002;2.360164187848568E-003;1.602464239113033E-003;
2.422666666666667E+009;1.493809372186661E-001;-9.480377286672592E-002;2.138343174010515E-003;1.668388373218477E-003;
2.422833333333334E+009;1.494820564985275E-001;-9.659393876791000E-002;2.353433519601822E-003;1.484943088144064E-003;
2.423000000000000E+009;1.495773494243622E-001;-9.804857522249222E-002;2.266940660774708E-003;1.407062401995063E-003;
2.423166666666667E+009;1.498782932758331E-001;-9.969707578420639E-002;2.307708375155926E-003;1.379010151140392E-003;
2.423333333333334E+009;1.502222865819931E-001;-1.011127009987831E-001;2.415309660136700E-003;1.242568483576179E-003;
2.423500000000000E+009;1.503915041685104E-001;-1.026776656508446E-001;2.553355414420366E-003;1.154701109044254E-003;
2.423666666666667E+009;1.505543440580368E-001;-1.042417213320732E-001;2.554285340011120E-003;1.069183577783406E-003;
2.423833333333334E+009;1.511087864637375E-001;-1.055946871638298E-001;2.551879733800888E-003;1.022567041218281E-003;
2.424000000000000E+009;1.514151692390442E-001;-1.068396419286728E-001;2.602474531158805E-003;9.500966407358646E-004;
2.424166666666667E+009;1.517284959554672E-001;-1.082285642623901E-001;2.621850930154324E-003;8.813760941848159E-004;
2.424333333333334E+009;1.523377299308777E-001;-1.092356443405151E-001;2.551778918132186E-003;7.160381064750254E-004;
2.424500000000000E+009;1.527687162160873E-001;-1.104027703404427E-001;2.643966581672430E-003;7.129645091481507E-004;
2.424666666666667E+009;1.533633768558502E-001;-1.113644614815712E-001;2.727895742282271E-003;5.341335199773312E-004;
2.424833333333334E+009;1.536645740270615E-001;-1.123443245887756E-001;2.783464035019279E-003;3.946094657294452E-004;
2.425000000000000E+009;1.543291807174683E-001;-1.133412048220635E-001;2.721992786973715E-003;3.884526086039841E-004;
2.425166666666667E+009;1.544075757265091E-001;-1.140785813331604E-001;2.788052661344409E-003;4.623043641913682E-004;
2.425333333333334E+009;1.549056619405747E-001;-1.148195862770081E-001;2.935920609161258E-003;2.782407973427326E-004;
2.425500000000000E+009;1.552450805902481E-001;-1.155164316296578E-001;2.872271463274956E-003;1.326790952589363E-004;
2.425666666666667E+009;1.554505527019501E-001;-1.161011829972267E-001;2.855765633285046E-003;-9.425375901628286E-005;
2.425833333333334E+009;1.556537300348282E-001;-1.165878996253014E-001;2.824218012392521E-003;-1.884005177998915E-004;
2.426000000000000E+009;1.558224707841873E-001;-1.172105744481087E-001;2.860505133867264E-003;-3.890448715537787E-004;
2.426166666666667E+009;1.560272127389908E-001;-1.174957677721977E-001;2.893238561227918E-003;-3.562899946700782E-004;
2.426333333333334E+009;1.559979468584061E-001;-1.177447885274887E-001;2.826330717653036E-003;-3.734832280315459E-004;
2.426500000000000E+009;1.560898572206497E-001;-1.179487928748131E-001;2.750179963186383E-003;-6.808806792832911E-004;
2.426666666666667E+009;1.560022234916687E-001;-1.180769577622414E-001;2.729978878051043E-003;-7.789186784066260E-004;
2.426833333333334E+009;1.556681990623474E-001;-1.183789521455765E-001;2.689088694751263E-003;-7.727258489467204E-004;
2.427000000000000E+009;1.554458737373352E-001;-1.186933889985085E-001;2.554713049903512E-003;-8.672244730405510E-004;
2.427166666666667E+009;1.550610810518265E-001;-1.185744032263756E-001;2.620555227622390E-003;-9.414019295945764E-004;
2.427333333333334E+009;1.546047329902649E-001;-1.186895966529846E-001;2.567431656643748E-003;-9.226583060808480E-004;
2.427500000000000E+009;1.540638208389282E-001;-1.188950091600418E-001;2.474631182849407E-003;-1.070898375473917E-003;
2.427666666666667E+009;1.534150838851929E-001;-1.191240698099136E-001;2.437415067106485E-003;-1.120476284995675E-003;
2.427833333333334E+009;1.525343954563141E-001;-1.191696971654892E-001;2.390973735600710E-003;-1.168356626294553E-003;
