# Version 1.00
#
freq[Hz];re:Trc1_S11;im:Trc1_S11;re:Trc2_S21;im:Trc2_S21;
2.400000000000000E+009;1.582595407962799E-001;6.215109303593636E-002;-2.519530477002263E-003;-2.856295322999358E-004;
2.400166666666667E+009;1.582219153642654E-001;6.056542694568634E-002;-2.517583779990673E-003;-1.625883596716449E-004;
2.400333333333334E+009;1.581142693758011E-001;5.871445313096046E-002;-2.539232606068254E-003;4.541089583653957E-005;
2.400500000000000E+009;1.581561714410782E-001;5.674675107002258E-002;-2.442299388349056E-003;7.954144530231133E-005;
2.400666666666667E+009;1.581607460975647E-001;5.475064367055893E-002;-2.507633995264769E-003;1.806738291634247E-004;
2.400833333333334E+009;1.583611667156220E-001;5.294118449091911E-002;-2.408775035291910E-003;2.634281700011343E-004;
2.401000000000000E+009;1.584735512733460E-001;5.074671655893326E-002;-2.328125061467290E-003;3.314927744213492E-004;
2.401166666666667E+009;1.585388332605362E-001;4.879752174019814E-002;-2.375571522861719E-003;3.630077408161014E-004;
2.401333333333334E+009;1.587541997432709E-001;4.663540795445442E-002;-2.304575638845563E-003;5.156364641152322E-004;
2.401500000000000E+009;1.591032147407532E-001;4.440126195549965E-002;-2.238800050690770E-003;7.010331028141081E-004;
2.401666666666667E+009;1.594012230634689E-001;4.265625029802322E-002;-2.206986304372549E-003;7.068683626130223E-004;
2.401833333333334E+009;1.599293798208237E-001;4.062840342521668E-002;-2.123795915395021E-003;8.554039523005486E-004;
2.402000000000000E+009;1.601056903600693E-001;3.871078789234161E-002;-2.017561579123139E-003;1.036391477100551E-003;
2.402166666666667E+009;1.608502566814423E-001;3.654601424932480E-002;-1.890764920972288E-003;1.139728119596839E-003;
2.402333333333334E+009;1.614859849214554E-001;3.466452658176422E-002;-1.780309132300317E-003;1.204578438773751E-003;
2.402500000000000E+009;1.621650606393814E-001;3.308361023664475E-002;-1.654513878747821E-003;1.302016666159034E-003;
2.402666666666667E+009;1.627082228660584E-001;3.138355910778046E-002;-1.486950903199613E-003;1.410999801009893E-003;
2.402833333333334E+009;1.635022312402725E-001;2.965390682220459E-002;-1.309491693973541E-003;1.550243352539837E-003;
2.403000000000000E+009;1.643160432577133E-001;2.802122384309769E-002;-1.380513655021787E-003;1.551369437947869E-003;
2.403166666666667E+009;1.650515943765640E-001;2.648932673037052E-002;-1.202682848088443E-003;1.527360640466213E-003;
2.403333333333334E+009;1.659981608390808E-001;2.490857057273388E-002;-1.174229197204113E-003;1.536133233457804E-003;
2.403500000000000E+009;1.667063385248184E-001;2.352727390825748E-002;-7.756277918815613E-004;1.548685599118471E-003;
2.403666666666667E+009;1.678268611431122E-001;2.216656319797039E-002;-7.478146580979228E-004;1.666170661337674E-003;
2.403833333333334E+009;1.687115281820297E-001;2.104277350008488E-002;-7.034174050204456E-004;1.501867780461907E-003;
2.404000000000000E+009;1.698157489299774E-001;1.971323229372501E-002;-5.118169356137514E-004;1.389788463711739E-003;
2.404166666666667E+009;1.705845296382904E-001;1.865640841424465E-002;-2.801235241349787E-004;1.399703207425773E-003;
2.404333333333334E+009;1.714853793382645E-001;1.780119165778160E-002;-2.327090332983062E-004;1.394874416291714E-003;
2.404500000000000E+009;1.723157167434692E-001;1.676223799586296E-002;-1.494865718996152E-004;1.228622160851955E-003;
2.404666666666667E+009;1.731561869382858E-001;1.573628373444080E-002;-7.140168600017205E-005;1.082187751308084E-003;
2.404833333333334E+009;1.742388457059860E-001;1.503876596689224E-002;-7.370536332018673E-005;1.036447705700994E-003;
2.405000000000000E+009;1.750376820564270E-001;1.438891515135765E-002;1.481060753576458E-004;1.042840420268476E-003;
2.405166666666667E+009;1.757088154554367E-001;1.363782212138176E-002;1.252766523975879E-004;1.082488102838397E-003;
2.405333333333334E+009;1.765966415405273E-001;1.284209638834000E-002;1.367483346257359E-004;9.008296765387058E-004;
2.405500000000000E+009;1.770984828472138E-001;1.255467813462019E-002;2.699809265322983E-004;8.985251770354807E-004;
2.405666666666667E+009;1.777886301279068E-001;1.205482985824347E-002;4.321854794397950E-004;6.871061050333083E-004;
2.405833333333334E+009;1.784484684467316E-001;1.170772779732943E-002;4.020714841317385E-004;6.157469470053911E-004;
2.406000000000000E+009;1.789711415767670E-001;1.109778787940741E-002;3.465872432570905E-004;4.194235079921782E-004;
2.406166666666667E+009;1.792484670877457E-001;1.088521070778370E-002;4.739186842925847E-004;4.719831631518900E-004;
2.406333333333334E+009;1.798251271247864E-001;1.056596264243126E-002;4.561003588605672E-004;3.535550786182284E-004;
2.406500000000000E+009;1.801011115312576E-001;1.015896070748568E-002;4.359188314992935E-004;2.379242359893397E-004;
2.406666666666667E+009;1.801290065050125E-001;9.894196875393391E-003;3.127088421024382E-004;2.273965219501406E-004;
2.406833333333334E+009;1.802502125501633E-001;9.354948066174984E-003;3.097972366958857E-004;4.256803731550463E-005;
2.407000000000000E+009;1.804283708333969E-001;9.103924967348576E-003;4.398344026412815E-004;9.116404544329271E-005;
2.407166666666667E+009;1.804815530776978E-001;8.720754645764828E-003;4.243143193889409E-004;-1.242160215042532E-004;
2.407333333333334E+009;1.803578883409500E-001;8.256328292191029E-003;1.947322161868215E-004;-2.440919342916459E-004;
2.407500000000000E+009;1.801274120807648E-001;7.788457907736301E-003;2.982137084472925E-004;-6.488336657639593E-005;
2.407666666666667E+009;1.798704862594605E-001;7.290493696928024E-003;2.414290793240070E-004;-1.871735730674118E-004;
2.407833333333334E+009;1.795549541711807E-001;6.700217723846436E-003;1.486477267462760E-004;-3.783465363085270E-004;
2.408000000000000E+009;1.791599839925766E-001;6.104607135057449E-003;6.636577745666727E-005;-2.905392029788345E-004;
2.408166666666667E+009;1.788764744997025E-001;5.338919814676046E-003;1.097929634852335E-004;-4.608328454196453E-004;
2.408333333333334E+009;1.783720552921295E-001;4.632545635104179E-003;-4.392324262880720E-005;-4.469703999347985E-004;
2.408500000000000E+009;1.776975989341736E-001;3.833419643342495E-003;-4.188378443359397E-005;-4.225085140205920E-004;
2.408666666666667E+009;1.772791594266892E-001;2.839929424226284E-003;-1.681558751442935E-005;-2.974803792312741E-004;
2.408833333333334E+009;1.764279603958130E-001;2.034932840615511E-003;-5.642552787321620E-005;-5.112051148898900E-004;
2.409000000000000E+009;1.758377850055695E-001;9.021443547680974E-004;-1.637837412999943E-004;-6.418470293283463E-004;
2.409166666666667E+009;1.752943098545075E-001;-2.926706220023334E-004;-2.521893475204706E-004;-5.432955804280937E-004;
2.409333333333334E+009;1.746661067008972E-001;-1.494669821113348E-003;-2.126454492099583E-004;-4.964139661751688E-004;
2.409500000000000E+009;1.740363091230393E-001;-2.904318273067474E-003;-2.808191638905555E-004;-5.418917862698436E-004;
2.409666666666667E+009;1.732508987188339E-001;-4.110883455723524E-003;-2.826864947564900E-004;-6.030614604242146E-004;
2.409833333333334E+009;1.726418137550354E-001;-5.574191454797983E-003;-5.172389792278409E-004;-7.521899533458054E-004;
2.410000000000000E+009;1.720872968435288E-001;-6.996961776167154E-003;-4.232730716466904E-004;-6.774237263016403E-004;
2.410166666666667E+009;1.714468002319336E-001;-8.611313067376614E-003;-4.760340962093324E-004;-6.805218872614205E-004;
2.410333333333334E+009;1.708188951015472E-001;-1.022504642605782E-002;-5.845347186550498E-004;-6.699103978462517E-004;
2.410500000000000E+009;1.703904420137405E-001;-1.188800670206547E-002;-6.346913287416101E-004;-7.156125502660871E-004;
2.410666666666667E+009;1.698381155729294E-001;-1.388042885810137E-002;-7.312051020562649E-004;-8.410614682361484E-004;
2.410833333333334E+009;1.694926917552948E-001;-1.553197391331196E-002;-8.776393369771540E-004;-7.321199518628418E-004;
2.411000000000000E+009;1.690379828214645E-001;-1.735948584973812E-002;-9.990488179028034E-004;-8.730646222829819E-004;
2.411166666666667E+009;1.686812192201614E-001;-1.926583796739578E-002;-9.760955581441522E-004;-7.600538665428758E-004;
2.411333333333334E+009;1.686475574970245E-001;-2.098061703145504E-002;-1.195374527014792E-003;-7.813724223524332E-004;
2.411500000000000E+009;1.682562232017517E-001;-2.314847148954868E-002;-1.171068404801190E-003;-9.495941922068596E-004;
2.411666666666667E+009;1.684158742427826E-001;-2.492474950850010E-002;-1.290546962991357E-003;-8.586984477005899E-004;
2.411833333333334E+009;1.683124750852585E-001;-2.672306261956692E-002;-1.345301629044116E-003;-8.544325828552246E-004;
2.412000000000000E+009;1.684741228818893E-001;-2.862310409545898E-002;-1.503479317761958E-003;-7.376028224825859E-004;
2.412166666666667E+009;1.685059815645218E-001;-3.068700432777405E-002;-1.665082760155201E-003;-7.281028665602207E-004;
2.412333333333334E+009;1.687480509281158E-001;-3.249688073992729E-002;-1.829153276048601E-003;-5.059739341959357E-004;
2.412500000000000E+009;1.686655730009079E-001;-3.430163115262985E-002;-1.800001133233309E-003;-5.120590212754905E-004;
2.412666666666667E+009;1.692086011171341E-001;-3.625569120049477E-002;-1.762229367159307E-003;-2.338051854167134E-004;
2.412833333333334E+009;1.694436073303223E-001;-3.800687193870544E-002;-1.898393034934998E-003;-4.019487241748720E-004;
2.413000000000000E+009;1.698873639106751E-001;-3.974605724215508E-002;-1.950485631823540E-003;-1.746023044688627E-004;
2.413166666666667E+009;1.701772212982178E-001;-4.146219044923782E-002;-2.198265865445137E-003;7.519615792261902E-006;
2.413333333333334E+009;1.707210242748261E-001;-4.305591434240341E-002;-2.251473488286138E-003;1.477307232562453E-004;
2.413500000000000E+009;1.711446493864059E-001;-4.472188651561737E-002;-2.232623752206564E-003;1.642283168621361E-004;
2.413666666666667E+009;1.717020422220230E-001;-4.640553891658783E-002;-2.228179015219212E-003;2.649954985827208E-004;
2.413833333333334E+009;1.723611801862717E-001;-4.775834083557129E-002;-2.315284451469779E-003;5.797343910671771E-004;
2.414000000000000E+009;1.725844144821167E-001;-4.906828701496124E-002;-2.368191257119179E-003;6.119055324234068E-004;
2.414166666666667E+009;1.733536273241043E-001;-5.033286660909653E-002;-2.418776275590062E-003;8.127489127218723E-004;
2.414333333333334E+009;1.740082055330277E-001;-5.167741328477860E-002;-2.362982137128711E-003;8.715603617019951E-004;
2.414500000000000E+009;1.744339019060135E-001;-5.258825793862343E-002;-2.338948193937540E-003;7.777840946801007E-004;
2.414666666666667E+009;1.748212873935700E-001;-5.374703183770180E-002;-2.354617696255446E-003;1.182319363579154E-003;
2.414833333333334E+009;1.752479672431946E-001;-5.480265617370606E-002;-2.297923201695085E-003;1.253707916475833E-003;
2.415000000000000E+009;1.757113337516785E-001;-5.556511506438255E-002;-2.235221909359098E-003;1.508041284978390E-003;
2.415166666666667E+009;1.761236637830734E-001;-5.642083659768105E-002;-2.230848884209991E-003;1.595466746948659E-003;
2.415333333333334E+009;1.765334606170654E-001;-5.709888413548470E-002;-2.161758020520210E-003;1.611849758774042E-003;
2.415500000000000E+009;1.768311113119125E-001;-5.768905207514763E-002;-2.118920441716909E-003;1.746978494338691E-003;
2.415666666666667E+009;1.769437044858933E-001;-5.807445570826531E-002;-2.053946489468217E-003;1.805712468922138E-003;
2.415833333333334E+009;1.773065179586411E-001;-5.862547829747200E-002;-1.976595725864172E-003;1.949557452462614E-003;
2.416000000000000E+009;1.772087067365646E-001;-5.911484360694885E-002;-1.816312898881733E-003;2.077752025797963E-003;
2.416166666666667E+009;1.774227470159531E-001;-5.954774096608162E-002;-1.689432072453201E-003;2.254324033856392E-003;
2.416333333333334E+009;1.774285882711411E-001;-5.988534167408943E-002;-1.678698230534792E-003;2.278132829815149E-003;
2.416500000000000E+009;1.772216707468033E-001;-6.019686907529831E-002;-1.639817375689745E-003;2.490959130227566E-003;
2.416666666666667E+009;1.768860965967178E-001;-6.040803343057632E-002;-1.537511823698878E-003;2.564117079600692E-003;
2.416833333333334E+009;1.767771691083908E-001;-6.092037260532379E-002;-1.424638088792563E-003;2.730313222855330E-003;
2.417000000000000E+009;1.761267483234406E-001;-6.117679178714752E-002;-1.267916406504810E-003;2.829222474247217E-003;
2.417166666666667E+009;1.758022904396057E-001;-6.127773597836494E-002;-1.269631320610642E-003;2.761853625997901E-003;
2.417333333333334E+009;1.752746403217316E-001;-6.142752245068550E-002;-1.120692351832986E-003;2.775982022285461E-003;
2.417500000000000E+009;1.746684908866882E-001;-6.186820939183235E-002;-9.073868859559298E-004;2.952342387288809E-003;
2.417666666666667E+009;1.739512979984283E-001;-6.206059828400612E-002;-7.682328578084707E-004;2.815492218360305E-003;
2.417833333333334E+009;1.732293814420700E-001;-6.232052668929100E-002;-6.581246852874756E-004;3.053162945434451E-003;
2.418000000000000E+009;1.721976697444916E-001;-6.278289854526520E-002;-4.329624644014984E-004;2.984434133395553E-003;
2.418166666666667E+009;1.714164465665817E-001;-6.300512701272965E-002;-5.321527714841068E-004;3.188248956575990E-003;
2.418333333333334E+009;1.704682558774948E-001;-6.352248042821884E-002;-1.512428134446964E-004;3.042450407519937E-003;
2.418500000000000E+009;1.694649010896683E-001;-6.392071396112442E-002;6.384940934367478E-005;3.164348658174276E-003;
2.418666666666667E+009;1.684579253196716E-001;-6.448495388031006E-002;5.744164081988856E-005;3.264734987169504E-003;
2.418833333333334E+009;1.671811938285828E-001;-6.504956632852554E-002;2.048050664598122E-004;3.165879985317588E-003;
2.419000000000000E+009;1.660623997449875E-001;-6.560524553060532E-002;3.854345122817904E-004;3.081562230363488E-003;
2.419166666666667E+009;1.648891121149063E-001;-6.634635478258133E-002;5.322166252881289E-004;3.172547323629260E-003;
2.419333333333334E+009;1.636044234037399E-001;-6.703976541757584E-002;6.072347750887275E-004;3.155089449137449E-003;
2.419500000000000E+009;1.624928265810013E-001;-6.794429570436478E-002;7.672589272260666E-004;3.092246595770121E-003;
2.419666666666667E+009;1.613326221704483E-001;-6.896736472845078E-002;9.761587134562433E-004;3.039074363186956E-003;
2.419833333333334E+009;1.600453555583954E-001;-6.980481743812561E-002;9.710971498861909E-004;2.971174661070108E-003;
2.420000000000000E+009;1.591937988996506E-001;-7.081422209739685E-002;1.229896093718708E-003;2.862537046894431E-003;
2.420166666666667E+009;1.580422818660736E-001;-7.191795855760574E-002;1.275251503102481E-003;2.788804937154055E-003;
2.420333333333334E+009;1.570414453744888E-001;-7.339088618755341E-002;1.398948952555656E-003;2.826932352036238E-003;
2.420500000000000E+009;1.559982746839523E-001;-7.431507110595703E-002;1.499140635132790E-003;2.651085844263434E-003;
2.420666666666667E+009;1.551558226346970E-001;-7.567813992500305E-002;1.615212531760335E-003;2.723543671891093E-003;
2.420833333333334E+009;1.540688425302506E-001;-7.704175263643265E-002;1.746799680404365E-003;2.601674757897854E-003;
2.421000000000000E+009;1.532155275344849E-001;-7.858162373304367E-002;1.705752452835441E-003;2.499940572306514E-003;
2.421166666666667E+009;1.526013910770416E-001;-7.998800277709961E-002;1.868017134256661E-003;2.322409767657518E-003;
2.421333333333334E+009;1.520481258630753E-001;-8.154355734586716E-002;1.875298097729683E-003;2.182586817070842E-003;
2.421500000000000E+009;1.513031125068665E-001;-8.310362696647644E-002;1.999603351578116E-003;2.281611552461982E-003;
2.421666666666667E+009;1.508857607841492E-001;-8.477668464183807E-002;2.051158575341106E-003;2.156027359887958E-003;
2.421833333333334E+009;1.504262685775757E-001;-8.649066835641861E-002;1.922554220072925E-003;1.990420045331121E-003;
2.422000000000000E+009;1.502177268266678E-001;-8.810714632272720E-002;2.156247617676854E-003;1.954803243279457E-003;
2.422166666666667E+009;1.498518884181976E-001;-8.998826891183853E-002;2.255556872114539E-003;1.737951068207622E-003;
2.422333333333334E+009;1.497825980186462E-001;-9.144076704978943E-002;2.242690650746226E-003;1.691825222223997E-003;
2.422500000000000E+009;1.495175361633301E-001;-9.299688786268234E-002;2.259324071928859E-003;1.666377531364560E-003;
2.422666666666667E+009;1.493643671274185E-001;-9.477124363183975E-002;2.321441192179918E-003;1.618385780602694E-003;
2.422833333333334E+009;1.496307998895645E-001;-9.648235887289047E-002;2.272661309689283E-003;1.517085707746446E-003;
2.423000000000000E+009;1.496736556291580E-001;-9.803014993667603E-002;2.404473489150405E-003;1.467721536755562E-003;
2.423166666666667E+009;1.498897373676300E-001;-9.981749206781387E-002;2.375236246734858E-003;1.470673596486449E-003;
2.423333333333334E+009;1.502856612205505E-001;-1.011156067252159E-001;2.466163365170360E-003;1.284910948015750E-003;
2.423500000000000E+009;1.504945904016495E-001;-1.027252897620201E-001;2.499395748600364E-003;1.151194330304861E-003;
2.423666666666667E+009;1.504826396703720E-001;-1.042601987719536E-001;2.629380440339446E-003;1.195580582134426E-003;
2.423833333333334E+009;1.512572914361954E-001;-1.057096049189568E-001;2.681343583390117E-003;1.041641808114946E-003;
2.424000000000000E+009;1.514680981636047E-001;-1.069392338395119E-001;2.697706222534180E-003;9.784341091290116E-004;
2.424166666666667E+009;1.517778038978577E-001;-1.082790940999985E-001;2.622694708406925E-003;8.385588880628347E-004;
2.424333333333334E+009;1.523598581552506E-001;-1.093615666031838E-001;2.644850639626384E-003;7.444251677952707E-004;
2.424500000000000E+009;1.528479903936386E-001;-1.105616092681885E-001;2.719881944358349E-003;5.882986006326973E-004;
2.424666666666667E+009;1.534993201494217E-001;-1.113432571291924E-001;2.778911497443914E-003;7.191396434791386E-004;
2.424833333333334E+009;1.537012308835983E-001;-1.124271526932716E-001;2.674343762919307E-003;5.795657052658498E-004;
2.425000000000000E+009;1.542067825794220E-001;-1.132222637534142E-001;2.718857955187559E-003;4.882437060587108E-004;
2.425166666666667E+009;1.543357074260712E-001;-1.140527054667473E-001;2.664499916136265E-003;3.388792392797768E-004;
2.425333333333334E+009;1.548101603984833E-001;-1.147663891315460E-001;2.772356616333127E-003;4.484538803808391E-004;
2.425500000000000E+009;1.552383899688721E-001;-1.154244840145111E-001;2.951643196865916E-003;8.043937123147771E-005;
2.425666666666667E+009;1.554293334484100E-001;-1.160433590412140E-001;2.754965797066689E-003;6.948473310330883E-005;
2.425833333333334E+009;1.556902825832367E-001;-1.165326759219170E-001;2.776889596134424E-003;-3.280257806181908E-005;
2.426000000000000E+009;1.558155119419098E-001;-1.170928105711937E-001;2.799401292577386E-003;-5.521626735571772E-005;
2.426166666666667E+009;1.560793071985245E-001;-1.174952685832977E-001;2.806059317663312E-003;-2.788591373246163E-004;
2.426333333333334E+009;1.560394167900085E-001;-1.178004667162895E-001;2.820231253281236E-003;-5.270905676297844E-004;
2.426500000000000E+009;1.559859067201614E-001;-1.180325821042061E-001;2.711973385885358E-003;-5.856652860529721E-004;
2.426666666666667E+009;1.561286300420761E-001;-1.181097626686096E-001;2.695644972845912E-003;-6.262385868467391E-004;
2.426833333333334E+009;1.557842195034027E-001;-1.184606105089188E-001;2.752482891082764E-003;-6.671037990599871E-004;
2.427000000000000E+009;1.555021256208420E-001;-1.186409592628479E-001;2.591843949630857E-003;-6.106274668127298E-004;
2.427166666666667E+009;1.550509184598923E-001;-1.187009066343308E-001;2.674046671018004E-003;-9.543391061015427E-004;
2.427333333333334E+009;1.545621603727341E-001;-1.188642606139183E-001;2.502684947103262E-003;-1.015267102047801E-003;
2.427500000000000E+009;1.541422009468079E-001;-1.189109086990356E-001;2.579814754426479E-003;-1.094263396225870E-003;
2.427666666666667E+009;1.534425318241119E-001;-1.191583722829819E-001;2.441821154206991E-003;-9.045094484463334E-004;
2.427833333333334E+009;1.526422500610352E-001;-1.191956549882889E-001;2.342869993299246E-003;-1.216302858665586E-003;
