# Version 1.00
#
freq[Hz];re:Trc1_S11;im:Trc1_S11;re:Trc2_S21;im:Trc2_S21;
2.400000000000000E+009;1.563202440738678E-001;6.035763770341873E-002;1.688917545834556E-004;1.083778101019561E-003;
2.400166666666667E+009;1.565345674753189E-001;5.862080305814743E-002;-4.469160194275901E-005;1.114574144594371E-003;
2.400333333333334E+009;1.564972549676895E-001;5.648799613118172E-002;1.493496529292315E-004;1.031333347782493E-003;
2.400500000000000E+009;1.567516922950745E-001;5.438472330570221E-002;1.091755984816700E-004;9.290270972996950E-004;
2.400666666666667E+009;1.568070501089096E-001;5.225742608308792E-002;-2.488189420546405E-005;8.942796848714352E-004;
2.400833333333334E+009;1.571967601776123E-001;5.042448267340660E-002;1.262966688955203E-004;8.799228817224503E-004;
2.401000000000000E+009;1.575610041618347E-001;4.810887202620506E-002;1.154480924014933E-004;9.386346209794283E-004;
2.401166666666667E+009;1.580131798982620E-001;4.608448222279549E-002;2.304112858837470E-004;9.287186549045146E-004;
2.401333333333334E+009;1.583786457777023E-001;4.404492676258087E-002;1.102131136576645E-004;7.846254738979042E-004;
2.401500000000000E+009;1.591464877128601E-001;4.199417307972908E-002;3.709554584929720E-005;7.449557306244969E-004;
2.401666666666667E+009;1.596616059541702E-001;4.012181609869003E-002;2.255627623526380E-004;6.272381287999451E-004;
2.401833333333334E+009;1.601010859012604E-001;3.821687772870064E-002;1.394634018652141E-004;7.412142585963011E-004;
2.402000000000000E+009;1.606101989746094E-001;3.619244322180748E-002;5.820300793857314E-005;6.597019382752478E-004;
2.402166666666667E+009;1.615138351917267E-001;3.445057570934296E-002;-1.189955073641613E-004;5.681330221705139E-004;
2.402333333333334E+009;1.621008515357971E-001;3.276390582323074E-002;-1.293496025027707E-004;5.631265230476856E-004;
2.402500000000000E+009;1.631004363298416E-001;3.115021623671055E-002;-5.489972863870207E-006;6.582610076293349E-004;
2.402666666666667E+009;1.638623178005219E-001;2.945731952786446E-002;-5.712406345992349E-005;8.037002407945693E-004;
2.402833333333334E+009;1.646904051303864E-001;2.808648720383644E-002;-2.587504859548062E-004;6.296567735262215E-004;
2.403000000000000E+009;1.656134426593781E-001;2.655026316642761E-002;-1.556397473905236E-004;8.795380708761513E-004;
2.403166666666667E+009;1.666862666606903E-001;2.525544166564941E-002;-1.903168304124847E-004;6.250615697354078E-004;
2.403333333333334E+009;1.675089895725250E-001;2.416267991065979E-002;-3.193904412910342E-004;8.418044308200479E-004;
2.403500000000000E+009;1.685086041688919E-001;2.277455665171146E-002;-1.742408785503358E-004;9.441503789275885E-004;
2.403666666666667E+009;1.694236695766449E-001;2.164325118064880E-002;-2.058637328445911E-004;1.010117004625499E-003;
2.403833333333334E+009;1.705900132656097E-001;2.059728279709816E-002;-4.263298760633916E-004;9.347537998110056E-004;
2.404000000000000E+009;1.714209616184235E-001;1.982464641332626E-002;-2.580551954451948E-004;1.019656774587929E-003;
2.404166666666667E+009;1.722692400217056E-001;1.901388168334961E-002;-3.841256257146597E-004;1.206567860208452E-003;
2.404333333333334E+009;1.733103394508362E-001;1.807086169719696E-002;-3.716598148457706E-004;1.173351076431572E-003;
2.404500000000000E+009;1.739348024129868E-001;1.726374775171280E-002;-3.536091244313866E-004;1.216643955558538E-003;
2.404666666666667E+009;1.748032122850418E-001;1.672453992068768E-002;-2.630589006002992E-004;1.215964788571000E-003;
2.404833333333334E+009;1.756723672151566E-001;1.625225134193897E-002;-2.755367313511670E-004;1.382219372317195E-003;
2.405000000000000E+009;1.764011681079865E-001;1.558682881295681E-002;-2.232041879324243E-004;1.429735915735364E-003;
2.405166666666667E+009;1.771612167358398E-001;1.529093924909830E-002;-2.064123400487006E-004;1.365477917715907E-003;
2.405333333333334E+009;1.776556819677353E-001;1.457574497908354E-002;-2.804487303365022E-005;1.680227811448276E-003;
2.405500000000000E+009;1.781501173973084E-001;1.454617828130722E-002;-2.193830005126074E-004;1.529827248305082E-003;
2.405666666666667E+009;1.786495745182037E-001;1.430519204586744E-002;-7.469655975000933E-005;1.607622485607863E-003;
2.405833333333334E+009;1.789460778236389E-001;1.398305501788855E-002;9.420506103197113E-005;1.665208954364061E-003;
2.406000000000000E+009;1.793103814125061E-001;1.367323473095894E-002;1.364849740639329E-004;1.665695453993976E-003;
2.406166666666667E+009;1.794307082891464E-001;1.328260730952025E-002;1.222297141794115E-004;1.777223660610616E-003;
2.406333333333334E+009;1.797476261854172E-001;1.305204536765814E-002;3.027359489351511E-004;1.810015528462827E-003;
2.406500000000000E+009;1.797636449337006E-001;1.273210719227791E-002;3.422918380238116E-004;1.786761917173863E-003;
2.406666666666667E+009;1.796509176492691E-001;1.253591384738684E-002;5.647662910632789E-004;1.844267826527357E-003;
2.406833333333334E+009;1.796391606330872E-001;1.204832922667265E-002;5.519074038602412E-004;1.900638220831752E-003;
2.407000000000000E+009;1.796504110097885E-001;1.176082529127598E-002;6.113239796832204E-004;1.731039490550757E-003;
2.407166666666667E+009;1.794467270374298E-001;1.134343817830086E-002;7.286930340342224E-004;1.892901491373777E-003;
2.407333333333334E+009;1.789405345916748E-001;1.073308568447828E-002;8.921452099457383E-004;1.637164736166596E-003;
2.407500000000000E+009;1.785596162080765E-001;1.026664394885302E-002;8.222577744163573E-004;1.653163228183985E-003;
2.407666666666667E+009;1.783218681812286E-001;9.772389195859432E-003;8.488743915222585E-004;1.655105967074633E-003;
2.407833333333334E+009;1.777334809303284E-001;8.904722519218922E-003;1.102708047255874E-003;1.786238630302250E-003;
2.408000000000000E+009;1.771095097064972E-001;8.067629300057888E-003;1.054913853295147E-003;1.584510318934917E-003;
2.408166666666667E+009;1.766055822372437E-001;7.491340395063162E-003;9.397104731760919E-004;1.414972590282559E-003;
2.408333333333334E+009;1.761274486780167E-001;6.401182152330875E-003;1.359361689537764E-003;1.553244073875248E-003;
2.408500000000000E+009;1.755063831806183E-001;5.243148189038038E-003;1.255814102478325E-003;1.498366356827319E-003;
2.408666666666667E+009;1.748128980398178E-001;4.155719652771950E-003;1.245551509782672E-003;1.436231774277985E-003;
2.408833333333334E+009;1.741142123937607E-001;3.018009709194303E-003;1.290251035243273E-003;1.334796193987131E-003;
2.409000000000000E+009;1.734700202941895E-001;1.847933279350400E-003;1.321844290941954E-003;1.404045266099274E-003;
2.409166666666667E+009;1.726893335580826E-001;3.562394995242357E-004;1.268513966351748E-003;1.258942764252424E-003;
2.409333333333334E+009;1.722072064876556E-001;-1.230885507538915E-003;1.486557070165873E-003;1.258526695892215E-003;
2.409500000000000E+009;1.714329719543457E-001;-2.726732054725289E-003;1.333774183876813E-003;1.243411330506206E-003;
2.409666666666667E+009;1.707887053489685E-001;-4.356025718152523E-003;1.465093926526606E-003;1.221249229274690E-003;
2.409833333333334E+009;1.701609790325165E-001;-5.746930371969938E-003;1.449072384275496E-003;1.248737331479788E-003;
2.410000000000000E+009;1.695361286401749E-001;-7.671267259865999E-003;1.564603531733155E-003;1.089898054488003E-003;
2.410166666666667E+009;1.692339181900024E-001;-9.328474290668964E-003;1.343754353001714E-003;1.041283365339041E-003;
2.410333333333334E+009;1.687811017036438E-001;-1.118372101336718E-002;1.419912325218320E-003;1.069505931809545E-003;
2.410500000000000E+009;1.683285683393478E-001;-1.305692177265883E-002;1.366100856103003E-003;1.005836180411279E-003;
2.410666666666667E+009;1.677934676408768E-001;-1.508930791169405E-002;1.379548106342554E-003;1.166147878393531E-003;
2.410833333333334E+009;1.677770316600800E-001;-1.678290963172913E-002;1.514363335445523E-003;1.226218999363482E-003;
2.411000000000000E+009;1.676052063703537E-001;-1.881215907633305E-002;1.446972019039094E-003;9.394888184033334E-004;
2.411166666666667E+009;1.674051284790039E-001;-2.066533267498016E-002;1.413808669894934E-003;1.021911506541073E-003;
2.411333333333334E+009;1.675459891557694E-001;-2.276439405977726E-002;1.458530663512647E-003;1.245170598849654E-003;
2.411500000000000E+009;1.672873049974442E-001;-2.474065124988556E-002;1.576408976688981E-003;9.890811052173376E-004;
2.411666666666667E+009;1.675168126821518E-001;-2.660235203802586E-002;1.545883365906775E-003;9.975966531783342E-004;
2.411833333333334E+009;1.676740944385529E-001;-2.851955406367779E-002;1.731448341161013E-003;1.037188922055066E-003;
2.412000000000000E+009;1.680338084697723E-001;-3.038900345563889E-002;1.651418162509799E-003;9.550771792419255E-004;
2.412166666666667E+009;1.683465093374252E-001;-3.251861035823822E-002;1.593992346897721E-003;9.818858234211803E-004;
2.412333333333334E+009;1.690375953912735E-001;-3.415554389357567E-002;1.665520016103983E-003;9.642829536460340E-004;
2.412500000000000E+009;1.692557483911514E-001;-3.605450317263603E-002;1.827146857976914E-003;1.017785747535527E-003;
2.412666666666667E+009;1.699544638395309E-001;-3.791491314768791E-002;1.890703686513007E-003;1.019814051687717E-003;
2.412833333333334E+009;1.702345311641693E-001;-3.952462971210480E-002;2.028259215876460E-003;1.077649649232626E-003;
2.413000000000000E+009;1.709848493337631E-001;-4.118958115577698E-002;2.049501286819577E-003;1.104888389818370E-003;
2.413166666666667E+009;1.714452654123306E-001;-4.283152520656586E-002;2.143608173355460E-003;8.564331801608205E-004;
2.413333333333334E+009;1.718312352895737E-001;-4.424607753753662E-002;2.380019519478083E-003;1.031791442073882E-003;
2.413500000000000E+009;1.727008074522018E-001;-4.582161828875542E-002;2.397063886746764E-003;9.440509020350874E-004;
2.413666666666667E+009;1.734255254268646E-001;-4.709109291434288E-002;2.542587695643306E-003;8.864217670634389E-004;
2.413833333333334E+009;1.738472282886505E-001;-4.825638607144356E-002;2.578309737145901E-003;8.051233016885817E-004;
2.414000000000000E+009;1.743636131286621E-001;-4.963029921054840E-002;2.695904579013586E-003;7.182236877270043E-004;
2.414166666666667E+009;1.750997900962830E-001;-5.066857859492302E-002;2.811637939885259E-003;7.235638913698494E-004;
2.414333333333334E+009;1.756675988435745E-001;-5.171763151884079E-002;2.955125411972404E-003;5.530255730263889E-004;
2.414500000000000E+009;1.763810664415360E-001;-5.261171981692314E-002;3.089736215770245E-003;2.979567216243595E-004;
2.414666666666667E+009;1.767816692590714E-001;-5.334994941949844E-002;3.031089901924133E-003;2.250306715723127E-004;
2.414833333333334E+009;1.772973686456680E-001;-5.421920120716095E-002;3.159769810736179E-003;1.321091694990173E-004;
2.415000000000000E+009;1.776261329650879E-001;-5.477891489863396E-002;3.180048894137144E-003;-8.082086424110457E-005;
2.415166666666667E+009;1.779248267412186E-001;-5.541689693927765E-002;3.405955852940679E-003;-1.375608408125117E-004;
2.415333333333334E+009;1.782368272542954E-001;-5.604702979326248E-002;3.160389838740230E-003;-4.343594773672521E-004;
2.415500000000000E+009;1.784525960683823E-001;-5.645613744854927E-002;3.268156899139285E-003;-5.167541094124317E-004;
2.415666666666667E+009;1.786199510097504E-001;-5.681710317730904E-002;3.230581758543849E-003;-6.537767476402223E-004;
2.415833333333334E+009;1.786414980888367E-001;-5.725477263331413E-002;3.491519251838327E-003;-8.758332696743310E-004;
2.416000000000000E+009;1.785181164741516E-001;-5.746617168188095E-002;3.312816377729178E-003;-9.926353814080358E-004;
2.416166666666667E+009;1.786171197891235E-001;-5.774729326367378E-002;3.198945894837380E-003;-1.107788411900401E-003;
2.416333333333334E+009;1.783031225204468E-001;-5.794395878911018E-002;3.164664842188358E-003;-1.242191763594747E-003;
2.416500000000000E+009;1.779971122741699E-001;-5.828193947672844E-002;3.200625535100699E-003;-1.569964224472642E-003;
2.416666666666667E+009;1.775388717651367E-001;-5.843919515609741E-002;3.198771737515926E-003;-1.698671607300639E-003;
2.416833333333334E+009;1.771249771118164E-001;-5.872680246829987E-002;3.036493901163340E-003;-1.902576885186136E-003;
2.417000000000000E+009;1.763950288295746E-001;-5.891034752130508E-002;2.991767134517431E-003;-1.962965819984675E-003;
2.417166666666667E+009;1.758221983909607E-001;-5.899041891098023E-002;2.817721804603934E-003;-1.946264295838773E-003;
2.417333333333334E+009;1.751284301280975E-001;-5.924537777900696E-002;2.705905819311738E-003;-2.035789424553514E-003;
2.417500000000000E+009;1.742345839738846E-001;-5.960737913846970E-002;2.702195663005114E-003;-2.234026789665222E-003;
2.417666666666667E+009;1.734357774257660E-001;-5.987299233675003E-002;2.611808944493532E-003;-2.231013029813767E-003;
2.417833333333334E+009;1.724043637514114E-001;-6.023686751723290E-002;2.370487200096250E-003;-2.435124013572931E-003;
2.418000000000000E+009;1.713694930076599E-001;-6.075059995055199E-002;2.296669175848365E-003;-2.578738611191511E-003;
2.418166666666667E+009;1.701784133911133E-001;-6.106135994195938E-002;2.324023051187396E-003;-2.712732879444957E-003;
2.418333333333334E+009;1.694203317165375E-001;-6.160145252943039E-002;2.081087091937661E-003;-2.805078169330955E-003;
2.418500000000000E+009;1.680813580751419E-001;-6.217744946479797E-002;2.094785682857037E-003;-2.796296030282974E-003;
2.418666666666667E+009;1.668751239776611E-001;-6.278717517852783E-002;1.930453930981457E-003;-2.844164147973061E-003;
2.418833333333334E+009;1.654890924692154E-001;-6.358447670936585E-002;1.775767304934561E-003;-2.931201132014394E-003;
2.419000000000000E+009;1.641993224620819E-001;-6.427046656608582E-002;1.716793980449438E-003;-2.943540923297405E-003;
2.419166666666667E+009;1.630114912986755E-001;-6.518424302339554E-002;1.575111760757864E-003;-2.940872218459845E-003;
2.419333333333334E+009;1.616214811801910E-001;-6.584966927766800E-002;1.499601406976581E-003;-3.010041778907180E-003;
2.419500000000000E+009;1.605841368436813E-001;-6.706217676401138E-002;1.341154449619353E-003;-3.085452830418944E-003;
2.419666666666667E+009;1.595123410224915E-001;-6.826406717300415E-002;1.147030503489077E-003;-3.083951072767377E-003;
2.419833333333334E+009;1.581460386514664E-001;-6.927143037319183E-002;1.081046531908214E-003;-3.066138131543994E-003;
2.420000000000000E+009;1.571127474308014E-001;-7.049929350614548E-002;9.297219803556800E-004;-3.227422945201397E-003;
2.420166666666667E+009;1.560273915529251E-001;-7.192309200763702E-002;8.186229388229549E-004;-3.105926094576716E-003;
2.420333333333334E+009;1.551367193460465E-001;-7.326734811067581E-002;7.556147174909711E-004;-3.068180987611413E-003;
2.420500000000000E+009;1.541828811168671E-001;-7.461064308881760E-002;5.865051061846316E-004;-3.089030971750617E-003;
2.420666666666667E+009;1.533295214176178E-001;-7.596257328987122E-002;3.919402952305973E-004;-2.891960553824902E-003;
2.420833333333334E+009;1.524613052606583E-001;-7.760743796825409E-002;2.312797005288303E-004;-3.069540951400995E-003;
2.421000000000000E+009;1.517295241355896E-001;-7.914523035287857E-002;2.500047557987273E-004;-3.051493316888809E-003;
2.421166666666667E+009;1.512342840433121E-001;-8.079418540000916E-002;2.472218475304544E-004;-2.926694927737117E-003;
2.421333333333334E+009;1.507396847009659E-001;-8.262322098016739E-002;1.960384361154866E-005;-2.958260942250490E-003;
2.421500000000000E+009;1.502209901809692E-001;-8.409681916236877E-002;-6.297034269664437E-005;-3.008312545716763E-003;
2.421666666666667E+009;1.499706804752350E-001;-8.570338040590286E-002;-2.028160961344838E-004;-3.029421903192997E-003;
2.421833333333334E+009;1.496204584836960E-001;-8.739958703517914E-002;-1.907727128127590E-004;-2.958541736006737E-003;
2.422000000000000E+009;1.494365334510803E-001;-8.912198245525360E-002;-1.554690825287253E-004;-2.886794973164797E-003;
2.422166666666667E+009;1.491795480251312E-001;-9.110797941684723E-002;-3.903805045410991E-004;-2.897486323490739E-003;
2.422333333333334E+009;1.494589298963547E-001;-9.265851974487305E-002;-4.855945880990475E-004;-2.847890835255384E-003;
2.422500000000000E+009;1.495286971330643E-001;-9.407506138086319E-002;-4.493310698308051E-004;-2.789463149383664E-003;
2.422666666666667E+009;1.494371891021729E-001;-9.591060876846314E-002;-5.542246508412063E-004;-2.809481229633093E-003;
2.422833333333334E+009;1.498226970434189E-001;-9.751063585281372E-002;-6.425481988117099E-004;-2.623946638777852E-003;
2.423000000000000E+009;1.499889194965363E-001;-9.899476170539856E-002;-7.334286929108203E-004;-2.566335257142782E-003;
2.423166666666667E+009;1.504544764757156E-001;-1.005302220582962E-001;-7.600923418067396E-004;-2.655086340382695E-003;
2.423333333333334E+009;1.509137898683548E-001;-1.018969044089317E-001;-8.652593824081123E-004;-2.526199212297797E-003;
2.423500000000000E+009;1.514505892992020E-001;-1.034967601299286E-001;-8.573441882617772E-004;-2.360375132411718E-003;
2.423666666666667E+009;1.517013013362885E-001;-1.048566997051239E-001;-9.820850100368261E-004;-2.273137914016843E-003;
2.423833333333334E+009;1.523718386888504E-001;-1.060653403401375E-001;-9.124111384153366E-004;-2.486851997673512E-003;
2.424000000000000E+009;1.528703570365906E-001;-1.071908846497536E-001;-1.188110560178757E-003;-2.388064051046968E-003;
2.424166666666667E+009;1.531942337751389E-001;-1.084287390112877E-001;-1.242382801137865E-003;-2.142055425792933E-003;
2.424333333333334E+009;1.536859124898911E-001;-1.094446778297424E-001;-1.089566270820797E-003;-2.137083094567061E-003;
2.424500000000000E+009;1.543883383274078E-001;-1.104563400149345E-001;-1.278224051930010E-003;-2.173875924199820E-003;
2.424666666666667E+009;1.548862755298615E-001;-1.110933125019074E-001;-1.238995115272701E-003;-2.096262760460377E-003;
2.424833333333334E+009;1.552421003580093E-001;-1.121483370661736E-001;-1.339513459242880E-003;-2.010585507377982E-003;
2.425000000000000E+009;1.558031588792801E-001;-1.129754781723023E-001;-1.605684752576053E-003;-1.956352731212974E-003;
2.425166666666667E+009;1.559532880783081E-001;-1.134444326162338E-001;-1.373457838781178E-003;-1.824795734137297E-003;
2.425333333333334E+009;1.564286202192307E-001;-1.141911447048187E-001;-1.358299865387380E-003;-1.747838454321027E-003;
2.425500000000000E+009;1.566759049892426E-001;-1.147911250591278E-001;-1.528246793895960E-003;-1.816547359339893E-003;
2.425666666666667E+009;1.567139178514481E-001;-1.152098402380943E-001;-1.441092812456191E-003;-1.625794218853116E-003;
2.425833333333334E+009;1.569468379020691E-001;-1.155307069420815E-001;-1.470922725275159E-003;-1.648836652748287E-003;
2.426000000000000E+009;1.570173054933548E-001;-1.159738600254059E-001;-1.542615005746484E-003;-1.565232872962952E-003;
2.426166666666667E+009;1.572189331054688E-001;-1.162896454334259E-001;-1.499007106758654E-003;-1.391228754073381E-003;
2.426333333333334E+009;1.570838242769241E-001;-1.164063364267349E-001;-1.377720967866480E-003;-1.616993686184287E-003;
2.426500000000000E+009;1.567830741405487E-001;-1.165490895509720E-001;-1.331875449977815E-003;-1.541039673611522E-003;
2.426666666666667E+009;1.567090004682541E-001;-1.165967956185341E-001;-1.555761671625078E-003;-1.430092263035476E-003;
2.426833333333334E+009;1.562661677598953E-001;-1.167739033699036E-001;-1.431464450433850E-003;-1.309552113525569E-003;
2.427000000000000E+009;1.557399332523346E-001;-1.170468479394913E-001;-1.435182057321072E-003;-1.394996303133667E-003;
2.427166666666667E+009;1.552366614341736E-001;-1.169605255126953E-001;-1.414894592016935E-003;-1.227266970090568E-003;
2.427333333333334E+009;1.545192003250122E-001;-1.171332821249962E-001;-1.396611100062728E-003;-1.391745172441006E-003;
2.427500000000000E+009;1.539282947778702E-001;-1.172819361090660E-001;-1.559284632094204E-003;-1.408358453772962E-003;
2.427666666666667E+009;1.529562920331955E-001;-1.174632757902145E-001;-1.426240545697510E-003;-1.194036100059748E-003;
2.427833333333334E+009;1.521076560020447E-001;-1.174926385283470E-001;-1.444874098524451E-003;-1.279522664844990E-003;
