# Version 1.00
#
freq[Hz];re:Trc1_S11;im:Trc1_S11;re:Trc2_S21;im:Trc2_S21;
2.400000000000000E+009;1.564588993787766E-001;6.022648885846138E-002;-1.142203036579303E-004;1.209189416840673E-003;
2.400166666666667E+009;1.563930213451386E-001;5.854983627796173E-002;-7.903116784291342E-005;1.122690271586180E-003;
2.400333333333334E+009;1.565208584070206E-001;5.652905255556107E-002;-1.489101268816739E-004;1.206021872349083E-003;
2.400500000000000E+009;1.567302495241165E-001;5.451971665024757E-002;3.855999602819793E-005;9.020220022648573E-004;
2.400666666666667E+009;1.569281816482544E-001;5.236184597015381E-002;9.687986312201247E-005;9.024529717862606E-004;
2.400833333333334E+009;1.572495400905609E-001;5.031670629978180E-002;-1.148414503404638E-005;9.289556764997542E-004;
2.401000000000000E+009;1.574995368719101E-001;4.813662916421890E-002;-1.157106817117892E-005;9.241977822966874E-004;
2.401166666666667E+009;1.579842269420624E-001;4.616773873567581E-002;1.169265087810345E-004;8.179023279808462E-004;
2.401333333333334E+009;1.584271490573883E-001;4.419728741049767E-002;6.615462189074606E-005;9.618744370527566E-004;
2.401500000000000E+009;1.589499264955521E-001;4.217692092061043E-002;1.190994298667647E-004;8.913337951526046E-004;
2.401666666666667E+009;1.596103310585022E-001;4.008836671710014E-002;8.895265636965632E-005;9.498328436166048E-004;
2.401833333333334E+009;1.600853651762009E-001;3.825426846742630E-002;9.264550317311660E-005;7.897570612840354E-004;
2.402000000000000E+009;1.606799215078354E-001;3.637512028217316E-002;1.517705677542836E-004;7.450377452187240E-004;
2.402166666666667E+009;1.614764183759689E-001;3.451640158891678E-002;9.323459380539134E-005;5.631380481645465E-004;
2.402333333333334E+009;1.620866358280182E-001;3.267537429928780E-002;1.761026796884835E-004;6.059891311451793E-004;
2.402500000000000E+009;1.632329821586609E-001;3.112404048442841E-002;5.591941771854181E-006;7.197574595920742E-004;
2.402666666666667E+009;1.637680232524872E-001;2.936054579913616E-002;-5.169321593712084E-005;6.583849899470806E-004;
2.402833333333334E+009;1.648890972137451E-001;2.792781777679920E-002;-1.660616835579276E-004;6.836208631284535E-004;
2.403000000000000E+009;1.658002436161041E-001;2.657155506312847E-002;-2.507406170479953E-004;8.863488910719752E-004;
2.403166666666667E+009;1.666941195726395E-001;2.523262239992619E-002;-2.699509786907584E-004;6.207898259162903E-004;
2.403333333333334E+009;1.674990504980087E-001;2.398470416665077E-002;-3.250961599405855E-004;9.329005260951817E-004;
2.403500000000000E+009;1.686597019433975E-001;2.287692762911320E-002;-2.357236662646756E-004;8.887341246008873E-004;
2.403666666666667E+009;1.695423424243927E-001;2.159297280013561E-002;-3.206223482266069E-004;8.972384966909885E-004;
2.403833333333334E+009;1.703849136829376E-001;2.058809809386730E-002;-5.587849882431328E-004;1.168591552414000E-003;
2.404000000000000E+009;1.714238226413727E-001;1.980602182447910E-002;-4.209126345813274E-004;1.179794315248728E-003;
2.404166666666667E+009;1.724351793527603E-001;1.882863789796829E-002;-5.811584414914250E-004;9.891209192574024E-004;
2.404333333333334E+009;1.732721924781799E-001;1.821610890328884E-002;-3.043437027372420E-004;1.121598063036799E-003;
2.404500000000000E+009;1.739100813865662E-001;1.736921258270741E-002;-3.671316953841597E-004;1.264504040591419E-003;
2.404666666666667E+009;1.749030649662018E-001;1.669873483479023E-002;-5.484099965542555E-004;1.338861417025328E-003;
2.404833333333334E+009;1.756527870893478E-001;1.603157259523869E-002;-3.916813293471932E-004;1.428786548785865E-003;
2.405000000000000E+009;1.763848364353180E-001;1.568149402737618E-002;-2.564771857578307E-004;1.613716362044215E-003;
2.405166666666667E+009;1.769635677337647E-001;1.528784725815058E-002;-3.050488594453782E-004;1.534191076643765E-003;
2.405333333333334E+009;1.776960343122482E-001;1.465884223580360E-002;-3.095078864134848E-004;1.615707296878099E-003;
2.405500000000000E+009;1.783470958471298E-001;1.439348049461842E-002;-1.290947839152068E-004;1.494721742346883E-003;
2.405666666666667E+009;1.786276251077652E-001;1.417001616209745E-002;-3.900575393345207E-005;1.731809927150607E-003;
2.405833333333334E+009;1.789070814847946E-001;1.386902015656233E-002;4.220053597236984E-005;1.793944742530584E-003;
2.406000000000000E+009;1.793856769800186E-001;1.357216201722622E-002;1.072586237569340E-004;1.725989743135870E-003;
2.406166666666667E+009;1.794354915618897E-001;1.336665172129870E-002;1.560164528200403E-004;1.885771867819130E-003;
2.406333333333334E+009;1.797408014535904E-001;1.309628132730722E-002;1.919159840326756E-004;1.894605695270002E-003;
2.406500000000000E+009;1.798583567142487E-001;1.272593811154366E-002;3.683289105538279E-004;1.892947475425899E-003;
2.406666666666667E+009;1.796573996543884E-001;1.249270606786013E-002;3.528758243191987E-004;1.923372969031334E-003;
2.406833333333334E+009;1.796931177377701E-001;1.210791245102882E-002;4.679527191910893E-004;1.803471124731004E-003;
2.407000000000000E+009;1.795794814825058E-001;1.170375850051642E-002;5.546480533666909E-004;1.895962399430573E-003;
2.407166666666667E+009;1.793766021728516E-001;1.138932909816504E-002;6.082830368541181E-004;1.901041250675917E-003;
2.407333333333334E+009;1.789276152849197E-001;1.081286743283272E-002;8.140154532156885E-004;1.846672152169049E-003;
2.407500000000000E+009;1.786448955535889E-001;1.029616314917803E-002;9.928268846124411E-004;1.913656480610371E-003;
2.407666666666667E+009;1.782513409852982E-001;9.715470485389233E-003;9.043608442880213E-004;1.790263340808451E-003;
2.407833333333334E+009;1.776577681303024E-001;8.845416828989983E-003;9.820125997066498E-004;1.737258746288717E-003;
2.408000000000000E+009;1.772318482398987E-001;8.074740879237652E-003;1.005726051516831E-003;1.772954710759223E-003;
2.408166666666667E+009;1.766990870237351E-001;7.528470363467932E-003;1.151980482973158E-003;1.729060895740986E-003;
2.408333333333334E+009;1.761008948087692E-001;6.467207800596952E-003;1.253539696335793E-003;1.764291664585471E-003;
2.408500000000000E+009;1.754338443279266E-001;5.454604513943195E-003;1.296743517741561E-003;1.647639903239906E-003;
2.408666666666667E+009;1.748463213443756E-001;4.252260550856590E-003;1.332932384684682E-003;1.444391673430800E-003;
2.408833333333334E+009;1.740643531084061E-001;2.954060677438974E-003;1.223472296260297E-003;1.445470843464136E-003;
2.409000000000000E+009;1.733624637126923E-001;1.802426762878895E-003;1.369031728245318E-003;1.519321464002132E-003;
2.409166666666667E+009;1.726023852825165E-001;3.562505298759788E-004;1.379418303258717E-003;1.499086385592818E-003;
2.409333333333334E+009;1.720280200242996E-001;-8.558080298826098E-004;1.435237471014261E-003;1.403634902089834E-003;
2.409500000000000E+009;1.714279204607010E-001;-2.613671123981476E-003;1.495876582339406E-003;1.311219530180097E-003;
2.409666666666667E+009;1.707688719034195E-001;-4.229460377246141E-003;1.413004472851753E-003;1.304384553804994E-003;
2.409833333333334E+009;1.701431274414063E-001;-5.705574993044138E-003;1.553596346639097E-003;1.263669808395207E-003;
2.410000000000000E+009;1.697355806827545E-001;-7.408177945762873E-003;1.526476931758225E-003;1.175105688162148E-003;
2.410166666666667E+009;1.692512631416321E-001;-9.269382804632187E-003;1.565589336678386E-003;1.144945737905800E-003;
2.410333333333334E+009;1.686751842498779E-001;-1.105378381907940E-002;1.624322263523936E-003;1.147024333477020E-003;
2.410500000000000E+009;1.685103923082352E-001;-1.307297591120005E-002;1.567829865962267E-003;1.195779186673462E-003;
2.410666666666667E+009;1.679979115724564E-001;-1.501046586781740E-002;1.560891163535416E-003;1.104189548641443E-003;
2.410833333333334E+009;1.678965389728546E-001;-1.678378507494927E-002;1.508225337602198E-003;1.098063308745623E-003;
2.411000000000000E+009;1.675993055105209E-001;-1.867071539163590E-002;1.711409888230264E-003;1.043740077875555E-003;
2.411166666666667E+009;1.676396131515503E-001;-2.076814137399197E-002;1.689711585640907E-003;1.078644418157637E-003;
2.411333333333334E+009;1.675831973552704E-001;-2.267195098102093E-002;1.435562153346837E-003;1.067248405888677E-003;
2.411500000000000E+009;1.674009263515472E-001;-2.471852116286755E-002;1.614337088540196E-003;1.130384858697653E-003;
2.411666666666667E+009;1.677424162626267E-001;-2.659565955400467E-002;1.620793016627431E-003;1.018663053400815E-003;
2.411833333333334E+009;1.679394394159317E-001;-2.843138761818409E-002;1.598832081072033E-003;1.138300169259310E-003;
2.412000000000000E+009;1.682203114032745E-001;-3.066333383321762E-002;1.709103933535516E-003;1.172818592749536E-003;
2.412166666666667E+009;1.683392226696014E-001;-3.246365860104561E-002;1.670301891863346E-003;1.141606364399195E-003;
2.412333333333334E+009;1.690420955419540E-001;-3.409310802817345E-002;1.798244076780975E-003;1.134617370553315E-003;
2.412500000000000E+009;1.691922694444656E-001;-3.595707938075066E-002;1.967219635844231E-003;1.096016261726618E-003;
2.412666666666667E+009;1.698184162378311E-001;-3.775922581553459E-002;2.062779618427157E-003;1.120442990213633E-003;
2.412833333333334E+009;1.705341637134552E-001;-3.944538906216621E-002;2.139252377673984E-003;1.137440209276974E-003;
2.413000000000000E+009;1.708361506462097E-001;-4.109841585159302E-002;2.109830966219306E-003;1.188026275485754E-003;
2.413166666666667E+009;1.716528534889221E-001;-4.277173057198525E-002;2.195379929617047E-003;1.158531289547682E-003;
2.413333333333334E+009;1.720072329044342E-001;-4.424034804105759E-002;2.402256941422820E-003;1.030762679874897E-003;
2.413500000000000E+009;1.727558821439743E-001;-4.567153751850128E-002;2.493906999006867E-003;9.940736927092075E-004;
2.413666666666667E+009;1.734575927257538E-001;-4.724486544728279E-002;2.564468421041966E-003;1.024237484671176E-003;
2.413833333333334E+009;1.738929301500320E-001;-4.843845963478088E-002;2.687484491616488E-003;8.893649792298675E-004;
2.414000000000000E+009;1.744489818811417E-001;-4.964774101972580E-002;2.922729356214404E-003;9.268136927857995E-004;
2.414166666666667E+009;1.750845611095429E-001;-5.064335465431213E-002;2.929655136540532E-003;7.685733726248145E-004;
2.414333333333334E+009;1.757442653179169E-001;-5.184027180075645E-002;2.956225071102381E-003;6.491146632470191E-004;
2.414500000000000E+009;1.764606684446335E-001;-5.268938466906548E-002;3.081838134676218E-003;5.615340196527541E-004;
2.414666666666667E+009;1.768392175436020E-001;-5.336961895227432E-002;3.154015634208918E-003;2.897036029025912E-004;
2.414833333333334E+009;1.772616207599640E-001;-5.429186299443245E-002;3.166173351928592E-003;2.152506058337167E-004;
2.415000000000000E+009;1.776362508535385E-001;-5.490172654390335E-002;3.315209178254008E-003;7.362930773524568E-006;
2.415166666666667E+009;1.779095232486725E-001;-5.540961027145386E-002;3.425957402214408E-003;-1.133709520217963E-004;
2.415333333333334E+009;1.782885789871216E-001;-5.619018897414208E-002;3.411233657971025E-003;-3.888630308210850E-004;
2.415500000000000E+009;1.784946024417877E-001;-5.649849772453308E-002;3.348954254761338E-003;-3.760050458367914E-004;
2.415666666666667E+009;1.785068660974503E-001;-5.675994232296944E-002;3.481811610981822E-003;-6.959423772059381E-004;
2.415833333333334E+009;1.785465776920319E-001;-5.725000798702240E-002;3.527286229655147E-003;-8.563838782720268E-004;
2.416000000000000E+009;1.786063313484192E-001;-5.751078203320503E-002;3.493121359497309E-003;-8.645456982776523E-004;
2.416166666666667E+009;1.785431504249573E-001;-5.777951702475548E-002;3.322886070236564E-003;-1.167086535133421E-003;
2.416333333333334E+009;1.782961934804916E-001;-5.806371569633484E-002;3.260502358898521E-003;-1.263061771169305E-003;
2.416500000000000E+009;1.780000627040863E-001;-5.823086947202683E-002;3.373178886249661E-003;-1.532196882180870E-003;
2.416666666666667E+009;1.776037365198135E-001;-5.837767943739891E-002;3.243037965148687E-003;-1.642452902160585E-003;
2.416833333333334E+009;1.771540492773056E-001;-5.872751027345657E-002;3.218189347535372E-003;-1.915686647407711E-003;
2.417000000000000E+009;1.764056086540222E-001;-5.891805142164230E-002;3.158685285598040E-003;-1.933607971295714E-003;
2.417166666666667E+009;1.758638918399811E-001;-5.907071009278297E-002;2.856090897694230E-003;-2.251646714285016E-003;
2.417333333333334E+009;1.751195043325424E-001;-5.922863259911537E-002;2.958760829642415E-003;-2.249345183372498E-003;
2.417500000000000E+009;1.742896884679794E-001;-5.979654937982559E-002;2.799468347802758E-003;-2.325540874153376E-003;
2.417666666666667E+009;1.734291911125183E-001;-5.984948575496674E-002;2.728088758885860E-003;-2.443714998662472E-003;
2.417833333333334E+009;1.725166738033295E-001;-6.026539206504822E-002;2.612723037600517E-003;-2.536360407248139E-003;
2.418000000000000E+009;1.713305413722992E-001;-6.079919636249542E-002;2.419907599687576E-003;-2.547134179621935E-003;
2.418166666666667E+009;1.702861487865448E-001;-6.101629137992859E-002;2.348124980926514E-003;-2.635192824527621E-003;
2.418333333333334E+009;1.693534404039383E-001;-6.163544207811356E-002;2.347595291212201E-003;-2.844092901796103E-003;
2.418500000000000E+009;1.680074334144592E-001;-6.209288910031319E-002;2.198974601924419E-003;-2.839104039594531E-003;
2.418666666666667E+009;1.669417768716812E-001;-6.274921447038651E-002;1.989937154576182E-003;-2.858236897736788E-003;
2.418833333333334E+009;1.654522567987442E-001;-6.350965052843094E-002;1.963907154276967E-003;-3.020778065547347E-003;
2.419000000000000E+009;1.642376929521561E-001;-6.448229402303696E-002;1.760037150233984E-003;-3.007495077326894E-003;
2.419166666666667E+009;1.629107743501663E-001;-6.516931951045990E-002;1.551772467792034E-003;-3.094391664490104E-003;
2.419333333333334E+009;1.617460846900940E-001;-6.599776446819305E-002;1.459450460970402E-003;-3.143564332276583E-003;
2.419500000000000E+009;1.604859977960587E-001;-6.716117262840271E-002;1.322869095019996E-003;-3.107213880866766E-003;
2.419666666666667E+009;1.595253944396973E-001;-6.829372793436050E-002;1.186071429401636E-003;-3.222211031243205E-003;
2.419833333333334E+009;1.581339985132217E-001;-6.916948407888413E-002;1.155581441707909E-003;-3.168818540871143E-003;
2.420000000000000E+009;1.572513729333878E-001;-7.065906375646591E-002;1.170499017462134E-003;-3.130097873508930E-003;
2.420166666666667E+009;1.560010910034180E-001;-7.179204374551773E-002;7.944937096908689E-004;-3.049352206289768E-003;
2.420333333333334E+009;1.550647765398026E-001;-7.327466458082199E-002;6.449736538343132E-004;-3.094715764746070E-003;
2.420500000000000E+009;1.542603820562363E-001;-7.462622225284576E-002;6.439818535000086E-004;-3.165077185258269E-003;
2.420666666666667E+009;1.532592028379440E-001;-7.591191679239273E-002;4.697348631452769E-004;-3.228133311495185E-003;
2.420833333333334E+009;1.525726616382599E-001;-7.749436795711517E-002;2.970839559566230E-004;-3.122892463579774E-003;
2.421000000000000E+009;1.517475098371506E-001;-7.914552837610245E-002;3.939772723242641E-004;-3.194495104253292E-003;
2.421166666666667E+009;1.512943506240845E-001;-8.075857162475586E-002;2.103865990648046E-004;-3.022092860192061E-003;
2.421333333333334E+009;1.507052332162857E-001;-8.230547606945038E-002;6.617258623009548E-005;-3.029081737622619E-003;
2.421500000000000E+009;1.500802785158157E-001;-8.411002904176712E-002;8.516474190400913E-005;-2.935372758656740E-003;
2.421666666666667E+009;1.498949974775314E-001;-8.574479073286057E-002;-7.294784609257476E-006;-2.860978245735169E-003;
2.421833333333334E+009;1.497353166341782E-001;-8.739857375621796E-002;-5.393976607592776E-005;-2.884781686589122E-003;
2.422000000000000E+009;1.494623571634293E-001;-8.912716805934906E-002;-1.174956050817855E-004;-2.981630153954029E-003;
2.422166666666667E+009;1.492709368467331E-001;-9.099031239748001E-002;-2.695454750210047E-004;-2.960594836622477E-003;
2.422333333333334E+009;1.492029130458832E-001;-9.247024357318878E-002;-3.964058996643871E-004;-2.816834719851613E-003;
2.422500000000000E+009;1.493084132671356E-001;-9.412765502929688E-002;-4.962427192367613E-004;-2.822197508066893E-003;
2.422666666666667E+009;1.494729816913605E-001;-9.590766578912735E-002;-4.891132703050971E-004;-2.807104261592031E-003;
2.422833333333334E+009;1.496798545122147E-001;-9.757219254970551E-002;-6.369745242409408E-004;-2.711921930313110E-003;
2.423000000000000E+009;1.501038819551468E-001;-9.902498126029968E-002;-6.212050793692470E-004;-2.767210826277733E-003;
2.423166666666667E+009;1.504200398921967E-001;-1.005928069353104E-001;-6.872797966934741E-004;-2.710134722292423E-003;
2.423333333333334E+009;1.509512960910797E-001;-1.018330976366997E-001;-7.626603473909199E-004;-2.613853430375457E-003;
2.423500000000000E+009;1.512927860021591E-001;-1.034812033176422E-001;-8.489453466609120E-004;-2.570413285866380E-003;
2.423666666666667E+009;1.515720039606094E-001;-1.048141643404961E-001;-9.241396328434348E-004;-2.586499089375138E-003;
2.423833333333334E+009;1.521706730127335E-001;-1.060917600989342E-001;-8.428014698438346E-004;-2.461837371811271E-003;
2.424000000000000E+009;1.526495069265366E-001;-1.071474030613899E-001;-1.091158483177424E-003;-2.477534580975771E-003;
2.424166666666667E+009;1.531958878040314E-001;-1.083093062043190E-001;-1.213861163705587E-003;-2.261436078697443E-003;
2.424333333333334E+009;1.538711339235306E-001;-1.093874946236610E-001;-1.122914021834731E-003;-2.167384605854750E-003;
2.424500000000000E+009;1.542942672967911E-001;-1.104213222861290E-001;-1.087966025806963E-003;-2.303677145391703E-003;
2.424666666666667E+009;1.547723114490509E-001;-1.110475286841393E-001;-1.278821378946304E-003;-2.232185564935207E-003;
2.424833333333334E+009;1.552467346191406E-001;-1.120471730828285E-001;-1.361565315164626E-003;-2.233620965853334E-003;
2.425000000000000E+009;1.556680202484131E-001;-1.127176731824875E-001;-1.296154456213117E-003;-2.170317107811570E-003;
2.425166666666667E+009;1.559887230396271E-001;-1.135181933641434E-001;-1.311996136792004E-003;-2.130505396053195E-003;
2.425333333333334E+009;1.564475446939468E-001;-1.141054406762123E-001;-1.562072429805994E-003;-2.073871903121471E-003;
2.425500000000000E+009;1.567184925079346E-001;-1.145687699317932E-001;-1.473535550758243E-003;-1.891979132778943E-003;
2.425666666666667E+009;1.567100435495377E-001;-1.150519624352455E-001;-1.373947481624782E-003;-1.604690798558295E-003;
2.425833333333334E+009;1.569682657718658E-001;-1.153254508972168E-001;-1.494780415669084E-003;-1.834591734223068E-003;
2.426000000000000E+009;1.569976508617401E-001;-1.157849282026291E-001;-1.523177372291684E-003;-1.875549554824829E-003;
2.426166666666667E+009;1.571385264396668E-001;-1.161177232861519E-001;-1.589891733601689E-003;-1.855228329077363E-003;
2.426333333333334E+009;1.568901836872101E-001;-1.162117421627045E-001;-1.553024630993605E-003;-1.699156360700727E-003;
2.426500000000000E+009;1.569108814001083E-001;-1.163519322872162E-001;-1.522171194665134E-003;-1.658162917010486E-003;
2.426666666666667E+009;1.567775905132294E-001;-1.165743023157120E-001;-1.396946725435555E-003;-1.442850450985134E-003;
2.426833333333334E+009;1.563595086336136E-001;-1.167230308055878E-001;-1.666082185693085E-003;-1.582145923748612E-003;
2.427000000000000E+009;1.558824628591538E-001;-1.168813630938530E-001;-1.476195990107954E-003;-1.600446878001094E-003;
2.427166666666667E+009;1.552910655736923E-001;-1.169152483344078E-001;-1.500883372500539E-003;-1.475362223573029E-003;
2.427333333333334E+009;1.546619236469269E-001;-1.169733554124832E-001;-1.590834464877844E-003;-1.389745622873306E-003;
2.427500000000000E+009;1.540190279483795E-001;-1.171036586165428E-001;-1.552534173242748E-003;-1.472032163292170E-003;
2.427666666666667E+009;1.531186103820801E-001;-1.172730103135109E-001;-1.575195579789579E-003;-1.362306764349341E-003;
2.427833333333334E+009;1.521797329187393E-001;-1.174569725990295E-001;-1.615698449313641E-003;-1.334463944658637E-003;
