# Version 1.00
#
freq[Hz];re:Trc1_S11;im:Trc1_S11;re:Trc2_S21;im:Trc2_S21;
2.400000000000000E+009;1.563293784856796E-001;6.021497771143913E-002;-3.295082206022926E-005;1.102653797715902E-003;
2.400166666666667E+009;1.564532816410065E-001;5.847717076539993E-002;1.558906078571454E-004;1.088063931092620E-003;
2.400333333333334E+009;1.565104126930237E-001;5.644140020012856E-002;1.846758532337844E-004;1.142230466939509E-003;
2.400500000000000E+009;1.567346006631851E-001;5.438636615872383E-002;3.064743359573185E-004;9.937337599694729E-004;
2.400666666666667E+009;1.568855941295624E-001;5.230570212006569E-002;2.524270093999803E-004;9.148039971478283E-004;
2.400833333333334E+009;1.574335545301437E-001;5.029414966702461E-002;2.401344681857154E-004;8.589639328420162E-004;
2.401000000000000E+009;1.575916856527329E-001;4.832654446363449E-002;2.514323859941214E-004;9.093807311728597E-004;
2.401166666666667E+009;1.579254716634750E-001;4.615297913551331E-002;2.272301935590804E-004;8.186988416127861E-004;
2.401333333333334E+009;1.583268195390701E-001;4.410921782255173E-002;3.396737156435847E-004;7.784087210893631E-004;
2.401500000000000E+009;1.590517461299896E-001;4.210269823670387E-002;2.338905032956973E-004;7.441806956194341E-004;
2.401666666666667E+009;1.595929861068726E-001;4.022086039185524E-002;2.788135607261211E-004;6.589005934074521E-004;
2.401833333333334E+009;1.600900888442993E-001;3.813751041889191E-002;1.946423435583711E-004;6.653022719547153E-004;
2.402000000000000E+009;1.605850011110306E-001;3.626048192381859E-002;1.789086381904781E-004;7.797747966833413E-004;
2.402166666666667E+009;1.613350063562393E-001;3.454582765698433E-002;4.519896901911125E-005;7.152659236453474E-004;
2.402333333333334E+009;1.620237231254578E-001;3.272999823093414E-002;2.978435368277133E-004;5.432197940535843E-004;
2.402500000000000E+009;1.631431132555008E-001;3.116450645029545E-002;5.234572017798200E-005;6.483977194875479E-004;
2.402666666666667E+009;1.638690680265427E-001;2.947421185672283E-002;2.148562271031551E-005;5.687745870091021E-004;
2.402833333333334E+009;1.648356914520264E-001;2.808357961475849E-002;-5.492150012287311E-005;5.335720488801599E-004;
2.403000000000000E+009;1.656166315078735E-001;2.661702968180180E-002;-7.816722245479468E-006;5.222425679676235E-004;
2.403166666666667E+009;1.666229367256165E-001;2.531616203486919E-002;-3.861479635816068E-004;3.199022321496159E-004;
2.403333333333334E+009;1.674940884113312E-001;2.407307364046574E-002;-2.879677049349994E-004;4.976681666448712E-004;
2.403500000000000E+009;1.686392277479172E-001;2.297957427799702E-002;1.425196387572214E-004;8.266659569926560E-004;
2.403666666666667E+009;1.695882081985474E-001;2.182775177061558E-002;-3.754154533908150E-007;4.151935281697661E-004;
2.403833333333334E+009;1.707128286361694E-001;2.082709781825542E-002;-1.821339683374390E-004;9.080237941816449E-004;
2.404000000000000E+009;1.715863943099976E-001;1.982572302222252E-002;-1.798387675080448E-004;7.625369471497834E-004;
2.404166666666667E+009;1.723456382751465E-001;1.880708150565624E-002;-2.378761128056794E-004;6.324586574919522E-004;
2.404333333333334E+009;1.732851564884186E-001;1.825514808297157E-002;-3.387563920114189E-004;1.263012178242207E-003;
2.404500000000000E+009;1.740970909595490E-001;1.745769567787647E-002;-4.484096716623753E-004;1.195971970446408E-003;
2.404666666666667E+009;1.749653518199921E-001;1.686156541109085E-002;1.826182997319847E-004;1.690757344476879E-003;
2.404833333333334E+009;1.756614446640015E-001;1.621459238231182E-002;-9.716776730783749E-006;1.385294948704541E-003;
2.405000000000000E+009;1.764235794544220E-001;1.567314751446247E-002;-2.464839490130544E-004;1.427396084181964E-003;
2.405166666666667E+009;1.771818846464157E-001;1.516855601221323E-002;1.821133773773909E-004;1.128008007071912E-003;
2.405333333333334E+009;1.778441071510315E-001;1.473237667232752E-002;-9.229896022588946E-006;1.609186641871929E-003;
2.405500000000000E+009;1.782948523759842E-001;1.445380132645369E-002;2.666444343049079E-004;1.395011204294860E-003;
2.405666666666667E+009;1.786520779132843E-001;1.411951240152121E-002;-1.679768174653873E-004;1.388923265039921E-003;
2.405833333333334E+009;1.789433658123016E-001;1.380875054746866E-002;-1.608539896551520E-004;1.575046218931675E-003;
2.406000000000000E+009;1.794990897178650E-001;1.342227496206760E-002;3.677727363537997E-004;7.543424144387245E-004;
2.406166666666667E+009;1.794151961803436E-001;1.343401893973351E-002;3.936833236366510E-004;1.366344164125621E-003;
2.406333333333334E+009;1.799112856388092E-001;1.309130806475878E-002;3.337901434861124E-004;1.741177286021411E-003;
2.406500000000000E+009;1.798520237207413E-001;1.267849002033472E-002;4.337100835982710E-004;1.808648463338614E-003;
2.406666666666667E+009;1.796848177909851E-001;1.240761950612068E-002;3.598666808102280E-004;1.774801756255329E-003;
2.406833333333334E+009;1.797266155481339E-001;1.212517824023962E-002;4.919643397442997E-004;1.642412971705198E-003;
2.407000000000000E+009;1.795094758272171E-001;1.173787098377943E-002;5.028343875892460E-004;1.720231841318309E-003;
2.407166666666667E+009;1.794098019599915E-001;1.142354495823383E-002;7.089696591719985E-004;1.683490350842476E-003;
2.407333333333334E+009;1.791031360626221E-001;1.078176219016314E-002;5.907594459131360E-004;1.692078774794936E-003;
2.407500000000000E+009;1.786972433328629E-001;1.028973516076803E-002;5.372541490942240E-004;1.740761566907167E-003;
2.407666666666667E+009;1.781506389379501E-001;9.745615534484386E-003;8.711044793017209E-004;1.810161746107042E-003;
2.407833333333334E+009;1.776659786701202E-001;8.892087265849114E-003;9.082520264200866E-004;1.577491289936006E-003;
2.408000000000000E+009;1.773085296154022E-001;8.167735300958157E-003;9.154917206615210E-004;1.716801663860679E-003;
2.408166666666667E+009;1.766322553157806E-001;7.501673884689808E-003;1.089024706743658E-003;1.436279155313969E-003;
2.408333333333334E+009;1.761392056941986E-001;6.444734055548906E-003;1.089620054699481E-003;1.514718169346452E-003;
2.408500000000000E+009;1.755725294351578E-001;5.416040774434805E-003;1.114274142310023E-003;1.333374064415693E-003;
2.408666666666667E+009;1.748410314321518E-001;4.258261993527412E-003;1.204176107421517E-003;1.397859305143356E-003;
2.408833333333334E+009;1.740436255931854E-001;3.124551149085164E-003;1.222196849994361E-003;1.468528760597110E-003;
2.409000000000000E+009;1.733898073434830E-001;1.752906828187406E-003;1.378894667141140E-003;1.291431952267885E-003;
2.409166666666667E+009;1.727352440357208E-001;3.373528015799820E-004;1.462421729229391E-003;1.289459411054850E-003;
2.409333333333334E+009;1.722088754177094E-001;-9.397179819643498E-004;1.328377868048847E-003;1.270676730200648E-003;
2.409500000000000E+009;1.713949441909790E-001;-2.717642579227686E-003;1.272356836125255E-003;1.263867830857635E-003;
2.409666666666667E+009;1.707796603441238E-001;-4.192113876342773E-003;1.381801324896514E-003;1.285175909288228E-003;
2.409833333333334E+009;1.702102124691010E-001;-5.840612109750509E-003;1.394055201672018E-003;1.007097656838596E-003;
2.410000000000000E+009;1.698738336563110E-001;-7.453033234924078E-003;1.457316102460027E-003;1.208302914164960E-003;
2.410166666666667E+009;1.692300736904144E-001;-9.123960509896278E-003;1.298473798669875E-003;1.066112308762968E-003;
2.410333333333334E+009;1.688836514949799E-001;-1.111042499542236E-002;1.321434625424445E-003;9.929451625794172E-004;
2.410500000000000E+009;1.683919131755829E-001;-1.288772281259298E-002;1.487750210799277E-003;1.077361404895783E-003;
2.410666666666667E+009;1.680041700601578E-001;-1.503389142453671E-002;1.432787161320448E-003;1.026603858917952E-003;
2.410833333333334E+009;1.679430603981018E-001;-1.672040484845638E-002;1.373605104163289E-003;1.119396765716374E-003;
2.411000000000000E+009;1.676666289567947E-001;-1.863917335867882E-002;1.584884361363947E-003;1.071806647814810E-003;
2.411166666666667E+009;1.674687862396240E-001;-2.069442160427570E-002;1.509494846686721E-003;9.220080683007836E-004;
2.411333333333334E+009;1.675274074077606E-001;-2.257014065980911E-002;1.455729827284813E-003;8.618055726401508E-004;
2.411500000000000E+009;1.674662381410599E-001;-2.469754591584206E-002;1.499806647188962E-003;1.030925777740777E-003;
2.411666666666667E+009;1.677466183900833E-001;-2.673667110502720E-002;1.489334739744663E-003;1.022544456645846E-003;
2.411833333333334E+009;1.679307520389557E-001;-2.842830307781696E-002;1.513883587904275E-003;1.016288762912154E-003;
2.412000000000000E+009;1.682886779308319E-001;-3.047256544232369E-002;1.568773761391640E-003;9.622888173907995E-004;
2.412166666666667E+009;1.685014516115189E-001;-3.240210935473442E-002;1.586938160471618E-003;1.034244196489453E-003;
2.412333333333334E+009;1.691647320985794E-001;-3.428564593195915E-002;1.742972293868661E-003;1.212978502735496E-003;
2.412500000000000E+009;1.692334860563278E-001;-3.603174164891243E-002;1.589243183843792E-003;1.043857540935278E-003;
2.412666666666667E+009;1.699301004409790E-001;-3.799779340624809E-002;1.810012850910425E-003;1.225060783326626E-003;
2.412833333333334E+009;1.703446060419083E-001;-3.967314586043358E-002;1.934803673066199E-003;9.610772831365466E-004;
2.413000000000000E+009;1.709740906953812E-001;-4.126051068305969E-002;2.023506909608841E-003;1.096721505746245E-003;
2.413166666666667E+009;1.714505255222321E-001;-4.286271706223488E-002;2.027736743912101E-003;9.903508471325040E-004;
2.413333333333334E+009;1.720150560140610E-001;-4.435042664408684E-002;2.076828852295876E-003;1.046126242727041E-003;
2.413500000000000E+009;1.727109998464584E-001;-4.584242030978203E-002;2.180430339649320E-003;8.557419641874731E-004;
2.413666666666667E+009;1.734292805194855E-001;-4.706609994173050E-002;2.341908635571599E-003;1.140223233960569E-003;
2.413833333333334E+009;1.739071458578110E-001;-4.848296195268631E-002;2.461554948240519E-003;7.861166377551854E-004;
2.414000000000000E+009;1.743635386228561E-001;-4.957783222198486E-002;2.699681092053652E-003;7.015723967924714E-004;
2.414166666666667E+009;1.752297580242157E-001;-5.082995817065239E-002;2.747765509411693E-003;7.327686762437224E-004;
2.414333333333334E+009;1.757266819477081E-001;-5.180389806628227E-002;2.638770267367363E-003;5.975610110908747E-004;
2.414500000000000E+009;1.764515042304993E-001;-5.264618620276451E-002;2.892598044127226E-003;4.319519503042102E-004;
2.414666666666667E+009;1.768016666173935E-001;-5.350955575704575E-002;2.991782268509269E-003;1.808873203117400E-004;
2.414833333333334E+009;1.771558523178101E-001;-5.420649796724320E-002;2.913694595918059E-003;2.693844144232571E-004;
2.415000000000000E+009;1.775211095809937E-001;-5.477908253669739E-002;2.971567446365953E-003;5.340771531336941E-005;
2.415166666666667E+009;1.779111325740814E-001;-5.546432361006737E-002;3.253624774515629E-003;-9.319015225628391E-005;
2.415333333333334E+009;1.783217191696167E-001;-5.608364567160606E-002;3.194088349118829E-003;-3.506155626382679E-004;
2.415500000000000E+009;1.785702407360077E-001;-5.652670562267304E-002;3.303145524114370E-003;-3.563891223166138E-004;
2.415666666666667E+009;1.785581707954407E-001;-5.681507661938667E-002;3.235450247302651E-003;-5.533886724151671E-004;
2.415833333333334E+009;1.787180453538895E-001;-5.721925199031830E-002;3.268829546868801E-003;-8.640888263471425E-004;
2.416000000000000E+009;1.786102056503296E-001;-5.753796175122261E-002;3.246626351028681E-003;-9.124563075602055E-004;
2.416166666666667E+009;1.785312741994858E-001;-5.789315328001976E-002;3.191564697772265E-003;-1.174872042611241E-003;
2.416333333333334E+009;1.783004254102707E-001;-5.797067284584045E-002;3.406466683372855E-003;-1.174555975012481E-003;
2.416500000000000E+009;1.780945509672165E-001;-5.824766308069229E-002;3.207778325304389E-003;-1.376858446747065E-003;
2.416666666666667E+009;1.775607764720917E-001;-5.841106921434403E-002;2.919749123975635E-003;-1.434562494978309E-003;
2.416833333333334E+009;1.771890968084335E-001;-5.864287912845612E-002;2.928911941125989E-003;-1.748856622725725E-003;
2.417000000000000E+009;1.764312088489533E-001;-5.894654616713524E-002;2.979441778734326E-003;-1.766249188221991E-003;
2.417166666666667E+009;1.758562326431274E-001;-5.915753170847893E-002;2.817985136061907E-003;-1.946451491676271E-003;
2.417333333333334E+009;1.751234084367752E-001;-5.923102796077728E-002;2.731794491410255E-003;-2.037831116467714E-003;
2.417500000000000E+009;1.741518974304199E-001;-5.978203564882278E-002;2.620440674945712E-003;-2.251161495223641E-003;
2.417666666666667E+009;1.734377145767212E-001;-5.986938625574112E-002;2.491214545443654E-003;-2.285035559907556E-003;
2.417833333333334E+009;1.724417656660080E-001;-6.012557074427605E-002;2.464790595695376E-003;-2.427800092846155E-003;
2.418000000000000E+009;1.713415086269379E-001;-6.075231358408928E-002;2.351110102608800E-003;-2.496382920071483E-003;
2.418166666666667E+009;1.702665984630585E-001;-6.104516237974167E-002;2.167137572541833E-003;-2.511238213628531E-003;
2.418333333333334E+009;1.693694740533829E-001;-6.154877692461014E-002;2.114837756380439E-003;-2.672084840014577E-003;
2.418500000000000E+009;1.680644452571869E-001;-6.207163631916046E-002;1.949726021848619E-003;-2.751595573499799E-003;
2.418666666666667E+009;1.669868081808090E-001;-6.274259835481644E-002;1.826080726459622E-003;-2.751671243458986E-003;
2.418833333333334E+009;1.656126976013184E-001;-6.350801140069962E-002;1.901857322081924E-003;-2.726027742028236E-003;
2.419000000000000E+009;1.642882972955704E-001;-6.414891779422760E-002;1.608311082236469E-003;-2.917885547503829E-003;
2.419166666666667E+009;1.631413996219635E-001;-6.515136361122131E-002;1.611727871932089E-003;-2.955056726932526E-003;
2.419333333333334E+009;1.617431193590164E-001;-6.581935286521912E-002;1.388432458043098E-003;-2.802940784022212E-003;
2.419500000000000E+009;1.606094092130661E-001;-6.705591827630997E-002;1.251774374395609E-003;-2.962518250569701E-003;
2.419666666666667E+009;1.594652235507965E-001;-6.837192177772522E-002;1.190942130051553E-003;-3.021307522431016E-003;
2.419833333333334E+009;1.581975817680359E-001;-6.916886568069458E-002;9.771694894880056E-004;-3.088503610342741E-003;
2.420000000000000E+009;1.571292132139206E-001;-7.043974846601486E-002;9.148510871455073E-004;-2.893702127039433E-003;
2.420166666666667E+009;1.559620946645737E-001;-7.190506160259247E-002;7.458329200744629E-004;-2.996838185936213E-003;
2.420333333333334E+009;1.550161242485046E-001;-7.320675253868103E-002;5.707832169719040E-004;-3.154948353767395E-003;
2.420500000000000E+009;1.544180214405060E-001;-7.434686273336411E-002;5.817672354169190E-004;-3.013872308656573E-003;
2.420666666666667E+009;1.533152014017105E-001;-7.587900012731552E-002;5.982853472232819E-004;-3.013734705746174E-003;
2.420833333333334E+009;1.525819301605225E-001;-7.754858583211899E-002;3.354723448865116E-004;-2.956090960651636E-003;
2.421000000000000E+009;1.517442762851715E-001;-7.919819653034210E-002;1.971556921489537E-004;-2.916291821748018E-003;
2.421166666666667E+009;1.512160301208496E-001;-8.076879382133484E-002;1.201870982185938E-004;-2.921350300312042E-003;
2.421333333333334E+009;1.507756263017654E-001;-8.248030394315720E-002;9.000407590065152E-005;-2.867837203666568E-003;
2.421500000000000E+009;1.503835767507553E-001;-8.400060236454010E-002;-5.524436346604489E-005;-2.894127275794745E-003;
2.421666666666667E+009;1.499499231576920E-001;-8.580774068832398E-002;-1.310883817495778E-004;-2.938504330813885E-003;
2.421833333333334E+009;1.496494561433792E-001;-8.740946650505066E-002;-9.780096297618002E-005;-2.741770120337606E-003;
2.422000000000000E+009;1.494322270154953E-001;-8.916688710451126E-002;-2.890576724894345E-004;-2.746930578723550E-003;
2.422166666666667E+009;1.492981016635895E-001;-9.099404513835907E-002;-4.308990319259465E-004;-2.807665150612593E-003;
2.422333333333334E+009;1.492941230535507E-001;-9.259637445211411E-002;-3.684121184051037E-004;-2.806375967338681E-003;
2.422500000000000E+009;1.493957489728928E-001;-9.408885985612869E-002;-5.045485449954867E-004;-2.689236076548696E-003;
2.422666666666667E+009;1.494944840669632E-001;-9.586887806653976E-002;-6.156176677905023E-004;-2.701154910027981E-003;
2.422833333333334E+009;1.498538404703140E-001;-9.747465699911118E-002;-5.113998195156455E-004;-2.492898842319846E-003;
2.423000000000000E+009;1.500322371721268E-001;-9.903536736965179E-002;-7.276627002283931E-004;-2.470065141096711E-003;
2.423166666666667E+009;1.504777222871780E-001;-1.005673706531525E-001;-6.928438670001924E-004;-2.485339296981692E-003;
2.423333333333334E+009;1.508973091840744E-001;-1.019130125641823E-001;-8.271113038063049E-004;-2.517625456675887E-003;
2.423500000000000E+009;1.512196213006973E-001;-1.034339293837547E-001;-8.418530342169106E-004;-2.400163328275085E-003;
2.423666666666667E+009;1.516892313957214E-001;-1.048300564289093E-001;-8.661480969749391E-004;-2.430137014016509E-003;
2.423833333333334E+009;1.523367166519165E-001;-1.061470434069634E-001;-9.818935068324208E-004;-2.377187134698033E-003;
2.424000000000000E+009;1.527158915996552E-001;-1.072329282760620E-001;-1.032640459015966E-003;-2.274340949952602E-003;
2.424166666666667E+009;1.532252132892609E-001;-1.083039194345474E-001;-1.026147161610425E-003;-2.331548603251576E-003;
2.424333333333334E+009;1.537326276302338E-001;-1.093930825591087E-001;-1.119622727856040E-003;-2.164812991395593E-003;
2.424500000000000E+009;1.543492674827576E-001;-1.104310974478722E-001;-1.241967431269586E-003;-2.074386458843947E-003;
2.424666666666667E+009;1.548761427402496E-001;-1.111409664154053E-001;-1.203744090162218E-003;-2.180836396291852E-003;
2.424833333333334E+009;1.552682071924210E-001;-1.121065318584442E-001;-1.192409545183182E-003;-2.027370268478990E-003;
2.425000000000000E+009;1.557402759790421E-001;-1.127045825123787E-001;-1.291129156015813E-003;-1.912325387820602E-003;
2.425166666666667E+009;1.558745503425598E-001;-1.135295480489731E-001;-1.288258121348918E-003;-1.950730220414698E-003;
2.425333333333334E+009;1.564003527164459E-001;-1.140703558921814E-001;-1.343937939964235E-003;-1.676987623795867E-003;
2.425500000000000E+009;1.566471606492996E-001;-1.145696267485619E-001;-1.477055950090289E-003;-1.939122914336622E-003;
2.425666666666667E+009;1.568173319101334E-001;-1.150024905800819E-001;-1.439481042325497E-003;-1.681761001236737E-003;
2.425833333333334E+009;1.570805758237839E-001;-1.154074221849442E-001;-1.423679059371352E-003;-1.688425429165363E-003;
2.426000000000000E+009;1.570008099079132E-001;-1.158052757382393E-001;-1.458104583434761E-003;-1.795817865058780E-003;
2.426166666666667E+009;1.571698635816574E-001;-1.161454096436501E-001;-1.412917394191027E-003;-1.680494751781225E-003;
2.426333333333334E+009;1.570006012916565E-001;-1.163840144872665E-001;-1.373781939037144E-003;-1.583848730660975E-003;
2.426500000000000E+009;1.569155156612396E-001;-1.165158972144127E-001;-1.362620154395700E-003;-1.642100512981415E-003;
2.426666666666667E+009;1.567566841840744E-001;-1.164855957031250E-001;-1.278738607652485E-003;-1.460388884879649E-003;
2.426833333333334E+009;1.563394516706467E-001;-1.166540011763573E-001;-1.310339546762407E-003;-1.426383154466748E-003;
2.427000000000000E+009;1.558577418327332E-001;-1.168918609619141E-001;-1.209471840411425E-003;-1.412312383763492E-003;
2.427166666666667E+009;1.552986651659012E-001;-1.169292628765106E-001;-1.346646808087826E-003;-1.404882757924497E-003;
2.427333333333334E+009;1.546417027711868E-001;-1.170693486928940E-001;-1.424480695277453E-003;-1.420106156729162E-003;
2.427500000000000E+009;1.540068835020065E-001;-1.171632707118988E-001;-1.532760332338512E-003;-1.362135983072221E-003;
2.427666666666667E+009;1.531132459640503E-001;-1.174171641469002E-001;-1.342148985713720E-003;-1.377759384922683E-003;
2.427833333333334E+009;1.521470099687576E-001;-1.174694076180458E-001;-1.295952242799103E-003;-1.219105790369213E-003;
