# Version 1.00
#
freq[Hz];re:Trc1_S11;im:Trc1_S11;re:Trc2_S21;im:Trc2_S21;
2.400000000000000E+009;1.548763215541840E-001;1.067630499601364E-001;-2.726875827647746E-004;2.427285304293037E-003;
2.400166666666667E+009;1.547053903341293E-001;1.045142859220505E-001;-1.335813285550103E-004;2.584664849564433E-003;
2.400333333333334E+009;1.548341810703278E-001;1.020624339580536E-001;-1.662336580920965E-004;2.631395822390914E-003;
2.400500000000000E+009;1.547262966632843E-001;9.923569113016129E-002;2.359477093705209E-006;2.574353246018291E-003;
2.400666666666667E+009;1.545849293470383E-001;9.695915877819061E-002;6.388922338373959E-005;2.548807766288519E-003;
2.400833333333334E+009;1.549095809459686E-001;9.397096931934357E-002;3.684633702505380E-004;2.745218807831407E-003;
2.401000000000000E+009;1.549612730741501E-001;9.132091701030731E-002;4.911060677841306E-004;2.815876156091690E-003;
2.401166666666667E+009;1.550335288047791E-001;8.840081840753555E-002;6.051649106666446E-004;2.737518167123199E-003;
2.401333333333334E+009;1.554211676120758E-001;8.551975339651108E-002;8.200632291845977E-004;2.827622229233384E-003;
2.401500000000000E+009;1.559493690729141E-001;8.265408128499985E-002;1.123478170484304E-003;2.685619983822107E-003;
2.401666666666667E+009;1.562190651893616E-001;7.983159273862839E-002;1.209998619742692E-003;2.622095402330160E-003;
2.401833333333334E+009;1.568492501974106E-001;7.717473059892654E-002;1.445064786821604E-003;2.562810899689794E-003;
2.402000000000000E+009;1.577047407627106E-001;7.433760166168213E-002;1.419485546648502E-003;2.268787473440170E-003;
2.402166666666667E+009;1.585394442081451E-001;7.183505594730377E-002;1.686184667050839E-003;2.242089016363025E-003;
2.402333333333334E+009;1.595133990049362E-001;6.931836158037186E-002;1.877993345260620E-003;2.152393106371164E-003;
2.402500000000000E+009;1.606848984956741E-001;6.674177944660187E-002;1.851346110925078E-003;1.979592721909285E-003;
2.402666666666667E+009;1.619267016649246E-001;6.446261703968048E-002;1.954638632014394E-003;1.787354587577283E-003;
2.402833333333334E+009;1.632671058177948E-001;6.179326772689819E-002;2.037507016211748E-003;1.748509705066681E-003;
2.403000000000000E+009;1.645709425210953E-001;5.955318734049797E-002;2.138703363016248E-003;1.691697747446597E-003;
2.403166666666667E+009;1.665460020303726E-001;5.760046839714050E-002;2.072000643238425E-003;1.560350763611496E-003;
2.403333333333334E+009;1.679693162441254E-001;5.515935644507408E-002;2.020474756136537E-003;1.425985479727387E-003;
2.403500000000000E+009;1.698882430791855E-001;5.322438478469849E-002;2.159644151106477E-003;1.556614763103426E-003;
2.403666666666667E+009;1.715039908885956E-001;5.107002332806587E-002;1.934053143486381E-003;1.269384170882404E-003;
2.403833333333334E+009;1.731623262166977E-001;4.928823560476303E-002;2.071269787847996E-003;1.308956416323781E-003;
2.404000000000000E+009;1.745738089084625E-001;4.758155718445778E-002;2.185551682487130E-003;1.242972444742918E-003;
2.404166666666667E+009;1.764167100191116E-001;4.628098756074905E-002;2.275137463584542E-003;1.333678141236305E-003;
2.404333333333334E+009;1.781932264566422E-001;4.467692598700523E-002;2.327615860849619E-003;1.398466178216040E-003;
2.404500000000000E+009;1.797348856925964E-001;4.323308169841766E-002;2.389188390225172E-003;1.088709337636828E-003;
2.404666666666667E+009;1.813596487045288E-001;4.206981882452965E-002;2.526283264160156E-003;1.012513414025307E-003;
2.404833333333334E+009;1.828527301549912E-001;4.103159159421921E-002;2.704995917156339E-003;9.375913068652153E-004;
2.405000000000000E+009;1.842093914747238E-001;4.056800529360771E-002;2.502303570508957E-003;6.713952170684934E-004;
2.405166666666667E+009;1.856544464826584E-001;3.965643048286438E-002;2.630812581628561E-003;4.612371267285198E-004;
2.405333333333334E+009;1.870258003473282E-001;3.929204121232033E-002;2.546006347984076E-003;3.241354424972087E-004;
2.405500000000000E+009;1.884399503469467E-001;3.886646032333374E-002;2.670820569619536E-003;2.617332793306559E-004;
2.405666666666667E+009;1.896435618400574E-001;3.835305944085121E-002;2.581345848739147E-003;3.719347296282649E-005;
2.405833333333334E+009;1.910167038440704E-001;3.821392729878426E-002;2.495093503966928E-003;-1.348957594018430E-004;
2.406000000000000E+009;1.919582039117813E-001;3.796495124697685E-002;2.447713399305940E-003;-8.319765765918419E-005;
2.406166666666667E+009;1.929558217525482E-001;3.764716163277626E-002;2.320512896403670E-003;-2.550193748902530E-004;
2.406333333333334E+009;1.937477439641953E-001;3.782488405704498E-002;2.304941648617387E-003;-1.485129323555157E-004;
2.406500000000000E+009;1.945685297250748E-001;3.785771131515503E-002;2.096459502354264E-003;-1.408710813848302E-004;
2.406666666666667E+009;1.950094401836395E-001;3.783717751502991E-002;2.168659353628755E-003;-4.310296790208668E-004;
2.406833333333334E+009;1.956310421228409E-001;3.794948384165764E-002;2.142402110621333E-003;-3.448409261181951E-004;
2.407000000000000E+009;1.958550065755844E-001;3.801603242754936E-002;2.059909747913480E-003;-4.024632798973471E-004;
2.407166666666667E+009;1.963011175394058E-001;3.782923519611359E-002;2.124557737261057E-003;-4.602653498295695E-004;
2.407333333333334E+009;1.962816119194031E-001;3.796286880970001E-002;2.158978953957558E-003;-4.324275942053646E-004;
2.407500000000000E+009;1.962446421384811E-001;3.818757459521294E-002;2.127741463482380E-003;-4.906315589323640E-004;
2.407666666666667E+009;1.961900293827057E-001;3.806097060441971E-002;2.084042876958847E-003;-4.629833565559238E-004;
2.407833333333334E+009;1.956917047500610E-001;3.788948804140091E-002;2.026734407991171E-003;-4.991392488591373E-004;
2.408000000000000E+009;1.956641674041748E-001;3.780439868569374E-002;1.972677651792765E-003;-4.961217637173832E-004;
2.408166666666667E+009;1.949208676815033E-001;3.744428604841232E-002;2.058243844658136E-003;-5.679529276676476E-004;
2.408333333333334E+009;1.944838613271713E-001;3.683583810925484E-002;1.969675766304135E-003;-5.689635290764272E-004;
2.408500000000000E+009;1.938202679157257E-001;3.650593385100365E-002;2.024686196818948E-003;-7.201689877547324E-004;
2.408666666666667E+009;1.932165026664734E-001;3.608019649982452E-002;1.979836728423834E-003;-7.992531172931194E-004;
2.408833333333334E+009;1.924559473991394E-001;3.527721762657166E-002;2.117185853421688E-003;-8.634410332888365E-004;
2.409000000000000E+009;1.914497464895248E-001;3.439356759190559E-002;2.132186200469732E-003;-8.730925037525594E-004;
2.409166666666667E+009;1.906493455171585E-001;3.336123004555702E-002;2.109247259795666E-003;-9.044673060998321E-004;
2.409333333333334E+009;1.897233426570892E-001;3.238397836685181E-002;2.156279748305678E-003;-1.000752323307097E-003;
2.409500000000000E+009;1.884771436452866E-001;3.104194998741150E-002;2.196899382397533E-003;-1.119761844165623E-003;
2.409666666666667E+009;1.875830143690109E-001;2.951204404234886E-002;2.120766090229154E-003;-1.178606878966093E-003;
2.409833333333334E+009;1.865094751119614E-001;2.818020246922970E-002;2.122904174029827E-003;-1.219745143316686E-003;
2.410000000000000E+009;1.856044977903366E-001;2.634605020284653E-002;2.212094375863671E-003;-1.296131522394717E-003;
2.410166666666667E+009;1.844721138477325E-001;2.456042729318142E-002;2.011286560446024E-003;-1.471832394599915E-003;
2.410333333333334E+009;1.835327297449112E-001;2.291128970682621E-002;1.976359868422151E-003;-1.538626267574728E-003;
2.410500000000000E+009;1.825010031461716E-001;2.089317701756954E-002;1.965545816347003E-003;-1.615469343960285E-003;
2.410666666666667E+009;1.816565543413162E-001;1.866618730127811E-002;1.856071990914643E-003;-1.659972360357642E-003;
2.410833333333334E+009;1.810973733663559E-001;1.660778000950813E-002;1.848984160460532E-003;-1.838567201048136E-003;
2.411000000000000E+009;1.802175939083099E-001;1.425740495324135E-002;1.739755505695939E-003;-1.875701942481101E-003;
2.411166666666667E+009;1.795953959226608E-001;1.211517862975597E-002;1.545038307085633E-003;-2.106725238263607E-003;
2.411333333333334E+009;1.791626662015915E-001;9.682264178991318E-003;1.708569005131722E-003;-2.130354056134820E-003;
2.411500000000000E+009;1.787138581275940E-001;7.233291398733854E-003;1.521063735708594E-003;-2.144237980246544E-003;
2.411666666666667E+009;1.785643845796585E-001;4.914640914648771E-003;1.558993244543672E-003;-2.239159774035215E-003;
2.411833333333334E+009;1.781799793243408E-001;2.608699956908822E-003;1.275721704587340E-003;-2.237959997728467E-003;
2.412000000000000E+009;1.785551160573959E-001;-1.819119934225455E-004;1.340756425634027E-003;-2.389811910688877E-003;
2.412166666666667E+009;1.784783601760864E-001;-2.247218508273363E-003;1.242608414031565E-003;-2.424345584586263E-003;
2.412333333333334E+009;1.787492185831070E-001;-4.877701401710510E-003;1.129116164520383E-003;-2.521594753488898E-003;
2.412500000000000E+009;1.791955530643463E-001;-7.242342457175255E-003;9.796594968065620E-004;-2.441900083795190E-003;
2.412666666666667E+009;1.798767596483231E-001;-9.798259474337101E-003;9.650603169575334E-004;-2.637807978317142E-003;
2.412833333333334E+009;1.803579628467560E-001;-1.228030491620302E-002;8.439790690317750E-004;-2.575827063992620E-003;
2.413000000000000E+009;1.811571121215820E-001;-1.452458091080189E-002;6.960117025300860E-004;-2.774843014776707E-003;
2.413166666666667E+009;1.820169538259506E-001;-1.679033786058426E-002;6.129945395514369E-004;-2.621914027258754E-003;
2.413333333333334E+009;1.830622106790543E-001;-1.912979595363140E-002;3.652913437690586E-004;-2.524842740967870E-003;
2.413500000000000E+009;1.839155405759811E-001;-2.146321162581444E-002;1.233782386407256E-004;-2.555532613769174E-003;
2.413666666666667E+009;1.850846409797669E-001;-2.350206486880779E-002;2.011705655604601E-004;-2.470339182764292E-003;
2.413833333333334E+009;1.861442923545837E-001;-2.534035034477711E-002;-5.157854684512131E-005;-2.327271504327655E-003;
2.414000000000000E+009;1.872486323118210E-001;-2.744678780436516E-002;-1.737533457344398E-004;-2.258085412904620E-003;
2.414166666666667E+009;1.882966458797455E-001;-2.919159270823002E-002;-2.211788159911521E-005;-2.169274259358645E-003;
2.414333333333334E+009;1.895410567522049E-001;-3.108157590031624E-002;-1.556614297442138E-004;-1.992800971493125E-003;
2.414500000000000E+009;1.907033324241638E-001;-3.246480226516724E-002;-6.399130506906658E-005;-2.120762597769499E-003;
2.414666666666667E+009;1.920280158519745E-001;-3.398849442601204E-002;-7.016382824076572E-006;-1.973377773538232E-003;
2.414833333333334E+009;1.930847913026810E-001;-3.536922857165337E-002;-1.385464711347595E-004;-2.150860847905278E-003;
2.415000000000000E+009;1.942799240350723E-001;-3.666254132986069E-002;-1.358532754238695E-004;-2.031672047451139E-003;
2.415166666666667E+009;1.954262852668762E-001;-3.770149126648903E-002;-8.784630153968465E-006;-2.128472784534097E-003;
2.415333333333334E+009;1.966990828514099E-001;-3.870527818799019E-002;-1.848713727667928E-004;-2.142262412235141E-003;
2.415500000000000E+009;1.976585090160370E-001;-3.928436338901520E-002;-2.178901340812445E-004;-2.176286885514855E-003;
2.415666666666667E+009;1.986887454986572E-001;-4.014070704579353E-002;-3.640266077127308E-004;-2.056663855910301E-003;
2.415833333333334E+009;1.996255517005920E-001;-4.064448550343514E-002;-3.173394943587482E-004;-2.058693673461676E-003;
2.416000000000000E+009;2.003320008516312E-001;-4.129156097769737E-002;-3.594339941628277E-004;-1.977993873879314E-003;
2.416166666666667E+009;2.009973973035812E-001;-4.187325760722160E-002;-3.902952594216913E-004;-1.879540854133666E-003;
2.416333333333334E+009;2.017485052347183E-001;-4.204371944069862E-002;-5.452698096632958E-004;-2.068163361400366E-003;
2.416500000000000E+009;2.022454440593720E-001;-4.224006831645966E-002;-4.579070373438299E-004;-1.952831866219640E-003;
2.416666666666667E+009;2.025727927684784E-001;-4.268286004662514E-002;-3.741204272955656E-004;-1.952536171302199E-003;
2.416833333333334E+009;2.025802582502365E-001;-4.272250086069107E-002;-5.728596006520093E-004;-1.862567267380655E-003;
2.417000000000000E+009;2.027844637632370E-001;-4.277458041906357E-002;-4.409374669194222E-004;-1.817733980715275E-003;
2.417166666666667E+009;2.024602144956589E-001;-4.273077100515366E-002;-5.018624360673130E-004;-1.992289209738374E-003;
2.417333333333334E+009;2.021624892950058E-001;-4.261185228824616E-002;-6.016773986630142E-004;-2.032766817137599E-003;
2.417500000000000E+009;2.019381672143936E-001;-4.264343529939652E-002;-4.679466946981847E-004;-2.028489019721746E-003;
2.417666666666667E+009;2.014689147472382E-001;-4.245493188500404E-002;-5.587167688645423E-004;-1.929400721564889E-003;
2.417833333333334E+009;2.009646594524384E-001;-4.223239049315453E-002;-6.571661797352135E-004;-2.103405306115747E-003;
2.418000000000000E+009;2.002264708280563E-001;-4.195106029510498E-002;-6.014587124809623E-004;-2.263422124087811E-003;
2.418166666666667E+009;1.994324475526810E-001;-4.197930172085762E-002;-7.693126099184156E-004;-2.217158442363143E-003;
2.418333333333334E+009;1.984921395778656E-001;-4.186402633786202E-002;-9.263858082704246E-004;-2.344306791201234E-003;
2.418500000000000E+009;1.975284367799759E-001;-4.187015444040299E-002;-9.869132190942764E-004;-2.302410779520869E-003;
2.418666666666667E+009;1.964603513479233E-001;-4.176232963800430E-002;-1.114481827244163E-003;-2.303420798853040E-003;
2.418833333333334E+009;1.952592283487320E-001;-4.203644022345543E-002;-1.053912914358079E-003;-2.288921270519495E-003;
2.419000000000000E+009;1.939596384763718E-001;-4.224421828985214E-002;-1.162667758762837E-003;-2.287523820996285E-003;
2.419166666666667E+009;1.927226185798645E-001;-4.262673854827881E-002;-1.375430729240179E-003;-2.133683068677783E-003;
2.419333333333334E+009;1.912896335124970E-001;-4.311534762382507E-002;-1.396518782712519E-003;-2.209969796240330E-003;
2.419500000000000E+009;1.898183673620224E-001;-4.348270222544670E-002;-1.524384715594351E-003;-2.305042697116733E-003;
2.419666666666667E+009;1.882566213607788E-001;-4.435745626688004E-002;-1.617000671103597E-003;-2.147396095097065E-003;
2.419833333333334E+009;1.865549087524414E-001;-4.490953311324120E-002;-1.737931277602911E-003;-2.111691283062100E-003;
2.420000000000000E+009;1.850837320089340E-001;-4.577571526169777E-002;-1.802367158234119E-003;-2.223035553470254E-003;
2.420166666666667E+009;1.834914237260819E-001;-4.678656905889511E-002;-1.878524897620082E-003;-2.183158183470368E-003;
2.420333333333334E+009;1.817654967308044E-001;-4.796431213617325E-002;-2.102234633639455E-003;-2.166268648579717E-003;
2.420500000000000E+009;1.801191419363022E-001;-4.932824149727821E-002;-2.119067590683699E-003;-2.030256437137723E-003;
2.420666666666667E+009;1.784558892250061E-001;-5.045345425605774E-002;-2.347336150705814E-003;-2.076230477541685E-003;
2.420833333333334E+009;1.769147664308548E-001;-5.193634703755379E-002;-2.348430221900344E-003;-2.015712903812528E-003;
2.421000000000000E+009;1.754451096057892E-001;-5.347554013133049E-002;-2.481795381754637E-003;-1.876198104582727E-003;
2.421166666666667E+009;1.740343421697617E-001;-5.509440228343010E-002;-2.545191440731287E-003;-1.738642342388630E-003;
2.421333333333334E+009;1.724920123815537E-001;-5.669433996081352E-002;-2.760912291705608E-003;-1.741677522659302E-003;
2.421500000000000E+009;1.711253225803375E-001;-5.871101468801498E-002;-2.909343456849456E-003;-1.659742440097034E-003;
2.421666666666667E+009;1.698829680681229E-001;-6.049735471606255E-002;-2.848859177902341E-003;-1.424032729119062E-003;
2.421833333333334E+009;1.688396632671356E-001;-6.240841001272202E-002;-3.019197378307581E-003;-1.611536368727684E-003;
2.422000000000000E+009;1.676044613122940E-001;-6.413643807172775E-002;-3.071614541113377E-003;-1.278005191124976E-003;
2.422166666666667E+009;1.668415814638138E-001;-6.640087813138962E-002;-3.036393551155925E-003;-1.210669171996415E-003;
2.422333333333334E+009;1.658374071121216E-001;-6.849263608455658E-002;-3.064912045374513E-003;-1.045920071192086E-003;
2.422500000000000E+009;1.651770919561386E-001;-7.044920325279236E-002;-3.074774052947760E-003;-1.024669851176441E-003;
2.422666666666667E+009;1.644926667213440E-001;-7.237198203802109E-002;-3.222032915800810E-003;-7.915848400443792E-004;
2.422833333333334E+009;1.641232222318649E-001;-7.452883571386337E-002;-3.154407022520900E-003;-6.426487816497684E-004;
2.423000000000000E+009;1.634918749332428E-001;-7.637295871973038E-002;-3.286544932052493E-003;-5.829450092278421E-004;
2.423166666666667E+009;1.632743626832962E-001;-7.836734503507614E-002;-3.203947562724352E-003;-4.302922461647540E-004;
2.423333333333334E+009;1.630402207374573E-001;-8.046011626720429E-002;-3.341707633808255E-003;-3.272641624789685E-004;
2.423500000000000E+009;1.629785299301148E-001;-8.205335587263107E-002;-3.321865107864142E-003;-2.155085239792243E-004;
2.423666666666667E+009;1.627992093563080E-001;-8.399378508329392E-002;-3.468988928943873E-003;5.977780529065058E-005;
2.423833333333334E+009;1.627611219882965E-001;-8.582942187786102E-002;-3.413062775507569E-003;6.401467544492334E-005;
2.424000000000000E+009;1.629033833742142E-001;-8.761515468358994E-002;-3.320206655189395E-003;2.295304439030588E-004;
2.424166666666667E+009;1.630081832408905E-001;-8.919076621532440E-002;-3.414562204852700E-003;5.740816122852266E-004;
2.424333333333334E+009;1.631984412670136E-001;-9.065255522727966E-002;-3.394810715690255E-003;6.673020543530583E-004;
2.424500000000000E+009;1.635307818651199E-001;-9.237258881330490E-002;-3.290493506938219E-003;7.589120650663972E-004;
2.424666666666667E+009;1.637940108776093E-001;-9.367091953754425E-002;-3.210344817489386E-003;8.918039384298027E-004;
2.424833333333334E+009;1.644342839717865E-001;-9.493496268987656E-002;-2.941268263384700E-003;1.027989434078336E-003;
2.425000000000000E+009;1.647160500288010E-001;-9.607783704996109E-002;-2.930544782429934E-003;1.089493627659977E-003;
2.425166666666667E+009;1.650362908840179E-001;-9.708367288112640E-002;-3.089903388172388E-003;1.178099424578250E-003;
2.425333333333334E+009;1.653008908033371E-001;-9.819106757640839E-002;-2.896526595577598E-003;1.303303521126509E-003;
2.425500000000000E+009;1.657872647047043E-001;-9.907103329896927E-002;-2.736420836299658E-003;1.441400148905814E-003;
2.425666666666667E+009;1.661892831325531E-001;-9.968443959951401E-002;-2.668215660378337E-003;1.465651905164123E-003;
2.425833333333334E+009;1.664939075708389E-001;-1.004722416400909E-001;-2.500598551705480E-003;1.450112671591342E-003;
2.426000000000000E+009;1.669833958148956E-001;-1.009571328759193E-001;-2.554345875978470E-003;1.530404202640057E-003;
2.426166666666667E+009;1.672405898571014E-001;-1.013829261064529E-001;-2.530468162149191E-003;1.676040934398770E-003;
2.426333333333334E+009;1.674029082059860E-001;-1.019689440727234E-001;-2.288513584062457E-003;1.622933428734541E-003;
2.426500000000000E+009;1.677371859550476E-001;-1.021816357970238E-001;-2.255865838378668E-003;1.844040118157864E-003;
2.426666666666667E+009;1.678992956876755E-001;-1.024793609976769E-001;-2.291115000844002E-003;1.777045777998865E-003;
2.426833333333334E+009;1.683063805103302E-001;-1.027219295501709E-001;-2.177597256377339E-003;1.769985770806670E-003;
2.427000000000000E+009;1.681412011384964E-001;-1.030156537890434E-001;-2.164907520636916E-003;1.960328314453363E-003;
2.427166666666667E+009;1.682038009166718E-001;-1.029700338840485E-001;-2.032095566391945E-003;2.070768736302853E-003;
2.427333333333334E+009;1.681102216243744E-001;-1.033026874065399E-001;-1.920246402733028E-003;2.082074293866754E-003;
2.427500000000000E+009;1.677813827991486E-001;-1.034741252660751E-001;-1.899735769256949E-003;2.007183386012912E-003;
2.427666666666667E+009;1.674996912479401E-001;-1.034606322646141E-001;-1.940876245498657E-003;2.016674727201462E-003;
