# Version 1.00
#
freq[Hz];re:Trc1_S11;im:Trc1_S11;re:Trc2_S21;im:Trc2_S21;
2.400000000000000E+009;1.550631076097488E-001;1.067291125655174E-001;-3.352690546307713E-004;2.413876354694367E-003;
2.400166666666667E+009;1.546848416328430E-001;1.043862029910088E-001;-2.220257592853159E-004;2.568602794781327E-003;
2.400333333333334E+009;1.548649817705154E-001;1.021713316440582E-001;-2.219607267761603E-004;2.560442779213190E-003;
2.400500000000000E+009;1.547072231769562E-001;9.921683371067047E-002;4.367982910480350E-005;2.679796656593680E-003;
2.400666666666667E+009;1.548413485288620E-001;9.684775024652481E-002;1.981186069315299E-004;2.661195117980242E-003;
2.400833333333334E+009;1.548417508602142E-001;9.397958219051361E-002;2.545771130826324E-004;2.718954579904676E-003;
2.401000000000000E+009;1.552119702100754E-001;9.119098633527756E-002;4.180333053227514E-004;2.677649725228548E-003;
2.401166666666667E+009;1.550224572420120E-001;8.830402791500092E-002;5.828266148455441E-004;2.588544273748994E-003;
2.401333333333334E+009;1.555428057909012E-001;8.572398126125336E-002;8.596259867772460E-004;2.684768522158265E-003;
2.401500000000000E+009;1.559457629919052E-001;8.272528648376465E-002;1.066138851456344E-003;2.702662022784352E-003;
2.401666666666667E+009;1.562259346246719E-001;8.002732694149017E-002;1.069931429810822E-003;2.522049471735954E-003;
2.401833333333334E+009;1.569800376892090E-001;7.717022299766541E-002;1.451361807994545E-003;2.629679860547185E-003;
2.402000000000000E+009;1.576932370662689E-001;7.434274256229401E-002;1.427677925676107E-003;2.347138943150640E-003;
2.402166666666667E+009;1.586944311857224E-001;7.182339578866959E-002;1.638758578337729E-003;2.172832842916250E-003;
2.402333333333334E+009;1.595293432474136E-001;6.925673037767410E-002;1.682618632912636E-003;1.962254522368312E-003;
2.402500000000000E+009;1.607955098152161E-001;6.663827598094940E-002;1.771730254404247E-003;2.103795995935798E-003;
2.402666666666667E+009;1.620096564292908E-001;6.438869982957840E-002;1.904598553664982E-003;1.975282095372677E-003;
2.402833333333334E+009;1.633424460887909E-001;6.192099303007126E-002;1.926406170241535E-003;1.805479638278484E-003;
2.403000000000000E+009;1.647724956274033E-001;5.959464237093926E-002;1.809471868909895E-003;1.522705308161676E-003;
2.403166666666667E+009;1.664063185453415E-001;5.761223658919334E-002;2.023583278059959E-003;1.502354862168431E-003;
2.403333333333334E+009;1.680820882320404E-001;5.516519024968147E-002;2.000820590183139E-003;1.506228698417544E-003;
2.403500000000000E+009;1.697735935449600E-001;5.315593257546425E-002;1.986580900847912E-003;1.431945478543639E-003;
2.403666666666667E+009;1.714878976345062E-001;5.122155696153641E-002;2.064578235149384E-003;1.377507811412215E-003;
2.403833333333334E+009;1.731416732072830E-001;4.929845407605171E-002;2.127164974808693E-003;1.582520431838930E-003;
2.404000000000000E+009;1.746511310338974E-001;4.751862585544586E-002;2.035859273746610E-003;1.314234919846058E-003;
2.404166666666667E+009;1.764088273048401E-001;4.605183377861977E-002;2.234478015452623E-003;1.381864422000945E-003;
2.404333333333334E+009;1.780056953430176E-001;4.443449154496193E-002;2.348049078136683E-003;1.470073941163719E-003;
2.404500000000000E+009;1.797283887863159E-001;4.324408993124962E-002;2.365708351135254E-003;1.159461913630366E-003;
2.404666666666667E+009;1.813095659017563E-001;4.209076985716820E-002;2.545393304899335E-003;1.034254208207130E-003;
2.404833333333334E+009;1.831247955560684E-001;4.097304120659828E-002;2.584920730441809E-003;8.848229772411287E-004;
2.405000000000000E+009;1.842992007732391E-001;4.037812724709511E-002;2.543522045016289E-003;6.699090590700507E-004;
2.405166666666667E+009;1.857272386550903E-001;3.969791531562805E-002;2.696206560358405E-003;5.310573615133762E-004;
2.405333333333334E+009;1.871330738067627E-001;3.919439390301704E-002;2.626338740810752E-003;4.518582427408546E-004;
2.405500000000000E+009;1.885491758584976E-001;3.874231502413750E-002;2.505333628505468E-003;2.269699616590515E-004;
2.405666666666667E+009;1.897414773702622E-001;3.831192851066589E-002;2.637248486280441E-003;1.925331307575107E-004;
2.405833333333334E+009;1.911142319440842E-001;3.809459507465363E-002;2.517784014344215E-003;-4.059636557940394E-005;
2.406000000000000E+009;1.920247375965118E-001;3.789837658405304E-002;2.450382336974144E-003;-1.672298458288424E-005;
2.406166666666667E+009;1.931025832891464E-001;3.779348358511925E-002;2.402499085292220E-003;-2.132783265551552E-004;
2.406333333333334E+009;1.938117593526840E-001;3.776058554649353E-002;2.269157441332936E-003;-6.084586129873060E-005;
2.406500000000000E+009;1.946595758199692E-001;3.780246153473854E-002;2.071661408990622E-003;-5.623339166049846E-005;
2.406666666666667E+009;1.952337622642517E-001;3.782006353139877E-002;2.050686394795775E-003;-2.583497844170779E-004;
2.406833333333334E+009;1.956816762685776E-001;3.773618489503861E-002;2.007693750783801E-003;-1.309181097894907E-004;
2.407000000000000E+009;1.960214078426361E-001;3.807513415813446E-002;2.050782786682248E-003;-2.406187850283459E-004;
2.407166666666667E+009;1.962928771972656E-001;3.785797953605652E-002;2.133138477802277E-003;-3.524790226947516E-004;
2.407333333333334E+009;1.963504850864410E-001;3.797825425863266E-002;2.079945988953114E-003;-3.009118954651058E-004;
2.407500000000000E+009;1.961917430162430E-001;3.801928088068962E-002;2.186303725466132E-003;-4.075768811162561E-004;
2.407666666666667E+009;1.961971521377564E-001;3.798818960785866E-002;2.245312789455056E-003;-3.947540826629847E-004;
2.407833333333334E+009;1.957151591777802E-001;3.793851658701897E-002;2.191510517150164E-003;-4.448723047971726E-004;
2.408000000000000E+009;1.956556290388107E-001;3.775218501687050E-002;2.112305257469416E-003;-5.783730302937329E-004;
2.408166666666667E+009;1.950106620788574E-001;3.739031404256821E-002;2.079923637211323E-003;-4.856579180341214E-004;
2.408333333333334E+009;1.945173591375351E-001;3.674986213445664E-002;2.107490086928010E-003;-6.456043338403106E-004;
2.408500000000000E+009;1.939473450183868E-001;3.654905408620834E-002;2.025083405897021E-003;-8.013870101422072E-004;
2.408666666666667E+009;1.932691484689713E-001;3.611280396580696E-002;2.095139585435391E-003;-5.360014038160443E-004;
2.408833333333334E+009;1.925430297851563E-001;3.510893508791924E-002;2.029245719313622E-003;-7.519893697462976E-004;
2.409000000000000E+009;1.914799362421036E-001;3.409451246261597E-002;1.985673094168305E-003;-9.167509269900620E-004;
2.409166666666667E+009;1.906477063894272E-001;3.329861909151077E-002;2.108517801389098E-003;-8.091230993159115E-004;
2.409333333333334E+009;1.897350251674652E-001;3.213620185852051E-002;2.032224554568529E-003;-8.532822830602527E-004;
2.409500000000000E+009;1.884978115558624E-001;3.097990900278091E-002;2.201313385739923E-003;-1.107826363295317E-003;
2.409666666666667E+009;1.875944733619690E-001;2.949170209467411E-002;2.186110010370612E-003;-1.061343238689005E-003;
2.409833333333334E+009;1.865012198686600E-001;2.815352939069271E-002;2.120103919878602E-003;-1.084841671399772E-003;
2.410000000000000E+009;1.855861097574234E-001;2.633120305836201E-002;2.212460152804852E-003;-1.175367273390293E-003;
2.410166666666667E+009;1.845298260450363E-001;2.459497563540936E-002;2.091712085530162E-003;-1.398602616973221E-003;
2.410333333333334E+009;1.834771633148193E-001;2.271221950650215E-002;2.047187648713589E-003;-1.411238685250282E-003;
2.410500000000000E+009;1.826044321060181E-001;2.090914919972420E-002;1.979323802515864E-003;-1.593848108313978E-003;
2.410666666666667E+009;1.816855072975159E-001;1.856777817010880E-002;2.132072346284986E-003;-1.655837288126349E-003;
2.410833333333334E+009;1.811557561159134E-001;1.632125303149223E-002;1.943195704370737E-003;-2.016779500991106E-003;
2.411000000000000E+009;1.804649829864502E-001;1.423451490700245E-002;1.911342144012451E-003;-1.769828028045595E-003;
2.411166666666667E+009;1.795768588781357E-001;1.219687145203352E-002;1.715299906209111E-003;-1.918062218464911E-003;
2.411333333333334E+009;1.790332645177841E-001;9.550399146974087E-003;1.579597126692534E-003;-2.120895078405738E-003;
2.411500000000000E+009;1.787178814411163E-001;7.044102996587753E-003;1.654874184168875E-003;-2.179497387260199E-003;
2.411666666666667E+009;1.786666661500931E-001;4.739740863442421E-003;1.445324392989278E-003;-2.123331883922219E-003;
2.411833333333334E+009;1.781718432903290E-001;2.266617026180029E-003;1.279415795579553E-003;-2.222546609118581E-003;
2.412000000000000E+009;1.785404384136200E-001;-2.546300820540637E-004;1.393796061165631E-003;-2.227288670837879E-003;
2.412166666666667E+009;1.785025149583817E-001;-2.544943476095796E-003;1.148793264292181E-003;-2.513278974220157E-003;
2.412333333333334E+009;1.787787079811096E-001;-5.095110274851322E-003;1.210793503560126E-003;-2.507935278117657E-003;
2.412500000000000E+009;1.791390627622604E-001;-7.400378119200468E-003;1.054660533554852E-003;-2.596130128949881E-003;
2.412666666666667E+009;1.795825064182282E-001;-9.871393442153931E-003;9.912205860018730E-004;-2.497958252206445E-003;
2.412833333333334E+009;1.804527938365936E-001;-1.231204345822334E-002;8.779133786447346E-004;-2.620397834107280E-003;
2.413000000000000E+009;1.810536086559296E-001;-1.466913335025311E-002;6.543319905176759E-004;-2.718574367463589E-003;
2.413166666666667E+009;1.817067116498947E-001;-1.672753319144249E-002;6.292047328315675E-004;-2.542391419410706E-003;
2.413333333333334E+009;1.828229278326035E-001;-1.911751180887222E-002;3.197541809640825E-004;-2.680739853531122E-003;
2.413500000000000E+009;1.837748736143112E-001;-2.143943496048451E-002;3.714922640938312E-004;-2.545865718275309E-003;
2.413666666666667E+009;1.848561316728592E-001;-2.360676415264607E-002;1.581681135576218E-004;-2.519172383472323E-003;
2.413833333333334E+009;1.859724223613739E-001;-2.554468065500259E-002;3.354857472004369E-005;-2.274897415190935E-003;
2.414000000000000E+009;1.869766265153885E-001;-2.735675871372223E-002;-7.853381976019591E-005;-2.127647167071700E-003;
2.414166666666667E+009;1.883808821439743E-001;-2.914992347359657E-002;-8.856259955791757E-005;-2.080506645143032E-003;
2.414333333333334E+009;1.894423365592957E-001;-3.114244900643826E-002;-6.044949986971915E-005;-1.971597550436854E-003;
2.414500000000000E+009;1.908658891916275E-001;-3.250975534319878E-002;-3.884141551679932E-005;-1.968518132343888E-003;
2.414666666666667E+009;1.919112354516983E-001;-3.400946035981178E-002;-1.579477429913823E-005;-1.927847857587040E-003;
2.414833333333334E+009;1.930768191814423E-001;-3.541248291730881E-002;-1.128665971918963E-004;-2.022264292463660E-003;
2.415000000000000E+009;1.942033618688583E-001;-3.664385154843330E-002;1.583822449902073E-005;-1.937272842042148E-003;
2.415166666666667E+009;1.953676789999008E-001;-3.773162513971329E-002;3.129105243715458E-005;-1.985327107831836E-003;
2.415333333333334E+009;1.963894516229630E-001;-3.864075616002083E-002;-1.126667266362347E-004;-1.989428652450442E-003;
2.415500000000000E+009;1.976201981306076E-001;-3.935830295085907E-002;-2.124090678989887E-004;-2.125331200659275E-003;
2.415666666666667E+009;1.985996961593628E-001;-4.014701768755913E-002;-2.009756572078914E-004;-2.113605849444866E-003;
2.415833333333334E+009;1.994534581899643E-001;-4.071351885795593E-002;-3.186885442119092E-004;-2.142861718311906E-003;
2.416000000000000E+009;2.001835852861404E-001;-4.136467352509499E-002;-3.024621983058751E-004;-2.022641710937023E-003;
2.416166666666667E+009;2.010561674833298E-001;-4.188442975282669E-002;-3.715001512318850E-004;-2.084128791466355E-003;
2.416333333333334E+009;2.015926539897919E-001;-4.217915982007980E-002;-4.822163027711213E-004;-2.023774432018399E-003;
2.416500000000000E+009;2.020680755376816E-001;-4.234576970338821E-002;-5.150176002644002E-004;-1.950070261955261E-003;
2.416666666666667E+009;2.023786306381226E-001;-4.270632565021515E-002;-5.665280041284859E-004;-1.952451770193875E-003;
2.416833333333334E+009;2.025363296270371E-001;-4.273958131670952E-002;-4.724040627479553E-004;-1.946257194504142E-003;
2.417000000000000E+009;2.026714235544205E-001;-4.290234297513962E-002;-4.701931611634791E-004;-1.859391573816538E-003;
2.417166666666667E+009;2.023656666278839E-001;-4.272979870438576E-002;-4.142876132391393E-004;-2.099251374602318E-003;
2.417333333333334E+009;2.021460980176926E-001;-4.261187836527824E-002;-4.848173120990396E-004;-2.140949945896864E-003;
2.417500000000000E+009;2.017617821693420E-001;-4.263448342680931E-002;-3.650501021184027E-004;-1.969797769561410E-003;
2.417666666666667E+009;2.012891620397568E-001;-4.251840710639954E-002;-5.322894430719316E-004;-2.031249227002263E-003;
2.417833333333334E+009;2.009413987398148E-001;-4.223714023828507E-002;-5.663274205289781E-004;-2.192554064095020E-003;
2.418000000000000E+009;2.001636475324631E-001;-4.192464798688889E-002;-7.147106225602329E-004;-2.366667613387108E-003;
2.418166666666667E+009;1.993578970432282E-001;-4.203480854630470E-002;-7.118440116755664E-004;-2.270744880661368E-003;
2.418333333333334E+009;1.984878778457642E-001;-4.196488112211227E-002;-8.444612030871213E-004;-2.316273981705308E-003;
2.418500000000000E+009;1.973766386508942E-001;-4.188373312354088E-002;-9.632253786548972E-004;-2.300483640283346E-003;
2.418666666666667E+009;1.964456290006638E-001;-4.181394726037979E-002;-9.521206375211477E-004;-2.394553506746888E-003;
2.418833333333334E+009;1.951507478952408E-001;-4.200480878353119E-002;-1.006109057925642E-003;-2.316143130883575E-003;
2.419000000000000E+009;1.938446462154388E-001;-4.215417802333832E-002;-1.233890303410590E-003;-2.236104803159833E-003;
2.419166666666667E+009;1.926099658012390E-001;-4.254534468054771E-002;-1.383084105327725E-003;-2.244515810161829E-003;
2.419333333333334E+009;1.911621093750000E-001;-4.315757006406784E-002;-1.334866741672158E-003;-2.263770205900073E-003;
2.419500000000000E+009;1.897363662719727E-001;-4.348324239253998E-002;-1.452218741178513E-003;-2.216493943706155E-003;
2.419666666666667E+009;1.880935132503510E-001;-4.423185810446739E-002;-1.508655725046992E-003;-2.238501096144319E-003;
2.419833333333334E+009;1.865191459655762E-001;-4.494891315698624E-002;-1.769416616298258E-003;-2.280921908095479E-003;
2.420000000000000E+009;1.850146502256393E-001;-4.586859792470932E-002;-1.869414234533906E-003;-2.134273294359446E-003;
2.420166666666667E+009;1.833602637052536E-001;-4.682944342494011E-002;-1.787144574336708E-003;-2.248480450361967E-003;
2.420333333333334E+009;1.817646175622940E-001;-4.794486984610558E-002;-2.001195913180709E-003;-2.178597031161189E-003;
2.420500000000000E+009;1.800781041383743E-001;-4.927058890461922E-002;-1.943893730640411E-003;-2.265600254759193E-003;
2.420666666666667E+009;1.783667653799057E-001;-5.034850910305977E-002;-2.213537227362394E-003;-2.229258185252547E-003;
2.420833333333334E+009;1.768419295549393E-001;-5.190702527761459E-002;-2.237745793536305E-003;-2.044831169769168E-003;
2.421000000000000E+009;1.754549145698547E-001;-5.345018580555916E-002;-2.355678007006645E-003;-1.737557933665812E-003;
2.421166666666667E+009;1.739337295293808E-001;-5.531689897179604E-002;-2.650693990290165E-003;-1.817592536099255E-003;
2.421333333333334E+009;1.724030226469040E-001;-5.652233213186264E-002;-2.699479926377535E-003;-1.864112215116620E-003;
2.421500000000000E+009;1.711208820343018E-001;-5.857874453067780E-002;-2.726082690060139E-003;-1.686968840658665E-003;
2.421666666666667E+009;1.699323952198029E-001;-6.029060482978821E-002;-2.987538231536746E-003;-1.670427271164954E-003;
2.421833333333334E+009;1.687554419040680E-001;-6.221183761954308E-002;-2.966301515698433E-003;-1.571606379002333E-003;
2.422000000000000E+009;1.676780432462692E-001;-6.414374709129334E-002;-3.020389704033732E-003;-1.437081722542644E-003;
2.422166666666667E+009;1.668796539306641E-001;-6.624949723482132E-002;-3.051898675039411E-003;-1.167139853350818E-003;
2.422333333333334E+009;1.657795906066895E-001;-6.818546354770660E-002;-3.073927015066147E-003;-9.855289245024324E-004;
2.422500000000000E+009;1.650412529706955E-001;-7.033556699752808E-002;-3.218480851501226E-003;-8.951076888479292E-004;
2.422666666666667E+009;1.643406748771668E-001;-7.245542109012604E-002;-3.224233631044626E-003;-7.766333292238414E-004;
2.422833333333334E+009;1.640464961528778E-001;-7.430098950862885E-002;-3.289621323347092E-003;-7.943041855469346E-004;
2.423000000000000E+009;1.634139567613602E-001;-7.651445269584656E-002;-3.361318260431290E-003;-8.161379955708981E-004;
2.423166666666667E+009;1.631153225898743E-001;-7.839257270097733E-002;-3.267808817327023E-003;-4.371769318822771E-004;
2.423333333333334E+009;1.628340035676956E-001;-8.030720055103302E-002;-3.332725726068020E-003;-3.424792666919529E-004;
2.423500000000000E+009;1.628650277853012E-001;-8.215991407632828E-002;-3.377025481313467E-003;-2.905526489485055E-004;
2.423666666666667E+009;1.627307236194611E-001;-8.396048098802567E-002;-3.402542555704713E-003;-1.107137431972660E-004;
2.423833333333334E+009;1.628508269786835E-001;-8.556216955184937E-002;-3.490342292934656E-003;5.714395956601948E-005;
2.424000000000000E+009;1.628528684377670E-001;-8.751069009304047E-002;-3.380139591172338E-003;1.961930247489363E-004;
2.424166666666667E+009;1.630421727895737E-001;-8.898311108350754E-002;-3.375083440914750E-003;4.564113623928279E-004;
2.424333333333334E+009;1.631771922111511E-001;-9.055591374635696E-002;-3.194268560037017E-003;5.503761931322515E-004;
2.424500000000000E+009;1.635758727788925E-001;-9.230180084705353E-002;-3.226200584322214E-003;6.954494165256620E-004;
2.424666666666667E+009;1.637618690729141E-001;-9.363240003585815E-002;-3.172043245285749E-003;8.948316681198776E-004;
2.424833333333334E+009;1.643792688846588E-001;-9.477336704730988E-002;-3.270252607762814E-003;9.803040884435177E-004;
2.425000000000000E+009;1.647411584854126E-001;-9.595714509487152E-002;-2.941074315458536E-003;1.124324277043343E-003;
2.425166666666667E+009;1.650476008653641E-001;-9.716460108757019E-002;-3.060260787606239E-003;1.318242517299950E-003;
2.425333333333334E+009;1.654723882675171E-001;-9.802069514989853E-002;-2.817356260493398E-003;1.279208809137344E-003;
2.425500000000000E+009;1.658705919981003E-001;-9.910025447607040E-002;-2.720512682572007E-003;1.359242014586926E-003;
2.425666666666667E+009;1.661278754472733E-001;-9.963999688625336E-002;-2.669844310730696E-003;1.481769606471062E-003;
2.425833333333334E+009;1.665594726800919E-001;-1.005656942725182E-001;-2.637103665620089E-003;1.480737701058388E-003;
2.426000000000000E+009;1.670202016830444E-001;-1.008337438106537E-001;-2.577884122729302E-003;1.710765180177987E-003;
2.426166666666667E+009;1.673896014690399E-001;-1.013980358839035E-001;-2.311948686838150E-003;1.549419364891946E-003;
2.426333333333334E+009;1.673641204833984E-001;-1.018917188048363E-001;-2.361067105084658E-003;1.826221006922424E-003;
2.426500000000000E+009;1.677736341953278E-001;-1.020565554499626E-001;-2.351017436012626E-003;1.704861992038786E-003;
2.426666666666667E+009;1.679547727108002E-001;-1.023752614855766E-001;-2.265012357383966E-003;1.753650489263237E-003;
2.426833333333334E+009;1.682982593774796E-001;-1.026890873908997E-001;-2.143300371244550E-003;1.910677528940141E-003;
2.427000000000000E+009;1.683223396539688E-001;-1.029061749577522E-001;-2.173338551074266E-003;1.905535813421011E-003;
2.427166666666667E+009;1.682189255952835E-001;-1.030089184641838E-001;-1.948920427821577E-003;2.012366196140647E-003;
2.427333333333334E+009;1.681455373764038E-001;-1.031879484653473E-001;-2.049480797722936E-003;2.000082982704043E-003;
2.427500000000000E+009;1.679233908653259E-001;-1.034213975071907E-001;-1.965204486623406E-003;2.055761869996786E-003;
2.427666666666667E+009;1.675303429365158E-001;-1.033635884523392E-001;-1.859496347606182E-003;2.139259595423937E-003;
