# Version 1.00
#
freq[Hz];re:Trc1_S11;im:Trc1_S11;re:Trc2_S21;im:Trc2_S21;
2.400000000000000E+009;1.549851745367050E-001;1.068855896592140E-001;-2.148055791622028E-004;2.395253861322999E-003;
2.400166666666667E+009;1.549897789955139E-001;1.044433638453484E-001;-3.281457975390367E-005;2.622903091832995E-003;
2.400333333333334E+009;1.548705548048019E-001;1.022606119513512E-001;-2.365961518080439E-005;2.702963538467884E-003;
2.400500000000000E+009;1.548455357551575E-001;9.932427108287811E-002;4.872375211562030E-005;2.624246291816235E-003;
2.400666666666667E+009;1.550098061561585E-001;9.692946076393127E-002;2.971072099171579E-004;2.696953713893890E-003;
2.400833333333334E+009;1.548739522695541E-001;9.395455569028854E-002;4.161540127824992E-004;2.812236081808806E-003;
2.401000000000000E+009;1.551022827625275E-001;9.118752181529999E-002;6.300534005276859E-004;2.817779546603560E-003;
2.401166666666667E+009;1.551705449819565E-001;8.844078332185745E-002;7.347416249103844E-004;2.780282637104392E-003;
2.401333333333334E+009;1.554384231567383E-001;8.571695536375046E-002;9.359997347928584E-004;2.791980979964137E-003;
2.401500000000000E+009;1.559573262929916E-001;8.290064334869385E-002;1.115558203309774E-003;2.675773343071342E-003;
2.401666666666667E+009;1.563453972339630E-001;7.993948459625244E-002;1.317820395343006E-003;2.686909399926662E-003;
2.401833333333334E+009;1.568758040666580E-001;7.729300856590271E-002;1.440434483811259E-003;2.564267255365849E-003;
2.402000000000000E+009;1.578749865293503E-001;7.446897029876709E-002;1.429215888492763E-003;2.362010767683387E-003;
2.402166666666667E+009;1.584968715906143E-001;7.188439369201660E-002;1.771396724507213E-003;2.325282897800207E-003;
2.402333333333334E+009;1.594325006008148E-001;6.932892650365830E-002;1.706381794065237E-003;2.033418975770474E-003;
2.402500000000000E+009;1.607848852872849E-001;6.666454672813416E-002;1.774912700057030E-003;2.071379218250513E-003;
2.402666666666667E+009;1.617390215396881E-001;6.447129696607590E-002;1.904663746245205E-003;1.866172417066991E-003;
2.402833333333334E+009;1.633800417184830E-001;6.207587942481041E-002;1.785124302841723E-003;1.597597263753414E-003;
2.403000000000000E+009;1.647780239582062E-001;5.958772450685501E-002;1.812476664781570E-003;1.707984716631472E-003;
2.403166666666667E+009;1.664691716432571E-001;5.746299028396606E-002;1.853084657341242E-003;1.599689014256001E-003;
2.403333333333334E+009;1.678199768066406E-001;5.545951426029205E-002;1.889208797365427E-003;1.653520390391350E-003;
2.403500000000000E+009;1.697563976049423E-001;5.332553759217262E-002;2.022981178015471E-003;1.428877701982856E-003;
2.403666666666667E+009;1.714548170566559E-001;5.144493281841278E-002;1.950551057234407E-003;1.339772599749267E-003;
2.403833333333334E+009;1.729800254106522E-001;4.942489787936211E-002;1.897060661576688E-003;1.313958084210753E-003;
2.404000000000000E+009;1.746208220720291E-001;4.764427617192268E-002;2.023880369961262E-003;1.309524872340262E-003;
2.404166666666667E+009;1.764150708913803E-001;4.632970690727234E-002;2.117516938596964E-003;1.338528003543615E-003;
2.404333333333334E+009;1.780238300561905E-001;4.474922642111778E-002;2.283656504005194E-003;1.203549327328801E-003;
2.404500000000000E+009;1.794880926609039E-001;4.324045404791832E-002;2.416244475170970E-003;1.130322343669832E-003;
2.404666666666667E+009;1.811645627021790E-001;4.225778207182884E-002;2.539750188589096E-003;9.836008539423347E-004;
2.404833333333334E+009;1.829470545053482E-001;4.106108099222183E-002;2.627426292747259E-003;8.575823158025742E-004;
2.405000000000000E+009;1.842551231384277E-001;4.057896509766579E-002;2.672896021977067E-003;7.630129694007337E-004;
2.405166666666667E+009;1.856952756643295E-001;3.989524766802788E-002;2.562226960435510E-003;5.125175812281668E-004;
2.405333333333334E+009;1.870160847902298E-001;3.931513801217079E-002;2.623367821797729E-003;3.540407924447209E-004;
2.405500000000000E+009;1.885713338851929E-001;3.876484185457230E-002;2.408568514510989E-003;2.366803382756189E-004;
2.405666666666667E+009;1.896228343248367E-001;3.851573169231415E-002;2.527676988393068E-003;-1.589517495403925E-007;
2.405833333333334E+009;1.909382641315460E-001;3.814562037587166E-002;2.462350763380528E-003;-9.795709047466517E-005;
2.406000000000000E+009;1.919817328453064E-001;3.795428946614265E-002;2.558982931077480E-003;-1.075783657142893E-004;
2.406166666666667E+009;1.929910182952881E-001;3.783725947141647E-002;2.289027441293001E-003;-2.364216488786042E-004;
2.406333333333334E+009;1.939099431037903E-001;3.796841949224472E-002;2.325327834114432E-003;-2.366165572311729E-004;
2.406500000000000E+009;1.945828050374985E-001;3.788584470748901E-002;2.156686270609498E-003;-2.483712742105126E-004;
2.406666666666667E+009;1.952057331800461E-001;3.791206330060959E-002;2.297288505360484E-003;-3.440562868490815E-004;
2.406833333333334E+009;1.956830620765686E-001;3.795704990625382E-002;2.146955113857985E-003;-2.149179490515962E-004;
2.407000000000000E+009;1.959419846534729E-001;3.820368647575378E-002;2.130603417754173E-003;-2.699011529330164E-004;
2.407166666666667E+009;1.964338868856430E-001;3.793384507298470E-002;2.028455492109060E-003;-3.917652938980609E-004;
2.407333333333334E+009;1.963617950677872E-001;3.807536885142326E-002;2.146811457350850E-003;-5.261451005935669E-004;
2.407500000000000E+009;1.961744874715805E-001;3.805097937583923E-002;2.098340308293700E-003;-4.991199821233749E-004;
2.407666666666667E+009;1.962911933660507E-001;3.804728016257286E-002;2.214706968516111E-003;-5.766535759903491E-004;
2.407833333333334E+009;1.957986503839493E-001;3.763690218329430E-002;2.198221394792199E-003;-7.802973268553615E-004;
2.408000000000000E+009;1.955995410680771E-001;3.773111850023270E-002;2.055039396509528E-003;-7.151254685595632E-004;
2.408166666666667E+009;1.950442194938660E-001;3.732142969965935E-002;2.040165709331632E-003;-7.689789053983986E-004;
2.408333333333334E+009;1.947672665119171E-001;3.668165579438210E-002;2.142247278243303E-003;-6.739070522598922E-004;
2.408500000000000E+009;1.939410716295242E-001;3.648884594440460E-002;2.118361881002784E-003;-7.692723884247243E-004;
2.408666666666667E+009;1.931229233741760E-001;3.581072390079498E-002;2.054204698652029E-003;-7.498561171814799E-004;
2.408833333333334E+009;1.925168931484222E-001;3.526735305786133E-002;2.106608822941780E-003;-9.253076859749854E-004;
2.409000000000000E+009;1.914701610803604E-001;3.416319563984871E-002;2.169159473851323E-003;-8.528180769644678E-004;
2.409166666666667E+009;1.905720531940460E-001;3.324634209275246E-002;2.141570439562202E-003;-1.037304056808353E-003;
2.409333333333334E+009;1.896849572658539E-001;3.226451575756073E-002;2.145644277334213E-003;-9.728205041028559E-004;
2.409500000000000E+009;1.884661167860031E-001;3.090668655931950E-002;2.167145721614361E-003;-1.127611845731735E-003;
2.409666666666667E+009;1.876739710569382E-001;2.959566935896874E-002;1.963046612218022E-003;-1.137001323513687E-003;
2.409833333333334E+009;1.865940541028976E-001;2.800877206027508E-002;2.037186175584793E-003;-1.182084088213742E-003;
2.410000000000000E+009;1.854916661977768E-001;2.647900208830833E-002;2.066826215013862E-003;-1.393490703776479E-003;
2.410166666666667E+009;1.846118271350861E-001;2.459919080138207E-002;2.095782198011875E-003;-1.321960240602493E-003;
2.410333333333334E+009;1.835206300020218E-001;2.282858826220036E-002;2.021898049861193E-003;-1.472044736146927E-003;
2.410500000000000E+009;1.826211363077164E-001;2.087634056806564E-002;2.033870667219162E-003;-1.569466199725866E-003;
2.410666666666667E+009;1.818007826805115E-001;1.858964934945107E-002;1.878223847597837E-003;-1.694990787655115E-003;
2.410833333333334E+009;1.810154467821121E-001;1.646898500621319E-002;2.022400964051485E-003;-1.879728864878416E-003;
2.411000000000000E+009;1.803329885005951E-001;1.429365202784538E-002;1.927373232319951E-003;-1.821592450141907E-003;
2.411166666666667E+009;1.798192709684372E-001;1.223440840840340E-002;1.724679255858064E-003;-1.978668384253979E-003;
2.411333333333334E+009;1.792453080415726E-001;9.595760144293308E-003;1.706116483546794E-003;-1.965301111340523E-003;
2.411500000000000E+009;1.786729544401169E-001;7.208472583442926E-003;1.523097860626876E-003;-2.177332295104861E-003;
2.411666666666667E+009;1.786292791366577E-001;4.863201640546322E-003;1.450636424124241E-003;-2.123044570907950E-003;
2.411833333333334E+009;1.783159226179123E-001;2.591637894511223E-003;1.401045010425150E-003;-2.128343563526869E-003;
2.412000000000000E+009;1.784931123256683E-001;7.196615570137510E-006;1.328350044786930E-003;-2.198391593992710E-003;
2.412166666666667E+009;1.785274296998978E-001;-2.437937306240201E-003;1.307777129113674E-003;-2.308422001078725E-003;
2.412333333333334E+009;1.787128299474716E-001;-4.948165267705917E-003;1.173437223769724E-003;-2.464729361236095E-003;
2.412500000000000E+009;1.791680455207825E-001;-7.364389020949602E-003;1.188694383017719E-003;-2.446527360007167E-003;
2.412666666666667E+009;1.798764616250992E-001;-9.791101329028606E-003;9.256243938580155E-004;-2.485494827851653E-003;
2.412833333333334E+009;1.804425865411758E-001;-1.219324953854084E-002;8.791915606707335E-004;-2.626020694151521E-003;
2.413000000000000E+009;1.812283545732498E-001;-1.443316321820021E-002;6.153256399556994E-004;-2.604213077574968E-003;
2.413166666666667E+009;1.820345968008041E-001;-1.656214334070683E-002;5.585265462286770E-004;-2.616394311189652E-003;
2.413333333333334E+009;1.830564290285111E-001;-1.907099597156048E-002;3.454194811638445E-004;-2.589583396911621E-003;
2.413500000000000E+009;1.839640289545059E-001;-2.147313579916954E-002;2.199791342718527E-004;-2.576724160462618E-003;
2.413666666666667E+009;1.849135607481003E-001;-2.360395900905132E-002;-8.830087608657777E-006;-2.372615272179246E-003;
2.413833333333334E+009;1.859045773744583E-001;-2.538465708494186E-002;5.568021151702851E-005;-2.504829317331314E-003;
2.414000000000000E+009;1.872931569814682E-001;-2.752233482897282E-002;-1.031905703712255E-004;-2.460940508171916E-003;
2.414166666666667E+009;1.885662972927094E-001;-2.929925359785557E-002;-1.581506367074326E-004;-2.198313130065799E-003;
2.414333333333334E+009;1.894764155149460E-001;-3.121112100780010E-002;-1.161768086603843E-004;-2.053084550425410E-003;
2.414500000000000E+009;1.907574832439423E-001;-3.254953026771545E-002;-8.200553565984592E-005;-2.042972017079592E-003;
2.414666666666667E+009;1.919334232807159E-001;-3.405622020363808E-002;-1.129432857851498E-004;-2.101220190525055E-003;
2.414833333333334E+009;1.932200938463211E-001;-3.541165217757225E-002;-1.014675071928650E-004;-2.082612132653594E-003;
2.415000000000000E+009;1.942208260297775E-001;-3.663175180554390E-002;-2.482380368746817E-004;-1.959324814379215E-003;
2.415166666666667E+009;1.953613460063934E-001;-3.772448748350143E-002;-3.800002741627395E-005;-1.928924582898617E-003;
2.415333333333334E+009;1.964594423770905E-001;-3.856192529201508E-002;-1.977059582713991E-004;-2.182018710300326E-003;
2.415500000000000E+009;1.976397037506104E-001;-3.914345800876617E-002;-2.996202965732664E-004;-2.052470110356808E-003;
2.415666666666667E+009;1.987982988357544E-001;-4.015595465898514E-002;-3.537796437740326E-004;-1.920441514812410E-003;
2.415833333333334E+009;1.996142864227295E-001;-4.069994762539864E-002;-5.031648324802518E-004;-1.958280568942428E-003;
2.416000000000000E+009;2.003768384456635E-001;-4.122586920857430E-002;-5.703688366338611E-004;-2.020308282226324E-003;
2.416166666666667E+009;2.010444104671478E-001;-4.185725003480911E-002;-5.620780284516513E-004;-2.025924855843186E-003;
2.416333333333334E+009;2.017249315977097E-001;-4.196267575025559E-002;-6.009758799336851E-004;-2.064514439553022E-003;
2.416500000000000E+009;2.021154612302780E-001;-4.229468479752541E-002;-6.314444472081959E-004;-1.830325461924076E-003;
2.416666666666667E+009;2.024406194686890E-001;-4.266890510916710E-002;-7.336534908972681E-004;-2.027843380346894E-003;
2.416833333333334E+009;2.026928365230560E-001;-4.268003255128861E-002;-6.815844099037349E-004;-1.897601294331253E-003;
2.417000000000000E+009;2.028054594993591E-001;-4.279727488756180E-002;-5.517048994079232E-004;-1.864527934230864E-003;
2.417166666666667E+009;2.024419009685516E-001;-4.282953590154648E-002;-5.854057380929589E-004;-1.844556303694844E-003;
2.417333333333334E+009;2.022703886032105E-001;-4.253081604838371E-002;-5.937929963693023E-004;-1.913830521516502E-003;
2.417500000000000E+009;2.019228190183640E-001;-4.264254122972488E-002;-6.110260146670044E-004;-1.998903462663293E-003;
2.417666666666667E+009;2.013733834028244E-001;-4.237379878759384E-002;-5.307733081281185E-004;-2.117490861564875E-003;
2.417833333333334E+009;2.010433375835419E-001;-4.221330210566521E-002;-6.475546397268772E-004;-2.087312284857035E-003;
2.418000000000000E+009;2.003165334463120E-001;-4.203372448682785E-002;-6.908316863700748E-004;-2.129960572347045E-003;
2.418166666666667E+009;1.994317471981049E-001;-4.195193573832512E-002;-7.151801255531609E-004;-2.200647024437785E-003;
2.418333333333334E+009;1.985576748847961E-001;-4.183636978268623E-002;-8.872173493728042E-004;-2.243618480861187E-003;
2.418500000000000E+009;1.976200044155121E-001;-4.185001552104950E-002;-8.893997292034328E-004;-2.297452883794904E-003;
2.418666666666667E+009;1.966116279363632E-001;-4.180936887860298E-002;-9.857489494606853E-004;-2.317279111593962E-003;
2.418833333333334E+009;1.953456848859787E-001;-4.201657697558403E-002;-1.203006249852479E-003;-2.390647074207664E-003;
2.419000000000000E+009;1.939251124858856E-001;-4.214616119861603E-002;-1.212209230288863E-003;-2.380306134000421E-003;
2.419166666666667E+009;1.926777213811874E-001;-4.255813732743263E-002;-1.304421457462013E-003;-2.289272844791412E-003;
2.419333333333334E+009;1.912790536880493E-001;-4.317858815193176E-002;-1.457607839256525E-003;-2.315762219950557E-003;
2.419500000000000E+009;1.897967606782913E-001;-4.350868239998817E-002;-1.547041814774275E-003;-2.160015981644392E-003;
2.419666666666667E+009;1.882077902555466E-001;-4.443563520908356E-002;-1.654029591009021E-003;-2.246022922918201E-003;
2.419833333333334E+009;1.866277605295181E-001;-4.490693658590317E-002;-1.746461843140423E-003;-2.189693273976445E-003;
2.420000000000000E+009;1.850961893796921E-001;-4.592564329504967E-002;-1.715286751277745E-003;-2.215725136920810E-003;
2.420166666666667E+009;1.835150569677353E-001;-4.685153067111969E-002;-1.929592341184616E-003;-2.353982301428914E-003;
2.420333333333334E+009;1.818779259920120E-001;-4.815666750073433E-002;-2.062463201582432E-003;-2.228076336905360E-003;
2.420500000000000E+009;1.800726801156998E-001;-4.947674274444580E-002;-2.104662824422121E-003;-2.209215890616179E-003;
2.420666666666667E+009;1.786251664161682E-001;-5.053056403994560E-002;-2.315225545316935E-003;-2.033463213592768E-003;
2.420833333333334E+009;1.769388318061829E-001;-5.206894502043724E-002;-2.284709131345153E-003;-1.820222823880613E-003;
2.421000000000000E+009;1.755188703536987E-001;-5.365188419818878E-002;-2.518939552828670E-003;-2.052965573966503E-003;
2.421166666666667E+009;1.739560067653656E-001;-5.529148504137993E-002;-2.590252785012126E-003;-1.932434039190412E-003;
2.421333333333334E+009;1.723676621913910E-001;-5.684464424848557E-002;-2.641587518155575E-003;-1.641492941416800E-003;
2.421500000000000E+009;1.712411046028137E-001;-5.873849242925644E-002;-2.746011829003692E-003;-1.787765650078654E-003;
2.421666666666667E+009;1.700758188962936E-001;-6.055809184908867E-002;-3.031685249879956E-003;-1.582686323672533E-003;
2.421833333333334E+009;1.689220219850540E-001;-6.238655745983124E-002;-2.986667910590768E-003;-1.422559958882630E-003;
2.422000000000000E+009;1.676790118217468E-001;-6.431913375854492E-002;-3.011904424056411E-003;-1.327979844063520E-003;
2.422166666666667E+009;1.668663173913956E-001;-6.651671975851059E-002;-3.112790407612920E-003;-1.128904987126589E-003;
2.422333333333334E+009;1.659667789936066E-001;-6.843081861734390E-002;-3.118067514151335E-003;-9.467582567594945E-004;
2.422500000000000E+009;1.651209294795990E-001;-7.038553059101105E-002;-3.269743872806430E-003;-9.392430656589568E-004;
2.422666666666667E+009;1.644737720489502E-001;-7.253326475620270E-002;-3.131348639726639E-003;-7.979140500538051E-004;
2.422833333333334E+009;1.641052216291428E-001;-7.453433424234390E-002;-3.204665845260024E-003;-5.577477277256548E-004;
2.423000000000000E+009;1.635209470987320E-001;-7.658943533897400E-002;-3.169413423165679E-003;-5.526422755792737E-004;
2.423166666666667E+009;1.631493568420410E-001;-7.844693213701248E-002;-3.422121517360210E-003;-4.769404185935855E-004;
2.423333333333334E+009;1.629005968570709E-001;-8.034316450357437E-002;-3.576224436983466E-003;-1.963855320354924E-004;
2.423500000000000E+009;1.627145260572434E-001;-8.212041109800339E-002;-3.226459957659245E-003;-9.392397623741999E-005;
2.423666666666667E+009;1.628469973802567E-001;-8.410392701625824E-002;-3.356934990733862E-003;-9.285229316446930E-005;
2.423833333333334E+009;1.627441346645355E-001;-8.575208485126495E-002;-3.484595101326704E-003;2.259036264149472E-004;
2.424000000000000E+009;1.629889756441116E-001;-8.773320168256760E-002;-3.346628276631236E-003;3.209814603906125E-004;
2.424166666666667E+009;1.629752367734909E-001;-8.933287858963013E-002;-3.440617583692074E-003;6.052924436517060E-004;
2.424333333333334E+009;1.632718294858933E-001;-9.073955565690994E-002;-3.284386359155178E-003;6.226713885553181E-004;
2.424500000000000E+009;1.636960804462433E-001;-9.248583018779755E-002;-3.306519705802202E-003;9.388357866555452E-004;
2.424666666666667E+009;1.637687832117081E-001;-9.368528425693512E-002;-3.164543071761727E-003;8.629642543382943E-004;
2.424833333333334E+009;1.644197702407837E-001;-9.500458836555481E-002;-3.034908790141344E-003;1.165499677881599E-003;
2.425000000000000E+009;1.647590994834900E-001;-9.619442373514175E-002;-3.007245017215610E-003;1.215093419887126E-003;
2.425166666666667E+009;1.650108695030212E-001;-9.718203544616699E-002;-2.993750385940075E-003;1.202800078317523E-003;
2.425333333333334E+009;1.653844565153122E-001;-9.821432828903198E-002;-2.807205077260733E-003;1.475133700296283E-003;
2.425500000000000E+009;1.659112423658371E-001;-9.913302212953568E-002;-2.894609002396464E-003;1.457167323678732E-003;
2.425666666666667E+009;1.662254333496094E-001;-9.970204532146454E-002;-2.692821435630322E-003;1.502038910984993E-003;
2.425833333333334E+009;1.665300726890564E-001;-1.005890071392059E-001;-2.486537909135222E-003;1.571690896525979E-003;
2.426000000000000E+009;1.669496446847916E-001;-1.009644865989685E-001;-2.544084098190069E-003;1.642914023250341E-003;
2.426166666666667E+009;1.673552542924881E-001;-1.015297323465347E-001;-2.511928556486964E-003;1.569096930325031E-003;
2.426333333333334E+009;1.674742996692658E-001;-1.018821671605110E-001;-2.333284355700016E-003;1.797553268261254E-003;
2.426500000000000E+009;1.677866131067276E-001;-1.021483093500137E-001;-2.376561285927892E-003;1.954070525243878E-003;
2.426666666666667E+009;1.681080311536789E-001;-1.024717241525650E-001;-2.160561503842473E-003;1.952760620042682E-003;
2.426833333333334E+009;1.681805551052094E-001;-1.027715727686882E-001;-2.211981685832143E-003;1.902175252325833E-003;
2.427000000000000E+009;1.681735217571259E-001;-1.030052304267883E-001;-2.142660086974502E-003;1.968968426808715E-003;
2.427166666666667E+009;1.681971102952957E-001;-1.031154990196228E-001;-1.882740878500044E-003;1.986091258004308E-003;
2.427333333333334E+009;1.680719852447510E-001;-1.032661423087120E-001;-1.897437847219408E-003;2.177668502554297E-003;
2.427500000000000E+009;1.677793711423874E-001;-1.033874824643135E-001;-1.895920606330037E-003;2.034656936302781E-003;
2.427666666666667E+009;1.675378829240799E-001;-1.034733578562737E-001;-2.008356619626284E-003;2.065853914245963E-003;
