# Version 1.00
#
freq[Hz];re:Trc1_S11;im:Trc1_S11;re:Trc2_S21;im:Trc2_S21;
2.400000000000000E+009;1.638286113739014E-001;5.177333950996399E-002;9.691608720459044E-004;3.413069527596235E-003;
2.400166666666667E+009;1.641483753919601E-001;5.060897395014763E-002;9.485525079071522E-004;3.273588838055730E-003;
2.400333333333334E+009;1.646910309791565E-001;4.901671782135963E-002;1.194468117319048E-003;3.507027169689536E-003;
2.400500000000000E+009;1.649934500455856E-001;4.758188501000404E-002;1.371426042169333E-003;3.484841668978334E-003;
2.400666666666667E+009;1.652460992336273E-001;4.611879587173462E-002;1.511819544248283E-003;3.556862240657210E-003;
2.400833333333334E+009;1.656621992588043E-001;4.474486783146858E-002;1.551490160636604E-003;3.337693866342306E-003;
2.401000000000000E+009;1.659515500068665E-001;4.325782135128975E-002;1.512455870397389E-003;3.545477986335754E-003;
2.401166666666667E+009;1.663935482501984E-001;4.166103154420853E-002;1.654375460930169E-003;3.438113955780864E-003;
2.401333333333334E+009;1.666394174098969E-001;4.010038822889328E-002;1.942639588378370E-003;3.318127710372210E-003;
2.401500000000000E+009;1.668967008590698E-001;3.878695890307427E-002;2.093784278258681E-003;3.399369539692998E-003;
2.401666666666667E+009;1.672723144292831E-001;3.729945793747902E-002;2.154914662241936E-003;3.215221920982003E-003;
2.401833333333334E+009;1.674703210592270E-001;3.586183860898018E-002;2.237929962575436E-003;3.124955343082547E-003;
2.402000000000000E+009;1.678486168384552E-001;3.439615294337273E-002;2.237739972770214E-003;3.031764877960086E-003;
2.402166666666667E+009;1.681039333343506E-001;3.294608741998673E-002;2.596933161839843E-003;3.005212871357799E-003;
2.402333333333334E+009;1.685627996921539E-001;3.169547766447067E-002;2.530993660911918E-003;2.938683610409498E-003;
2.402500000000000E+009;1.690123528242111E-001;3.047521784901619E-002;2.668083878234029E-003;2.773396205157042E-003;
2.402666666666667E+009;1.692127585411072E-001;2.909926325082779E-002;2.671362133696675E-003;2.797940978780389E-003;
2.402833333333334E+009;1.693709492683411E-001;2.803357690572739E-002;2.880351850762963E-003;2.658092416822910E-003;
2.403000000000000E+009;1.697519421577454E-001;2.668772824108601E-002;2.842052141204476E-003;2.560107270255685E-003;
2.403166666666667E+009;1.702922135591507E-001;2.552207373082638E-002;2.898119390010834E-003;2.496456960216165E-003;
2.403333333333334E+009;1.706556528806686E-001;2.433223649859428E-002;3.018785966560245E-003;2.449502702802420E-003;
2.403500000000000E+009;1.709486395120621E-001;2.334709838032723E-002;2.886504400521517E-003;2.319519640877843E-003;
2.403666666666667E+009;1.711674481630325E-001;2.230100892484188E-002;3.133727237582207E-003;2.195074455812573E-003;
2.403833333333334E+009;1.716808527708054E-001;2.121553756296635E-002;3.247153013944626E-003;2.151305321604013E-003;
2.404000000000000E+009;1.720795333385468E-001;2.014273218810558E-002;3.170386888086796E-003;2.068973379209638E-003;
2.404166666666667E+009;1.722003817558289E-001;1.916893385350704E-002;3.189493669196963E-003;1.762111089192331E-003;
2.404333333333334E+009;1.726138442754746E-001;1.823043264448643E-002;3.177247475832701E-003;1.769688213244081E-003;
2.404500000000000E+009;1.727629750967026E-001;1.719471067190170E-002;3.483939217403531E-003;1.660508452914655E-003;
2.404666666666667E+009;1.730443388223648E-001;1.633094996213913E-002;3.276808420196176E-003;1.554381335154176E-003;
2.404833333333334E+009;1.733715534210205E-001;1.539422851055861E-002;3.405148861929774E-003;1.426681759767234E-003;
2.405000000000000E+009;1.735838800668716E-001;1.455020811408758E-002;3.326966660097241E-003;1.461520558223128E-003;
2.405166666666667E+009;1.737494915723801E-001;1.380337215960026E-002;3.343218006193638E-003;1.360496273264289E-003;
2.405333333333334E+009;1.740895807743073E-001;1.281218696385622E-002;3.435769584029913E-003;1.238779630511999E-003;
2.405500000000000E+009;1.743175387382507E-001;1.228510774672031E-002;3.357545007020235E-003;1.333042629994452E-003;
2.405666666666667E+009;1.744972020387650E-001;1.145806070417166E-002;3.370109247043729E-003;1.141421380452812E-003;
2.405833333333334E+009;1.744497120380402E-001;1.072653848677874E-002;3.375445958226919E-003;1.174156204797328E-003;
2.406000000000000E+009;1.745726168155670E-001;9.834924712777138E-003;3.428542520850897E-003;1.153019373305142E-003;
2.406166666666667E+009;1.744982004165649E-001;9.221599437296391E-003;3.485262161120772E-003;1.056032604537904E-003;
2.406333333333334E+009;1.748257726430893E-001;8.416256867349148E-003;3.563806414604187E-003;9.237721678800881E-004;
2.406500000000000E+009;1.748615503311157E-001;7.694013882428408E-003;3.467243863269687E-003;8.876444189809263E-004;
2.406666666666667E+009;1.745383888483048E-001;6.846487987786531E-003;3.551326692104340E-003;9.171527344733477E-004;
2.406833333333334E+009;1.747554093599320E-001;6.076037883758545E-003;3.606974612921476E-003;7.496734615415335E-004;
2.407000000000000E+009;1.747454702854157E-001;5.191231612116098E-003;3.703567897900939E-003;8.131901267915964E-004;
2.407166666666667E+009;1.747661978006363E-001;4.422036465257406E-003;3.738606581464410E-003;6.087523070164025E-004;
2.407333333333334E+009;1.746512055397034E-001;3.327505663037300E-003;3.961621783673763E-003;6.493688561022282E-004;
2.407500000000000E+009;1.745926886796951E-001;2.648003865033388E-003;3.960014320909977E-003;5.759687628597021E-004;
2.407666666666667E+009;1.745270937681198E-001;1.669387798756361E-003;3.830977482721210E-003;3.680490190163255E-004;
2.407833333333334E+009;1.742195338010788E-001;7.010231493040919E-004;3.980180248618126E-003;2.124395832652226E-004;
2.408000000000000E+009;1.740704774856567E-001;-4.089990106876940E-004;3.931578714400530E-003;1.315650151809678E-004;
2.408166666666667E+009;1.739413887262344E-001;-1.338904607109726E-003;4.092890769243240E-003;3.123131464235485E-004;
2.408333333333334E+009;1.738347113132477E-001;-2.409767126664519E-003;4.024792928248644E-003;7.274880044860765E-005;
2.408500000000000E+009;1.736612319946289E-001;-3.609574632719159E-003;3.986064810305834E-003;-1.242783619090915E-004;
2.408666666666667E+009;1.735131889581680E-001;-4.764779936522245E-003;4.121107514947653E-003;-1.789667294360697E-004;
2.408833333333334E+009;1.730813384056091E-001;-5.857949145138264E-003;4.111014306545258E-003;-3.844583698082715E-004;
2.409000000000000E+009;1.729606837034226E-001;-7.237359881401062E-003;4.070477560162544E-003;-2.565809991210699E-004;
2.409166666666667E+009;1.727558523416519E-001;-8.404650725424290E-003;4.183795303106308E-003;-4.240011912770569E-004;
2.409333333333334E+009;1.725331246852875E-001;-9.705426171422005E-003;4.044503904879093E-003;-6.505870260298252E-004;
2.409500000000000E+009;1.722078621387482E-001;-1.128369662910700E-002;4.012290854007006E-003;-6.655940669588745E-004;
2.409666666666667E+009;1.720438748598099E-001;-1.258719991892576E-002;4.023017361760140E-003;-7.203446584753692E-004;
2.409833333333334E+009;1.716993451118469E-001;-1.396332401782274E-002;3.969633020460606E-003;-7.161658140830696E-004;
2.410000000000000E+009;1.716833263635635E-001;-1.530274376273155E-002;4.038623999804258E-003;-8.165400940924883E-004;
2.410166666666667E+009;1.714258193969727E-001;-1.674803905189037E-002;4.108027555048466E-003;-9.311612811870873E-004;
2.410333333333334E+009;1.712723374366760E-001;-1.833907328546047E-002;3.969269804656506E-003;-9.335901122540236E-004;
2.410500000000000E+009;1.710988730192184E-001;-1.969958096742630E-002;4.163288511335850E-003;-1.070926664397121E-003;
2.410666666666667E+009;1.709525883197784E-001;-2.126320265233517E-002;4.075375385582447E-003;-1.125820679590106E-003;
2.410833333333334E+009;1.709228903055191E-001;-2.264293096959591E-002;4.244769923388958E-003;-1.414211234077811E-003;
2.411000000000000E+009;1.707669347524643E-001;-2.412041276693344E-002;4.223911557346582E-003;-1.391758327372372E-003;
2.411166666666667E+009;1.707837134599686E-001;-2.571304142475128E-002;4.166877828538418E-003;-1.596161047928035E-003;
2.411333333333334E+009;1.706214547157288E-001;-2.706584520637989E-002;4.198728594928980E-003;-1.513995928689838E-003;
2.411500000000000E+009;1.705365180969238E-001;-2.889163978397846E-002;4.316671285778284E-003;-1.757536781951785E-003;
2.411666666666667E+009;1.708908528089523E-001;-3.037863969802856E-002;4.436189774423838E-003;-1.968782162293792E-003;
2.411833333333334E+009;1.710133105516434E-001;-3.159970417618752E-002;4.419738892465830E-003;-1.968730706721544E-003;
2.412000000000000E+009;1.709874123334885E-001;-3.343947604298592E-002;4.295197781175375E-003;-2.300308318808675E-003;
2.412166666666667E+009;1.711326539516449E-001;-3.506179898977280E-002;4.340408369898796E-003;-2.499628579244018E-003;
2.412333333333334E+009;1.714254021644592E-001;-3.635555878281593E-002;4.344136919826269E-003;-2.676012692973018E-003;
2.412500000000000E+009;1.713000535964966E-001;-3.763509541749954E-002;4.207590129226446E-003;-2.924105850979686E-003;
2.412666666666667E+009;1.716428995132446E-001;-3.934567049145699E-002;4.313123412430286E-003;-3.258847165852785E-003;
2.412833333333334E+009;1.718273609876633E-001;-4.073364660143852E-002;3.964591305702925E-003;-3.251426387578249E-003;
2.413000000000000E+009;1.720433384180069E-001;-4.208554700016975E-002;4.011283162981272E-003;-3.419370390474796E-003;
2.413166666666667E+009;1.720481663942337E-001;-4.341473430395126E-002;3.815952222794294E-003;-3.488213988021016E-003;
2.413333333333334E+009;1.723748296499252E-001;-4.485292732715607E-002;3.737118560820818E-003;-3.793746465817094E-003;
2.413500000000000E+009;1.726596057415009E-001;-4.618632420897484E-002;3.559679491445422E-003;-3.926979377865791E-003;
2.413666666666667E+009;1.728810220956802E-001;-4.750509932637215E-002;3.384720534086227E-003;-4.057544749230146E-003;
2.413833333333334E+009;1.728842407464981E-001;-4.861116781830788E-002;3.193269250914455E-003;-4.385789856314659E-003;
2.414000000000000E+009;1.729915887117386E-001;-4.984829202294350E-002;3.065980738028884E-003;-4.379460122436285E-003;
2.414166666666667E+009;1.734067201614380E-001;-5.079578608274460E-002;2.936474746093154E-003;-4.445424769073725E-003;
2.414333333333334E+009;1.731659024953842E-001;-5.189839377999306E-002;2.655576216056943E-003;-4.688133019953966E-003;
2.414500000000000E+009;1.735374033451080E-001;-5.294173210859299E-002;2.604824025183916E-003;-4.740847740322352E-003;
2.414666666666667E+009;1.735833138227463E-001;-5.387003719806671E-002;2.359380479902029E-003;-4.882123786956072E-003;
2.414833333333334E+009;1.738090366125107E-001;-5.481174588203430E-002;2.206342527642846E-003;-4.866598639637232E-003;
2.415000000000000E+009;1.738158762454987E-001;-5.567779019474983E-002;1.940951216965914E-003;-4.948685411363840E-003;
2.415166666666667E+009;1.738135218620300E-001;-5.654955655336380E-002;1.721947570331395E-003;-4.691200796514750E-003;
2.415333333333334E+009;1.737117022275925E-001;-5.729366466403008E-002;1.654033665545285E-003;-4.894534125924110E-003;
2.415500000000000E+009;1.737598478794098E-001;-5.805732682347298E-002;1.395691651850939E-003;-4.975310526788235E-003;
2.415666666666667E+009;1.736060976982117E-001;-5.868915095925331E-002;1.349396887235344E-003;-5.117788910865784E-003;
2.415833333333334E+009;1.735502183437347E-001;-5.941557511687279E-002;1.055952743627131E-003;-4.871611949056387E-003;
2.416000000000000E+009;1.732646077871323E-001;-6.000811606645584E-002;8.733716094866395E-004;-5.033983848989010E-003;
2.416166666666667E+009;1.732628345489502E-001;-6.068789586424828E-002;8.303213980980218E-004;-4.974771756678820E-003;
2.416333333333334E+009;1.729121208190918E-001;-6.124413013458252E-002;7.187314913608134E-004;-4.928854294121265E-003;
2.416500000000000E+009;1.726925820112228E-001;-6.198163703083992E-002;3.397081454750150E-004;-4.997647833079100E-003;
2.416666666666667E+009;1.720749586820602E-001;-6.240613386034966E-002;3.646058903541416E-004;-4.736083559691906E-003;
2.416833333333334E+009;1.718504279851914E-001;-6.310214102268219E-002;2.400676748948172E-004;-4.853012505918741E-003;
2.417000000000000E+009;1.711027622222900E-001;-6.366391479969025E-002;1.462175277993083E-004;-4.898297134786844E-003;
2.417166666666667E+009;1.707484126091003E-001;-6.406591832637787E-002;-7.378102600341663E-005;-4.692450631409884E-003;
2.417333333333334E+009;1.701202243566513E-001;-6.470542401075363E-002;-9.251035953639075E-005;-4.730266984552145E-003;
2.417500000000000E+009;1.694636195898056E-001;-6.542102992534638E-002;-3.170272684656084E-004;-4.736236296594143E-003;
2.417666666666667E+009;1.688242256641388E-001;-6.585725396871567E-002;-4.870794364251196E-004;-4.678978584706783E-003;
2.417833333333334E+009;1.682080924510956E-001;-6.640530377626419E-002;-5.912851192988455E-004;-4.635643213987351E-003;
2.418000000000000E+009;1.673610806465149E-001;-6.712289154529572E-002;-4.682277212850750E-004;-4.520473070442677E-003;
2.418166666666667E+009;1.666474938392639E-001;-6.769902259111404E-002;-6.475301925092936E-004;-4.565062001347542E-003;
2.418333333333334E+009;1.661384850740433E-001;-6.837956607341766E-002;-6.957272416912019E-004;-4.540015477687120E-003;
2.418500000000000E+009;1.651468127965927E-001;-6.910160183906555E-002;-6.893383688293397E-004;-4.466647282242775E-003;
2.418666666666667E+009;1.643190234899521E-001;-6.989148259162903E-002;-7.856586016714573E-004;-4.376919940114021E-003;
2.418833333333334E+009;1.632925868034363E-001;-7.059079408645630E-002;-8.800767827779055E-004;-4.402800928801298E-003;
2.419000000000000E+009;1.624172478914261E-001;-7.131918519735336E-002;-9.520218009129167E-004;-4.469440318644047E-003;
2.419166666666667E+009;1.615915149450302E-001;-7.203812152147293E-002;-9.706228156574071E-004;-4.433467052876949E-003;
2.419333333333334E+009;1.605377048254013E-001;-7.282201200723648E-002;-1.188005553558469E-003;-4.242558497935534E-003;
2.419500000000000E+009;1.597216427326202E-001;-7.379804551601410E-002;-1.235281350091100E-003;-4.386338870972395E-003;
2.419666666666667E+009;1.590230315923691E-001;-7.470744848251343E-002;-1.212061848491430E-003;-4.352289717644453E-003;
2.419833333333334E+009;1.578692048788071E-001;-7.545384019613266E-002;-1.286281505599618E-003;-4.339604638516903E-003;
2.420000000000000E+009;1.571798622608185E-001;-7.662820070981979E-002;-1.410219236277044E-003;-4.459855146706104E-003;
2.420166666666667E+009;1.563710719347000E-001;-7.766388356685638E-002;-1.527345157228410E-003;-4.327307920902968E-003;
2.420333333333334E+009;1.556036472320557E-001;-7.873583585023880E-002;-1.583392149768770E-003;-4.385404754430056E-003;
2.420500000000000E+009;1.549928039312363E-001;-7.973283529281616E-002;-1.629133243113756E-003;-4.379825666546822E-003;
2.420666666666667E+009;1.540100276470184E-001;-8.079494535923004E-002;-1.922700437717140E-003;-4.407245665788651E-003;
2.420833333333334E+009;1.533626168966293E-001;-8.204334229230881E-002;-1.891830004751682E-003;-4.192161839455366E-003;
2.421000000000000E+009;1.526540964841843E-001;-8.324962854385376E-002;-1.966335345059633E-003;-4.223211668431759E-003;
2.421166666666667E+009;1.521762907505035E-001;-8.440779894590378E-002;-2.089038724079728E-003;-4.268680233508349E-003;
2.421333333333334E+009;1.517249792814255E-001;-8.584292978048325E-002;-2.268761163577437E-003;-4.226444289088249E-003;
2.421500000000000E+009;1.510606706142426E-001;-8.688446879386902E-002;-2.187083708122373E-003;-4.197126720100641E-003;
2.421666666666667E+009;1.506964415311813E-001;-8.830776065587997E-002;-2.429574728012085E-003;-4.246180877089500E-003;
2.421833333333334E+009;1.503061652183533E-001;-8.960941433906555E-002;-2.418263582512736E-003;-4.205160308629274E-003;
2.422000000000000E+009;1.498714238405228E-001;-9.100977331399918E-002;-2.619413891807199E-003;-4.159258678555489E-003;
2.422166666666667E+009;1.496893465518951E-001;-9.238450974225998E-002;-2.749842358753085E-003;-4.195936489850283E-003;
2.422333333333334E+009;1.493639796972275E-001;-9.355014562606812E-002;-2.636839868500829E-003;-4.115409683436155E-003;
2.422500000000000E+009;1.488937884569168E-001;-9.499903023242950E-002;-2.988726599141955E-003;-4.085393156856298E-003;
2.422666666666667E+009;1.488806307315826E-001;-9.640709310770035E-002;-3.195758908987045E-003;-3.968039527535439E-003;
2.422833333333334E+009;1.487583518028259E-001;-9.792464226484299E-002;-3.251141402870417E-003;-4.067319910973311E-003;
2.423000000000000E+009;1.486860066652298E-001;-9.915649145841599E-002;-3.351173596456647E-003;-4.071795381605625E-003;
2.423166666666667E+009;1.483957320451737E-001;-1.005199924111366E-001;-3.663652809336782E-003;-3.960039000958204E-003;
2.423333333333334E+009;1.484779864549637E-001;-1.016381680965424E-001;-3.703281283378601E-003;-3.885843558236957E-003;
2.423500000000000E+009;1.483566761016846E-001;-1.031196042895317E-001;-3.866746090352535E-003;-3.799690166488290E-003;
2.423666666666667E+009;1.483207345008850E-001;-1.045354083180428E-001;-4.203652497380972E-003;-3.731505712494254E-003;
2.423833333333334E+009;1.485582590103149E-001;-1.057326272130013E-001;-4.379359539598227E-003;-3.616354893893004E-003;
2.424000000000000E+009;1.485656052827835E-001;-1.067917868494988E-001;-4.552165977656841E-003;-3.506848821416497E-003;
2.424166666666667E+009;1.485561728477478E-001;-1.080546751618385E-001;-4.748121835291386E-003;-3.325837664306164E-003;
2.424333333333334E+009;1.486027091741562E-001;-1.091821044683456E-001;-4.857741296291351E-003;-3.251594258472323E-003;
2.424500000000000E+009;1.487887948751450E-001;-1.103901565074921E-001;-5.022919736802578E-003;-3.142069326713681E-003;
2.424666666666667E+009;1.489170044660568E-001;-1.112375259399414E-001;-5.242223385721445E-003;-2.912654541432858E-003;
2.424833333333334E+009;1.488282084465027E-001;-1.122425422072411E-001;-5.389413330703974E-003;-2.703844802454114E-003;
2.425000000000000E+009;1.488874256610870E-001;-1.132413744926453E-001;-5.521838087588549E-003;-2.458712551742792E-003;
2.425166666666667E+009;1.487029790878296E-001;-1.142133176326752E-001;-5.660096183419228E-003;-2.153335139155388E-003;
2.425333333333334E+009;1.488973200321198E-001;-1.149647384881973E-001;-5.763139110058546E-003;-2.121701603755355E-003;
2.425500000000000E+009;1.490162760019302E-001;-1.158577725291252E-001;-5.687931086868048E-003;-1.784905558452010E-003;
2.425666666666667E+009;1.487119495868683E-001;-1.167136877775192E-001;-5.814745556563139E-003;-1.460154308006167E-003;
2.425833333333334E+009;1.487148404121399E-001;-1.174225732684135E-001;-5.961875896900892E-003;-1.399059547111392E-003;
2.426000000000000E+009;1.486098170280457E-001;-1.182773709297180E-001;-5.855660885572434E-003;-9.898933349177241E-004;
2.426166666666667E+009;1.486589014530182E-001;-1.189585179090500E-001;-5.839669145643711E-003;-8.508046157658100E-004;
2.426333333333334E+009;1.482786983251572E-001;-1.194459199905396E-001;-5.783922504633665E-003;-6.691286689601839E-004;
2.426500000000000E+009;1.481303721666336E-001;-1.200187355279923E-001;-5.632438231259584E-003;-2.891662879846990E-004;
2.426666666666667E+009;1.478840708732605E-001;-1.203391999006271E-001;-5.759201012551785E-003;-2.439876989228651E-004;
2.426833333333334E+009;1.475187987089157E-001;-1.211093366146088E-001;-5.735964514315128E-003;4.203771459287964E-005;
2.427000000000000E+009;1.471348106861115E-001;-1.216031014919281E-001;-5.694541148841381E-003;2.259597968077287E-004;
2.427166666666667E+009;1.466660499572754E-001;-1.219281703233719E-001;-5.660934373736382E-003;3.777086385525763E-004;
2.427333333333334E+009;1.461285203695297E-001;-1.223210543394089E-001;-5.481120198965073E-003;6.798053509555757E-004;
2.427500000000000E+009;1.456789672374725E-001;-1.227492019534111E-001;-5.548172630369663E-003;7.339401054196060E-004;
2.427666666666667E+009;1.449835151433945E-001;-1.232059895992279E-001;-5.169185344129801E-003;9.569124667905271E-004;
