# Version 1.00
#
freq[Hz];re:Trc1_S11;im:Trc1_S11;re:Trc2_S21;im:Trc2_S21;
2.400000000000000E+009;1.562900841236115E-001;6.202642619609833E-002;-1.396362553350627E-003;2.887616632506251E-003;
2.400166666666667E+009;1.563433110713959E-001;6.027284264564514E-002;-1.350724836811423E-003;2.738879527896643E-003;
2.400333333333334E+009;1.561027169227600E-001;5.812978744506836E-002;-1.266326755285263E-003;2.732981927692890E-003;
2.400500000000000E+009;1.562130004167557E-001;5.636332929134369E-002;-1.234323834069073E-003;2.782522933557630E-003;
2.400666666666667E+009;1.562756448984146E-001;5.389621481299400E-002;-1.136570936068893E-003;2.831352408975363E-003;
2.400833333333334E+009;1.566050052642822E-001;5.199240148067474E-002;-1.094077480956912E-003;2.832299098372459E-003;
2.401000000000000E+009;1.566596925258637E-001;4.982108995318413E-002;-1.127394963987172E-003;2.884579123929143E-003;
2.401166666666667E+009;1.570087522268295E-001;4.754519090056419E-002;-1.036698231473565E-003;2.885146997869015E-003;
2.401333333333334E+009;1.572486013174057E-001;4.560657963156700E-002;-9.253814932890236E-004;3.058825386688113E-003;
2.401500000000000E+009;1.576881706714630E-001;4.334983229637146E-002;-8.368011331185699E-004;2.866621362045407E-003;
2.401666666666667E+009;1.582276076078415E-001;4.138533398509026E-002;-7.291756919585168E-004;2.906740177422762E-003;
2.401833333333334E+009;1.588830053806305E-001;3.914639726281166E-002;-8.453890914097428E-004;3.092025639489293E-003;
2.402000000000000E+009;1.592083871364594E-001;3.734502568840981E-002;-7.700668065808713E-004;3.012199420481920E-003;
2.402166666666667E+009;1.600621640682221E-001;3.522956743836403E-002;-6.627023103646934E-004;3.192024771124125E-003;
2.402333333333334E+009;1.608294695615768E-001;3.334232792258263E-002;-4.283112357370555E-004;3.038017079234123E-003;
2.402500000000000E+009;1.617216318845749E-001;3.150666877627373E-002;-3.440438304096460E-004;3.150920616462827E-003;
2.402666666666667E+009;1.624651402235031E-001;2.997293882071972E-002;-4.330629308242351E-004;3.222054569050670E-003;
2.402833333333334E+009;1.634328812360764E-001;2.814250625669956E-002;-1.965398696484044E-004;2.978793345391750E-003;
2.403000000000000E+009;1.644939929246903E-001;2.669642679393292E-002;-1.934288738993928E-004;3.142241388559341E-003;
2.403166666666667E+009;1.654827743768692E-001;2.510971762239933E-002;-9.819653496379033E-005;3.214706433936954E-003;
2.403333333333334E+009;1.664583086967468E-001;2.370987646281719E-002;-1.012155098578660E-005;3.042603610083461E-003;
2.403500000000000E+009;1.674319952726364E-001;2.233151532709599E-002;-1.090140503947623E-004;3.057450987398624E-003;
2.403666666666667E+009;1.685004085302353E-001;2.094866707921028E-002;1.644460135139525E-004;3.086523385718465E-003;
2.403833333333334E+009;1.697696447372437E-001;1.993080414831638E-002;1.417054154444486E-004;3.182324348017573E-003;
2.404000000000000E+009;1.707610934972763E-001;1.902341656386852E-002;4.813229024875909E-004;3.154028207063675E-003;
2.404166666666667E+009;1.718557178974152E-001;1.798070222139359E-002;2.204563788836822E-004;3.106974298134446E-003;
2.404333333333334E+009;1.727589666843414E-001;1.706129126250744E-002;4.873397701885551E-004;3.122129477560520E-003;
2.404500000000000E+009;1.736160814762116E-001;1.613845489919186E-002;4.765990015584976E-004;3.169866278767586E-003;
2.404666666666667E+009;1.746737658977509E-001;1.538289524614811E-002;5.997030530124903E-004;3.122102003544569E-003;
2.404833333333334E+009;1.756502985954285E-001;1.493908371776342E-002;8.418352226726711E-004;3.205600427463651E-003;
2.405000000000000E+009;1.765759140253067E-001;1.427946984767914E-002;7.479943451471627E-004;3.078453475609422E-003;
2.405166666666667E+009;1.774991601705551E-001;1.383578870445490E-002;1.075975713320077E-003;3.246927633881569E-003;
2.405333333333334E+009;1.782237738370895E-001;1.311121415346861E-002;1.183475484140217E-003;3.147311042994261E-003;
2.405500000000000E+009;1.788948923349381E-001;1.306978054344654E-002;1.151321455836296E-003;3.105078591033816E-003;
2.405666666666667E+009;1.793605834245682E-001;1.262674387544394E-002;1.305064419284463E-003;3.181891283020377E-003;
2.405833333333334E+009;1.798432022333145E-001;1.246129162609577E-002;1.446268637664616E-003;3.158963285386562E-003;
2.406000000000000E+009;1.803705692291260E-001;1.200739946216345E-002;1.510795438662171E-003;2.888619666919112E-003;
2.406166666666667E+009;1.806149929761887E-001;1.191323902457953E-002;1.589284627698362E-003;3.076710505411029E-003;
2.406333333333334E+009;1.810157895088196E-001;1.167217642068863E-002;1.805011997930706E-003;2.914526732638478E-003;
2.406500000000000E+009;1.812176406383514E-001;1.148328464478254E-002;1.814267481677234E-003;2.908024704083800E-003;
2.406666666666667E+009;1.812748014926910E-001;1.136623509228230E-002;2.027167472988367E-003;2.819451736286283E-003;
2.406833333333334E+009;1.811578124761581E-001;1.097673736512661E-002;2.143028192222118E-003;2.680158475413919E-003;
2.407000000000000E+009;1.811309456825256E-001;1.078007370233536E-002;2.325942274183035E-003;2.586013870313764E-003;
2.407166666666667E+009;1.812032461166382E-001;1.045755390077829E-002;2.277675783261657E-003;2.606685040518642E-003;
2.407333333333334E+009;1.806437522172928E-001;9.939594194293022E-003;2.426974475383759E-003;2.548053860664368E-003;
2.407500000000000E+009;1.804110854864121E-001;9.586412459611893E-003;2.702995669096708E-003;2.271201461553574E-003;
2.407666666666667E+009;1.800915151834488E-001;9.083107113838196E-003;2.742681652307510E-003;2.340077422559261E-003;
2.407833333333334E+009;1.794971674680710E-001;8.358180522918701E-003;2.651153132319450E-003;1.995227532461286E-003;
2.408000000000000E+009;1.789899468421936E-001;7.649919018149376E-003;2.789143705740571E-003;1.894445158541203E-003;
2.408166666666667E+009;1.783749610185623E-001;7.152333855628967E-003;2.913709962740541E-003;1.642155228182674E-003;
2.408333333333334E+009;1.777647435665131E-001;6.565502379089594E-003;3.195793135091662E-003;1.652615610510111E-003;
2.408500000000000E+009;1.770359426736832E-001;5.417173262685537E-003;3.059611655771732E-003;1.477742218412459E-003;
2.408666666666667E+009;1.763683855533600E-001;4.475201945751905E-003;2.910886658355594E-003;1.234828727319837E-003;
2.408833333333334E+009;1.754100620746613E-001;3.508552676066756E-003;3.042845055460930E-003;1.227537286467850E-003;
2.409000000000000E+009;1.745605915784836E-001;2.325999783352017E-003;2.864076057448983E-003;1.092641847208142E-003;
2.409166666666667E+009;1.738477647304535E-001;1.138682710006833E-003;2.863147761672735E-003;9.693471947684884E-004;
2.409333333333334E+009;1.732723116874695E-001;-2.901250263676047E-004;2.994532464072108E-003;8.882510010153055E-004;
2.409500000000000E+009;1.723982691764832E-001;-1.839580596424639E-003;3.118101041764021E-003;7.009190157987177E-004;
2.409666666666667E+009;1.715934425592423E-001;-3.177979262545705E-003;3.228214336559176E-003;6.625673850066960E-004;
2.409833333333334E+009;1.707283705472946E-001;-4.803623538464308E-003;3.079227870330215E-003;5.435411585494876E-004;
2.410000000000000E+009;1.700862348079681E-001;-6.461123935878277E-003;2.930214628577232E-003;4.303487075958401E-004;
2.410166666666667E+009;1.695993542671204E-001;-8.176256902515888E-003;2.947023604065180E-003;3.348228055983782E-004;
2.410333333333334E+009;1.689327508211136E-001;-9.920088574290276E-003;2.895125653594732E-003;1.930004509631544E-004;
2.410500000000000E+009;1.684171706438065E-001;-1.179304439574480E-002;2.854526042938232E-003;3.470500087132677E-005;
2.410666666666667E+009;1.678557395935059E-001;-1.375072542577982E-002;2.832638099789619E-003;-3.365400334587321E-005;
2.410833333333334E+009;1.676931828260422E-001;-1.541562378406525E-002;3.046858822926879E-003;-5.979484922136180E-005;
2.411000000000000E+009;1.673969328403473E-001;-1.756802015006542E-002;2.943531610071659E-003;-4.139347001910210E-004;
2.411166666666667E+009;1.668467968702316E-001;-1.956840045750141E-002;2.787485020235181E-003;-4.665641172323376E-004;
2.411333333333334E+009;1.668967902660370E-001;-2.156404778361321E-002;2.663835883140564E-003;-4.747319908346981E-004;
2.411500000000000E+009;1.668443232774735E-001;-2.388536371290684E-002;2.589330542832613E-003;-6.163966609165072E-004;
2.411666666666667E+009;1.668210327625275E-001;-2.574825659394264E-002;2.682959428057075E-003;-8.187166531570256E-004;
2.411833333333334E+009;1.668292582035065E-001;-2.754442766308785E-002;2.635152544826269E-003;-8.596723782829940E-004;
2.412000000000000E+009;1.671889275312424E-001;-2.975440956652165E-002;2.431249711662531E-003;-1.024226774461567E-003;
2.412166666666667E+009;1.671963483095169E-001;-3.161903098225594E-002;2.328283386304975E-003;-1.159695093519986E-003;
2.412333333333334E+009;1.676551401615143E-001;-3.370981290936470E-002;2.328767906874418E-003;-1.290221931412816E-003;
2.412500000000000E+009;1.679456979036331E-001;-3.547427058219910E-002;2.111916197463870E-003;-1.208551344461739E-003;
2.412666666666667E+009;1.685571968555450E-001;-3.773459792137146E-002;2.048326889052987E-003;-1.419443287886679E-003;
2.412833333333334E+009;1.691241413354874E-001;-3.938011452555656E-002;1.958305016160011E-003;-1.554106827825308E-003;
2.413000000000000E+009;1.694357991218567E-001;-4.111636430025101E-002;1.848362269811332E-003;-1.541449339129031E-003;
2.413166666666667E+009;1.699207723140717E-001;-4.297137260437012E-002;1.745163113810122E-003;-1.548120286315680E-003;
2.413333333333334E+009;1.706041395664215E-001;-4.445787146687508E-002;1.545760896988213E-003;-1.749269315041602E-003;
2.413500000000000E+009;1.714327037334442E-001;-4.610146954655647E-002;1.316730864346027E-003;-1.806611893698573E-003;
2.413666666666667E+009;1.719896346330643E-001;-4.766675084829330E-002;1.179861021228135E-003;-1.814499148167670E-003;
2.413833333333334E+009;1.725942045450211E-001;-4.897485673427582E-002;1.040910137817264E-003;-1.627626246772707E-003;
2.414000000000000E+009;1.731444597244263E-001;-5.035438388586044E-002;7.866090163588524E-004;-1.611326239071786E-003;
2.414166666666667E+009;1.739089190959930E-001;-5.150198563933373E-002;8.532844367437065E-004;-1.742247608490288E-003;
2.414333333333334E+009;1.745358109474182E-001;-5.269472301006317E-002;3.963978087995201E-004;-1.599046867340803E-003;
2.414500000000000E+009;1.751964539289475E-001;-5.355485156178474E-002;4.115574702154845E-004;-1.702978624962270E-003;
2.414666666666667E+009;1.757813692092896E-001;-5.451604351401329E-002;3.324253193568438E-004;-1.651802333071828E-003;
2.414833333333334E+009;1.764572411775589E-001;-5.525558069348335E-002;9.291758760809898E-005;-1.572831533849239E-003;
2.415000000000000E+009;1.767773032188416E-001;-5.599642917513847E-002;-3.938985537388362E-005;-1.496691489592195E-003;
2.415166666666667E+009;1.772291362285614E-001;-5.671739578247070E-002;-5.380754009820521E-005;-1.373812207020819E-003;
2.415333333333334E+009;1.778626739978790E-001;-5.736247822642326E-002;3.555977309588343E-005;-1.475327881053090E-003;
2.415500000000000E+009;1.780320554971695E-001;-5.780605226755142E-002;-1.165342109743506E-004;-1.103548682294786E-003;
2.415666666666667E+009;1.783435493707657E-001;-5.803928524255753E-002;-3.603152581490576E-004;-1.061854418367147E-003;
2.415833333333334E+009;1.785633116960526E-001;-5.841588228940964E-002;-3.716387145686895E-004;-8.807748090475798E-004;
2.416000000000000E+009;1.785149425268173E-001;-5.870267376303673E-002;-3.476445854175836E-004;-8.744969964027405E-004;
2.416166666666667E+009;1.786767840385437E-001;-5.896008387207985E-002;-3.773329081013799E-004;-7.158809457905591E-004;
2.416333333333334E+009;1.786340028047562E-001;-5.906003341078758E-002;-2.678962482605130E-004;-6.198249175213277E-004;
2.416500000000000E+009;1.784331649541855E-001;-5.935942381620407E-002;-3.972036938648671E-004;-5.657158908434212E-004;
2.416666666666667E+009;1.780924946069717E-001;-5.943188443779945E-002;-4.484072269406170E-004;-4.755573463626206E-004;
2.416833333333334E+009;1.778835654258728E-001;-5.957161262631416E-002;-4.084592801518738E-004;-4.106171545572579E-004;
2.417000000000000E+009;1.772125512361527E-001;-5.982200801372528E-002;-3.247953427489847E-004;-3.129748220089823E-004;
2.417166666666667E+009;1.766181439161301E-001;-5.973062664270401E-002;-3.560991026461124E-004;-2.483768330421299E-004;
2.417333333333334E+009;1.761084944009781E-001;-5.988106504082680E-002;-3.963331109844148E-004;-3.230514121241868E-004;
2.417500000000000E+009;1.753102689981461E-001;-6.019693240523338E-002;-3.941078030038625E-004;-1.087357668438926E-004;
2.417666666666667E+009;1.745484471321106E-001;-6.027085334062576E-002;-2.259532484458759E-004;4.977819116902538E-007;
2.417833333333334E+009;1.736085563898087E-001;-6.039988994598389E-002;-3.972635022364557E-004;-8.819162030704320E-005;
2.418000000000000E+009;1.725510060787201E-001;-6.081239134073257E-002;-2.705687365960330E-004;2.009686140809208E-004;
2.418166666666667E+009;1.715470552444458E-001;-6.089045107364655E-002;-1.983715919777751E-004;2.257162705063820E-004;
2.418333333333334E+009;1.705625206232071E-001;-6.141671910881996E-002;-2.067433524644002E-004;1.428378309356049E-004;
2.418500000000000E+009;1.692337989807129E-001;-6.176260113716126E-002;-9.350019536213949E-005;1.924002572195604E-004;
2.418666666666667E+009;1.681654900312424E-001;-6.233299523591995E-002;-4.792126128450036E-005;2.936063974630088E-004;
2.418833333333334E+009;1.667305678129196E-001;-6.286123394966126E-002;-9.326602594228461E-005;4.115754272788763E-004;
2.419000000000000E+009;1.652666926383972E-001;-6.346240639686585E-002;-3.590051346691325E-005;2.977181866299361E-004;
2.419166666666667E+009;1.641867905855179E-001;-6.435769796371460E-002;-1.488838097429834E-005;3.508131485432386E-004;
2.419333333333334E+009;1.628165096044540E-001;-6.496640294790268E-002;-3.057156573049724E-005;3.292966284789145E-004;
2.419500000000000E+009;1.616358309984207E-001;-6.614909321069717E-002;7.962896233948413E-006;4.486271063797176E-004;
2.419666666666667E+009;1.603244990110397E-001;-6.707538664340973E-002;1.641730923438445E-004;4.890001146122813E-004;
2.419833333333334E+009;1.590315550565720E-001;-6.793856620788574E-002;1.957486711035017E-005;5.470907199196518E-004;
2.420000000000000E+009;1.578694581985474E-001;-6.916151940822601E-002;2.329646958969533E-004;5.000702221877873E-004;
2.420166666666667E+009;1.567804068326950E-001;-7.043490558862686E-002;2.842517278622836E-004;5.901772528886795E-004;
2.420333333333334E+009;1.555823087692261E-001;-7.175298780202866E-002;2.921033301390708E-004;6.262642564252019E-004;
2.420500000000000E+009;1.547361910343170E-001;-7.294882833957672E-002;2.177492860937491E-004;6.607194081880152E-004;
2.420666666666667E+009;1.536354422569275E-001;-7.430414855480194E-002;3.120629407931119E-004;6.799228140152991E-004;
2.420833333333334E+009;1.527782380580902E-001;-7.604155689477921E-002;6.008390337228775E-004;7.228076574392617E-004;
2.421000000000000E+009;1.519652754068375E-001;-7.753263413906097E-002;4.314313991926611E-004;5.998607375659049E-004;
2.421166666666667E+009;1.512266099452972E-001;-7.928138971328735E-002;4.769608785863966E-004;7.483881199732423E-004;
2.421333333333334E+009;1.507590413093567E-001;-8.105219900608063E-002;6.421100115403533E-004;7.668684702366591E-004;
2.421500000000000E+009;1.499752402305603E-001;-8.258325606584549E-002;6.058132275938988E-004;7.932701846584678E-004;
2.421666666666667E+009;1.496993005275726E-001;-8.437792211771011E-002;7.194069912657142E-004;8.309325203299522E-004;
2.421833333333334E+009;1.492291986942291E-001;-8.615235984325409E-002;6.594893056899309E-004;6.638548802584410E-004;
2.422000000000000E+009;1.490648835897446E-001;-8.793486654758453E-002;9.066035272553563E-004;8.131352369673550E-004;
2.422166666666667E+009;1.488423198461533E-001;-8.992275595664978E-002;6.657073390670121E-004;9.100268944166601E-004;
2.422333333333334E+009;1.487327367067337E-001;-9.162232279777527E-002;1.015027053654194E-003;7.555210613645613E-004;
2.422500000000000E+009;1.487610042095184E-001;-9.333088248968124E-002;1.015498535707593E-003;7.227000896818936E-004;
2.422666666666667E+009;1.488282084465027E-001;-9.508053213357925E-002;9.272535098716617E-004;7.399565074592829E-004;
2.422833333333334E+009;1.489768773317337E-001;-9.693051874637604E-002;1.193387666717172E-003;6.283816765062511E-004;
2.423000000000000E+009;1.492784023284912E-001;-9.846957027912140E-002;1.217539072968066E-003;7.694205851294100E-004;
2.423166666666667E+009;1.495854556560516E-001;-1.002636924386025E-001;1.265653292648494E-003;8.510202751494944E-004;
2.423333333333334E+009;1.500750631093979E-001;-1.016969680786133E-001;1.181891071610153E-003;6.516477442346513E-004;
2.423500000000000E+009;1.505110710859299E-001;-1.033588945865631E-001;1.468560425564647E-003;6.964325439184904E-004;
2.423666666666667E+009;1.507094502449036E-001;-1.049837544560432E-001;1.449108356609941E-003;6.582848727703095E-004;
2.423833333333334E+009;1.513871848583221E-001;-1.064042523503304E-001;1.597953494638205E-003;5.207116482779384E-004;
2.424000000000000E+009;1.518651247024536E-001;-1.074463501572609E-001;1.569255487993360E-003;4.775683337356895E-004;
2.424166666666667E+009;1.523575037717819E-001;-1.090027540922165E-001;1.675725798122585E-003;5.192342796362937E-004;
2.424333333333334E+009;1.530697643756867E-001;-1.099976450204849E-001;1.850677304901183E-003;5.867625586688519E-004;
2.424500000000000E+009;1.536386609077454E-001;-1.111482977867127E-001;1.737135462462902E-003;4.050184797961265E-004;
2.424666666666667E+009;1.543716043233872E-001;-1.119458600878716E-001;1.902562449686229E-003;3.087136428803206E-004;
2.424833333333334E+009;1.547262668609619E-001;-1.129192113876343E-001;2.115716226398945E-003;2.339661878068000E-004;
2.425000000000000E+009;1.553520709276199E-001;-1.139361411333084E-001;2.181387506425381E-003;2.507350291125476E-004;
2.425166666666667E+009;1.555906385183334E-001;-1.146980077028275E-001;2.018813742324710E-003;1.355892163701356E-004;
2.425333333333334E+009;1.561300605535507E-001;-1.151273697614670E-001;2.087644999846816E-003;-4.507916310103610E-005;
2.425500000000000E+009;1.566021144390106E-001;-1.158151924610138E-001;2.334008459001780E-003;5.018022784497589E-005;
2.425666666666667E+009;1.567434072494507E-001;-1.163380891084671E-001;2.492660889402032E-003;-1.319907460128889E-004;
2.425833333333334E+009;1.571030020713806E-001;-1.167743131518364E-001;2.312407828867436E-003;-3.622778458520770E-004;
2.426000000000000E+009;1.572021543979645E-001;-1.171558275818825E-001;2.333979820832610E-003;-2.493175561539829E-004;
2.426166666666667E+009;1.574754267930985E-001;-1.175063550472260E-001;2.428716979920864E-003;-4.528879944700748E-004;
2.426333333333334E+009;1.574261784553528E-001;-1.177242696285248E-001;2.452582819387317E-003;-6.761107360944152E-004;
2.426500000000000E+009;1.573997288942337E-001;-1.178893446922302E-001;2.500583184882999E-003;-7.544345571659505E-004;
2.426666666666667E+009;1.574107110500336E-001;-1.179234832525253E-001;2.429667394608259E-003;-1.014247303828597E-003;
2.426833333333334E+009;1.570049375295639E-001;-1.179647073149681E-001;2.405650680884719E-003;-9.239984210580587E-004;
2.427000000000000E+009;1.566541045904160E-001;-1.181463152170181E-001;2.436944283545017E-003;-1.107766060158610E-003;
2.427166666666667E+009;1.562668532133102E-001;-1.179914474487305E-001;2.397999633103609E-003;-1.308865146711469E-003;
2.427333333333334E+009;1.556517779827118E-001;-1.181438192725182E-001;2.376054646447301E-003;-1.403130474500358E-003;
2.427500000000000E+009;1.551312506198883E-001;-1.182062998414040E-001;2.313445555046201E-003;-1.491694478318095E-003;
2.427666666666667E+009;1.542894840240479E-001;-1.182404235005379E-001;2.255445579066873E-003;-1.666358904913068E-003;
2.427833333333334E+009;1.533032357692719E-001;-1.183497384190559E-001;2.194710774347186E-003;-1.884229481220245E-003;
