# Version 1.00
#
freq[Hz];re:Trc1_S11;im:Trc1_S11;re:Trc2_S21;im:Trc2_S21;
2.400000000000000E+009;1.562634855508804E-001;6.216198578476906E-002;-1.870498410426080E-003;2.799472073093057E-003;
2.400166666666667E+009;1.562092155218124E-001;6.042454764246941E-002;-1.744981622323394E-003;2.844492904841900E-003;
2.400333333333334E+009;1.560735106468201E-001;5.846382305026054E-002;-1.757737016305327E-003;2.832521451637149E-003;
2.400500000000000E+009;1.561210155487061E-001;5.632748827338219E-002;-1.715123304165900E-003;2.927998779341579E-003;
2.400666666666667E+009;1.561306416988373E-001;5.421087518334389E-002;-1.719355699606240E-003;2.844776725396514E-003;
2.400833333333334E+009;1.566272377967835E-001;5.220736563205719E-002;-1.491837436333299E-003;2.979325596243143E-003;
2.401000000000000E+009;1.567773967981339E-001;4.998809099197388E-002;-1.483645290136337E-003;3.059480339288712E-003;
2.401166666666667E+009;1.570658087730408E-001;4.782321304082871E-002;-1.397905754856765E-003;2.927261404693127E-003;
2.401333333333334E+009;1.573541760444641E-001;4.558724910020828E-002;-1.396548235788941E-003;2.942358842119575E-003;
2.401500000000000E+009;1.576468199491501E-001;4.355558007955551E-002;-1.390361227095127E-003;3.280357690528035E-003;
2.401666666666667E+009;1.584571599960327E-001;4.146232455968857E-002;-1.237161457538605E-003;3.235109616070986E-003;
2.401833333333334E+009;1.589696407318115E-001;3.913947939872742E-002;-1.089497236534953E-003;3.230924485251308E-003;
2.402000000000000E+009;1.593301445245743E-001;3.746662288904190E-002;-9.531321120448411E-004;3.159973304718733E-003;
2.402166666666667E+009;1.600963324308395E-001;3.531960397958756E-002;-9.503217879682779E-004;3.242727136239409E-003;
2.402333333333334E+009;1.608271151781082E-001;3.354024142026901E-002;-9.678418864496052E-004;3.254021517932415E-003;
2.402500000000000E+009;1.619674116373062E-001;3.163504973053932E-002;-6.448965286836028E-004;3.319081617519260E-003;
2.402666666666667E+009;1.625293791294098E-001;2.987033315002918E-002;-6.554078427143395E-004;3.318272996693850E-003;
2.402833333333334E+009;1.635921150445938E-001;2.830325998365879E-002;-7.276504766196013E-004;3.510718466714025E-003;
2.403000000000000E+009;1.645132303237915E-001;2.663380466401577E-002;-4.673226212617010E-004;3.469642018899322E-003;
2.403166666666667E+009;1.655721515417099E-001;2.523408457636833E-002;-4.414577852003276E-004;3.349000355228782E-003;
2.403333333333334E+009;1.667116880416870E-001;2.384581975638866E-002;-3.195647150278091E-004;3.414403880015016E-003;
2.403500000000000E+009;1.676689684391022E-001;2.254758216440678E-002;-3.901371965184808E-004;3.547367639839649E-003;
2.403666666666667E+009;1.686097681522369E-001;2.109136991202831E-002;-6.325601862045005E-005;3.480258630588651E-003;
2.403833333333334E+009;1.698406785726547E-001;1.984978280961514E-002;-1.233204529853538E-004;3.486204892396927E-003;
2.404000000000000E+009;1.707816272974014E-001;1.901450566947460E-002;1.242076104972512E-004;3.570807399228215E-003;
2.404166666666667E+009;1.718893051147461E-001;1.796489395201206E-002;1.448148104827851E-004;3.527840832248330E-003;
2.404333333333334E+009;1.728631407022476E-001;1.715561375021935E-002;1.952484308276326E-004;3.521081758663058E-003;
2.404500000000000E+009;1.738826036453247E-001;1.611911691725254E-002;2.395179908489808E-004;3.567988751456142E-003;
2.404666666666667E+009;1.748426556587219E-001;1.557989232242107E-002;4.569283046294004E-004;3.422184614464641E-003;
2.404833333333334E+009;1.755764335393906E-001;1.492983195930719E-002;6.714369519613683E-004;3.629960818216205E-003;
2.405000000000000E+009;1.766037642955780E-001;1.428849808871746E-002;8.546588942408562E-004;3.534346818923950E-003;
2.405166666666667E+009;1.775854974985123E-001;1.370049733668566E-002;7.494110614061356E-004;3.490987000986934E-003;
2.405333333333334E+009;1.782161742448807E-001;1.318210922181606E-002;9.622563375160098E-004;3.497820580378175E-003;
2.405500000000000E+009;1.787302792072296E-001;1.297422405332327E-002;1.036593574099243E-003;3.651208709925413E-003;
2.405666666666667E+009;1.795893907546997E-001;1.272575743496418E-002;1.272012945264578E-003;3.475547302514315E-003;
2.405833333333334E+009;1.797601878643036E-001;1.236659660935402E-002;1.583540812134743E-003;3.180493833497167E-003;
2.406000000000000E+009;1.805230081081390E-001;1.200197916477919E-002;1.572077744640410E-003;3.435431048274040E-003;
2.406166666666667E+009;1.806308478116989E-001;1.183452457189560E-002;1.656346023082733E-003;3.299903124570847E-003;
2.406333333333334E+009;1.812331825494766E-001;1.162952370941639E-002;1.793427160009742E-003;3.305312246084213E-003;
2.406500000000000E+009;1.811501383781433E-001;1.142057683318853E-002;2.033518161624670E-003;3.204124979674816E-003;
2.406666666666667E+009;1.811623126268387E-001;1.121464744210243E-002;2.109321998432279E-003;3.262940561398864E-003;
2.406833333333334E+009;1.812665909528732E-001;1.073805149644613E-002;2.277098596096039E-003;3.043530508875847E-003;
2.407000000000000E+009;1.811786144971848E-001;1.064006425440311E-002;2.411697292700410E-003;2.909068716689944E-003;
2.407166666666667E+009;1.812074035406113E-001;1.040346827358007E-002;2.651161979883909E-003;2.835910534486175E-003;
2.407333333333334E+009;1.807192713022232E-001;9.821508079767227E-003;2.567573683336377E-003;2.664247527718544E-003;
2.407500000000000E+009;1.803865432739258E-001;9.511489421129227E-003;2.756667556241155E-003;2.706741448491812E-003;
2.407666666666667E+009;1.800338923931122E-001;9.102823212742806E-003;2.877385588362813E-003;2.545919502153993E-003;
2.407833333333334E+009;1.793443560600281E-001;8.489578962326050E-003;2.751974388957024E-003;2.373184077441692E-003;
2.408000000000000E+009;1.789125651121140E-001;7.754585705697537E-003;2.980668796226382E-003;2.253915416076779E-003;
2.408166666666667E+009;1.782992482185364E-001;7.224948145449162E-003;3.000670811161399E-003;2.233835402876139E-003;
2.408333333333334E+009;1.778434813022614E-001;6.475986912846565E-003;3.009408945217729E-003;1.826829393394291E-003;
2.408500000000000E+009;1.769776493310928E-001;5.448933690786362E-003;3.040187060832977E-003;1.771789509803057E-003;
2.408666666666667E+009;1.762155592441559E-001;4.442266654223204E-003;3.096951404586434E-003;1.751361647620797E-003;
2.408833333333334E+009;1.754946708679199E-001;3.456180682405829E-003;3.052274230867624E-003;1.488322741352022E-003;
2.409000000000000E+009;1.746091693639755E-001;2.365807304158807E-003;3.185176756232977E-003;1.325635472312570E-003;
2.409166666666667E+009;1.739429384469986E-001;1.078712870366871E-003;2.975551178678870E-003;1.261657685972750E-003;
2.409333333333334E+009;1.731223016977310E-001;-2.023968409048393E-004;3.186653833836317E-003;1.207361463457346E-003;
2.409500000000000E+009;1.722301393747330E-001;-1.854756381362677E-003;3.240307560190558E-003;9.535656427033246E-004;
2.409666666666667E+009;1.715235114097595E-001;-3.079055808484554E-003;3.157907165586948E-003;7.827359368093312E-004;
2.409833333333334E+009;1.707809120416641E-001;-4.596328828483820E-003;3.140529617667198E-003;8.153609232977033E-004;
2.410000000000000E+009;1.701662093400955E-001;-6.298285443335772E-003;3.103504655882716E-003;6.177722825668752E-004;
2.410166666666667E+009;1.696978807449341E-001;-8.008589036762714E-003;3.180367173627019E-003;5.194804398342967E-004;
2.410333333333334E+009;1.688320338726044E-001;-9.864333085715771E-003;3.305905964225531E-003;3.837252443190664E-004;
2.410500000000000E+009;1.684615164995194E-001;-1.158977858722210E-002;3.208623966202140E-003;1.274448441108689E-004;
2.410666666666667E+009;1.677944511175156E-001;-1.372818090021610E-002;2.992671681568027E-003;1.181165207526647E-004;
2.410833333333334E+009;1.675285398960114E-001;-1.549776457250118E-002;3.025260288268328E-003;1.948225508385804E-005;
2.411000000000000E+009;1.672802418470383E-001;-1.740804873406887E-002;3.060514805838466E-003;-2.726026286836714E-004;
2.411166666666667E+009;1.670487374067307E-001;-1.964759267866612E-002;3.188602160662413E-003;-3.144943329971284E-004;
2.411333333333334E+009;1.667739003896713E-001;-2.151682600378990E-002;3.005911596119404E-003;-4.534202453214675E-004;
2.411500000000000E+009;1.666607260704041E-001;-2.364833652973175E-002;2.878010272979736E-003;-5.211061215959489E-004;
2.411666666666667E+009;1.667769998311997E-001;-2.565030939877033E-002;2.953384770080447E-003;-6.331476033665240E-004;
2.411833333333334E+009;1.669110506772995E-001;-2.762237749993801E-002;2.765506738796830E-003;-8.525539888069034E-004;
2.412000000000000E+009;1.670902371406555E-001;-2.973727323114872E-002;2.660016529262066E-003;-1.005614991299808E-003;
2.412166666666667E+009;1.671617031097412E-001;-3.164562582969666E-002;2.555505605414510E-003;-1.140516600571573E-003;
2.412333333333334E+009;1.677208691835403E-001;-3.376386687159538E-002;2.531560603529215E-003;-1.197438105009496E-003;
2.412500000000000E+009;1.679608821868897E-001;-3.542581200599670E-002;2.525126328691840E-003;-1.312434673309326E-003;
2.412666666666667E+009;1.684939265251160E-001;-3.750537708401680E-002;2.218463458120823E-003;-1.419945037923753E-003;
2.412833333333334E+009;1.690476536750794E-001;-3.923862054944038E-002;2.157361246645451E-003;-1.482641091570258E-003;
2.413000000000000E+009;1.695843935012817E-001;-4.115794971585274E-002;2.073534531518817E-003;-1.545995939522982E-003;
2.413166666666667E+009;1.699660718441010E-001;-4.282055795192719E-002;1.741635496728122E-003;-1.692448044195771E-003;
2.413333333333334E+009;1.705637872219086E-001;-4.451299086213112E-002;1.734673511236906E-003;-1.666710013523698E-003;
2.413500000000000E+009;1.713686138391495E-001;-4.598417878150940E-002;1.690309494733810E-003;-1.748220296576619E-003;
2.413666666666667E+009;1.721126884222031E-001;-4.760493338108063E-002;1.425963477231562E-003;-1.717583509162068E-003;
2.413833333333334E+009;1.726081818342209E-001;-4.887061938643456E-002;1.291004358790815E-003;-1.787568675354123E-003;
2.414000000000000E+009;1.733032912015915E-001;-5.031180009245873E-002;1.133912010118365E-003;-1.934904255904257E-003;
2.414166666666667E+009;1.739758998155594E-001;-5.138074234127998E-002;9.015304967761040E-004;-1.669149729423225E-003;
2.414333333333334E+009;1.744718402624130E-001;-5.266224220395088E-002;8.276586304418743E-004;-1.741695683449507E-003;
2.414500000000000E+009;1.753597110509872E-001;-5.359124392271042E-002;6.363224238157272E-004;-1.733721350319684E-003;
2.414666666666667E+009;1.759447902441025E-001;-5.442691966891289E-002;5.681921029463410E-004;-1.697237137705088E-003;
2.414833333333334E+009;1.763388067483902E-001;-5.533264949917793E-002;3.908289654646069E-004;-1.577742164954543E-003;
2.415000000000000E+009;1.768718212842941E-001;-5.591456592082977E-002;2.018036175286397E-004;-1.459421589970589E-003;
2.415166666666667E+009;1.773478984832764E-001;-5.666780844330788E-002;5.097546818433330E-005;-1.531546935439110E-003;
2.415333333333334E+009;1.780067384243012E-001;-5.727380514144898E-002;-1.665533818595577E-005;-1.385829877108336E-003;
2.415500000000000E+009;1.781663298606873E-001;-5.778077244758606E-002;-5.188957220525481E-005;-1.229693880304694E-003;
2.415666666666667E+009;1.783746629953384E-001;-5.811554938554764E-002;-3.381320857442915E-005;-1.191788120195270E-003;
2.415833333333334E+009;1.787112206220627E-001;-5.840380489826202E-002;-1.271210057893768E-004;-1.140008098445833E-003;
2.416000000000000E+009;1.785193681716919E-001;-5.874024331569672E-002;-2.758347545750439E-004;-9.001157013699412E-004;
2.416166666666667E+009;1.787712126970291E-001;-5.894111469388008E-002;-3.631534345913678E-004;-8.071687771007419E-004;
2.416333333333334E+009;1.786497831344605E-001;-5.909335613250732E-002;-3.080772876273841E-004;-6.087842048145831E-004;
2.416500000000000E+009;1.784353405237198E-001;-5.924425274133682E-002;-3.195598255842924E-004;-7.261520950123668E-004;
2.416666666666667E+009;1.781303733587265E-001;-5.937942117452622E-002;-3.871505032293499E-004;-5.195777048356831E-004;
2.416833333333334E+009;1.779317259788513E-001;-5.963263660669327E-002;-2.634362899698317E-004;-4.776749410666525E-004;
2.417000000000000E+009;1.772150099277496E-001;-5.982331931591034E-002;-4.261140420567244E-004;-4.179692186880857E-004;
2.417166666666667E+009;1.767767220735550E-001;-5.979738384485245E-002;-3.524283529259265E-004;-2.894361969083548E-004;
2.417333333333334E+009;1.760903298854828E-001;-5.983801931142807E-002;-2.617691352497786E-004;-1.593897322891280E-004;
2.417500000000000E+009;1.752726733684540E-001;-6.019663065671921E-002;-1.668208860792220E-004;-1.532079477328807E-004;
2.417666666666667E+009;1.746197044849396E-001;-6.022428721189499E-002;-2.703371283132583E-004;-6.572454731212929E-005;
2.417833333333334E+009;1.737024188041687E-001;-6.043147295713425E-002;-2.087278116960079E-004;-1.522809470770881E-004;
2.418000000000000E+009;1.725714653730393E-001;-6.090456619858742E-002;-3.599200572352856E-004;1.120022279792465E-004;
2.418166666666667E+009;1.714895516633987E-001;-6.109037622809410E-002;-1.358531153528020E-004;2.246504300273955E-005;
2.418333333333334E+009;1.706582307815552E-001;-6.138116493821144E-002;-2.199966111220419E-004;1.227353204740211E-004;
2.418500000000000E+009;1.692511439323425E-001;-6.181173026561737E-002;-7.114656909834594E-005;1.446066744392738E-004;
2.418666666666667E+009;1.682406961917877E-001;-6.242011487483978E-002;-1.306310587096959E-004;1.194712531287223E-004;
2.418833333333334E+009;1.667710691690445E-001;-6.283640116453171E-002;-1.050900755217299E-004;1.512153248768300E-004;
2.419000000000000E+009;1.653058975934982E-001;-6.356404721736908E-002;1.845711449277587E-005;2.536816464271396E-004;
2.419166666666667E+009;1.641446650028229E-001;-6.430386751890183E-002;4.626375084626488E-005;1.143872941611335E-004;
2.419333333333334E+009;1.627986580133438E-001;-6.500244885683060E-002;8.548400364816189E-005;2.966081665363163E-004;
2.419500000000000E+009;1.616061329841614E-001;-6.602923572063446E-002;3.113381899311207E-005;3.732860495802015E-004;
2.419666666666667E+009;1.604400724172592E-001;-6.706131249666214E-002;3.547565211192705E-005;4.980674129910767E-004;
2.419833333333334E+009;1.590451598167419E-001;-6.794419139623642E-002;4.556677231448703E-005;3.923669864889234E-004;
2.420000000000000E+009;1.579762250185013E-001;-6.928589940071106E-002;1.102215683204122E-004;4.716159601230174E-004;
2.420166666666667E+009;1.567051857709885E-001;-7.048992067575455E-002;1.970300072571263E-004;3.967037482652813E-004;
2.420333333333334E+009;1.557590216398239E-001;-7.170121371746063E-002;2.308822877239436E-004;4.775403649546206E-004;
2.420500000000000E+009;1.547105908393860E-001;-7.290704548358917E-002;3.201503423042595E-004;5.309779080562294E-004;
2.420666666666667E+009;1.536713689565659E-001;-7.435578107833862E-002;2.539370616432279E-004;5.577830015681684E-004;
2.420833333333334E+009;1.528655737638474E-001;-7.592482119798660E-002;2.791059960145503E-004;6.820397684350610E-004;
2.421000000000000E+009;1.519059836864471E-001;-7.766420394182205E-002;4.745048645418137E-004;7.573134498670697E-004;
2.421166666666667E+009;1.512257754802704E-001;-7.923842221498489E-002;4.712894442491233E-004;6.570521509274840E-004;
2.421333333333334E+009;1.507959514856339E-001;-8.107551187276840E-002;5.378852947615087E-004;6.640480714850128E-004;
2.421500000000000E+009;1.499882191419601E-001;-8.262060582637787E-002;5.533208022825420E-004;8.194713154807687E-004;
2.421666666666667E+009;1.497894972562790E-001;-8.441100269556046E-002;6.154816946946085E-004;7.999115623533726E-004;
2.421833333333334E+009;1.491917669773102E-001;-8.631268143653870E-002;6.851466605439782E-004;7.313765236176550E-004;
2.422000000000000E+009;1.489696353673935E-001;-8.805134147405624E-002;7.994014886207879E-004;8.527101599611342E-004;
2.422166666666667E+009;1.488088816404343E-001;-8.984414488077164E-002;8.361302316188812E-004;8.218337316066027E-004;
2.422333333333334E+009;1.487555354833603E-001;-9.163483232259750E-002;9.170709527097642E-004;8.217750582844019E-004;
2.422500000000000E+009;1.488050222396851E-001;-9.328711032867432E-002;9.444891475141048E-004;7.355162524618208E-004;
2.422666666666667E+009;1.487632542848587E-001;-9.522080421447754E-002;9.602243080735207E-004;6.892007077112794E-004;
2.422833333333334E+009;1.490253210067749E-001;-9.691439568996429E-002;1.049968996085227E-003;8.305294322781265E-004;
2.423000000000000E+009;1.491826325654984E-001;-9.856850653886795E-002;1.092760707251728E-003;8.250701357610524E-004;
2.423166666666667E+009;1.497253030538559E-001;-1.002070084214211E-001;1.305186771787703E-003;7.108612917363644E-004;
2.423333333333334E+009;1.499992161989212E-001;-1.016338616609573E-001;1.225039479322732E-003;6.088435766287148E-004;
2.423500000000000E+009;1.504817157983780E-001;-1.033121421933174E-001;1.409324002452195E-003;6.754948990419507E-004;
2.423666666666667E+009;1.507039368152618E-001;-1.047752499580383E-001;1.500378828495741E-003;7.437071762979031E-004;
2.423833333333334E+009;1.514565646648407E-001;-1.064300313591957E-001;1.610671868547797E-003;4.660214763134718E-004;
2.424000000000000E+009;1.519599407911301E-001;-1.073856502771378E-001;1.574761350639164E-003;6.119416211731732E-004;
2.424166666666667E+009;1.523607373237610E-001;-1.086669638752937E-001;1.710429904051125E-003;5.286434898152947E-004;
2.424333333333334E+009;1.530618816614151E-001;-1.099654436111450E-001;1.827333122491837E-003;5.809533759020269E-004;
2.424500000000000E+009;1.536649167537689E-001;-1.111472398042679E-001;1.884297584183514E-003;4.198916140012443E-004;
2.424666666666667E+009;1.543243378400803E-001;-1.120183020830154E-001;1.952048507519066E-003;3.758214879781008E-004;
2.424833333333334E+009;1.545802503824234E-001;-1.128730475902557E-001;1.940194051712751E-003;3.862543962895870E-004;
2.425000000000000E+009;1.553154438734055E-001;-1.138359606266022E-001;2.178971655666828E-003;3.142865025438368E-004;
2.425166666666667E+009;1.556085795164108E-001;-1.144825667142868E-001;2.258268650621176E-003;1.093486862373538E-004;
2.425333333333334E+009;1.561267226934433E-001;-1.150889694690704E-001;2.156029222533107E-003;9.274849435314536E-005;
2.425500000000000E+009;1.565544307231903E-001;-1.158260926604271E-001;2.292513381689787E-003;-5.655206041410565E-005;
2.425666666666667E+009;1.567161083221436E-001;-1.162004917860031E-001;2.360565587878227E-003;-2.375910116825253E-004;
2.425833333333334E+009;1.570187211036682E-001;-1.165048554539681E-001;2.382405567914248E-003;-3.190053685102612E-004;
2.426000000000000E+009;1.571433395147324E-001;-1.171490773558617E-001;2.453536959365010E-003;-4.412229754962027E-004;
2.426166666666667E+009;1.575780510902405E-001;-1.174152493476868E-001;2.506529912352562E-003;-5.410688463598490E-004;
2.426333333333334E+009;1.574004590511322E-001;-1.175611019134522E-001;2.522469963878393E-003;-6.602669018320739E-004;
2.426500000000000E+009;1.574547737836838E-001;-1.176631599664688E-001;2.473364584147930E-003;-8.135035168379545E-004;
2.426666666666667E+009;1.573169976472855E-001;-1.178154572844505E-001;2.422604942694306E-003;-7.832751143723726E-004;
2.426833333333334E+009;1.570609807968140E-001;-1.179664060473442E-001;2.578032668679953E-003;-1.044765580445528E-003;
2.427000000000000E+009;1.567642390727997E-001;-1.180464327335358E-001;2.655269112437964E-003;-1.122846733778715E-003;
2.427166666666667E+009;1.563147157430649E-001;-1.179875060915947E-001;2.546285046264529E-003;-1.275164773687720E-003;
2.427333333333334E+009;1.556462496519089E-001;-1.180354282259941E-001;2.443215809762478E-003;-1.366110518574715E-003;
2.427500000000000E+009;1.550698131322861E-001;-1.180398538708687E-001;2.241481095552445E-003;-1.521184574812651E-003;
2.427666666666667E+009;1.543619483709335E-001;-1.182522326707840E-001;2.277022926136851E-003;-1.731361378915608E-003;
2.427833333333334E+009;1.533391326665878E-001;-1.182744652032852E-001;2.264746231958270E-003;-1.801914651878178E-003;
