# Version 1.00
#
freq[Hz];re:Trc1_S11;im:Trc1_S11;re:Trc2_S21;im:Trc2_S21;
2.400000000000000E+009;1.562868803739548E-001;6.199410557746887E-002;-1.368649071082473E-003;2.770808292552829E-003;
2.400166666666667E+009;1.561903506517410E-001;6.037189066410065E-002;-1.351574319414794E-003;2.705654129385948E-003;
2.400333333333334E+009;1.561138927936554E-001;5.837411805987358E-002;-1.424470101483166E-003;2.775417175143957E-003;
2.400500000000000E+009;1.561731398105621E-001;5.613513663411140E-002;-1.286325976252556E-003;2.807937096804380E-003;
2.400666666666667E+009;1.560582518577576E-001;5.406189709901810E-002;-1.251666108146310E-003;2.719788113608956E-003;
2.400833333333334E+009;1.563861221075058E-001;5.206757411360741E-002;-1.074949046596885E-003;2.898847917094827E-003;
2.401000000000000E+009;1.567395031452179E-001;4.989419132471085E-002;-1.085412339307368E-003;2.748022321611643E-003;
2.401166666666667E+009;1.569489389657974E-001;4.750836268067360E-002;-1.067817094735801E-003;2.822779351845384E-003;
2.401333333333334E+009;1.572419255971909E-001;4.571430385112763E-002;-9.183295769616962E-004;2.878796542063355E-003;
2.401500000000000E+009;1.579031497240067E-001;4.338504374027252E-002;-8.000747766345739E-004;2.951015485450625E-003;
2.401666666666667E+009;1.582310199737549E-001;4.131413623690605E-002;-8.907062583602965E-004;2.790361177176237E-003;
2.401833333333334E+009;1.589632779359818E-001;3.925483673810959E-002;-8.349526324309409E-004;2.967122476547957E-003;
2.402000000000000E+009;1.593174785375595E-001;3.713179379701614E-002;-5.987024051137269E-004;3.008907428011298E-003;
2.402166666666667E+009;1.600966155529022E-001;3.528147190809250E-002;-6.098559242673218E-004;2.920156344771385E-003;
2.402333333333334E+009;1.607896685600281E-001;3.328084945678711E-002;-6.251756567507982E-004;3.055248642340303E-003;
2.402500000000000E+009;1.618063747882843E-001;3.178639709949493E-002;-4.852308484259993E-004;3.153200028464198E-003;
2.402666666666667E+009;1.623860001564026E-001;2.998033724725246E-002;-4.775877459906042E-004;3.036478068679571E-003;
2.402833333333334E+009;1.633509248495102E-001;2.815391495823860E-002;-4.267864278517664E-004;3.254955401644111E-003;
2.403000000000000E+009;1.642304956912994E-001;2.668992802500725E-002;-3.773317439481616E-004;3.221788210794330E-003;
2.403166666666667E+009;1.654167324304581E-001;2.520784921944141E-002;-2.380443183938041E-004;3.104307223111391E-003;
2.403333333333334E+009;1.664959192276001E-001;2.384850569069386E-002;-1.110876692109741E-004;3.320232732221484E-003;
2.403500000000000E+009;1.674550920724869E-001;2.244835905730724E-002;9.343196870759130E-005;3.123936243355274E-003;
2.403666666666667E+009;1.685510277748108E-001;2.117664553225040E-002;1.345967903034762E-004;3.317810362204909E-003;
2.403833333333334E+009;1.698306649923325E-001;1.994104497134686E-002;6.179822230478749E-005;3.211607690900564E-003;
2.404000000000000E+009;1.708500981330872E-001;1.914948038756847E-002;1.586997677804902E-004;3.142875619232655E-003;
2.404166666666667E+009;1.719043701887131E-001;1.795657724142075E-002;4.722849698737264E-004;3.144929185509682E-003;
2.404333333333334E+009;1.728266477584839E-001;1.705324836075306E-002;3.103692433796823E-004;3.280024742707610E-003;
2.404500000000000E+009;1.737402975559235E-001;1.630430296063423E-002;6.566001684404910E-004;3.189876442775130E-003;
2.404666666666667E+009;1.748449057340622E-001;1.559114083647728E-002;7.687272154726088E-004;3.205745480954647E-003;
2.404833333333334E+009;1.757035702466965E-001;1.494986657053232E-002;7.223918801173568E-004;3.200236242264509E-003;
2.405000000000000E+009;1.765803247690201E-001;1.425517536699772E-002;8.921286207623780E-004;3.143455367535353E-003;
2.405166666666667E+009;1.774092018604279E-001;1.382447034120560E-002;9.214956080541015E-004;3.247318789362907E-003;
2.405333333333334E+009;1.782232820987701E-001;1.321051921695471E-002;9.948416845872998E-004;3.193206153810024E-003;
2.405500000000000E+009;1.788527667522430E-001;1.297902315855026E-002;1.154129975475371E-003;3.207880305126309E-003;
2.405666666666667E+009;1.794703453779221E-001;1.266068778932095E-002;1.457242062315345E-003;3.175544319674373E-003;
2.405833333333334E+009;1.798754483461380E-001;1.240881439298391E-002;1.354029867798090E-003;3.058836562559009E-003;
2.406000000000000E+009;1.804291903972626E-001;1.200752705335617E-002;1.432621502317488E-003;3.059394657611847E-003;
2.406166666666667E+009;1.805853098630905E-001;1.201954856514931E-002;1.654224819503725E-003;3.142200410366058E-003;
2.406333333333334E+009;1.810814589262009E-001;1.176753547042608E-002;1.857851981185377E-003;2.784140175208449E-003;
2.406500000000000E+009;1.812191754579544E-001;1.149210054427385E-002;1.921681454405189E-003;2.883875276893377E-003;
2.406666666666667E+009;1.810435056686401E-001;1.133530773222446E-002;2.025135792791843E-003;2.782821422442794E-003;
2.406833333333334E+009;1.811571270227432E-001;1.098871883004904E-002;2.230138285085559E-003;2.646454842761159E-003;
2.407000000000000E+009;1.811902374029160E-001;1.069774292409420E-002;2.385501982644200E-003;2.678251825273037E-003;
2.407166666666667E+009;1.810840964317322E-001;1.049226429313421E-002;2.369694877415896E-003;2.569138072431088E-003;
2.407333333333334E+009;1.805963069200516E-001;9.897557087242603E-003;2.370559610426426E-003;2.420578850433230E-003;
2.407500000000000E+009;1.804815083742142E-001;9.661301039159298E-003;2.463765675202012E-003;2.230871934443712E-003;
2.407666666666667E+009;1.799560785293579E-001;9.171064011752605E-003;2.515793778002262E-003;2.172878943383694E-003;
2.407833333333334E+009;1.793743073940277E-001;8.519110269844532E-003;2.704150974750519E-003;2.044635592028499E-003;
2.408000000000000E+009;1.789041757583618E-001;7.856884039938450E-003;2.898132428526878E-003;1.868639257736504E-003;
2.408166666666667E+009;1.782737225294113E-001;7.417437154799700E-003;2.811725018545985E-003;1.649692305363715E-003;
2.408333333333334E+009;1.778381764888763E-001;6.447271909564734E-003;2.925476990640163E-003;1.678279484622181E-003;
2.408500000000000E+009;1.770815402269363E-001;5.542096216231585E-003;3.003905992954969E-003;1.496323151513934E-003;
2.408666666666667E+009;1.762704253196716E-001;4.597682971507311E-003;2.934378338977695E-003;1.273092697374523E-003;
2.408833333333334E+009;1.753263324499130E-001;3.450191346928477E-003;2.849787706509233E-003;1.280621741898358E-003;
2.409000000000000E+009;1.745656430721283E-001;2.371205482631922E-003;2.735629212111235E-003;1.230757217854261E-003;
2.409166666666667E+009;1.740142107009888E-001;1.151639968156815E-003;3.135201521217823E-003;1.150445197708905E-003;
2.409333333333334E+009;1.732199788093567E-001;-3.218895290046930E-004;2.872861223295331E-003;6.416089017875493E-004;
2.409500000000000E+009;1.723503619432449E-001;-1.754688448272646E-003;2.981400815770030E-003;7.677274988964200E-004;
2.409666666666667E+009;1.716596335172653E-001;-3.272871952503920E-003;2.781988587230444E-003;6.367906462401152E-004;
2.409833333333334E+009;1.707371175289154E-001;-4.706853069365025E-003;2.895921934396029E-003;3.248402499593794E-004;
2.410000000000000E+009;1.702271848917007E-001;-6.309291347861290E-003;2.865169895812869E-003;3.127520321868360E-004;
2.410166666666667E+009;1.696116775274277E-001;-8.023161441087723E-003;2.898216946050525E-003;5.053579225204885E-004;
2.410333333333334E+009;1.689241081476212E-001;-9.740229696035385E-003;2.888414775952697E-003;1.742727035889402E-004;
2.410500000000000E+009;1.685048937797546E-001;-1.144121587276459E-002;2.971740905195475E-003;-4.068702037329786E-005;
2.410666666666667E+009;1.678234040737152E-001;-1.367373485118151E-002;2.874106634408236E-003;-5.329329269443406E-006;
2.410833333333334E+009;1.676728874444962E-001;-1.555973943322897E-002;2.807193202897906E-003;-1.674200320849195E-004;
2.411000000000000E+009;1.672164946794510E-001;-1.756018586456776E-002;2.751556690782309E-003;-3.138831816613674E-004;
2.411166666666667E+009;1.669477671384811E-001;-1.961436122655869E-002;2.784212585538626E-003;-2.907465386670083E-004;
2.411333333333334E+009;1.668929159641266E-001;-2.148594520986080E-002;2.803659997880459E-003;-5.473612109199166E-004;
2.411500000000000E+009;1.667247116565704E-001;-2.380402758717537E-002;2.683315891772509E-003;-7.483085501007736E-004;
2.411666666666667E+009;1.669389158487320E-001;-2.569508552551270E-002;2.574613550677896E-003;-7.573344046249986E-004;
2.411833333333334E+009;1.668339967727661E-001;-2.757220715284348E-002;2.648459281772375E-003;-1.056983135640621E-003;
2.412000000000000E+009;1.671682149171829E-001;-2.966647222638130E-002;2.516220789402723E-003;-9.446258773095906E-004;
2.412166666666667E+009;1.672667413949966E-001;-3.184876218438149E-002;2.415118040516973E-003;-1.180538907647133E-003;
2.412333333333334E+009;1.677451580762863E-001;-3.352691978216171E-002;2.276387996971607E-003;-1.310617080889642E-003;
2.412500000000000E+009;1.679621785879135E-001;-3.546797111630440E-002;2.035524696111679E-003;-1.485766260884702E-003;
2.412666666666667E+009;1.684385985136032E-001;-3.758378699421883E-002;1.993874087929726E-003;-1.423589303158224E-003;
2.412833333333334E+009;1.690379381179810E-001;-3.935495391488075E-002;1.902758376672864E-003;-1.495854696258903E-003;
2.413000000000000E+009;1.695758998394013E-001;-4.113520681858063E-002;1.735914382152259E-003;-1.563956495374441E-003;
2.413166666666667E+009;1.701097190380096E-001;-4.284586757421494E-002;1.448670402169228E-003;-1.615548972040415E-003;
2.413333333333334E+009;1.705462634563446E-001;-4.440242052078247E-002;1.272026798687875E-003;-1.677237451076508E-003;
2.413500000000000E+009;1.713412851095200E-001;-4.605719447135925E-002;1.341238035820425E-003;-1.665613730438054E-003;
2.413666666666667E+009;1.718810647726059E-001;-4.754116013646126E-002;1.004824531264603E-003;-1.851866254583001E-003;
2.413833333333334E+009;1.726856529712677E-001;-4.883955791592598E-002;1.143537578172982E-003;-1.725697889924049E-003;
2.414000000000000E+009;1.731316000223160E-001;-5.025154352188110E-002;8.725892985239625E-004;-1.722704735584557E-003;
2.414166666666667E+009;1.740193516016007E-001;-5.139477550983429E-002;7.286564796231687E-004;-1.839122851379216E-003;
2.414333333333334E+009;1.745823770761490E-001;-5.257183685898781E-002;5.488362512551248E-004;-1.713606645353138E-003;
2.414500000000000E+009;1.752729564905167E-001;-5.363395810127258E-002;4.594735801219940E-004;-1.809816458262503E-003;
2.414666666666667E+009;1.759015172719955E-001;-5.436086282134056E-002;2.964901213999838E-004;-1.640376285649836E-003;
2.414833333333334E+009;1.763456761837006E-001;-5.531627312302589E-002;8.880920358933508E-005;-1.585098798386753E-003;
2.415000000000000E+009;1.767312288284302E-001;-5.602139979600906E-002;1.168240778497420E-004;-1.480029663071036E-003;
2.415166666666667E+009;1.771475672721863E-001;-5.663150921463966E-002;-4.673920193454251E-005;-1.316555775702000E-003;
2.415333333333334E+009;1.778299808502197E-001;-5.728030204772949E-002;-2.177196438424289E-004;-1.266889856196940E-003;
2.415500000000000E+009;1.780741661787033E-001;-5.771283432841301E-002;-3.832340880762786E-004;-1.250984496437013E-003;
2.415666666666667E+009;1.783576756715775E-001;-5.798691883683205E-002;-2.942224673461169E-004;-1.045940909534693E-003;
2.415833333333334E+009;1.786003857851028E-001;-5.839298665523529E-002;-4.306637274567038E-004;-9.268974536098540E-004;
2.416000000000000E+009;1.785551756620407E-001;-5.858089029788971E-002;-5.234553245827556E-004;-8.097464451566339E-004;
2.416166666666667E+009;1.787122488021851E-001;-5.892412364482880E-002;-4.007878014817834E-004;-8.670276147313416E-004;
2.416333333333334E+009;1.785770803689957E-001;-5.908694490790367E-002;-4.779791925102472E-004;-6.596347666345537E-004;
2.416500000000000E+009;1.784231364727020E-001;-5.925461649894714E-002;-4.302791494410485E-004;-4.605602007359266E-004;
2.416666666666667E+009;1.781166046857834E-001;-5.934023112058640E-002;-4.498901253100485E-004;-2.924427972175181E-004;
2.416833333333334E+009;1.777942478656769E-001;-5.960265547037125E-002;-3.490852832328528E-004;-1.551364402985200E-004;
2.417000000000000E+009;1.771403104066849E-001;-5.973182991147041E-002;-4.414270224515349E-004;-1.644978183321655E-004;
2.417166666666667E+009;1.766587197780609E-001;-5.964439734816551E-002;-3.590284613892436E-004;-5.920090916333720E-005;
2.417333333333334E+009;1.760331690311432E-001;-5.983920395374298E-002;-5.110432975925505E-004;-1.155305799329653E-004;
2.417500000000000E+009;1.752537339925766E-001;-6.011011078953743E-002;-3.763544664252549E-004;2.308323200850282E-005;
2.417666666666667E+009;1.744512021541596E-001;-6.015823036432266E-002;-3.248291905038059E-004;6.628356641158462E-005;
2.417833333333334E+009;1.735886037349701E-001;-6.042468547821045E-002;-3.195710014551878E-004;4.012930003227666E-005;
2.418000000000000E+009;1.724608838558197E-001;-6.073057278990746E-002;-1.655358501011506E-004;8.502816490363330E-005;
2.418166666666667E+009;1.713946461677551E-001;-6.101154163479805E-002;-2.883069973904640E-004;2.260175388073549E-004;
2.418333333333334E+009;1.706575602293015E-001;-6.138981506228447E-002;-1.348105142824352E-004;3.222632803954184E-004;
2.418500000000000E+009;1.693149805068970E-001;-6.162834540009499E-002;7.917714356153738E-006;2.934755466412753E-004;
2.418666666666667E+009;1.681943535804749E-001;-6.231929734349251E-002;-6.774694338673726E-005;3.770906187128276E-004;
2.418833333333334E+009;1.668752878904343E-001;-6.287312507629395E-002;-1.765427623467986E-005;2.955662203021348E-004;
2.419000000000000E+009;1.655022501945496E-001;-6.350646167993546E-002;-5.065827645012178E-005;3.930343664251268E-004;
2.419166666666667E+009;1.641952246427536E-001;-6.422750651836395E-002;4.762757453136146E-005;4.092528542969376E-004;
2.419333333333334E+009;1.629412621259689E-001;-6.484591960906982E-002;4.900656495010480E-005;4.767006903421134E-004;
2.419500000000000E+009;1.616875529289246E-001;-6.601472198963165E-002;6.650062277913094E-005;4.910883726552129E-004;
2.419666666666667E+009;1.605035662651062E-001;-6.687261164188385E-002;1.579419185873121E-004;5.038732197135687E-004;
2.419833333333334E+009;1.591996997594833E-001;-6.795786321163178E-002;2.118640404660255E-004;4.349256632849574E-004;
2.420000000000000E+009;1.579310745000839E-001;-6.924808770418167E-002;1.648051693337038E-004;5.709172110073268E-004;
2.420166666666667E+009;1.567745506763458E-001;-7.028421759605408E-002;2.457175578456372E-004;6.016443949192762E-004;
2.420333333333334E+009;1.557893306016922E-001;-7.171180099248886E-002;3.325882134959102E-004;7.011548732407391E-004;
2.420500000000000E+009;1.547334641218185E-001;-7.299442589282990E-002;3.280916134826839E-004;6.175474263727665E-004;
2.420666666666667E+009;1.538165807723999E-001;-7.439426332712174E-002;3.561195335350931E-004;5.955549422651529E-004;
2.420833333333334E+009;1.528440415859222E-001;-7.593260705471039E-002;4.347658541519195E-004;8.043494890443981E-004;
2.421000000000000E+009;1.520319581031799E-001;-7.763690501451492E-002;6.428860942833126E-004;7.965606637299061E-004;
2.421166666666667E+009;1.513442844152451E-001;-7.933298498392105E-002;4.998397198505700E-004;7.349739316850901E-004;
2.421333333333334E+009;1.508365273475647E-001;-8.090970665216446E-002;6.390471826307476E-004;7.501805666834116E-004;
2.421500000000000E+009;1.500277370214462E-001;-8.267362415790558E-002;6.367260939441621E-004;7.516311598010361E-004;
2.421666666666667E+009;1.495623439550400E-001;-8.433084934949875E-002;7.466675597243011E-004;8.738791802898049E-004;
2.421833333333334E+009;1.493594348430634E-001;-8.620493113994598E-002;8.144471212290227E-004;8.404261316172779E-004;
2.422000000000000E+009;1.489236354827881E-001;-8.800888061523438E-002;8.533576037734747E-004;9.094699053093791E-004;
2.422166666666667E+009;1.487779915332794E-001;-9.005793929100037E-002;8.711317786946893E-004;9.453368838876486E-004;
2.422333333333334E+009;1.488927006721497E-001;-9.143264591693878E-002;9.908396750688553E-004;7.621242548339069E-004;
2.422500000000000E+009;1.488375365734100E-001;-9.326687455177307E-002;1.010788371786475E-003;1.004884252324700E-003;
2.422666666666667E+009;1.488574892282486E-001;-9.501905739307404E-002;9.716589120216668E-004;7.396518485620618E-004;
2.422833333333334E+009;1.490711569786072E-001;-9.688878059387207E-002;1.170064904727042E-003;7.075475878082216E-004;
2.423000000000000E+009;1.492731720209122E-001;-9.850641340017319E-002;1.252386718988419E-003;8.102795691229403E-004;
2.423166666666667E+009;1.496092081069946E-001;-1.002528741955757E-001;1.398241729475558E-003;7.778268191032112E-004;
2.423333333333334E+009;1.501111835241318E-001;-1.016402691602707E-001;1.377217005938292E-003;8.895598584786058E-004;
2.423500000000000E+009;1.504115015268326E-001;-1.033757701516151E-001;1.524599967524409E-003;6.363634020090103E-004;
2.423666666666667E+009;1.507428735494614E-001;-1.048145294189453E-001;1.589954597875476E-003;6.962268380448222E-004;
2.423833333333334E+009;1.513503789901733E-001;-1.063297763466835E-001;1.684389193542302E-003;6.401152932085097E-004;
2.424000000000000E+009;1.518198102712631E-001;-1.073880121111870E-001;1.772547722794116E-003;6.567235104739666E-004;
2.424166666666667E+009;1.524099558591843E-001;-1.087766736745834E-001;1.712748431600630E-003;6.123185739852488E-004;
2.424333333333334E+009;1.531318724155426E-001;-1.098951026797295E-001;1.893577631562948E-003;4.770449304487556E-004;
2.424500000000000E+009;1.535661518573761E-001;-1.110335513949394E-001;1.981998560950160E-003;4.811442631762475E-004;
2.424666666666667E+009;1.542861014604569E-001;-1.118769049644470E-001;2.032749122008681E-003;2.905807050410658E-004;
2.424833333333334E+009;1.546756029129028E-001;-1.128829270601273E-001;2.166570164263248E-003;2.729226252995431E-004;
2.425000000000000E+009;1.552784293889999E-001;-1.137983277440071E-001;2.125320490449667E-003;2.660138125065714E-004;
2.425166666666667E+009;1.554581224918366E-001;-1.144331097602844E-001;2.204284770414233E-003;1.686722534941509E-004;
2.425333333333334E+009;1.560979783535004E-001;-1.151788458228111E-001;2.374434610828757E-003;4.686811007559300E-005;
2.425500000000000E+009;1.565703004598618E-001;-1.157837286591530E-001;2.390837296843529E-003;-2.540438435971737E-004;
2.425666666666667E+009;1.567659825086594E-001;-1.163293197751045E-001;2.473666099831462E-003;-3.128301177639514E-004;
2.425833333333334E+009;1.570751368999481E-001;-1.165982931852341E-001;2.559452783316374E-003;-2.441417891532183E-004;
2.426000000000000E+009;1.572567224502564E-001;-1.171234250068665E-001;2.465276746079326E-003;-3.479271545074880E-004;
2.426166666666667E+009;1.576030254364014E-001;-1.174274533987045E-001;2.596116857603192E-003;-5.975884851068258E-004;
2.426333333333334E+009;1.574809104204178E-001;-1.176201999187470E-001;2.424817997962236E-003;-6.600068300031126E-004;
2.426500000000000E+009;1.574223041534424E-001;-1.178004294633865E-001;2.462771255522966E-003;-6.805545999668539E-004;
2.426666666666667E+009;1.574181765317917E-001;-1.177671030163765E-001;2.559713786467910E-003;-9.467400959692895E-004;
2.426833333333334E+009;1.571290791034699E-001;-1.180602535605431E-001;2.547881565988064E-003;-1.118082436732948E-003;
2.427000000000000E+009;1.566881239414215E-001;-1.181296482682228E-001;2.404258353635669E-003;-1.195569289848208E-003;
2.427166666666667E+009;1.562637537717819E-001;-1.180247738957405E-001;2.455436624586582E-003;-1.360142603516579E-003;
2.427333333333334E+009;1.556199342012405E-001;-1.182228103280067E-001;2.499872585758567E-003;-1.486670109443367E-003;
2.427500000000000E+009;1.551341712474823E-001;-1.181153431534767E-001;2.400503726676107E-003;-1.614010892808437E-003;
2.427666666666667E+009;1.543116867542267E-001;-1.182226687669754E-001;2.311507007107139E-003;-1.600207877345383E-003;
2.427833333333334E+009;1.533312499523163E-001;-1.183224394917488E-001;2.323911525309086E-003;-1.893057255074382E-003;
