# Version 1.00
#
freq[Hz];re:Trc1_S11;im:Trc1_S11;re:Trc2_S21;im:Trc2_S21;
2.400000000000000E+009;1.582309156656265E-001;6.176831945776939E-002;-4.260423127561808E-003;-1.791143673472107E-003;
2.400166666666667E+009;1.582091748714447E-001;6.033066287636757E-002;-4.298322368413210E-003;-1.749962335452437E-003;
2.400333333333334E+009;1.580685824155808E-001;5.843561515212059E-002;-4.359067883342505E-003;-1.542199752293527E-003;
2.400500000000000E+009;1.579827666282654E-001;5.663445964455605E-002;-4.251995123922825E-003;-1.460248953662813E-003;
2.400666666666667E+009;1.579732745885849E-001;5.443608388304710E-002;-4.405980464071035E-003;-1.411939854733646E-003;
2.400833333333334E+009;1.582111269235611E-001;5.267717316746712E-002;-4.382919054478407E-003;-1.315872301347554E-003;
2.401000000000000E+009;1.582489758729935E-001;5.058109387755394E-002;-4.259657114744186E-003;-1.050028484314680E-003;
2.401166666666667E+009;1.584627032279968E-001;4.855367168784142E-002;-4.203026182949543E-003;-9.463896858505905E-004;
2.401333333333334E+009;1.585731208324432E-001;4.650387540459633E-002;-4.181574564427137E-003;-9.579795296303928E-004;
2.401500000000000E+009;1.588718742132187E-001;4.451834037899971E-002;-4.195123910903931E-003;-8.470140746794641E-004;
2.401666666666667E+009;1.593898683786392E-001;4.263285174965859E-002;-4.344643093645573E-003;-6.999771576374769E-004;
2.401833333333334E+009;1.595182120800018E-001;4.052671790122986E-002;-4.245046060532332E-003;-6.677949568256736E-004;
2.402000000000000E+009;1.599684059619904E-001;3.857056051492691E-002;-4.377187695354223E-003;-4.954233299940825E-004;
2.402166666666667E+009;1.606508791446686E-001;3.666712343692780E-002;-4.110758658498526E-003;-5.224766209721565E-004;
2.402333333333334E+009;1.612115502357483E-001;3.478156775236130E-002;-4.318971652537584E-003;-2.659966412466019E-004;
2.402500000000000E+009;1.618402153253555E-001;3.295032307505608E-002;-4.151291679590941E-003;-1.443313376512379E-004;
2.402666666666667E+009;1.626192331314087E-001;3.139122948050499E-002;-4.155895207077265E-003;-2.306941860297229E-005;
2.402833333333334E+009;1.631972491741180E-001;2.968974411487579E-002;-4.193503409624100E-003;-1.582241966389120E-004;
2.403000000000000E+009;1.639801561832428E-001;2.797019295394421E-002;-4.404098261147738E-003;1.130097298300825E-004;
2.403166666666667E+009;1.648974567651749E-001;2.649687416851521E-002;-4.259782377630472E-003;2.532006183173508E-004;
2.403333333333334E+009;1.658085584640503E-001;2.507442049682140E-002;-4.158727824687958E-003;5.413340404629707E-004;
2.403500000000000E+009;1.665560454130173E-001;2.379835955798626E-002;-4.314569756388664E-003;3.966026415582746E-004;
2.403666666666667E+009;1.676742285490036E-001;2.228280156850815E-002;-4.329746123403311E-003;6.760326796211302E-004;
2.403833333333334E+009;1.685500890016556E-001;2.107203938066959E-002;-4.378266166895628E-003;8.122058934532106E-004;
2.404000000000000E+009;1.695914864540100E-001;1.978681795299053E-002;-4.216047469526529E-003;7.307956693693996E-004;
2.404166666666667E+009;1.706008315086365E-001;1.866231486201286E-002;-4.246223252266645E-003;1.108907861635089E-003;
2.404333333333334E+009;1.713862717151642E-001;1.769179292023182E-002;-4.203236661851406E-003;1.209865091368556E-003;
2.404500000000000E+009;1.722326427698135E-001;1.678675785660744E-002;-4.218047019094229E-003;1.359751331619918E-003;
2.404666666666667E+009;1.733530759811401E-001;1.598944701254368E-002;-4.070469178259373E-003;1.597149996086955E-003;
2.404833333333334E+009;1.741471290588379E-001;1.509359572082758E-002;-4.182798322290182E-003;1.667685341089964E-003;
2.405000000000000E+009;1.749082356691361E-001;1.436054706573486E-002;-3.959098365157843E-003;1.845882972702384E-003;
2.405166666666667E+009;1.757856160402298E-001;1.370694581419230E-002;-3.981715999543667E-003;1.908445265144110E-003;
2.405333333333334E+009;1.766790449619293E-001;1.285143662244082E-002;-3.725394373759627E-003;2.097694203257561E-003;
2.405500000000000E+009;1.773088127374649E-001;1.254594419151545E-002;-3.805437358096242E-003;2.238330198451877E-003;
2.405666666666667E+009;1.779450774192810E-001;1.207467075437307E-002;-3.513514995574951E-003;2.455101348459721E-003;
2.405833333333334E+009;1.783348619937897E-001;1.165555603802204E-002;-3.586656413972378E-003;2.481815638020635E-003;
2.406000000000000E+009;1.790058463811874E-001;1.105841435492039E-002;-3.319848328828812E-003;2.767650876194239E-003;
2.406166666666667E+009;1.792739927768707E-001;1.091129425913096E-002;-3.279253840446472E-003;2.965851919725537E-003;
2.406333333333334E+009;1.797867566347122E-001;1.056770421564579E-002;-3.101601963862777E-003;2.978634554892778E-003;
2.406500000000000E+009;1.799848228693008E-001;1.018672622740269E-002;-3.101255744695664E-003;2.984730526804924E-003;
2.406666666666667E+009;1.799618899822235E-001;9.933957830071449E-003;-2.792745130136609E-003;3.152133198454976E-003;
2.406833333333334E+009;1.802432984113693E-001;9.455647319555283E-003;-2.646500244736671E-003;3.133886726573110E-003;
2.407000000000000E+009;1.802286058664322E-001;9.114991873502731E-003;-2.453933935612440E-003;3.134052501991391E-003;
2.407166666666667E+009;1.803983598947525E-001;8.804604411125183E-003;-2.342611784115434E-003;3.140336601063609E-003;
2.407333333333334E+009;1.801953911781311E-001;8.304291404783726E-003;-2.281061373651028E-003;3.188034053891897E-003;
2.407500000000000E+009;1.800349056720734E-001;7.886629551649094E-003;-2.080279635265470E-003;3.292599460110068E-003;
2.407666666666667E+009;1.800057440996170E-001;7.450224831700325E-003;-1.909505692310631E-003;3.346359357237816E-003;
2.407833333333334E+009;1.794175356626511E-001;6.816186942160130E-003;-1.785646076314151E-003;3.285182639956474E-003;
2.408000000000000E+009;1.790267676115036E-001;6.004238501191139E-003;-1.467334339395165E-003;3.325631609186530E-003;
2.408166666666667E+009;1.786262691020966E-001;5.476737394928932E-003;-1.553854905068874E-003;3.312766086310148E-003;
2.408333333333334E+009;1.783485114574432E-001;4.769813735038042E-003;-1.333876862190664E-003;3.295880276709795E-003;
2.408500000000000E+009;1.777066886425018E-001;3.925027325749397E-003;-1.242801081389189E-003;3.117796266451478E-003;
2.408666666666667E+009;1.771551519632340E-001;2.959588542580605E-003;-1.140709617175162E-003;3.173629753291607E-003;
2.408833333333334E+009;1.764419376850128E-001;2.036108169704676E-003;-1.038292422890663E-003;3.124846145510674E-003;
2.409000000000000E+009;1.756804585456848E-001;1.013446599245071E-003;-1.088655320927501E-003;3.117293352261186E-003;
2.409166666666667E+009;1.752581149339676E-001;-1.048857593559660E-004;-1.005846657790244E-003;3.012264380231500E-003;
2.409333333333334E+009;1.746682971715927E-001;-1.369351521134377E-003;-8.120290585793555E-004;3.123895963653922E-003;
2.409500000000000E+009;1.737681627273560E-001;-2.865328220650554E-003;-9.236134355887771E-004;2.839335007593036E-003;
2.409666666666667E+009;1.731225699186325E-001;-4.201343283057213E-003;-6.644311361014843E-004;2.908106660470367E-003;
2.409833333333334E+009;1.724042147397995E-001;-5.475856829434633E-003;-6.350562907755375E-004;2.878849394619465E-003;
2.410000000000000E+009;1.719118356704712E-001;-6.940787192434073E-003;-7.467732066288590E-004;2.920033410191536E-003;
2.410166666666667E+009;1.713373064994812E-001;-8.478228934109211E-003;-7.451663841493428E-004;2.803690033033490E-003;
2.410333333333334E+009;1.708249896764755E-001;-1.004806160926819E-002;-5.998866399750114E-004;2.965742489323020E-003;
2.410500000000000E+009;1.703035831451416E-001;-1.185506861656904E-002;-5.800139042548835E-004;2.927630906924605E-003;
2.410666666666667E+009;1.696967631578445E-001;-1.383602060377598E-002;-6.187888793647289E-004;2.902303123846650E-003;
2.410833333333334E+009;1.694054752588272E-001;-1.545042172074318E-002;-5.398794310167432E-004;2.952153095975518E-003;
2.411000000000000E+009;1.689789742231369E-001;-1.713094487786293E-002;-6.642076768912375E-004;3.001928329467773E-003;
2.411166666666667E+009;1.688101738691330E-001;-1.912435330450535E-002;-5.369073478505015E-004;2.881591441109777E-003;
2.411333333333334E+009;1.685329824686050E-001;-2.101698890328407E-002;-6.065477500669658E-004;2.936544828116894E-003;
2.411500000000000E+009;1.681443303823471E-001;-2.307325415313244E-002;-3.809096233453602E-004;3.085658419877291E-003;
2.411666666666667E+009;1.681763827800751E-001;-2.486938796937466E-002;-2.056560333585367E-004;3.015670692548156E-003;
2.411833333333334E+009;1.680372357368469E-001;-2.671559900045395E-002;-2.984975581057370E-004;2.926386659964919E-003;
2.412000000000000E+009;1.682708412408829E-001;-2.856369875371456E-002;-1.119674343499355E-004;3.040466457605362E-003;
2.412166666666667E+009;1.682687550783157E-001;-3.053349442780018E-002;-3.524081193972961E-006;2.939042402431369E-003;
2.412333333333334E+009;1.686949282884598E-001;-3.240849822759628E-002;-1.243501719727647E-005;3.085921052843332E-003;
2.412500000000000E+009;1.688080281019211E-001;-3.421758487820625E-002;1.119181906688027E-004;2.983381273224950E-003;
2.412666666666667E+009;1.691039800643921E-001;-3.624499216675758E-002;2.293287834618241E-004;3.008360043168068E-003;
2.412833333333334E+009;1.694534420967102E-001;-3.793906047940254E-002;2.016584330704063E-004;3.112292848527432E-003;
2.413000000000000E+009;1.697883009910584E-001;-3.972815349698067E-002;1.689814671408385E-004;3.043410368263722E-003;
2.413166666666667E+009;1.702224910259247E-001;-4.128192365169525E-002;3.267918364144862E-004;3.161011030897498E-003;
2.413333333333334E+009;1.703975051641464E-001;-4.298763722181320E-002;5.132123478688300E-004;3.253797534853220E-003;
2.413500000000000E+009;1.712054759263992E-001;-4.470355808734894E-002;6.192945875227451E-004;3.093077568337321E-003;
2.413666666666667E+009;1.716834008693695E-001;-4.623574763536453E-002;8.324850932694972E-004;3.072567982599139E-003;
2.413833333333334E+009;1.722138077020645E-001;-4.769888892769814E-002;7.673882646486163E-004;3.160105319693685E-003;
2.414000000000000E+009;1.724744886159897E-001;-4.922772943973541E-002;7.408522069454193E-004;3.130646422505379E-003;
2.414166666666667E+009;1.732675433158875E-001;-5.031098425388336E-002;9.547270019538701E-004;2.957799704745412E-003;
2.414333333333334E+009;1.737232804298401E-001;-5.164274573326111E-002;9.419285925105214E-004;3.028997685760260E-003;
2.414500000000000E+009;1.742056161165237E-001;-5.270750075578690E-002;1.303390017710626E-003;2.920695114880800E-003;
2.414666666666667E+009;1.748000532388687E-001;-5.353838577866554E-002;1.092107035219669E-003;2.869172254577279E-003;
2.414833333333334E+009;1.752521246671677E-001;-5.451422184705734E-002;1.399965258315206E-003;2.824573311954737E-003;
2.415000000000000E+009;1.756463646888733E-001;-5.545493587851524E-002;1.345418742857873E-003;2.713374327868223E-003;
2.415166666666667E+009;1.760500222444534E-001;-5.623609572649002E-002;1.511707785539329E-003;2.694217721000314E-003;
2.415333333333334E+009;1.765885651111603E-001;-5.703146755695343E-002;1.561956130899489E-003;2.723985351622105E-003;
2.415500000000000E+009;1.767629683017731E-001;-5.754410848021507E-002;1.399402972310782E-003;2.607205649837852E-003;
2.415666666666667E+009;1.769946813583374E-001;-5.810878798365593E-002;1.508426154032350E-003;2.538701053708792E-003;
2.415833333333334E+009;1.772265732288361E-001;-5.869923904538155E-002;1.589456922374666E-003;2.482068492099643E-003;
2.416000000000000E+009;1.772513538599014E-001;-5.911805108189583E-002;1.616244437173009E-003;2.291048178449273E-003;
2.416166666666667E+009;1.774620562791824E-001;-5.943348258733749E-002;1.861039549112320E-003;2.346098190173507E-003;
2.416333333333334E+009;1.773279756307602E-001;-5.982359498739243E-002;1.757934805937111E-003;2.273781923577189E-003;
2.416500000000000E+009;1.771845817565918E-001;-6.012304872274399E-002;1.815131050534546E-003;2.356379292905331E-003;
2.416666666666667E+009;1.769665628671646E-001;-6.031687557697296E-002;1.811022637411952E-003;2.182024065405130E-003;
2.416833333333334E+009;1.767423003911972E-001;-6.072235852479935E-002;1.986888702958822E-003;2.129947301000357E-003;
2.417000000000000E+009;1.762362420558929E-001;-6.099242717027664E-002;2.063135616481304E-003;2.040985738858581E-003;
2.417166666666667E+009;1.757645606994629E-001;-6.116904318332672E-002;1.943443669006228E-003;2.039569430053234E-003;
2.417333333333334E+009;1.752460896968842E-001;-6.130981817841530E-002;1.995833590626717E-003;2.123405924066901E-003;
2.417500000000000E+009;1.747962981462479E-001;-6.177841871976852E-002;2.006893744692206E-003;1.917490619234741E-003;
2.417666666666667E+009;1.739884614944458E-001;-6.198608875274658E-002;1.976804574951530E-003;1.864017336629331E-003;
2.417833333333334E+009;1.731447428464890E-001;-6.214157491922379E-002;2.059384481981397E-003;1.945480355061591E-003;
2.418000000000000E+009;1.722615808248520E-001;-6.260062754154205E-002;2.037838334217668E-003;1.976851373910904E-003;
2.418166666666667E+009;1.713951379060745E-001;-6.284639239311218E-002;2.184306737035513E-003;1.815333613194525E-003;
2.418333333333334E+009;1.705956906080246E-001;-6.331652402877808E-002;2.000241540372372E-003;1.828304259106517E-003;
2.418500000000000E+009;1.693792492151260E-001;-6.376282125711441E-002;2.007241360843182E-003;1.789642963558435E-003;
2.418666666666667E+009;1.686018556356430E-001;-6.435146927833557E-002;2.111403271555901E-003;1.796260126866400E-003;
2.418833333333334E+009;1.672536879777908E-001;-6.482236087322235E-002;2.295716898515821E-003;1.855942653492093E-003;
2.419000000000000E+009;1.660291105508804E-001;-6.556357443332672E-002;2.115810988470912E-003;1.708887983113527E-003;
2.419166666666667E+009;1.649446636438370E-001;-6.618715077638626E-002;2.349934075027704E-003;1.879168674349785E-003;
2.419333333333334E+009;1.636273264884949E-001;-6.685816496610642E-002;2.268813084810972E-003;1.776292570866644E-003;
2.419500000000000E+009;1.626627892255783E-001;-6.780506670475006E-002;2.477600239217281E-003;1.850987086072564E-003;
2.419666666666667E+009;1.615381091833115E-001;-6.875743716955185E-002;2.483723452314735E-003;1.637739595025778E-003;
2.419833333333334E+009;1.602188050746918E-001;-6.958504021167755E-002;2.436241367831826E-003;1.716994214802980E-003;
2.420000000000000E+009;1.592215895652771E-001;-7.070498168468475E-002;2.585054375231266E-003;1.709410571493208E-003;
2.420166666666667E+009;1.580750942230225E-001;-7.176128774881363E-002;2.599126892164350E-003;1.654616440646350E-003;
2.420333333333334E+009;1.571857482194901E-001;-7.317630201578140E-002;2.792084356769919E-003;1.694218954071403E-003;
2.420500000000000E+009;1.562198996543884E-001;-7.424703240394592E-002;2.847225638106465E-003;1.542843063361943E-003;
2.420666666666667E+009;1.549878716468811E-001;-7.553412765264511E-002;2.810815582051873E-003;1.589471008628607E-003;
2.420833333333334E+009;1.543538868427277E-001;-7.720414549112320E-002;3.082121955230832E-003;1.559388008899987E-003;
2.421000000000000E+009;1.534160822629929E-001;-7.853833585977554E-002;3.135500242933631E-003;1.550697255879641E-003;
2.421166666666667E+009;1.526933163404465E-001;-7.995887100696564E-002;3.128211246803403E-003;1.531630172394216E-003;
2.421333333333334E+009;1.522330641746521E-001;-8.155930042266846E-002;3.419157583266497E-003;1.439416781067848E-003;
2.421500000000000E+009;1.513877958059311E-001;-8.309580385684967E-002;3.437913022935391E-003;1.227502361871302E-003;
2.421666666666667E+009;1.509196460247040E-001;-8.467153459787369E-002;3.525920212268829E-003;1.114826998673379E-003;
2.421833333333334E+009;1.506256163120270E-001;-8.652679622173309E-002;3.668119665235281E-003;1.216170494444668E-003;
2.422000000000000E+009;1.502030640840530E-001;-8.810724318027496E-002;3.776964265853167E-003;9.919938165694475E-004;
2.422166666666667E+009;1.499554067850113E-001;-8.983197808265686E-002;3.795427968725562E-003;8.014995255507529E-004;
2.422333333333334E+009;1.499677598476410E-001;-9.137581288814545E-002;3.995514474809170E-003;6.548422388732433E-004;
2.422500000000000E+009;1.495285183191299E-001;-9.299787878990173E-002;3.942881245166063E-003;6.572981365025044E-004;
2.422666666666667E+009;1.496006101369858E-001;-9.479272365570068E-002;4.242664668709040E-003;4.548200522549450E-004;
2.422833333333334E+009;1.497561633586884E-001;-9.643093496561050E-002;4.270648118108511E-003;3.860711585730314E-004;
2.423000000000000E+009;1.498267799615860E-001;-9.798343479633331E-002;4.277765285223723E-003;1.508132845629007E-004;
2.423166666666667E+009;1.501102298498154E-001;-9.970846027135849E-002;4.288102965801954E-003;-1.842434285208583E-004;
2.423333333333334E+009;1.504178792238236E-001;-1.011089533567429E-001;4.189301747828722E-003;-3.448415081948042E-004;
2.423500000000000E+009;1.505603343248367E-001;-1.028134077787399E-001;4.214084707200527E-003;-6.214756867848337E-004;
2.423666666666667E+009;1.507534086704254E-001;-1.042472422122955E-001;4.149640444666147E-003;-5.753606092184782E-004;
2.423833333333334E+009;1.513384133577347E-001;-1.055581420660019E-001;4.259221255779266E-003;-8.824406540952623E-004;
2.424000000000000E+009;1.515913903713226E-001;-1.068112179636955E-001;4.137178417295218E-003;-9.955756831914187E-004;
2.424166666666667E+009;1.519735753536224E-001;-1.081868186593056E-001;4.229160957038403E-003;-1.115702558308840E-003;
2.424333333333334E+009;1.525480449199677E-001;-1.092418134212494E-001;3.858955577015877E-003;-1.344721298664808E-003;
2.424500000000000E+009;1.530192196369171E-001;-1.105808839201927E-001;3.907692153006792E-003;-1.444768975488842E-003;
2.424666666666667E+009;1.534140557050705E-001;-1.114743649959564E-001;3.856775350868702E-003;-1.671475823968649E-003;
2.424833333333334E+009;1.538207232952118E-001;-1.125244498252869E-001;3.632880747318268E-003;-1.814916264265776E-003;
2.425000000000000E+009;1.544126868247986E-001;-1.134502887725830E-001;3.710410092025995E-003;-1.983453519642353E-003;
2.425166666666667E+009;1.546108126640320E-001;-1.141555830836296E-001;3.600386902689934E-003;-2.113071037456393E-003;
2.425333333333334E+009;1.549593061208725E-001;-1.149999499320984E-001;3.450690768659115E-003;-2.172573236748576E-003;
2.425500000000000E+009;1.553032249212265E-001;-1.156552210450172E-001;3.184121567755938E-003;-2.145146485418081E-003;
2.425666666666667E+009;1.554514467716217E-001;-1.162890791893005E-001;3.175182500854135E-003;-2.232695929706097E-003;
2.425833333333334E+009;1.558028161525726E-001;-1.166715919971466E-001;3.016118193045259E-003;-2.290426054969430E-003;
2.426000000000000E+009;1.558717787265778E-001;-1.172290667891502E-001;3.025352023541927E-003;-2.296278020367026E-003;
2.426166666666667E+009;1.561566740274429E-001;-1.176359504461289E-001;2.990864450111985E-003;-2.484409604221582E-003;
2.426333333333334E+009;1.561489701271057E-001;-1.179640293121338E-001;2.788009587675333E-003;-2.523088362067938E-003;
2.426500000000000E+009;1.560841202735901E-001;-1.181500405073166E-001;2.767507452517748E-003;-2.583710011094809E-003;
2.426666666666667E+009;1.560912579298019E-001;-1.182642504572868E-001;2.667891327291727E-003;-2.673139562830329E-003;
2.426833333333334E+009;1.558835655450821E-001;-1.185907423496246E-001;2.634738339111209E-003;-2.831689314916730E-003;
2.427000000000000E+009;1.555283665657044E-001;-1.187843456864357E-001;2.489795442670584E-003;-2.939056837931275E-003;
2.427166666666667E+009;1.551317423582077E-001;-1.187655180692673E-001;2.441440708935261E-003;-2.781225135549903E-003;
2.427333333333334E+009;1.545825600624085E-001;-1.189299896359444E-001;2.387898741289973E-003;-2.819400280714035E-003;
2.427500000000000E+009;1.541172862052918E-001;-1.190639585256577E-001;2.358279190957546E-003;-2.956119365990162E-003;
2.427666666666667E+009;1.533402502536774E-001;-1.192053332924843E-001;2.388511085882783E-003;-2.827539341524243E-003;
2.427833333333334E+009;1.524553298950195E-001;-1.193607375025749E-001;2.200268907472491E-003;-2.972870832309127E-003;
