# Version 1.00
#
freq[Hz];re:Trc1_S11;im:Trc1_S11;re:Trc2_S21;im:Trc2_S21;
2.400000000000000E+009;1.582540869712830E-001;6.189439073204994E-002;-4.267995245754719E-003;-1.882663462311029E-003;
2.400166666666667E+009;1.581819355487824E-001;6.033599004149437E-002;-4.327511414885521E-003;-1.945884665474296E-003;
2.400333333333334E+009;1.580241620540619E-001;5.836028233170509E-002;-4.330964293330908E-003;-1.703195273876190E-003;
2.400500000000000E+009;1.579463183879852E-001;5.654338374733925E-002;-4.305907525122166E-003;-1.722052111290395E-003;
2.400666666666667E+009;1.580204814672470E-001;5.459680780768395E-002;-4.118505399674177E-003;-1.431727199815214E-003;
2.400833333333334E+009;1.581659168004990E-001;5.252956226468086E-002;-4.222379997372627E-003;-1.287846243940294E-003;
2.401000000000000E+009;1.581615805625916E-001;5.057619884610176E-002;-4.218709655106068E-003;-1.189490081742406E-003;
2.401166666666667E+009;1.581926047801971E-001;4.857657477259636E-002;-4.232994280755520E-003;-1.192118274047971E-003;
2.401333333333334E+009;1.585499644279480E-001;4.638854414224625E-002;-4.255620297044516E-003;-1.005937927402556E-003;
2.401500000000000E+009;1.589115113019943E-001;4.452833533287048E-002;-4.206926096230745E-003;-8.723297505639494E-004;
2.401666666666667E+009;1.593123078346252E-001;4.269519820809364E-002;-4.275197628885508E-003;-8.913633064366877E-004;
2.401833333333334E+009;1.597175747156143E-001;4.048599675297737E-002;-4.322684369981289E-003;-7.094287429936230E-004;
2.402000000000000E+009;1.598414033651352E-001;3.862375393509865E-002;-4.338033497333527E-003;-5.285000079311431E-004;
2.402166666666667E+009;1.604380607604981E-001;3.659374639391899E-002;-4.259789828211069E-003;-5.617334390990436E-004;
2.402333333333334E+009;1.610917598009110E-001;3.475986421108246E-002;-4.395122639834881E-003;-3.194457676727325E-004;
2.402500000000000E+009;1.619717031717300E-001;3.297410160303116E-002;-4.288465715944767E-003;-3.795868251472712E-004;
2.402666666666667E+009;1.623902618885040E-001;3.132477402687073E-002;-4.283192101866007E-003;-1.935496693477035E-004;
2.402833333333334E+009;1.632776260375977E-001;2.953713946044445E-002;-4.297740291804075E-003;-2.345873326703440E-005;
2.403000000000000E+009;1.640350818634033E-001;2.816589735448360E-002;-4.355743993073702E-003;4.617561353370547E-005;
2.403166666666667E+009;1.649404019117355E-001;2.654821425676346E-002;-4.203238058835268E-003;3.011971421074122E-004;
2.403333333333334E+009;1.658083945512772E-001;2.515931613743305E-002;-4.329019226133823E-003;3.628135309554637E-004;
2.403500000000000E+009;1.667065471410751E-001;2.366415038704872E-002;-4.501644987612963E-003;3.508792142383754E-004;
2.403666666666667E+009;1.676043123006821E-001;2.213098667562008E-002;-4.506433382630348E-003;4.901917418465018E-004;
2.403833333333334E+009;1.687505841255188E-001;2.087734453380108E-002;-4.289026372134686E-003;7.954795146360993E-004;
2.404000000000000E+009;1.696711778640747E-001;1.999880559742451E-002;-4.372885450720787E-003;6.912847165949643E-004;
2.404166666666667E+009;1.705762445926666E-001;1.871052384376526E-002;-4.335689358413220E-003;1.005485770292580E-003;
2.404333333333334E+009;1.713983565568924E-001;1.774814352393150E-002;-4.301210399717093E-003;1.283018384128809E-003;
2.404500000000000E+009;1.724133193492889E-001;1.675507612526417E-002;-4.410892259329557E-003;1.266960636712611E-003;
2.404666666666667E+009;1.732599437236786E-001;1.592109166085720E-002;-4.196115769445896E-003;1.605601748451591E-003;
2.404833333333334E+009;1.742238402366638E-001;1.498461049050093E-002;-4.042671527713537E-003;1.653903629630804E-003;
2.405000000000000E+009;1.749659180641174E-001;1.425551995635033E-002;-4.070227965712547E-003;1.935582491569221E-003;
2.405166666666667E+009;1.758499443531036E-001;1.358963083475828E-002;-4.058029502630234E-003;1.739872852340341E-003;
2.405333333333334E+009;1.764903217554092E-001;1.300475932657719E-002;-4.098878707736731E-003;2.183992182835937E-003;
2.405500000000000E+009;1.772026866674423E-001;1.250417064875364E-002;-3.798230318352580E-003;2.296870108693838E-003;
2.405666666666667E+009;1.777539849281311E-001;1.199806388467550E-002;-3.869567299261689E-003;2.319760853424668E-003;
2.405833333333334E+009;1.782625615596771E-001;1.163322944194078E-002;-3.600837662816048E-003;2.643808256834745E-003;
2.406000000000000E+009;1.788451820611954E-001;1.120499148964882E-002;-3.435087390244007E-003;2.694753231480718E-003;
2.406166666666667E+009;1.791574507951737E-001;1.095238607376814E-002;-3.313650144264102E-003;2.727020764723420E-003;
2.406333333333334E+009;1.797234117984772E-001;1.045505609363318E-002;-3.267456544563174E-003;2.830877434462309E-003;
2.406500000000000E+009;1.799121350049973E-001;1.010025944560766E-002;-3.056206274777651E-003;3.090465907007456E-003;
2.406666666666667E+009;1.800199598073959E-001;9.855153970420361E-003;-2.820776076987386E-003;3.097693901509047E-003;
2.406833333333334E+009;1.802643239498138E-001;9.238948114216328E-003;-2.724232617765665E-003;3.210576483979821E-003;
2.407000000000000E+009;1.804014444351196E-001;9.209612384438515E-003;-2.467424608767033E-003;3.172838361933827E-003;
2.407166666666667E+009;1.804733127355576E-001;8.822334930300713E-003;-2.380034420639277E-003;3.281016135588288E-003;
2.407333333333334E+009;1.801736354827881E-001;8.278059773147106E-003;-2.335788914933801E-003;3.250355366617441E-003;
2.407500000000000E+009;1.800112724304199E-001;7.854889146983624E-003;-1.980952452868223E-003;3.372909268364310E-003;
2.407666666666667E+009;1.798519939184189E-001;7.559046149253845E-003;-1.809608074836433E-003;3.425768809393048E-003;
2.407833333333334E+009;1.794221699237824E-001;6.799914408475161E-003;-1.851061242632568E-003;3.280162811279297E-003;
2.408000000000000E+009;1.790586560964584E-001;6.137177813798189E-003;-1.668873126618564E-003;3.264733357354999E-003;
2.408166666666667E+009;1.786222457885742E-001;5.710412748157978E-003;-1.505516818724573E-003;3.376687644049525E-003;
2.408333333333334E+009;1.782967597246170E-001;4.767808131873608E-003;-1.456074067391455E-003;3.225019667297602E-003;
2.408500000000000E+009;1.777804940938950E-001;3.979505039751530E-003;-1.310985535383225E-003;3.157370258122683E-003;
2.408666666666667E+009;1.770778596401215E-001;3.102735849097371E-003;-1.275700866244733E-003;3.104014787822962E-003;
2.408833333333334E+009;1.764220148324966E-001;2.023266861215234E-003;-1.236437354236841E-003;3.144731745123863E-003;
2.409000000000000E+009;1.758892089128494E-001;8.908077725209296E-004;-1.052386127412319E-003;3.181708278134465E-003;
2.409166666666667E+009;1.751491725444794E-001;-1.974046026589349E-004;-1.093183062039316E-003;2.996645169332624E-003;
2.409333333333334E+009;1.746763288974762E-001;-1.416250481270254E-003;-9.686514968052506E-004;3.135131672024727E-003;
2.409500000000000E+009;1.739171445369721E-001;-2.749502891674638E-003;-8.399665821343660E-004;3.151939716190100E-003;
2.409666666666667E+009;1.732342839241028E-001;-4.109959583729506E-003;-7.962428499013186E-004;3.073910949751735E-003;
2.409833333333334E+009;1.724329590797424E-001;-5.275055300444365E-003;-7.407632074318826E-004;3.034784691408277E-003;
2.410000000000000E+009;1.719087362289429E-001;-6.929914001375437E-003;-8.812014712020755E-004;3.084294963628054E-003;
2.410166666666667E+009;1.714874356985092E-001;-8.517329581081867E-003;-7.303097518160939E-004;2.980760298669338E-003;
2.410333333333334E+009;1.707034111022949E-001;-1.003711577504873E-002;-6.134147406555712E-004;2.998623531311750E-003;
2.410500000000000E+009;1.701839119195938E-001;-1.190787460654974E-002;-6.129334797151387E-004;2.812349237501621E-003;
2.410666666666667E+009;1.697289794683456E-001;-1.380991376936436E-002;-6.752606714144349E-004;3.020714735612273E-003;
2.410833333333334E+009;1.694675683975220E-001;-1.537576504051685E-002;-5.153546808287501E-004;3.057932714000344E-003;
2.411000000000000E+009;1.690796166658402E-001;-1.725887134671211E-002;-4.356018616817892E-004;3.102647839114070E-003;
2.411166666666667E+009;1.687527596950531E-001;-1.918801292777062E-002;-4.853465070482343E-004;3.021950135007501E-003;
2.411333333333334E+009;1.683741509914398E-001;-2.089796029031277E-002;-4.617125960066915E-004;3.081057220697403E-003;
2.411500000000000E+009;1.681465357542038E-001;-2.296632900834084E-002;-5.008746520616114E-004;2.957965480163693E-003;
2.411666666666667E+009;1.682642847299576E-001;-2.480542473495007E-002;-2.019649546127766E-004;3.093266393989325E-003;
2.411833333333334E+009;1.682332158088684E-001;-2.669201046228409E-002;-1.821614278014749E-004;3.112446516752243E-003;
2.412000000000000E+009;1.683031469583511E-001;-2.862513996660709E-002;-1.637887180550024E-004;3.194123273715377E-003;
2.412166666666667E+009;1.683088392019272E-001;-3.057415597140789E-002;-1.529564760858193E-004;3.233623923733831E-003;
2.412333333333334E+009;1.686212271451950E-001;-3.237494081258774E-002;-6.825050513725728E-005;3.104827366769314E-003;
2.412500000000000E+009;1.687145978212357E-001;-3.429559990763664E-002;8.826683915685862E-005;3.047046251595020E-003;
2.412666666666667E+009;1.690933704376221E-001;-3.621818870306015E-002;1.905844401335344E-004;3.213147865608335E-003;
2.412833333333334E+009;1.695541143417358E-001;-3.787949681282044E-002;2.038829552475363E-004;3.110492369160056E-003;
2.413000000000000E+009;1.699181646108627E-001;-3.972963988780975E-002;3.338505921419710E-004;3.182381158694625E-003;
2.413166666666667E+009;1.703259646892548E-001;-4.142084345221520E-002;4.957531928084791E-004;3.123869188129902E-003;
2.413333333333334E+009;1.706012934446335E-001;-4.320806264877319E-002;5.195893463678658E-004;3.106680465862155E-003;
2.413500000000000E+009;1.713737696409226E-001;-4.474983736872673E-002;6.232609157450497E-004;3.183465916663408E-003;
2.413666666666667E+009;1.717700809240341E-001;-4.619359597563744E-002;7.116720080375671E-004;2.927031833678484E-003;
2.413833333333334E+009;1.721465438604355E-001;-4.774258658289909E-002;6.816020468249917E-004;3.135735401883721E-003;
2.414000000000000E+009;1.725625842809677E-001;-4.910451918840408E-002;8.980056154541671E-004;2.946647815406323E-003;
2.414166666666667E+009;1.732134670019150E-001;-5.036111921072006E-002;8.453178452327848E-004;3.088765544816852E-003;
2.414333333333334E+009;1.736706197261810E-001;-5.162726715207100E-002;1.003477256745100E-003;2.855767495930195E-003;
2.414500000000000E+009;1.744401454925537E-001;-5.262535810470581E-002;1.054546795785427E-003;2.878252882510424E-003;
2.414666666666667E+009;1.749190092086792E-001;-5.365506187081337E-002;1.114078448154032E-003;2.838775282725692E-003;
2.414833333333334E+009;1.752564013004303E-001;-5.466635897755623E-002;1.264596823602915E-003;2.960615325719118E-003;
2.415000000000000E+009;1.756586134433746E-001;-5.542552098631859E-002;1.427291426807642E-003;2.872996265068650E-003;
2.415166666666667E+009;1.760349422693253E-001;-5.622557550668716E-002;1.338616595603526E-003;2.975168870761991E-003;
2.415333333333334E+009;1.764864772558212E-001;-5.704956501722336E-002;1.559510477818549E-003;2.783739008009434E-003;
2.415500000000000E+009;1.767117232084274E-001;-5.771027877926827E-002;1.642799004912376E-003;2.581681357696652E-003;
2.415666666666667E+009;1.769231259822846E-001;-5.812108144164085E-002;1.548287924379110E-003;2.685451880097389E-003;
2.415833333333334E+009;1.772200763225555E-001;-5.871208384633064E-002;1.704089925624430E-003;2.563879592344165E-003;
2.416000000000000E+009;1.771206110715866E-001;-5.908025056123734E-002;1.737747341394424E-003;2.435559872537851E-003;
2.416166666666667E+009;1.774568259716034E-001;-5.948852002620697E-002;1.939131529070437E-003;2.413927111774683E-003;
2.416333333333334E+009;1.772915869951248E-001;-5.967475473880768E-002;1.915684784762561E-003;2.391366753727198E-003;
2.416500000000000E+009;1.771581918001175E-001;-6.014622747898102E-002;1.871117157861590E-003;2.352318726480007E-003;
2.416666666666667E+009;1.769382357597351E-001;-6.034305319190025E-002;1.874784589745104E-003;2.279001288115978E-003;
2.416833333333334E+009;1.768599599599838E-001;-6.073798984289169E-002;1.985416281968355E-003;2.143158344551921E-003;
2.417000000000000E+009;1.760792285203934E-001;-6.104512885212898E-002;2.028112998232245E-003;2.163984812796116E-003;
2.417166666666667E+009;1.757732033729553E-001;-6.110870465636253E-002;2.001189161092043E-003;2.192021114751697E-003;
2.417333333333334E+009;1.752020418643951E-001;-6.142698973417282E-002;2.033990342170000E-003;2.023203065618873E-003;
2.417500000000000E+009;1.746478229761124E-001;-6.193272396922112E-002;1.962732290849090E-003;2.061244100332260E-003;
2.417666666666667E+009;1.740428954362869E-001;-6.198173761367798E-002;2.035860903561115E-003;1.942576491273940E-003;
2.417833333333334E+009;1.731685250997543E-001;-6.227997690439224E-002;2.041677013039589E-003;1.817596727050841E-003;
2.418000000000000E+009;1.723532229661942E-001;-6.268633902072907E-002;2.173735992982984E-003;1.999049214646220E-003;
2.418166666666667E+009;1.713328361511231E-001;-6.293249875307083E-002;2.175637288019061E-003;1.945905387401581E-003;
2.418333333333334E+009;1.706175059080124E-001;-6.339278072118759E-002;2.209431724622846E-003;1.876162714324892E-003;
2.418500000000000E+009;1.694201081991196E-001;-6.382091343402863E-002;2.209944883361459E-003;1.848520245403051E-003;
2.418666666666667E+009;1.684896647930145E-001;-6.435087323188782E-002;2.213909290730953E-003;1.765221590176225E-003;
2.418833333333334E+009;1.671883761882782E-001;-6.493713706731796E-002;2.460512332618237E-003;1.790917012840509E-003;
2.419000000000000E+009;1.660727858543396E-001;-6.553771346807480E-002;2.345478395000100E-003;1.831969828344882E-003;
2.419166666666667E+009;1.650701016187668E-001;-6.632900238037109E-002;2.647717716172338E-003;1.752106822095811E-003;
2.419333333333334E+009;1.636182218790054E-001;-6.688536703586578E-002;2.471816027536988E-003;1.606406760402024E-003;
2.419500000000000E+009;1.625718474388123E-001;-6.796361505985260E-002;2.551530953496695E-003;1.597963855601847E-003;
2.419666666666667E+009;1.614289283752441E-001;-6.880832463502884E-002;2.503537107259035E-003;1.658822293393314E-003;
2.419833333333334E+009;1.602076441049576E-001;-6.972664594650269E-002;2.655647462233901E-003;1.755404984578490E-003;
2.420000000000000E+009;1.592785120010376E-001;-7.076659798622131E-002;2.578315325081348E-003;1.602184027433395E-003;
2.420166666666667E+009;1.580674648284912E-001;-7.197140157222748E-002;2.755354158580303E-003;1.694141654297710E-003;
2.420333333333334E+009;1.570989340543747E-001;-7.327836006879807E-002;2.820634515956044E-003;1.710206968709827E-003;
2.420500000000000E+009;1.560732871294022E-001;-7.413857430219650E-002;2.962964121252298E-003;1.679086126387119E-003;
2.420666666666667E+009;1.552097350358963E-001;-7.566046714782715E-002;2.998367650434375E-003;1.642953022383153E-003;
2.420833333333334E+009;1.542936712503433E-001;-7.712022960186005E-002;3.229830181226134E-003;1.599502749741077E-003;
2.421000000000000E+009;1.533067822456360E-001;-7.851621508598328E-002;3.181452397257090E-003;1.411202596500516E-003;
2.421166666666667E+009;1.527486890554428E-001;-7.999052852392197E-002;3.282085293903947E-003;1.451125019229949E-003;
2.421333333333334E+009;1.520331650972366E-001;-8.171871304512024E-002;3.277714829891920E-003;1.361922244541347E-003;
2.421500000000000E+009;1.513043791055679E-001;-8.300033211708069E-002;3.514789510518313E-003;1.364783383905888E-003;
2.421666666666667E+009;1.508930176496506E-001;-8.478256314992905E-002;3.594145178794861E-003;1.181333791464567E-003;
2.421833333333334E+009;1.506099402904511E-001;-8.645136654376984E-002;3.691400168463588E-003;1.069572521373630E-003;
2.422000000000000E+009;1.502372324466705E-001;-8.803108334541321E-002;3.833790309727192E-003;1.088373246602714E-003;
2.422166666666667E+009;1.497849225997925E-001;-8.985617011785507E-002;3.970793914049864E-003;8.740519988350570E-004;
2.422333333333334E+009;1.497930437326431E-001;-9.135743975639343E-002;3.985866438597441E-003;7.214841316454113E-004;
2.422500000000000E+009;1.497225612401962E-001;-9.292562305927277E-002;4.011500161141157E-003;5.656767170876265E-004;
2.422666666666667E+009;1.495106816291809E-001;-9.473828971385956E-002;4.007968120276928E-003;3.841479192487896E-004;
2.422833333333334E+009;1.495277732610703E-001;-9.644243121147156E-002;4.239805974066258E-003;2.960551646538079E-004;
2.423000000000000E+009;1.496014893054962E-001;-9.807608276605606E-002;4.232821054756641E-003;6.827119068475440E-005;
2.423166666666667E+009;1.500476598739624E-001;-9.972655028104782E-002;4.265002440661192E-003;-1.296432747039944E-004;
2.423333333333334E+009;1.502300500869751E-001;-1.009813249111176E-001;4.262225236743689E-003;-2.188345824833959E-004;
2.423500000000000E+009;1.505398601293564E-001;-1.025893762707710E-001;4.196675959974527E-003;-5.973046645522118E-004;
2.423666666666667E+009;1.507463604211807E-001;-1.043049469590187E-001;4.241046495735645E-003;-7.275906391441822E-004;
2.423833333333334E+009;1.513285189867020E-001;-1.056651473045349E-001;4.105592612177134E-003;-8.784418459981680E-004;
2.424000000000000E+009;1.516373455524445E-001;-1.068725362420082E-001;4.207575228065252E-003;-9.495510603301227E-004;
2.424166666666667E+009;1.519097387790680E-001;-1.082024052739143E-001;4.196844063699246E-003;-1.234350493177772E-003;
2.424333333333334E+009;1.524689942598343E-001;-1.093145161867142E-001;3.990067169070244E-003;-1.337774796411395E-003;
2.424500000000000E+009;1.530813872814179E-001;-1.104549318552017E-001;3.916522953659296E-003;-1.583646051585674E-003;
2.424666666666667E+009;1.535361558198929E-001;-1.114647239446640E-001;3.789507318288088E-003;-1.645630924031138E-003;
2.424833333333334E+009;1.538228988647461E-001;-1.124284192919731E-001;3.839766141027212E-003;-1.779818790964782E-003;
2.425000000000000E+009;1.543706059455872E-001;-1.133928373456001E-001;3.729506628587842E-003;-1.924159470945597E-003;
2.425166666666667E+009;1.545769572257996E-001;-1.141320168972015E-001;3.464375389739871E-003;-2.124529099091888E-003;
2.425333333333334E+009;1.550726592540741E-001;-1.149253174662590E-001;3.453435609117150E-003;-2.123583341017366E-003;
2.425500000000000E+009;1.552826017141342E-001;-1.155842021107674E-001;3.379908856004477E-003;-2.401300007477403E-003;
2.425666666666667E+009;1.555202454328537E-001;-1.162681654095650E-001;3.268619067966938E-003;-2.229727106168866E-003;
2.425833333333334E+009;1.558753252029419E-001;-1.167239546775818E-001;2.992751309648156E-003;-2.531171077862382E-003;
2.426000000000000E+009;1.559487134218216E-001;-1.173099055886269E-001;3.042359603568912E-003;-2.414187882095575E-003;
2.426166666666667E+009;1.561674773693085E-001;-1.176246702671051E-001;2.965701743960381E-003;-2.446222817525268E-003;
2.426333333333334E+009;1.561149954795837E-001;-1.179598718881607E-001;2.895548241212964E-003;-2.685094950720668E-003;
2.426500000000000E+009;1.560244411230087E-001;-1.181950569152832E-001;2.862144494429231E-003;-2.639174927026033E-003;
2.426666666666667E+009;1.560592353343964E-001;-1.182656437158585E-001;2.747273771092296E-003;-2.749318489804864E-003;
2.426833333333334E+009;1.558612436056137E-001;-1.184992492198944E-001;2.556332852691412E-003;-2.829451113939285E-003;
2.427000000000000E+009;1.554880887269974E-001;-1.188266277313232E-001;2.485751174390316E-003;-2.743184333667159E-003;
2.427166666666667E+009;1.551200896501541E-001;-1.187242418527603E-001;2.268624957650900E-003;-2.976682735607028E-003;
2.427333333333334E+009;1.545942872762680E-001;-1.189740821719170E-001;2.400746336206794E-003;-2.866739872843027E-003;
2.427500000000000E+009;1.541898697614670E-001;-1.191508173942566E-001;2.106911735609174E-003;-3.095682477578521E-003;
2.427666666666667E+009;1.533732563257217E-001;-1.192123368382454E-001;2.186566824093461E-003;-2.912380965426564E-003;
2.427833333333334E+009;1.524785906076431E-001;-1.193264871835709E-001;2.225623233243823E-003;-2.920874627307057E-003;
