# Version 1.00
#
freq[Hz];re:Trc1_S11;im:Trc1_S11;re:Trc2_S21;im:Trc2_S21;
2.400000000000000E+009;1.714365035295487E-001;4.014508798718453E-002;1.920605311170220E-003;3.798183985054493E-003;
2.400166666666667E+009;1.719896495342255E-001;3.962634876370430E-002;2.123489743098617E-003;3.664500312879682E-003;
2.400333333333334E+009;1.725290715694428E-001;3.905820474028587E-002;2.199938055127859E-003;3.520137397572398E-003;
2.400500000000000E+009;1.729190647602081E-001;3.837079182267189E-002;2.438642317429185E-003;3.459295723587275E-003;
2.400666666666667E+009;1.732513755559921E-001;3.774638846516609E-002;2.670546527951956E-003;3.165530739352107E-003;
2.400833333333334E+009;1.735436916351318E-001;3.733718395233154E-002;2.893385244533420E-003;2.902911044657230E-003;
2.401000000000000E+009;1.737338155508041E-001;3.654566407203674E-002;2.963060978800058E-003;2.814975799992681E-003;
2.401166666666667E+009;1.739538908004761E-001;3.595583513379097E-002;2.954136580228806E-003;2.579445950686932E-003;
2.401333333333334E+009;1.736713349819183E-001;3.544891625642777E-002;3.128468291833997E-003;2.416614908725023E-003;
2.401500000000000E+009;1.737711876630783E-001;3.475322946906090E-002;3.009200561791658E-003;2.240343717858195E-003;
2.401666666666667E+009;1.737308651208878E-001;3.412807360291481E-002;3.241750644519925E-003;2.244158647954464E-003;
2.401833333333334E+009;1.736168414354324E-001;3.340807184576988E-002;3.234500996768475E-003;1.936062821187079E-003;
2.402000000000000E+009;1.731735318899155E-001;3.263477608561516E-002;3.269605571404100E-003;1.831470988690853E-003;
2.402166666666667E+009;1.729248762130737E-001;3.167640417814255E-002;3.426267765462399E-003;1.526426989585161E-003;
2.402333333333334E+009;1.726906299591065E-001;3.104954585433006E-002;3.335071261972189E-003;1.369420555420220E-003;
2.402500000000000E+009;1.725494861602783E-001;2.994936145842075E-002;3.036312991753221E-003;1.407701522111893E-003;
2.402666666666667E+009;1.721917539834976E-001;2.926965244114399E-002;3.252521622925997E-003;1.196902361698449E-003;
2.402833333333334E+009;1.717491149902344E-001;2.837553247809410E-002;3.067903220653534E-003;1.126140821725130E-003;
2.403000000000000E+009;1.714477241039276E-001;2.712350152432919E-002;3.076817607507110E-003;9.776694932952523E-004;
2.403166666666667E+009;1.712581962347031E-001;2.588124386966229E-002;3.191092750057578E-003;8.620859589427710E-004;
2.403333333333334E+009;1.708540320396423E-001;2.488217130303383E-002;2.958073746412993E-003;5.670867394655943E-004;
2.403500000000000E+009;1.704053729772568E-001;2.358813025057316E-002;2.863071160390973E-003;6.458758143708110E-004;
2.403666666666667E+009;1.700006276369095E-001;2.221225202083588E-002;2.779662841930986E-003;5.841612000949681E-004;
2.403833333333334E+009;1.698344498872757E-001;2.076753973960877E-002;2.866734983399510E-003;4.737841954920441E-004;
2.404000000000000E+009;1.693965345621109E-001;1.936973258852959E-002;2.728658495470882E-003;4.940566141158342E-004;
2.404166666666667E+009;1.689924895763397E-001;1.786603033542633E-002;2.564240247011185E-003;3.593602450564504E-004;
2.404333333333334E+009;1.689219921827316E-001;1.632008515298367E-002;2.542876405641437E-003;5.236243596300483E-004;
2.404500000000000E+009;1.684684008359909E-001;1.461203768849373E-002;2.596340840682387E-003;4.232889623381198E-004;
2.404666666666667E+009;1.682957112789154E-001;1.304608676582575E-002;2.566587179899216E-003;4.903523949906230E-004;
2.404833333333334E+009;1.682949364185333E-001;1.126806903630495E-002;2.486259443685412E-003;8.039152598939836E-004;
2.405000000000000E+009;1.681254953145981E-001;9.505324065685272E-003;2.511712955310941E-003;5.833620089106262E-004;
2.405166666666667E+009;1.679913103580475E-001;7.676788140088320E-003;2.465466270223260E-003;5.801003426313400E-004;
2.405333333333334E+009;1.680270135402679E-001;5.884773097932339E-003;2.648158930242062E-003;6.741886609233916E-004;
2.405500000000000E+009;1.679189801216126E-001;4.034004174172878E-003;2.636283868923783E-003;5.788241978734732E-004;
2.405666666666667E+009;1.679740250110626E-001;2.113049384206533E-003;2.681447425857186E-003;6.493196124210954E-004;
2.405833333333334E+009;1.678397506475449E-001;2.384706604061648E-004;2.720907097682357E-003;4.862158093601465E-004;
2.406000000000000E+009;1.678865402936935E-001;-1.711681601591408E-003;2.850458025932312E-003;5.481587140820921E-004;
2.406166666666667E+009;1.677051037549973E-001;-3.493181895464659E-003;2.804599935188890E-003;4.445177037268877E-004;
2.406333333333334E+009;1.680005639791489E-001;-5.256493575870991E-003;2.823243383318186E-003;4.520280926954001E-004;
2.406500000000000E+009;1.679202914237976E-001;-7.166664116084576E-003;2.994163427501917E-003;3.910737577825785E-004;
2.406666666666667E+009;1.677794605493546E-001;-8.805355057120323E-003;3.012802451848984E-003;1.533036847831681E-004;
2.406833333333334E+009;1.679453402757645E-001;-1.059401221573353E-002;2.994699869304895E-003;1.735263504087925E-004;
2.407000000000000E+009;1.679998487234116E-001;-1.236443128436804E-002;3.187431255355477E-003;1.477589248679578E-004;
2.407166666666667E+009;1.681379824876785E-001;-1.382930111140013E-002;3.113766899332404E-003;1.334604603471234E-004;
2.407333333333334E+009;1.680587530136108E-001;-1.531920582056046E-002;3.469017334282398E-003;1.107699063140899E-004;
2.407500000000000E+009;1.682040989398956E-001;-1.669323444366455E-002;3.472236450761557E-003;1.458066435588989E-005;
2.407666666666667E+009;1.684075891971588E-001;-1.799785532057285E-002;3.534014336764813E-003;-2.729334810283035E-004;
2.407833333333334E+009;1.682076454162598E-001;-1.925510913133621E-002;3.715883474797010E-003;-3.591827407944948E-004;
2.408000000000000E+009;1.685259491205216E-001;-2.045875415205956E-002;3.719144267961383E-003;-3.286698483861983E-004;
2.408166666666667E+009;1.687390655279160E-001;-2.124239318072796E-002;3.889280138537288E-003;-6.635063909925520E-004;
2.408333333333334E+009;1.690198928117752E-001;-2.223272062838078E-002;3.883440280333161E-003;-9.668201091699302E-004;
2.408500000000000E+009;1.692664176225662E-001;-2.321834489703178E-002;3.985618241131306E-003;-1.147965900599957E-003;
2.408666666666667E+009;1.694620996713638E-001;-2.409807220101357E-002;3.921898547559977E-003;-1.206126762554050E-003;
2.408833333333334E+009;1.696741878986359E-001;-2.461050078272820E-002;3.810680937021971E-003;-1.627787714824081E-003;
2.409000000000000E+009;1.699972748756409E-001;-2.540726214647293E-002;3.785026026889682E-003;-1.709279953502119E-003;
2.409166666666667E+009;1.704469919204712E-001;-2.617955394089222E-002;3.663590177893639E-003;-2.020757179707289E-003;
2.409333333333334E+009;1.707865595817566E-001;-2.696020901203156E-002;3.505429718643427E-003;-2.168670296669006E-003;
2.409500000000000E+009;1.711266189813614E-001;-2.777353301644325E-002;3.236320335417986E-003;-2.410529647022486E-003;
2.409666666666667E+009;1.712725162506104E-001;-2.820749953389168E-002;3.097903449088335E-003;-2.463332144543529E-003;
2.409833333333334E+009;1.715706139802933E-001;-2.901267074048519E-002;2.949367975816131E-003;-2.669782610610127E-003;
2.410000000000000E+009;1.718120574951172E-001;-2.950005233287811E-002;2.736336784437299E-003;-2.802411327138543E-003;
2.410166666666667E+009;1.720415502786636E-001;-3.026270680129528E-002;2.659158781170845E-003;-2.754611195996404E-003;
2.410333333333334E+009;1.718067228794098E-001;-3.082275390625000E-002;2.331276889890432E-003;-2.837452804669738E-003;
2.410500000000000E+009;1.718978583812714E-001;-3.157212957739830E-002;2.280964981764555E-003;-2.798642730340362E-003;
2.410666666666667E+009;1.718019545078278E-001;-3.223918378353119E-002;2.277226885780692E-003;-2.826857380568981E-003;
2.410833333333334E+009;1.717145740985870E-001;-3.272938355803490E-002;2.063047606498003E-003;-2.735330723226070E-003;
2.411000000000000E+009;1.714616864919663E-001;-3.339226171374321E-002;1.888131489977241E-003;-2.738740528002381E-003;
2.411166666666667E+009;1.713087260723114E-001;-3.410555422306061E-002;1.878124428912997E-003;-2.764440607279539E-003;
2.411333333333334E+009;1.709399223327637E-001;-3.458448126912117E-002;1.719756633974612E-003;-2.741680480539799E-003;
2.411500000000000E+009;1.705589145421982E-001;-3.533718734979630E-002;1.733261276967824E-003;-2.765860641375184E-003;
2.411666666666667E+009;1.702467948198319E-001;-3.591788560152054E-002;1.645281095989049E-003;-2.790324389934540E-003;
2.411833333333334E+009;1.699301451444626E-001;-3.654924407601357E-002;1.628053956665099E-003;-2.693345770239830E-003;
2.412000000000000E+009;1.696407049894333E-001;-3.738223016262054E-002;1.521202153526247E-003;-2.944203326478601E-003;
2.412166666666667E+009;1.688601672649384E-001;-3.793847560882568E-002;1.545934355817735E-003;-2.828439231961966E-003;
2.412333333333334E+009;1.686384230852127E-001;-3.863814100623131E-002;1.328459940850735E-003;-2.923373132944107E-003;
2.412500000000000E+009;1.677680760622025E-001;-3.957334160804749E-002;1.360072055831552E-003;-2.978194039314985E-003;
2.412666666666667E+009;1.672975420951843E-001;-4.055801779031754E-002;1.089753932319582E-003;-3.051495412364602E-003;
2.412833333333334E+009;1.666433960199356E-001;-4.136902466416359E-002;1.096104853786528E-003;-2.907843096181750E-003;
2.413000000000000E+009;1.660360097885132E-001;-4.220892116427422E-002;8.282850030809641E-004;-2.961186924949288E-003;
2.413166666666667E+009;1.653240770101547E-001;-4.328794032335281E-002;7.445422234013677E-004;-2.944767242297530E-003;
2.413333333333334E+009;1.646299958229065E-001;-4.424783959984779E-002;8.231995161622763E-004;-3.078717738389969E-003;
2.413500000000000E+009;1.639383137226105E-001;-4.530957713723183E-002;5.568524939008057E-004;-2.821847563609481E-003;
2.413666666666667E+009;1.634896099567413E-001;-4.644126445055008E-002;5.573681555688381E-004;-3.030326450243592E-003;
2.413833333333334E+009;1.625257432460785E-001;-4.738889634609222E-002;4.482238728087395E-004;-2.868763636797667E-003;
2.414000000000000E+009;1.618483364582062E-001;-4.859052225947380E-002;5.286328960210085E-004;-2.940667094662786E-003;
2.414166666666667E+009;1.614863723516464E-001;-4.971498996019363E-002;5.222962936386466E-004;-2.720538759604096E-003;
2.414333333333334E+009;1.607329398393631E-001;-5.083727464079857E-002;3.163341025356203E-004;-2.666899003088474E-003;
2.414500000000000E+009;1.604053974151611E-001;-5.200572684407234E-002;2.181482996093109E-004;-2.689901040866971E-003;
2.414666666666667E+009;1.598500311374664E-001;-5.326963588595390E-002;2.575588005129248E-004;-2.684861654415727E-003;
2.414833333333334E+009;1.594430655241013E-001;-5.444967001676559E-002;4.647535097319633E-004;-2.860206644982100E-003;
2.415000000000000E+009;1.590015888214111E-001;-5.563700199127197E-002;3.424915485084057E-004;-2.703910926356912E-003;
2.415166666666667E+009;1.585641056299210E-001;-5.713924020528793E-002;2.115728711942211E-004;-2.750582061707974E-003;
2.415333333333334E+009;1.584265828132629E-001;-5.840669572353363E-002;2.697108429856598E-004;-2.880291547626257E-003;
2.415500000000000E+009;1.581529080867767E-001;-5.989701300859451E-002;5.806090848636814E-005;-2.806324744597077E-003;
2.415666666666667E+009;1.578669548034668E-001;-6.128637492656708E-002;1.651121856411919E-004;-2.912775613367558E-003;
2.415833333333334E+009;1.576198041439056E-001;-6.266731768846512E-002;-1.190679249702953E-004;-2.818761626258493E-003;
2.416000000000000E+009;1.574210673570633E-001;-6.418783217668533E-002;-7.910824206192046E-005;-2.929595997557044E-003;
2.416166666666667E+009;1.574002057313919E-001;-6.565270572900772E-002;-3.037994902115315E-004;-2.998220035806298E-003;
2.416333333333334E+009;1.571941971778870E-001;-6.715140491724014E-002;-2.921958803199232E-004;-2.992991125211120E-003;
2.416500000000000E+009;1.570225208997726E-001;-6.861440092325211E-002;-6.422770093195140E-004;-2.790231257677078E-003;
2.416666666666667E+009;1.568156778812408E-001;-6.992537528276444E-002;-7.493444718420506E-004;-2.694486174732447E-003;
2.416833333333334E+009;1.567730605602264E-001;-7.151193171739578E-002;-5.572231020778418E-004;-2.497044159099460E-003;
2.417000000000000E+009;1.563469618558884E-001;-7.279093563556671E-002;-8.290902478620410E-004;-2.586096059530973E-003;
2.417166666666667E+009;1.563842594623566E-001;-7.385028898715973E-002;-7.098822970874608E-004;-2.390334149822593E-003;
2.417333333333334E+009;1.561757028102875E-001;-7.499454915523529E-002;-7.343965698964894E-004;-2.156973117962480E-003;
2.417500000000000E+009;1.559971272945404E-001;-7.625623792409897E-002;-9.124049684032798E-004;-2.128964522853494E-003;
2.417666666666667E+009;1.560188978910446E-001;-7.710680365562439E-002;-6.876420811749995E-004;-2.023327397182584E-003;
2.417833333333334E+009;1.559231877326965E-001;-7.804466038942337E-002;-5.847215070389211E-004;-2.092062029987574E-003;
2.418000000000000E+009;1.557279527187347E-001;-7.925181090831757E-002;-5.881699034944177E-004;-1.861052238382399E-003;
2.418166666666667E+009;1.557418107986450E-001;-7.984704524278641E-002;-4.353795957285911E-004;-1.977154286578298E-003;
2.418333333333334E+009;1.558759063482285E-001;-8.076084405183792E-002;-1.918838097481057E-004;-2.122190548107028E-003;
2.418500000000000E+009;1.556909978389740E-001;-8.159585297107697E-002;-1.867592800408602E-004;-2.129988744854927E-003;
2.418666666666667E+009;1.557719111442566E-001;-8.240432292222977E-002;8.122898179863114E-006;-2.378086093813181E-003;
2.418833333333334E+009;1.554769128561020E-001;-8.309604227542877E-002;-1.596179645275697E-004;-2.474482869729400E-003;
2.419000000000000E+009;1.553282737731934E-001;-8.371279388666153E-002;-5.546065222006291E-005;-2.667719731107354E-003;
2.419166666666667E+009;1.552450805902481E-001;-8.427885919809341E-002;-1.384325878461823E-004;-2.859921194612980E-003;
2.419333333333334E+009;1.550424546003342E-001;-8.470132201910019E-002;-1.101180314435624E-004;-3.024736186489463E-003;
2.419500000000000E+009;1.549798697233200E-001;-8.529243618249893E-002;-4.187310696579516E-004;-3.158310428261757E-003;
2.419666666666667E+009;1.548087596893311E-001;-8.575383573770523E-002;-4.503213858697563E-004;-3.277211217209697E-003;
2.419833333333334E+009;1.545097976922989E-001;-8.597477525472641E-002;-7.338441209867597E-004;-3.369761630892754E-003;
2.420000000000000E+009;1.543060094118118E-001;-8.636878430843353E-002;-8.900170214474201E-004;-3.599377814680338E-003;
2.420166666666667E+009;1.540581583976746E-001;-8.682870119810104E-002;-1.148960902355611E-003;-3.595579648390412E-003;
2.420333333333334E+009;1.538677066564560E-001;-8.714564889669418E-002;-1.351754879578948E-003;-3.628113074228168E-003;
2.420500000000000E+009;1.536642909049988E-001;-8.725810050964356E-002;-1.502883387729526E-003;-3.516884986311197E-003;
2.420666666666667E+009;1.532676666975021E-001;-8.764008432626724E-002;-1.586201018653810E-003;-3.463563043624163E-003;
2.420833333333334E+009;1.531043648719788E-001;-8.807177841663361E-002;-1.915994449518621E-003;-3.423008136451244E-003;
2.421000000000000E+009;1.525203883647919E-001;-8.852355182170868E-002;-2.113555790856481E-003;-3.496594494208694E-003;
2.421166666666667E+009;1.522849351167679E-001;-8.886592090129852E-002;-2.399186370894313E-003;-3.471754956990480E-003;
2.421333333333334E+009;1.517089009284973E-001;-8.923935145139694E-002;-2.604970475658774E-003;-3.317728871479631E-003;
2.421500000000000E+009;1.510723233222961E-001;-8.960556238889694E-002;-2.648002468049526E-003;-3.224266692996025E-003;
2.421666666666667E+009;1.505360007286072E-001;-9.017257392406464E-002;-2.806941512972117E-003;-2.939675236120820E-003;
2.421833333333334E+009;1.499763280153275E-001;-9.069083631038666E-002;-3.073915140703321E-003;-2.860623411834240E-003;
2.422000000000000E+009;1.490432173013687E-001;-9.120289981365204E-002;-3.155856393277645E-003;-2.683990867808461E-003;
2.422166666666667E+009;1.483819633722305E-001;-9.200827032327652E-002;-3.245044965296984E-003;-2.624809276312590E-003;
2.422333333333334E+009;1.475858688354492E-001;-9.246718138456345E-002;-3.312268294394016E-003;-2.518152818083763E-003;
2.422500000000000E+009;1.468226760625839E-001;-9.285870194435120E-002;-3.470765892416239E-003;-2.389555331319571E-003;
2.422666666666667E+009;1.460562050342560E-001;-9.377296268939972E-002;-3.427903866395354E-003;-2.110135508701205E-003;
2.422833333333334E+009;1.452718377113342E-001;-9.457210451364517E-002;-3.627477912232280E-003;-2.071363385766745E-003;
2.423000000000000E+009;1.443524807691574E-001;-9.529908746480942E-002;-3.673114581033588E-003;-1.901750219985843E-003;
2.423166666666667E+009;1.435422897338867E-001;-9.619486331939697E-002;-3.568242536857724E-003;-1.905988552607596E-003;
2.423333333333334E+009;1.427592635154724E-001;-9.693600237369537E-002;-3.761342726647854E-003;-1.725336886011064E-003;
2.423500000000000E+009;1.417458206415176E-001;-9.790602326393127E-002;-3.825079882517457E-003;-1.778792357072234E-003;
2.423666666666667E+009;1.407634615898132E-001;-9.898743033409119E-002;-3.955440595746040E-003;-1.487118657678366E-003;
2.423833333333334E+009;1.399873495101929E-001;-9.996252506971359E-002;-3.878765273839235E-003;-1.330416300334036E-003;
2.424000000000000E+009;1.388760060071945E-001;-1.007309108972549E-001;-3.902208758518100E-003;-1.155815552920103E-003;
2.424166666666667E+009;1.380077600479126E-001;-1.017229408025742E-001;-3.953085746616125E-003;-9.102016338147223E-004;
2.424333333333334E+009;1.372111588716507E-001;-1.028287038207054E-001;-3.879792755469680E-003;-9.522339096292853E-004;
2.424500000000000E+009;1.363402754068375E-001;-1.039215773344040E-001;-4.093575756996870E-003;-6.917935097590089E-004;
2.424666666666667E+009;1.357890218496323E-001;-1.049105226993561E-001;-4.233316052705050E-003;-5.725529044866562E-004;
2.424833333333334E+009;1.347642242908478E-001;-1.061575785279274E-001;-4.249017219990492E-003;-5.069044418632984E-004;
2.425000000000000E+009;1.341882795095444E-001;-1.073104292154312E-001;-4.072943702340126E-003;-3.714449412655085E-004;
2.425166666666667E+009;1.333283931016922E-001;-1.083953008055687E-001;-4.221589770168066E-003;-1.863559446064755E-004;
2.425333333333334E+009;1.327968239784241E-001;-1.095665618777275E-001;-4.342123400419951E-003;-4.400151738082059E-005;
2.425500000000000E+009;1.322484761476517E-001;-1.108956038951874E-001;-4.220361821353436E-003;1.059639471350238E-004;
2.425666666666667E+009;1.315334439277649E-001;-1.120114997029305E-001;-4.299608524888754E-003;2.944668231066316E-004;
2.425833333333334E+009;1.311229318380356E-001;-1.132449731230736E-001;-4.287919029593468E-003;5.970690981484950E-004;
2.426000000000000E+009;1.306081265211105E-001;-1.145929396152496E-001;-4.254587925970554E-003;7.576026837341487E-004;
2.426166666666667E+009;1.302240490913391E-001;-1.157378628849983E-001;-4.059452097862959E-003;1.025801408104599E-003;
2.426333333333334E+009;1.298149675130844E-001;-1.169112995266914E-001;-4.040428902953863E-003;1.225822139531374E-003;
2.426500000000000E+009;1.294701397418976E-001;-1.179496869444847E-001;-3.989798016846180E-003;1.629540813155472E-003;
2.426666666666667E+009;1.292316466569901E-001;-1.190055310726166E-001;-3.732855198904872E-003;1.696933410130441E-003;
2.426833333333334E+009;1.287537515163422E-001;-1.200331151485443E-001;-3.614942310377955E-003;1.763822627253830E-003;
2.427000000000000E+009;1.284688860177994E-001;-1.211953163146973E-001;-3.366734599694610E-003;1.803159131668508E-003;
2.427166666666667E+009;1.282733529806137E-001;-1.220538839697838E-001;-3.258174983784556E-003;2.087456174194813E-003;
2.427333333333334E+009;1.279558837413788E-001;-1.228780150413513E-001;-3.169324249029160E-003;2.149549545720220E-003;
2.427500000000000E+009;1.279682070016861E-001;-1.238196715712547E-001;-2.908784197643399E-003;2.168588573113084E-003;
2.427666666666667E+009;1.277579069137573E-001;-1.246841996908188E-001;-2.697302959859371E-003;2.075861906632781E-003;
