# Version 1.00
#
freq[Hz];re:Trc1_S11;im:Trc1_S11;re:Trc2_S21;im:Trc2_S21;
2.400000000000000E+009;1.556731015443802E-001;1.070438697934151E-001;2.447406295686960E-003;-1.827518339268863E-003;
2.400166666666667E+009;1.554063558578491E-001;1.043633148074150E-001;2.467122394591570E-003;-2.029856666922569E-003;
2.400333333333334E+009;1.550270467996597E-001;1.021492630243301E-001;2.158048097044230E-003;-2.245076466351748E-003;
2.400500000000000E+009;1.548576653003693E-001;9.956128150224686E-002;1.954252598807216E-003;-2.340000122785568E-003;
2.400666666666667E+009;1.551552712917328E-001;9.670132398605347E-002;1.817725133150816E-003;-2.573820063844323E-003;
2.400833333333334E+009;1.552869826555252E-001;9.400311112403870E-002;1.611148938536644E-003;-2.715016715228558E-003;
2.401000000000000E+009;1.556117683649063E-001;9.136421978473663E-002;1.272848923690617E-003;-2.604965819045901E-003;
2.401166666666667E+009;1.554770916700363E-001;8.839136362075806E-002;1.288973609916866E-003;-2.898124512284994E-003;
2.401333333333334E+009;1.559726297855377E-001;8.559982478618622E-002;1.003884710371494E-003;-2.721266821026802E-003;
2.401500000000000E+009;1.563142240047455E-001;8.268411457538605E-002;7.300676661543548E-004;-2.681616228073835E-003;
2.401666666666667E+009;1.569327712059021E-001;7.985666394233704E-002;6.469743675552309E-004;-2.801747294142842E-003;
2.401833333333334E+009;1.573580503463745E-001;7.717710733413696E-002;3.869306237902492E-004;-2.621825551614165E-003;
2.402000000000000E+009;1.582727730274200E-001;7.433474063873291E-002;2.045196306426078E-004;-2.750004176050425E-003;
2.402166666666667E+009;1.589233875274658E-001;7.186480611562729E-002;-5.299813346937299E-005;-2.663588616997004E-003;
2.402333333333334E+009;1.599870771169663E-001;6.905474513769150E-002;-4.335453559178859E-005;-2.698923461139202E-003;
2.402500000000000E+009;1.610995829105377E-001;6.667713075876236E-002;-1.608989696251229E-004;-2.704524202272296E-003;
2.402666666666667E+009;1.624021828174591E-001;6.429634243249893E-002;-2.864572743419558E-004;-2.394724637269974E-003;
2.402833333333334E+009;1.635608375072479E-001;6.183300539851189E-002;-4.046550893690437E-004;-2.255220664665103E-003;
2.403000000000000E+009;1.651407778263092E-001;5.932672321796417E-002;-5.461772670969367E-004;-2.289171563461423E-003;
2.403166666666667E+009;1.668726205825806E-001;5.720349028706551E-002;-6.541546317748725E-004;-2.170115942135453E-003;
2.403333333333334E+009;1.678556054830551E-001;5.476770177483559E-002;-1.489070244133472E-003;-1.677421503700316E-003;
2.403500000000000E+009;1.698704510927200E-001;5.336362123489380E-002;-2.130888897227123E-004;-1.366634503938258E-003;
2.403666666666667E+009;1.720044314861298E-001;5.076400190591812E-002;-8.654239354655147E-004;-2.390132751315832E-003;
2.403833333333334E+009;1.732552945613861E-001;4.889191687107086E-002;-1.316378475166857E-003;-1.776527962647378E-003;
2.404000000000000E+009;1.744959801435471E-001;4.771333187818527E-002;-8.913700585253537E-004;-7.383121410384774E-004;
2.404166666666667E+009;1.768056154251099E-001;4.604591429233551E-002;-4.771594249177724E-004;-1.474483753554523E-003;
2.404333333333334E+009;1.783266216516495E-001;4.441824555397034E-002;-8.387222769670188E-004;-1.664007431827486E-003;
2.404500000000000E+009;1.799678504467011E-001;4.301241412758827E-002;-8.140669669955969E-004;-1.584013458341360E-003;
2.404666666666667E+009;1.815373748540878E-001;4.179827496409416E-002;-8.116228273138404E-004;-1.449156552553177E-003;
2.404833333333334E+009;1.831830441951752E-001;4.076662287116051E-002;-7.821639883331955E-004;-1.508304150775075E-003;
2.405000000000000E+009;1.844956874847412E-001;4.012324661016464E-002;-8.389412541873753E-004;-1.485859625972807E-003;
2.405166666666667E+009;1.859477907419205E-001;3.939261659979820E-002;-1.160024665296078E-003;-1.523843850009143E-003;
2.405333333333334E+009;1.874123811721802E-001;3.892169147729874E-002;-1.134080695919693E-003;-1.399990869686008E-003;
2.405500000000000E+009;1.888639032840729E-001;3.824045509099960E-002;-1.127172028645873E-003;-1.419320818968117E-003;
2.405666666666667E+009;1.899223476648331E-001;3.795371577143669E-002;-1.262075500562787E-003;-1.423654379323125E-003;
2.405833333333334E+009;1.911242902278900E-001;3.778308257460594E-002;-1.261054654605687E-003;-1.122293062508106E-003;
2.406000000000000E+009;1.921696066856384E-001;3.748513758182526E-002;-1.396675826981664E-003;-1.025491161271930E-003;
2.406166666666667E+009;1.931857317686081E-001;3.722919523715973E-002;-1.400061533786356E-003;-1.058457302860916E-003;
2.406333333333334E+009;1.939049810171127E-001;3.738808631896973E-002;-1.325325225479901E-003;-9.662569500505924E-004;
2.406500000000000E+009;1.945993453264237E-001;3.750856965780258E-002;-1.135696540586650E-003;-9.061455493792892E-004;
2.406666666666667E+009;1.953295320272446E-001;3.738145530223846E-002;-1.294300425797701E-003;-7.563299732282758E-004;
2.406833333333334E+009;1.959794908761978E-001;3.744767978787422E-002;-9.625252569094300E-004;-7.937130285426974E-004;
2.407000000000000E+009;1.962917149066925E-001;3.773173689842224E-002;-8.521431009285152E-004;-5.079185357317329E-004;
2.407166666666667E+009;1.964312493801117E-001;3.760372102260590E-002;-1.026824931614101E-003;-5.442734109237790E-004;
2.407333333333334E+009;1.964755207300186E-001;3.772486746311188E-002;-8.964991429820657E-004;-5.787214613519609E-004;
2.407500000000000E+009;1.963184922933579E-001;3.767648711800575E-002;-1.191024668514729E-003;-7.069479906931520E-004;
2.407666666666667E+009;1.962938010692596E-001;3.753628209233284E-002;-9.954479755833745E-004;-4.523792886175215E-004;
2.407833333333334E+009;1.957562714815140E-001;3.755266219377518E-002;-9.406456956639886E-004;-6.251661689020693E-004;
2.408000000000000E+009;1.957688629627228E-001;3.737604990601540E-002;-9.206333779729903E-004;-5.275370203889906E-004;
2.408166666666667E+009;1.951236724853516E-001;3.713420778512955E-002;-1.019164104945958E-003;-4.598967789206654E-004;
2.408333333333334E+009;1.945941001176834E-001;3.648326173424721E-002;-9.913864778354764E-004;-5.883511621505022E-004;
2.408500000000000E+009;1.940089166164398E-001;3.608054295182228E-002;-9.936002315953374E-004;-5.685381474904716E-004;
2.408666666666667E+009;1.932630538940430E-001;3.567040339112282E-002;-9.930136147886515E-004;-4.655532829929143E-004;
2.408833333333334E+009;1.925915181636810E-001;3.484136983752251E-002;-9.767432929947972E-004;-5.849468288943172E-004;
2.409000000000000E+009;1.916374713182449E-001;3.383003547787666E-002;-1.003157696686685E-003;-5.504988948814571E-004;
2.409166666666667E+009;1.907296329736710E-001;3.299949318170548E-002;-9.105941862799227E-004;-5.749072297476232E-004;
2.409333333333334E+009;1.898589879274368E-001;3.199262171983719E-002;-9.938861476257443E-004;-4.658443212974817E-004;
2.409500000000000E+009;1.887657642364502E-001;3.066433966159821E-002;-1.114751328714192E-003;-4.046800022479147E-004;
2.409666666666667E+009;1.877174973487854E-001;2.918861992657185E-002;-1.075405161827803E-003;-3.740975807886571E-004;
2.409833333333334E+009;1.865573525428772E-001;2.756528742611408E-002;-1.132178469561040E-003;-2.532855141907930E-004;
2.410000000000000E+009;1.857613027095795E-001;2.608126029372215E-002;-1.039860188029707E-003;-3.953381674364209E-004;
2.410166666666667E+009;1.847528964281082E-001;2.437187731266022E-002;-9.578106109984219E-004;-2.425394486635923E-004;
2.410333333333334E+009;1.837003976106644E-001;2.244488894939423E-002;-9.184539085254073E-004;-3.424224851187319E-004;
2.410500000000000E+009;1.827063262462616E-001;2.035310305655003E-002;-1.020867726765573E-003;-4.798521986231208E-004;
2.410666666666667E+009;1.818301379680634E-001;1.808530092239380E-002;-8.589434437453747E-004;-3.079183225054294E-004;
2.410833333333334E+009;1.811129450798035E-001;1.594381593167782E-002;-9.428525809198618E-004;-4.236053209751844E-004;
2.411000000000000E+009;1.804433315992355E-001;1.376828644424677E-002;-9.889343054965138E-004;-3.719922970049083E-004;
2.411166666666667E+009;1.798051446676254E-001;1.164969708770514E-002;-1.014858367852867E-003;-4.812637926079333E-004;
2.411333333333334E+009;1.792206615209580E-001;8.997624740004540E-003;-9.775642538443208E-004;-5.783913074992597E-004;
2.411500000000000E+009;1.786061525344849E-001;6.648059934377670E-003;-8.565766620449722E-004;-5.628581275232136E-004;
2.411666666666667E+009;1.785239577293396E-001;4.338084720075131E-003;-1.033660140819848E-003;-6.935986457392573E-004;
2.411833333333334E+009;1.782224327325821E-001;2.000882290303707E-003;-1.097699045203626E-003;-6.571238627657294E-004;
2.412000000000000E+009;1.783840656280518E-001;-6.409633206203580E-004;-1.131722121499479E-003;-5.632423562929034E-004;
2.412166666666667E+009;1.782578080892563E-001;-2.993569010868669E-003;-1.035661436617374E-003;-6.793871871195734E-004;
2.412333333333334E+009;1.785285174846649E-001;-5.458335392177105E-003;-1.285025384277105E-003;-5.617275019176304E-004;
2.412500000000000E+009;1.789134293794632E-001;-7.847318425774574E-003;-1.450774841941893E-003;-6.285396520979703E-004;
2.412666666666667E+009;1.794327646493912E-001;-1.029043830931187E-002;-1.520540332421660E-003;-5.424002301879227E-004;
2.412833333333334E+009;1.800066232681274E-001;-1.270086504518986E-002;-1.693355385214090E-003;-5.961025599390268E-004;
2.413000000000000E+009;1.808004081249237E-001;-1.495238207280636E-002;-1.752895070239902E-003;-5.010856548324227E-004;
2.413166666666667E+009;1.815077066421509E-001;-1.725791580975056E-002;-1.966681797057390E-003;-3.723390109371394E-004;
2.413333333333334E+009;1.824846565723419E-001;-1.951124891638756E-002;-2.164495410397649E-003;-3.868211351800710E-004;
2.413500000000000E+009;1.834659874439240E-001;-2.187836915254593E-002;-2.001979155465961E-003;-1.464168599341065E-004;
2.413666666666667E+009;1.846128106117249E-001;-2.378203719854355E-002;-2.140763448551297E-003;-7.293462840607390E-005;
2.413833333333334E+009;1.856555193662643E-001;-2.580631896853447E-002;-2.174744615331292E-003;6.965817010495812E-005;
2.414000000000000E+009;1.866764724254608E-001;-2.777914330363274E-002;-2.106538042426109E-003;3.689062141347677E-004;
2.414166666666667E+009;1.879544407129288E-001;-2.932718209922314E-002;-2.311095362529159E-003;4.204268043395132E-004;
2.414333333333334E+009;1.889738887548447E-001;-3.135525807738304E-002;-2.183553762733936E-003;6.467226194217801E-004;
2.414500000000000E+009;1.901935636997223E-001;-3.277863934636116E-002;-2.225585049018264E-003;6.228442071005702E-004;
2.414666666666667E+009;1.912964582443237E-001;-3.420724347233772E-002;-2.207418205216527E-003;6.282358663156629E-004;
2.414833333333334E+009;1.925491094589233E-001;-3.553179278969765E-002;-2.193007851019502E-003;7.491572177968919E-004;
2.415000000000000E+009;1.936690807342529E-001;-3.674758225679398E-002;-2.150161424651742E-003;9.196921018883586E-004;
2.415166666666667E+009;1.948787271976471E-001;-3.779004886746407E-002;-2.183043397963047E-003;9.611796122044325E-004;
2.415333333333334E+009;1.960227489471436E-001;-3.861805796623230E-002;-2.175729023292661E-003;1.291372231207788E-003;
2.415500000000000E+009;1.971950680017471E-001;-3.938340023159981E-002;-2.132502384483814E-003;1.440174644812942E-003;
2.415666666666667E+009;1.980649530887604E-001;-4.021784290671349E-002;-1.939556212164462E-003;1.429148949682713E-003;
2.415833333333334E+009;1.990093886852264E-001;-4.067959263920784E-002;-2.005837392061949E-003;1.706121372990310E-003;
2.416000000000000E+009;1.997064203023911E-001;-4.118764773011208E-002;-1.890371786430478E-003;1.885621575638652E-003;
2.416166666666667E+009;2.006021142005920E-001;-4.177932068705559E-002;-1.810803893022239E-003;2.017129445448518E-003;
2.416333333333334E+009;2.010445296764374E-001;-4.186481609940529E-002;-1.696315826848149E-003;2.181692281737924E-003;
2.416500000000000E+009;2.016393989324570E-001;-4.216035455465317E-002;-1.503207487985492E-003;2.201405819505453E-003;
2.416666666666667E+009;2.019430994987488E-001;-4.248582199215889E-002;-1.527596497908235E-003;2.233534585684538E-003;
2.416833333333334E+009;2.021992057561874E-001;-4.246738553047180E-002;-1.219264930114150E-003;2.294046105816960E-003;
2.417000000000000E+009;2.021962255239487E-001;-4.259683564305306E-002;-1.107261865399778E-003;2.402684884145856E-003;
2.417166666666667E+009;2.020642459392548E-001;-4.261730983853340E-002;-8.442178368568420E-004;2.583735622465611E-003;
2.417333333333334E+009;2.017821967601776E-001;-4.236105456948280E-002;-7.430592086166143E-004;2.484068740159273E-003;
2.417500000000000E+009;2.015556395053864E-001;-4.234423860907555E-002;-5.835001938976347E-004;2.479195361956954E-003;
2.417666666666667E+009;2.009681165218353E-001;-4.223076254129410E-002;-4.386901564430445E-004;2.515327651053667E-003;
2.417833333333334E+009;2.005655318498612E-001;-4.198501259088516E-002;-2.493193314876407E-004;2.425340469926596E-003;
2.418000000000000E+009;1.999107897281647E-001;-4.182126373052597E-002;-2.086223976220936E-004;2.251834375783801E-003;
2.418166666666667E+009;1.991479098796845E-001;-4.173465818166733E-002;-4.892474862572271E-006;2.329492243006825E-003;
2.418333333333334E+009;1.982396095991135E-001;-4.148960858583450E-002;-1.727281414787285E-005;2.363046398386359E-003;
2.418500000000000E+009;1.972321271896362E-001;-4.141283780336380E-002;2.762341318884864E-005;2.457018475979567E-003;
2.418666666666667E+009;1.964300274848938E-001;-4.157906398177147E-002;2.206352364737541E-004;2.483950462192297E-003;
2.418833333333334E+009;1.950510591268539E-001;-4.185099899768829E-002;1.479435450164601E-004;2.362111816182733E-003;
2.419000000000000E+009;1.937900185585022E-001;-4.188431054353714E-002;2.520952548366040E-004;2.307827351614833E-003;
2.419166666666667E+009;1.924908757209778E-001;-4.227430373430252E-002;4.635720106307417E-004;2.218800596892834E-003;
2.419333333333334E+009;1.910235136747360E-001;-4.260353371500969E-002;6.580394110642374E-004;2.272153506055474E-003;
2.419500000000000E+009;1.895732879638672E-001;-4.311431571841240E-002;5.932173808105290E-004;2.259409287944436E-003;
2.419666666666667E+009;1.881135702133179E-001;-4.383686929941177E-002;7.329792133532465E-004;2.238805172964931E-003;
2.419833333333334E+009;1.864492595195770E-001;-4.461070150136948E-002;8.065454312600195E-004;2.117418218404055E-003;
2.420000000000000E+009;1.849199235439301E-001;-4.538418725132942E-002;9.198056650348008E-004;2.091296948492527E-003;
2.420166666666667E+009;1.833792924880981E-001;-4.647028818726540E-002;1.284741563722491E-003;1.962126232683659E-003;
2.420333333333334E+009;1.817405819892883E-001;-4.765341430902481E-002;1.341691357083619E-003;1.890154671855271E-003;
2.420500000000000E+009;1.802299469709396E-001;-4.915100336074829E-002;1.510985894128680E-003;1.811159076169133E-003;
2.420666666666667E+009;1.785994917154312E-001;-5.014260485768318E-002;1.562114106491208E-003;1.891329302452505E-003;
2.420833333333334E+009;1.768614053726196E-001;-5.185880884528160E-002;1.823845319449902E-003;1.703569432720542E-003;
2.421000000000000E+009;1.754577308893204E-001;-5.330574512481690E-002;1.804482541047037E-003;1.519650570116937E-003;
2.421166666666667E+009;1.740684211254120E-001;-5.500825121998787E-002;2.022352302446961E-003;1.357733272016048E-003;
2.421333333333334E+009;1.724587976932526E-001;-5.655397474765778E-002;1.872245687991381E-003;1.228474196977913E-003;
2.421500000000000E+009;1.712640970945358E-001;-5.854921415448189E-002;1.954802311956883E-003;9.767618030309677E-004;
2.421666666666667E+009;1.700666993856430E-001;-6.031041964888573E-002;1.950439065694809E-003;7.577360956929624E-004;
2.421833333333334E+009;1.688745319843292E-001;-6.228808686137199E-002;1.974741695448756E-003;7.330144871957600E-004;
2.422000000000000E+009;1.678154766559601E-001;-6.409686058759689E-002;1.932546845637262E-003;5.434855120256543E-004;
2.422166666666667E+009;1.668943911790848E-001;-6.622638553380966E-002;1.831379137001932E-003;3.389417252037674E-004;
2.422333333333334E+009;1.660357564687729E-001;-6.825724244117737E-002;1.871770480647683E-003;1.841451448854059E-004;
2.422500000000000E+009;1.652422398328781E-001;-7.016886025667191E-002;1.864558667875826E-003;-9.621270146453753E-005;
2.422666666666667E+009;1.645652651786804E-001;-7.216665893793106E-002;1.571745495311916E-003;-3.932984691346064E-005;
2.422833333333334E+009;1.641617566347122E-001;-7.423898577690125E-002;1.338815432973206E-003;-2.583049936220050E-004;
2.423000000000000E+009;1.637165248394013E-001;-7.634031027555466E-002;1.275655115023255E-003;-3.165651578456163E-004;
2.423166666666667E+009;1.632112264633179E-001;-7.827656716108322E-002;1.118183601647615E-003;-4.635707591660321E-004;
2.423333333333334E+009;1.631243377923966E-001;-8.017964661121368E-002;1.116633531637490E-003;-4.122902755625546E-004;
2.423500000000000E+009;1.628934890031815E-001;-8.201078325510025E-002;9.480181033723056E-004;-3.221876395400614E-004;
2.423666666666667E+009;1.630552560091019E-001;-8.395577967166901E-002;8.288234821520746E-004;-3.329500032123178E-004;
2.423833333333334E+009;1.628925204277039E-001;-8.557201921939850E-002;7.033409783616662E-004;-3.946507640648633E-004;
2.424000000000000E+009;1.630137860774994E-001;-8.744622021913528E-002;7.313696551136673E-004;-2.646237844601274E-004;
2.424166666666667E+009;1.630893498659134E-001;-8.890316635370255E-002;6.575394654646516E-004;-2.763569355010986E-004;
2.424333333333334E+009;1.633792519569397E-001;-9.046231955289841E-002;5.118792760185897E-004;-2.745918754953891E-004;
2.424500000000000E+009;1.636338233947754E-001;-9.215236455202103E-002;5.472319899126887E-004;-1.676365645835176E-004;
2.424666666666667E+009;1.640369445085526E-001;-9.344895184040070E-002;5.265381769277155E-004;-2.572050725575537E-004;
2.424833333333334E+009;1.646069288253784E-001;-9.482339024543762E-002;3.429447824601084E-004;-2.427536819595844E-004;
2.425000000000000E+009;1.649715155363083E-001;-9.589021652936935E-002;4.270467325113714E-004;-1.453113363822922E-004;
2.425166666666667E+009;1.650901883840561E-001;-9.700973331928253E-002;2.338617487112060E-004;-2.261488407384604E-004;
2.425333333333334E+009;1.655540764331818E-001;-9.812158346176148E-002;2.824842522386462E-004;-9.792728815227747E-005;
2.425500000000000E+009;1.659424453973770E-001;-9.892135858535767E-002;2.921465784311295E-004;-1.095683983294293E-004;
2.425666666666667E+009;1.664108335971832E-001;-9.961239248514175E-002;7.699141860939562E-005;2.849968404916581E-005;
2.425833333333334E+009;1.666862964630127E-001;-1.004645451903343E-001;2.886668080464006E-004;-9.965391427613213E-007;
2.426000000000000E+009;1.671485453844070E-001;-1.008079946041107E-001;8.460002572974190E-005;-6.688063149340451E-005;
2.426166666666667E+009;1.674934029579163E-001;-1.014612615108490E-001;1.364578201901168E-004;1.501392398495227E-004;
2.426333333333334E+009;1.675852388143539E-001;-1.019804105162621E-001;4.412898124428466E-005;2.351663570152596E-004;
2.426500000000000E+009;1.680046468973160E-001;-1.022100970149040E-001;1.720689615467563E-004;2.648922090884298E-004;
2.426666666666667E+009;1.681559085845947E-001;-1.025112196803093E-001;2.523040457163006E-004;3.396560496184975E-004;
2.426833333333334E+009;1.684458106756210E-001;-1.027795374393463E-001;1.412845595041290E-004;2.769887505564839E-004;
2.427000000000000E+009;1.683482974767685E-001;-1.029987782239914E-001;1.674918312346563E-004;4.204189754091203E-004;
2.427166666666667E+009;1.683948934078217E-001;-1.030459553003311E-001;4.349610753706656E-005;4.182541742920876E-004;
2.427333333333334E+009;1.682646870613098E-001;-1.033664867281914E-001;3.059073642361909E-004;4.814238636754453E-004;
2.427500000000000E+009;1.680396050214768E-001;-1.034687086939812E-001;3.743892884813249E-004;4.256843822076917E-004;
2.427666666666667E+009;1.676438152790070E-001;-1.035222113132477E-001;5.213405238464475E-004;5.610874504782260E-004;
