# Version 1.00
#
freq[Hz];re:Trc1_S11;im:Trc1_S11;re:Trc2_S21;im:Trc2_S21;
2.400000000000000E+009;1.550613790750504E-001;1.067733839154244E-001;2.585322828963399E-003;-2.029275055974722E-003;
2.400166666666667E+009;1.549200266599655E-001;1.043473407626152E-001;2.500448143109679E-003;-2.180717187002301E-003;
2.400333333333334E+009;1.549254357814789E-001;1.019533276557922E-001;2.217727014794946E-003;-2.269850578159094E-003;
2.400500000000000E+009;1.549060195684433E-001;9.929294139146805E-002;2.137400209903717E-003;-2.417403273284435E-003;
2.400666666666667E+009;1.550530046224594E-001;9.694758057594299E-002;1.955718034878373E-003;-2.599786035716534E-003;
2.400833333333334E+009;1.551202088594437E-001;9.399317950010300E-002;1.564187579788268E-003;-2.566387411206961E-003;
2.401000000000000E+009;1.552687287330627E-001;9.113423526287079E-002;1.231775502674282E-003;-2.675980096682906E-003;
2.401166666666667E+009;1.554445922374725E-001;8.842985332012177E-002;1.208586152642965E-003;-2.849779790267348E-003;
2.401333333333334E+009;1.557430773973465E-001;8.552982658147812E-002;9.100590832531452E-004;-2.676046919077635E-003;
2.401500000000000E+009;1.561662256717682E-001;8.270277082920075E-002;6.712314789183438E-004;-2.779569011181593E-003;
2.401666666666667E+009;1.566419005393982E-001;7.966623455286026E-002;5.126622272655368E-004;-2.745040226727724E-003;
2.401833333333334E+009;1.570833772420883E-001;7.695747911930084E-002;4.230016784276813E-004;-2.675219904631376E-003;
2.402000000000000E+009;1.579777598381043E-001;7.433462142944336E-002;2.787782577797771E-004;-2.735974267125130E-003;
2.402166666666667E+009;1.588944941759110E-001;7.165458798408508E-002;6.863867020001635E-005;-2.666886663064361E-003;
2.402333333333334E+009;1.598505079746246E-001;6.890228390693665E-002;-9.978736488847062E-005;-2.674846211448312E-003;
2.402500000000000E+009;1.610572785139084E-001;6.667434424161911E-002;-2.598285500425845E-004;-2.619142644107342E-003;
2.402666666666667E+009;1.621101200580597E-001;6.419348716735840E-002;-3.867240739054978E-004;-2.526254625990987E-003;
2.402833333333334E+009;1.635314375162125E-001;6.177841499447823E-002;-4.949581925757229E-004;-2.540534362196922E-003;
2.403000000000000E+009;1.646886765956879E-001;5.936040729284287E-002;-5.343433003872633E-004;-2.288361778482795E-003;
2.403166666666667E+009;1.667788922786713E-001;5.720410495996475E-002;-6.693674367852509E-004;-2.147031249478459E-003;
2.403333333333334E+009;1.680708825588226E-001;5.488147959113121E-002;-7.174700149334967E-004;-1.985251903533936E-003;
2.403500000000000E+009;1.696777939796448E-001;5.288647115230560E-002;-7.751674856990576E-004;-1.959953224286437E-003;
2.403666666666667E+009;1.716543883085251E-001;5.093403160572052E-002;-8.671019459143281E-004;-1.881908741779625E-003;
2.403833333333334E+009;1.733016669750214E-001;4.902836307883263E-002;-8.608325733803213E-004;-1.616978319361806E-003;
2.404000000000000E+009;1.747256964445114E-001;4.728956148028374E-002;-7.972390158101916E-004;-1.788096851669252E-003;
2.404166666666667E+009;1.765934973955154E-001;4.588205367326737E-002;-8.020307868719101E-004;-1.708141528069973E-003;
2.404333333333334E+009;1.781006604433060E-001;4.438292235136032E-002;-8.694936404936016E-004;-1.598104368895292E-003;
2.404500000000000E+009;1.797696799039841E-001;4.284679517149925E-002;-8.980426937341690E-004;-1.544431783258915E-003;
2.404666666666667E+009;1.813412606716156E-001;4.187721014022827E-002;-9.581193444319069E-004;-1.579206669703126E-003;
2.404833333333334E+009;1.829971969127655E-001;4.081931710243225E-002;-8.391285082325339E-004;-1.550005632452667E-003;
2.405000000000000E+009;1.841800808906555E-001;4.007271677255631E-002;-1.072049024514854E-003;-1.472988747991622E-003;
2.405166666666667E+009;1.858786046504974E-001;3.944968432188034E-002;-1.109939301386476E-003;-1.602387987077236E-003;
2.405333333333334E+009;1.871160268783569E-001;3.887458518147469E-002;-1.204647356644273E-003;-1.390156801789999E-003;
2.405500000000000E+009;1.885568648576737E-001;3.845733404159546E-002;-1.248885877430439E-003;-1.403928617946804E-003;
2.405666666666667E+009;1.896659284830093E-001;3.813847154378891E-002;-1.262379111722112E-003;-1.189024886116386E-003;
2.405833333333334E+009;1.910251080989838E-001;3.779224306344986E-002;-1.266762497834861E-003;-1.242741360329092E-003;
2.406000000000000E+009;1.918710172176361E-001;3.769970312714577E-002;-1.524012302979827E-003;-1.040987903252244E-003;
2.406166666666667E+009;1.929031312465668E-001;3.729214146733284E-002;-1.375367864966393E-003;-1.035539200529456E-003;
2.406333333333334E+009;1.937928497791290E-001;3.748014941811562E-002;-1.412300043739379E-003;-8.642921457067132E-004;
2.406500000000000E+009;1.944654583930969E-001;3.750669211149216E-002;-1.328636775724590E-003;-6.569221732206643E-004;
2.406666666666667E+009;1.951832175254822E-001;3.746180236339569E-002;-1.493541290983558E-003;-6.726657738909125E-004;
2.406833333333334E+009;1.955238580703735E-001;3.746296092867851E-002;-1.247187843546271E-003;-8.098868420347571E-004;
2.407000000000000E+009;1.957988440990448E-001;3.769771382212639E-002;-1.209990005008876E-003;-6.911759846843779E-004;
2.407166666666667E+009;1.963326781988144E-001;3.763308748602867E-002;-1.124261412769556E-003;-5.372989689931274E-004;
2.407333333333334E+009;1.961738169193268E-001;3.782020881772041E-002;-1.110031385906041E-003;-4.664635634981096E-004;
2.407500000000000E+009;1.960792541503906E-001;3.785058483481407E-002;-1.150340889580548E-003;-6.040625739842653E-004;
2.407666666666667E+009;1.961846202611923E-001;3.764401376247406E-002;-1.034326036460698E-003;-4.641756240744144E-004;
2.407833333333334E+009;1.956399679183960E-001;3.760827705264092E-002;-1.048396807163954E-003;-5.355298053473234E-004;
2.408000000000000E+009;1.956112384796143E-001;3.731262311339378E-002;-1.191825489513576E-003;-6.500079180113971E-004;
2.408166666666667E+009;1.949091851711273E-001;3.708437457680702E-002;-1.095726503990591E-003;-5.913733039051294E-004;
2.408333333333334E+009;1.943944245576859E-001;3.657555580139160E-002;-1.191196381114423E-003;-4.626113804988563E-004;
2.408500000000000E+009;1.937505602836609E-001;3.632618859410286E-002;-1.103182905353606E-003;-4.724253667518497E-004;
2.408666666666667E+009;1.931439042091370E-001;3.577646240592003E-002;-1.079330220818520E-003;-4.820781468879432E-004;
2.408833333333334E+009;1.923783868551254E-001;3.501066938042641E-002;-9.691304876469076E-004;-5.812177550978959E-004;
2.409000000000000E+009;1.914132982492447E-001;3.405666723847389E-002;-1.094354083761573E-003;-4.429834953043610E-004;
2.409166666666667E+009;1.904721856117249E-001;3.309928625822067E-002;-1.241256948560476E-003;-4.389118985272944E-004;
2.409333333333334E+009;1.895764321088791E-001;3.207991644740105E-002;-1.098248292692006E-003;-3.564319049473852E-004;
2.409500000000000E+009;1.885138005018234E-001;3.073219209909439E-002;-1.065748627297580E-003;-4.471557040233165E-004;
2.409666666666667E+009;1.875708252191544E-001;2.934085577726364E-002;-9.106225916184485E-004;-3.887656785082072E-004;
2.409833333333334E+009;1.864131838083267E-001;2.792572230100632E-002;-9.951853426173329E-004;-2.429799060337246E-004;
2.410000000000000E+009;1.855056732892990E-001;2.611361071467400E-002;-9.205081732943654E-004;-4.327173519413918E-004;
2.410166666666667E+009;1.843807846307755E-001;2.434462308883667E-002;-9.423700394108892E-004;-3.568715474102646E-004;
2.410333333333334E+009;1.835411041975021E-001;2.253444679081440E-002;-9.457722771912813E-004;-3.678912471514195E-004;
2.410500000000000E+009;1.825295388698578E-001;2.060984633862972E-002;-1.036775647662580E-003;-3.395531384740025E-004;
2.410666666666667E+009;1.817100942134857E-001;1.845055073499680E-002;-9.612593566998839E-004;-4.278931883163750E-004;
2.410833333333334E+009;1.811411827802658E-001;1.618007570505142E-002;-1.091658370569348E-003;-4.042414075229317E-004;
2.411000000000000E+009;1.802935451269150E-001;1.398270204663277E-002;-9.918522555381060E-004;-4.714391543529928E-004;
2.411166666666667E+009;1.795898824930191E-001;1.177277974784374E-002;-9.485137416049838E-004;-3.477525315247476E-004;
2.411333333333334E+009;1.790717393159866E-001;9.183888323605061E-003;-9.098773007281125E-004;-4.482082149479538E-004;
2.411500000000000E+009;1.785476058721542E-001;6.916938815265894E-003;-8.252964471466839E-004;-3.976392908953130E-004;
2.411666666666667E+009;1.783842295408249E-001;4.601900465786457E-003;-1.062348484992981E-003;-4.973037866875529E-004;
2.411833333333334E+009;1.779925376176834E-001;1.949754194356501E-003;-1.055694418027997E-003;-5.281322519294918E-004;
2.412000000000000E+009;1.782636195421219E-001;-6.402711733244360E-004;-1.289305509999394E-003;-5.757376202382147E-004;
2.412166666666667E+009;1.781357079744339E-001;-2.748434431850910E-003;-1.189810340292752E-003;-5.610641674138606E-004;
2.412333333333334E+009;1.784338802099228E-001;-5.186113994568586E-003;-1.333708991296589E-003;-5.139828426763415E-004;
2.412500000000000E+009;1.789253354072571E-001;-7.614027708768845E-003;-1.488052192144096E-003;-6.434706156142056E-004;
2.412666666666667E+009;1.792978048324585E-001;-1.006095204502344E-002;-1.517393044196069E-003;-5.427162395790219E-004;
2.412833333333334E+009;1.799187511205673E-001;-1.238863822072744E-002;-1.790697337128222E-003;-4.535387561190873E-004;
2.413000000000000E+009;1.808157116174698E-001;-1.493000891059637E-002;-1.704652444459498E-003;-4.132567264605314E-004;
2.413166666666667E+009;1.814634054899216E-001;-1.703837700188160E-002;-1.934691565111280E-003;-4.750944499392062E-004;
2.413333333333334E+009;1.824541538953781E-001;-1.936536468565464E-002;-2.119852695614100E-003;-2.437176153762266E-004;
2.413500000000000E+009;1.833246797323227E-001;-2.148115448653698E-002;-2.181566553190351E-003;-2.645088534336537E-004;
2.413666666666667E+009;1.845000982284546E-001;-2.362088486552239E-002;-2.233692677691579E-003;-3.175399615429342E-005;
2.413833333333334E+009;1.856638640165329E-001;-2.553427405655384E-002;-2.187936799600720E-003;1.448259135941044E-004;
2.414000000000000E+009;1.867065876722336E-001;-2.753237821161747E-002;-2.201271709054709E-003;3.964152710977942E-004;
2.414166666666667E+009;1.878650933504105E-001;-2.905898354947567E-002;-2.271027304232121E-003;3.758925886359066E-004;
2.414333333333334E+009;1.889407932758331E-001;-3.111618757247925E-002;-2.335019176825881E-003;6.732664187438786E-004;
2.414500000000000E+009;1.902191042900085E-001;-3.267029300332069E-002;-2.115721581503749E-003;7.446085219271481E-004;
2.414666666666667E+009;1.914520263671875E-001;-3.395002335309982E-002;-1.984732225537300E-003;7.728167693130672E-004;
2.414833333333334E+009;1.925154477357864E-001;-3.536986187100411E-002;-2.160396426916122E-003;8.462936384603381E-004;
2.415000000000000E+009;1.935989409685135E-001;-3.643114864826202E-002;-2.143488731235266E-003;1.023547141812742E-003;
2.415166666666667E+009;1.948112696409226E-001;-3.751278668642044E-002;-2.210190985351801E-003;1.121962559409440E-003;
2.415333333333334E+009;1.959672123193741E-001;-3.848820924758911E-002;-2.014860277995467E-003;1.283242716453970E-003;
2.415500000000000E+009;1.970937997102737E-001;-3.908840939402580E-002;-2.070923103019595E-003;1.352190738543868E-003;
2.415666666666667E+009;1.981440484523773E-001;-3.987104818224907E-002;-1.934637548401952E-003;1.474226242862642E-003;
2.415833333333334E+009;1.989097446203232E-001;-4.049480333924294E-002;-1.903817057609558E-003;1.684418413788080E-003;
2.416000000000000E+009;1.997730582952499E-001;-4.094704985618591E-002;-1.817837124690414E-003;1.900069182738662E-003;
2.416166666666667E+009;2.005544602870941E-001;-4.140577092766762E-002;-1.919131260365248E-003;1.902204239740968E-003;
2.416333333333334E+009;2.010542303323746E-001;-4.174202680587769E-002;-1.774993608705699E-003;2.166694728657603E-003;
2.416500000000000E+009;2.015306204557419E-001;-4.188980907201767E-002;-1.597336377017200E-003;2.215075539425015E-003;
2.416666666666667E+009;2.019639164209366E-001;-4.224545881152153E-002;-1.430185977369547E-003;2.259822795167565E-003;
2.416833333333334E+009;2.021190971136093E-001;-4.233299940824509E-002;-1.204977859742940E-003;2.484285039827228E-003;
2.417000000000000E+009;2.023331969976425E-001;-4.239819198846817E-002;-9.940809104591608E-004;2.518733730539680E-003;
2.417166666666667E+009;2.020060420036316E-001;-4.219688102602959E-002;-8.882518159225583E-004;2.436545910313726E-003;
2.417333333333334E+009;2.018557488918304E-001;-4.200915992259979E-002;-6.355535588227212E-004;2.527346136048436E-003;
2.417500000000000E+009;2.015812695026398E-001;-4.207311198115349E-002;-6.622963701374829E-004;2.594343153759837E-003;
2.417666666666667E+009;2.010145485401154E-001;-4.189564660191536E-002;-5.089698242954910E-004;2.485592849552631E-003;
2.417833333333334E+009;2.005966305732727E-001;-4.162103682756424E-002;-3.474262484814972E-004;2.489002887159586E-003;
2.418000000000000E+009;2.000322937965393E-001;-4.157252982258797E-002;-6.958386074984446E-005;2.522424561902881E-003;
2.418166666666667E+009;1.992093920707703E-001;-4.145903140306473E-002;-6.967633817112073E-005;2.421268727630377E-003;
2.418333333333334E+009;1.983261406421661E-001;-4.114820435643196E-002;9.992964623961598E-005;2.234045416116715E-003;
2.418500000000000E+009;1.973432898521423E-001;-4.137818887829781E-002;1.399757020408288E-004;2.375974552705884E-003;
2.418666666666667E+009;1.965071856975555E-001;-4.127694666385651E-002;2.883499837480485E-004;2.288064453750849E-003;
2.418833333333334E+009;1.951263248920441E-001;-4.147035256028175E-002;1.946156262420118E-004;2.255445579066873E-003;
2.419000000000000E+009;1.938914358615875E-001;-4.156382754445076E-002;4.273671074770391E-004;2.298121806234121E-003;
2.419166666666667E+009;1.926041841506958E-001;-4.195557162165642E-002;5.189811927266419E-004;2.260363660752773E-003;
2.419333333333334E+009;1.911834925413132E-001;-4.257996007800102E-002;5.083544529043138E-004;2.297328552231193E-003;
2.419500000000000E+009;1.898088455200195E-001;-4.287717863917351E-002;7.155228522606194E-004;2.246476942673326E-003;
2.419666666666667E+009;1.881970763206482E-001;-4.376561194658279E-002;8.627897477708757E-004;2.321551786735654E-003;
2.419833333333334E+009;1.866701245307922E-001;-4.441184177994728E-002;9.785088477656245E-004;2.158849500119686E-003;
2.420000000000000E+009;1.852230727672577E-001;-4.534144699573517E-002;1.053347717970610E-003;2.087198430672288E-003;
2.420166666666667E+009;1.835222989320755E-001;-4.635624960064888E-002;1.125418930314481E-003;2.121691592037678E-003;
2.420333333333334E+009;1.820178180932999E-001;-4.758516699075699E-002;1.359355635941029E-003;2.043148037046194E-003;
2.420500000000000E+009;1.803382784128189E-001;-4.873824119567871E-002;1.521433820016682E-003;1.967064570635557E-003;
2.420666666666667E+009;1.787607073783875E-001;-5.001781508326531E-002;1.700612367130816E-003;1.795810647308826E-003;
2.420833333333334E+009;1.771019995212555E-001;-5.143669992685318E-002;1.731312018819153E-003;1.706072129309177E-003;
2.421000000000000E+009;1.756857633590698E-001;-5.321151763200760E-002;1.877895672805607E-003;1.522331265732646E-003;
2.421166666666667E+009;1.744868159294128E-001;-5.484072491526604E-002;1.948611810803413E-003;1.351084210909903E-003;
2.421333333333334E+009;1.727973669767380E-001;-5.644920840859413E-002;1.997634768486023E-003;1.195270102471113E-003;
2.421500000000000E+009;1.713948845863342E-001;-5.829339474439621E-002;1.874714740552008E-003;9.978607995435596E-004;
2.421666666666667E+009;1.702848672866821E-001;-6.020823121070862E-002;2.008269540965557E-003;7.950940052978694E-004;
2.421833333333334E+009;1.691671311855316E-001;-6.202506273984909E-002;2.081912476569414E-003;5.177223356440663E-004;
2.422000000000000E+009;1.679779440164566E-001;-6.406725943088532E-002;2.022042637690902E-003;4.508772399276495E-004;
2.422166666666667E+009;1.670973002910614E-001;-6.618410348892212E-002;1.877771690487862E-003;1.929880818352103E-004;
2.422333333333334E+009;1.661866903305054E-001;-6.826321035623550E-002;1.845282735303044E-003;1.102070164051838E-004;
2.422500000000000E+009;1.653512716293335E-001;-7.005835324525833E-002;1.794540323317051E-003;6.181000935612246E-005;
2.422666666666667E+009;1.647551655769348E-001;-7.191953808069229E-002;1.628520665690303E-003;-1.048566118697636E-004;
2.422833333333334E+009;1.643730849027634E-001;-7.424154132604599E-002;1.601533265784383E-003;-2.756164176389575E-004;
2.423000000000000E+009;1.637807786464691E-001;-7.632378488779068E-002;1.463729306124151E-003;-4.417857562657446E-004;
2.423166666666667E+009;1.635713875293732E-001;-7.816556096076965E-002;1.258647185750306E-003;-4.316645499784499E-004;
2.423333333333334E+009;1.631777584552765E-001;-8.015971630811691E-002;1.245757448486984E-003;-5.327692488208413E-004;
2.423500000000000E+009;1.631958186626434E-001;-8.209390938282013E-002;1.032134518027306E-003;-4.007261013612151E-004;
2.423666666666667E+009;1.631683558225632E-001;-8.392567187547684E-002;8.677211008034647E-004;-5.652008112519980E-004;
2.423833333333334E+009;1.629991233348846E-001;-8.547301590442658E-002;8.209641091525555E-004;-3.832673828583211E-004;
2.424000000000000E+009;1.632059514522553E-001;-8.741983026266098E-002;5.984334275126457E-004;-3.595334419514984E-004;
2.424166666666667E+009;1.633304059505463E-001;-8.891124278306961E-002;8.265501819550991E-004;-3.290718304924667E-004;
2.424333333333334E+009;1.635209321975708E-001;-9.037919342517853E-002;5.808505229651928E-004;-2.731326385401189E-004;
2.424500000000000E+009;1.639130413532257E-001;-9.209941327571869E-002;5.231387913227081E-004;-3.284318372607231E-004;
2.424666666666667E+009;1.641535907983780E-001;-9.350520372390747E-002;3.636828332673758E-004;-2.952667709905654E-004;
2.424833333333334E+009;1.647272258996964E-001;-9.480924159288406E-002;3.614926536101848E-004;-2.156686241505668E-004;
2.425000000000000E+009;1.650618016719818E-001;-9.597750753164291E-002;3.780021215789020E-004;-2.385284751653671E-004;
2.425166666666667E+009;1.653705537319183E-001;-9.698559343814850E-002;3.384539450053126E-004;-2.039342361968011E-004;
2.425333333333334E+009;1.657944321632385E-001;-9.805556386709213E-002;3.791830386035144E-004;-1.299391879001632E-004;
2.425500000000000E+009;1.661558449268341E-001;-9.896860271692276E-002;2.807973069138825E-004;-7.833359268261120E-005;
2.425666666666667E+009;1.665866374969482E-001;-9.964204579591751E-002;3.249168512411416E-004;6.699177902191877E-006;
2.425833333333334E+009;1.668681204319000E-001;-1.004692837595940E-001;2.052606432698667E-004;-1.144048510468565E-004;
2.426000000000000E+009;1.673414856195450E-001;-1.009458005428314E-001;1.319025432167109E-005;6.990948168095201E-005;
2.426166666666667E+009;1.676624119281769E-001;-1.013760492205620E-001;1.970511511899531E-004;1.091944941435941E-004;
2.426333333333334E+009;1.678389012813568E-001;-1.019586771726608E-001;1.658102410146967E-004;1.261930447071791E-005;
2.426500000000000E+009;1.681743562221527E-001;-1.021470427513123E-001;1.183247804874554E-004;1.689035125309601E-004;
2.426666666666667E+009;1.682885587215424E-001;-1.024981811642647E-001;1.924123207572848E-004;1.745172339724377E-004;
2.426833333333334E+009;1.685782074928284E-001;-1.028378009796143E-001;6.589443364646286E-005;1.894932793220505E-004;
2.427000000000000E+009;1.685447394847870E-001;-1.030267328023911E-001;1.092633392545395E-004;3.781514824368060E-004;
2.427166666666667E+009;1.686666011810303E-001;-1.031935960054398E-001;3.623195225372911E-004;3.958549641538411E-004;
2.427333333333334E+009;1.684255748987198E-001;-1.033890247344971E-001;1.846428931457922E-004;3.576402959879488E-004;
2.427500000000000E+009;1.681651473045349E-001;-1.035530716180801E-001;2.328267873963341E-004;3.547483065631241E-004;
2.427666666666667E+009;1.678827553987503E-001;-1.036517024040222E-001;3.799593832809478E-004;4.355882992967963E-004;
