# Version 1.00
#
freq[Hz];re:Trc1_S11;im:Trc1_S11;re:Trc2_S21;im:Trc2_S21;
2.400000000000000E+009;1.555455625057221E-001;1.067842096090317E-001;2.705067861825228E-003;-1.659381436184049E-003;
2.400166666666667E+009;1.552096456289291E-001;1.044498682022095E-001;2.511557424440980E-003;-2.125946572050452E-003;
2.400333333333334E+009;1.552864015102387E-001;1.021744534373283E-001;2.267639385536313E-003;-2.201583003625274E-003;
2.400500000000000E+009;1.552069634199143E-001;9.928921610116959E-002;2.032041316851974E-003;-2.253935439512134E-003;
2.400666666666667E+009;1.554566919803619E-001;9.675537794828415E-002;1.775291631929576E-003;-2.487721154466271E-003;
2.400833333333334E+009;1.555207520723343E-001;9.391505271196365E-002;1.601999741978943E-003;-2.687270753085613E-003;
2.401000000000000E+009;1.556642800569534E-001;9.094504266977310E-002;1.345710945315659E-003;-2.724731806665659E-003;
2.401166666666667E+009;1.556512266397476E-001;8.834376931190491E-002;1.207898836582899E-003;-2.558359643444419E-003;
2.401333333333334E+009;1.561397761106491E-001;8.537432551383972E-002;9.857276454567909E-004;-2.777717076241970E-003;
2.401500000000000E+009;1.567181497812271E-001;8.237545937299728E-002;8.508042665198445E-004;-2.648960100486875E-003;
2.401666666666667E+009;1.567645072937012E-001;7.958801090717316E-002;5.271417321637273E-004;-2.647093962877989E-003;
2.401833333333334E+009;1.575494110584259E-001;7.689453661441803E-002;4.638916580006480E-004;-2.589868614450097E-003;
2.402000000000000E+009;1.582284420728684E-001;7.413222640752792E-002;2.488538448233157E-004;-2.674491377547383E-003;
2.402166666666667E+009;1.590581536293030E-001;7.171516865491867E-002;1.793696283129975E-004;-2.705929568037391E-003;
2.402333333333334E+009;1.601507365703583E-001;6.892458349466324E-002;-5.439955566544086E-005;-2.629856113344431E-003;
2.402500000000000E+009;1.611814349889755E-001;6.633932143449783E-002;-1.406029623467475E-004;-2.631304319947958E-003;
2.402666666666667E+009;1.624614298343658E-001;6.399527937173843E-002;-2.770711435005069E-004;-2.255979459732771E-003;
2.402833333333334E+009;1.637698113918304E-001;6.163372471928597E-002;-4.134213086217642E-004;-2.287130104377866E-003;
2.403000000000000E+009;1.650933176279068E-001;5.920155718922615E-002;-4.698584089055657E-004;-2.217843662947416E-003;
2.403166666666667E+009;1.668833643198013E-001;5.705317854881287E-002;-6.392876384779811E-004;-2.075645606964827E-003;
2.403333333333334E+009;1.684366166591644E-001;5.485019087791443E-002;-7.527987472712994E-004;-2.004057634621859E-003;
2.403500000000000E+009;1.700361073017120E-001;5.283948779106140E-002;-6.868524360470474E-004;-1.895554247312248E-003;
2.403666666666667E+009;1.716759353876114E-001;5.076431110501289E-002;-6.401430582627654E-004;-1.774787670001388E-003;
2.403833333333334E+009;1.735278666019440E-001;4.891942068934441E-002;-7.552172173745930E-004;-1.766289700753987E-003;
2.404000000000000E+009;1.749832332134247E-001;4.717938974499703E-002;-6.928681978024542E-004;-1.735591795295477E-003;
2.404166666666667E+009;1.766627281904221E-001;4.569490998983383E-002;-7.142588729038835E-004;-1.559462980367243E-003;
2.404333333333334E+009;1.783163100481033E-001;4.415848478674889E-002;-6.263328250497580E-004;-1.653253682889044E-003;
2.404500000000000E+009;1.799328178167343E-001;4.278918728232384E-002;-8.502237615175545E-004;-1.621961826458573E-003;
2.404666666666667E+009;1.815319657325745E-001;4.171348735690117E-002;-7.056497852317989E-004;-1.560055068694055E-003;
2.404833333333334E+009;1.831806451082230E-001;4.049286246299744E-002;-7.581937825307250E-004;-1.620909315533936E-003;
2.405000000000000E+009;1.844936013221741E-001;3.972686827182770E-002;-1.060204813256860E-003;-1.434431178495288E-003;
2.405166666666667E+009;1.859410852193832E-001;3.906796127557755E-002;-9.567884262651205E-004;-1.542102894745767E-003;
2.405333333333334E+009;1.873675882816315E-001;3.852624446153641E-002;-1.180706196464598E-003;-1.588885905221105E-003;
2.405500000000000E+009;1.887077242136002E-001;3.813771158456802E-002;-1.286520040594041E-003;-1.366651034913957E-003;
2.405666666666667E+009;1.899177581071854E-001;3.774094581604004E-002;-1.236718962900341E-003;-1.211870461702347E-003;
2.405833333333334E+009;1.910975128412247E-001;3.750251606106758E-002;-1.370843034237623E-003;-1.333300955593586E-003;
2.406000000000000E+009;1.921845227479935E-001;3.734110668301582E-002;-1.330494415014982E-003;-1.106458250433207E-003;
2.406166666666667E+009;1.929590702056885E-001;3.709935024380684E-002;-1.267361338250339E-003;-9.400789858773351E-004;
2.406333333333334E+009;1.939337849617004E-001;3.710612654685974E-002;-1.259660348296166E-003;-9.718162473291159E-004;
2.406500000000000E+009;1.946586668491364E-001;3.711222112178803E-002;-1.271556247957051E-003;-9.064007317647338E-004;
2.406666666666667E+009;1.952869147062302E-001;3.724722191691399E-002;-1.349835423752666E-003;-7.185967988334596E-004;
2.406833333333334E+009;1.957028210163117E-001;3.714939206838608E-002;-1.164041226729751E-003;-6.034122779965401E-004;
2.407000000000000E+009;1.960516124963760E-001;3.742189332842827E-002;-1.141789951361716E-003;-7.573320763185620E-004;
2.407166666666667E+009;1.962834894657135E-001;3.723957762122154E-002;-1.139829633757472E-003;-5.503274151124060E-004;
2.407333333333334E+009;1.962277293205261E-001;3.741581365466118E-002;-9.967687074095011E-004;-6.392911309376359E-004;
2.407500000000000E+009;1.962601095438004E-001;3.740706667304039E-002;-9.825348388403654E-004;-4.474844317883253E-004;
2.407666666666667E+009;1.962110549211502E-001;3.735416010022163E-002;-9.729508892633021E-004;-6.091507384553552E-004;
2.407833333333334E+009;1.957109272480011E-001;3.728536143898964E-002;-1.034057000651956E-003;-5.487992893904448E-004;
2.408000000000000E+009;1.955975443124771E-001;3.709483519196510E-002;-1.057475688867271E-003;-6.217282498255372E-004;
2.408166666666667E+009;1.950131654739380E-001;3.672853112220764E-002;-9.564072825014591E-004;-7.439046748913825E-004;
2.408333333333334E+009;1.945810765028000E-001;3.629809617996216E-002;-8.983439765870571E-004;-5.342117510735989E-004;
2.408500000000000E+009;1.936983019113541E-001;3.605793416500092E-002;-1.026488258503377E-003;-5.036250804550946E-004;
2.408666666666667E+009;1.932783871889114E-001;3.549505025148392E-002;-1.049686572514474E-003;-5.313942674547434E-004;
2.408833333333334E+009;1.924789398908615E-001;3.462764620780945E-002;-8.587192860431969E-004;-5.315291928127408E-004;
2.409000000000000E+009;1.914685964584351E-001;3.368425369262695E-002;-1.110533019527793E-003;-5.079084075987339E-004;
2.409166666666667E+009;1.905077248811722E-001;3.262814506888390E-002;-9.821411222219467E-004;-6.141979247331619E-004;
2.409333333333334E+009;1.897467076778412E-001;3.161503002047539E-002;-9.616435854695737E-004;-4.862507339566946E-004;
2.409500000000000E+009;1.885313093662262E-001;3.044232539832592E-002;-1.132628181949258E-003;-2.907545131165534E-004;
2.409666666666667E+009;1.874745339155197E-001;2.891460619866848E-002;-1.190931652672589E-003;-3.124522336293012E-004;
2.409833333333334E+009;1.863843053579330E-001;2.750919386744499E-002;-1.043263007886708E-003;-3.289587039034814E-004;
2.410000000000000E+009;1.855711936950684E-001;2.594467438757420E-002;-9.612324065528810E-004;-5.051672924309969E-004;
2.410166666666667E+009;1.843856722116470E-001;2.407653629779816E-002;-8.371590520255268E-004;-3.780201368499547E-004;
2.410333333333334E+009;1.835270076990128E-001;2.209605276584625E-002;-1.076259417459369E-003;-4.246365569997579E-004;
2.410500000000000E+009;1.824737787246704E-001;2.028725296258926E-002;-9.124145144596696E-004;-4.718273121397942E-004;
2.410666666666667E+009;1.815809607505798E-001;1.803031377494335E-002;-1.058797235600650E-003;-4.025836824439466E-004;
2.410833333333334E+009;1.808918118476868E-001;1.588273607194424E-002;-9.501589229330421E-004;-3.568127867765725E-004;
2.411000000000000E+009;1.800240725278854E-001;1.361694186925888E-002;-9.960292372852564E-004;-5.036079674027860E-004;
2.411166666666667E+009;1.793918162584305E-001;1.135713886469603E-002;-1.089897588826716E-003;-4.637748643290252E-004;
2.411333333333334E+009;1.789397746324539E-001;8.897618390619755E-003;-1.044517150148749E-003;-5.192667595110834E-004;
2.411500000000000E+009;1.785321533679962E-001;6.598594598472118E-003;-8.883719565346837E-004;-6.059435545466840E-004;
2.411666666666667E+009;1.782555580139160E-001;4.104006569832563E-003;-1.169841154478490E-003;-7.177900988608599E-004;
2.411833333333334E+009;1.779120266437531E-001;1.904902397654951E-003;-1.168544054962695E-003;-7.073016022332013E-004;
2.412000000000000E+009;1.781918555498123E-001;-8.330111741088331E-004;-1.173102529719472E-003;-6.737698568031192E-004;
2.412166666666667E+009;1.779609322547913E-001;-3.099804045632482E-003;-1.315835863351822E-003;-5.941559793427587E-004;
2.412333333333334E+009;1.784375011920929E-001;-5.667884834110737E-003;-1.256954506970942E-003;-6.138221360743046E-004;
2.412500000000000E+009;1.785022318363190E-001;-7.939253002405167E-003;-1.563891302794218E-003;-6.132703274488449E-004;
2.412666666666667E+009;1.791287064552307E-001;-1.035568676888943E-002;-1.652781968005002E-003;-6.240789662115276E-004;
2.412833333333334E+009;1.797511130571365E-001;-1.281843148171902E-002;-1.806129468604922E-003;-4.667388566303998E-004;
2.413000000000000E+009;1.806283742189407E-001;-1.512270420789719E-002;-1.912315026856959E-003;-5.387823330238462E-004;
2.413166666666667E+009;1.812208741903305E-001;-1.708977483212948E-002;-2.005405491217971E-003;-5.530588096007705E-004;
2.413333333333334E+009;1.823576837778091E-001;-1.959435269236565E-002;-2.067409921437502E-003;-3.985764924436808E-004;
2.413500000000000E+009;1.832123249769211E-001;-2.183118462562561E-002;-2.174250781536102E-003;-3.399529668968171E-004;
2.413666666666667E+009;1.843012720346451E-001;-2.389093302190304E-002;-2.134487731382251E-003;-4.655531665775925E-005;
2.413833333333334E+009;1.852409243583679E-001;-2.581015788018704E-002;-2.348200650885701E-003;1.789121160982177E-004;
2.414000000000000E+009;1.864612996578217E-001;-2.774864807724953E-002;-2.351763192564249E-003;3.522866172716022E-004;
2.414166666666667E+009;1.876734644174576E-001;-2.964627929031849E-002;-2.383650746196508E-003;5.092399660497904E-004;
2.414333333333334E+009;1.888473331928253E-001;-3.132278472185135E-002;-2.065247157588601E-003;4.555101622827351E-004;
2.414500000000000E+009;1.899369657039642E-001;-3.278458118438721E-002;-2.174883848056197E-003;8.613422978669405E-004;
2.414666666666667E+009;1.912083178758621E-001;-3.421222791075707E-002;-2.129906788468361E-003;8.342857472598553E-004;
2.414833333333334E+009;1.924075633287430E-001;-3.549170121550560E-002;-2.199587645009160E-003;8.440115489065647E-004;
2.415000000000000E+009;1.934169679880142E-001;-3.671168535947800E-002;-2.245366340503097E-003;9.551302064210177E-004;
2.415166666666667E+009;1.945775449275971E-001;-3.786436840891838E-002;-2.067487686872482E-003;1.159850507974625E-003;
2.415333333333334E+009;1.957488209009171E-001;-3.862513601779938E-002;-2.181824762374163E-003;1.293097971938551E-003;
2.415500000000000E+009;1.969825625419617E-001;-3.934874385595322E-002;-2.172002336010337E-003;1.354918582364917E-003;
2.415666666666667E+009;1.978282183408737E-001;-4.000852257013321E-002;-2.170221414417028E-003;1.410611672326922E-003;
2.415833333333334E+009;1.986453682184219E-001;-4.059048369526863E-002;-2.062662970274687E-003;1.703510526567698E-003;
2.416000000000000E+009;1.995551586151123E-001;-4.111258313059807E-002;-1.921691233292222E-003;1.597505062818527E-003;
2.416166666666667E+009;2.001097053289414E-001;-4.162032529711723E-002;-1.854027388617396E-003;1.930471742525697E-003;
2.416333333333334E+009;2.010361105203629E-001;-4.187433049082756E-002;-1.710020937025547E-003;2.012617420405150E-003;
2.416500000000000E+009;2.014322578907013E-001;-4.212049022316933E-002;-1.495948992669582E-003;2.336262026801705E-003;
2.416666666666667E+009;2.017454952001572E-001;-4.239213094115257E-002;-1.383279915899038E-003;2.246258081868291E-003;
2.416833333333334E+009;2.017987519502640E-001;-4.245708137750626E-002;-1.306704711169004E-003;2.403614809736610E-003;
2.417000000000000E+009;2.020398229360580E-001;-4.250344261527062E-002;-1.122808665968478E-003;2.427448984235525E-003;
2.417166666666667E+009;2.017205059528351E-001;-4.243838042020798E-002;-1.017766539007425E-003;2.461707917973399E-003;
2.417333333333334E+009;2.016021460294724E-001;-4.220068454742432E-002;-7.812770782038570E-004;2.536717802286148E-003;
2.417500000000000E+009;2.012393623590469E-001;-4.229051619768143E-002;-7.019597105681896E-004;2.455635694786906E-003;
2.417666666666667E+009;2.008781284093857E-001;-4.201532527804375E-002;-5.011465400457382E-004;2.415849128738046E-003;
2.417833333333334E+009;2.003683000802994E-001;-4.176361858844757E-002;-3.095279389526695E-004;2.419559983536601E-003;
2.418000000000000E+009;1.997947543859482E-001;-4.159060865640640E-002;-3.046996134798974E-004;2.438186202198267E-003;
2.418166666666667E+009;1.989167034626007E-001;-4.149997979402542E-002;-1.805052597774193E-004;2.357616322115064E-003;
2.418333333333334E+009;1.980263739824295E-001;-4.136227816343308E-002;9.818506077863276E-005;2.306458074599505E-003;
2.418500000000000E+009;1.970432549715042E-001;-4.134140908718109E-002;4.274364619050175E-005;2.285532886162400E-003;
2.418666666666667E+009;1.961063444614410E-001;-4.135669395327568E-002;2.295313606737182E-004;2.467291196808219E-003;
2.418833333333334E+009;1.949078440666199E-001;-4.152850434184074E-002;2.964416053146124E-004;2.375447656959295E-003;
2.419000000000000E+009;1.935434341430664E-001;-4.174282401800156E-002;2.557126281317323E-004;2.309301402419806E-003;
2.419166666666667E+009;1.924174427986145E-001;-4.201605543494225E-002;4.766170168295503E-004;2.396764233708382E-003;
2.419333333333334E+009;1.910123229026794E-001;-4.257068037986755E-002;5.537427496165037E-004;2.327495021745563E-003;
2.419500000000000E+009;1.895572245121002E-001;-4.294444248080254E-002;6.685950793325901E-004;2.336244331672788E-003;
2.419666666666667E+009;1.880084723234177E-001;-4.380291700363159E-002;9.025203762575984E-004;2.532271202653647E-003;
2.419833333333334E+009;1.864436268806458E-001;-4.454135149717331E-002;1.025609904900193E-003;2.261832356452942E-003;
2.420000000000000E+009;1.848877817392349E-001;-4.535178840160370E-002;1.092747552320361E-003;2.213939558714628E-003;
2.420166666666667E+009;1.831933110952377E-001;-4.634035006165505E-002;1.119087683036923E-003;2.130915876477957E-003;
2.420333333333334E+009;1.815980672836304E-001;-4.747636243700981E-002;1.302770106121898E-003;2.077986719086766E-003;
2.420500000000000E+009;1.800368577241898E-001;-4.896426200866699E-002;1.509134541265667E-003;1.936719287186861E-003;
2.420666666666667E+009;1.783223450183868E-001;-5.003171041607857E-002;1.611935324035585E-003;1.871874439530075E-003;
2.420833333333334E+009;1.767432540655136E-001;-5.158140510320664E-002;1.710012671537697E-003;1.573332003317773E-003;
2.421000000000000E+009;1.754462122917175E-001;-5.307511985301971E-002;1.837474294006825E-003;1.449184841476381E-003;
2.421166666666667E+009;1.740780770778656E-001;-5.483346804976463E-002;1.900435891002417E-003;1.323645934462547E-003;
2.421333333333334E+009;1.723382472991943E-001;-5.636180937290192E-002;1.955925952643156E-003;1.172378426417708E-003;
2.421500000000000E+009;1.711878180503845E-001;-5.824882537126541E-002;2.037436701357365E-003;1.081552356481552E-003;
2.421666666666667E+009;1.699784249067307E-001;-6.009504571557045E-002;1.922655268572271E-003;9.027631022036076E-004;
2.421833333333334E+009;1.688796877861023E-001;-6.193639710545540E-002;2.045542467385531E-003;8.182481396943331E-004;
2.422000000000000E+009;1.677986234426498E-001;-6.386878341436386E-002;1.970792422071099E-003;5.100055132061243E-004;
2.422166666666667E+009;1.668562442064285E-001;-6.602235883474350E-002;1.889135688543320E-003;4.108453867956996E-004;
2.422333333333334E+009;1.658406704664230E-001;-6.810871511697769E-002;1.856470014899969E-003;2.561903384048492E-004;
2.422500000000000E+009;1.651450693607330E-001;-7.000534236431122E-002;1.898293732665479E-003;4.790184539160691E-005;
2.422666666666667E+009;1.646558344364166E-001;-7.216130942106247E-002;1.836244715377688E-003;-9.954383858712390E-005;
2.422833333333334E+009;1.641220897436142E-001;-7.404995709657669E-002;1.612767810001969E-003;-2.842838875949383E-004;
2.423000000000000E+009;1.635532677173615E-001;-7.612986117601395E-002;1.444732770323753E-003;-2.726725651882589E-004;
2.423166666666667E+009;1.631707251071930E-001;-7.789240777492523E-002;1.257087686099112E-003;-5.062908167019486E-004;
2.423333333333334E+009;1.630265563726425E-001;-8.005013316869736E-002;1.023974386043847E-003;-4.591448232531548E-004;
2.423500000000000E+009;1.629393100738525E-001;-8.187880367040634E-002;1.143182511441410E-003;-5.065695149824023E-004;
2.423666666666667E+009;1.630135327577591E-001;-8.373591303825378E-002;8.653889526613057E-004;-4.524766409303993E-004;
2.423833333333334E+009;1.629723459482193E-001;-8.543047308921814E-002;6.514276610687375E-004;-3.311582258902490E-004;
2.424000000000000E+009;1.629884243011475E-001;-8.714383840560913E-002;7.296937401406467E-004;-3.347951278556138E-004;
2.424166666666667E+009;1.631566882133484E-001;-8.884843438863754E-002;6.386623717844486E-004;-2.980257850140333E-004;
2.424333333333334E+009;1.632977128028870E-001;-9.035674482584000E-002;6.573242717422545E-004;-2.514239167794585E-004;
2.424500000000000E+009;1.638301610946655E-001;-9.195265173912048E-002;5.439058877527714E-004;-1.681368448771536E-004;
2.424666666666667E+009;1.640257537364960E-001;-9.339814633131027E-002;4.645583103410900E-004;-3.446733753662556E-004;
2.424833333333334E+009;1.645830571651459E-001;-9.465714544057846E-002;3.580219345167279E-004;-2.777532208710909E-004;
2.425000000000000E+009;1.649535447359085E-001;-9.580466151237488E-002;2.856830542441458E-004;-2.461663389112800E-004;
2.425166666666667E+009;1.652081310749054E-001;-9.688594192266464E-002;3.893279645126313E-004;-1.180688850581646E-004;
2.425333333333334E+009;1.656020432710648E-001;-9.783213585615158E-002;3.971874830313027E-004;-2.599016297608614E-004;
2.425500000000000E+009;1.659956872463226E-001;-9.875892102718353E-002;3.483378677628934E-004;-1.428588147973642E-004;
2.425666666666667E+009;1.665530800819397E-001;-9.947653114795685E-002;2.150032814824954E-004;-5.938479444012046E-005;
2.425833333333334E+009;1.667773127555847E-001;-1.003588065505028E-001;1.932263548951596E-004;-8.815968612907454E-005;
2.426000000000000E+009;1.671350300312042E-001;-1.008036881685257E-001;2.676001167856157E-004;-4.720666402135976E-005;
2.426166666666667E+009;1.675784885883331E-001;-1.012463793158531E-001;1.610938634257764E-004;-5.474237332236953E-005;
2.426333333333334E+009;1.676737666130066E-001;-1.017317250370979E-001;9.356325608678162E-005;8.218530274461955E-005;
2.426500000000000E+009;1.680927425622940E-001;-1.020976528525353E-001;1.364838390145451E-004;-1.181569241452962E-004;
2.426666666666667E+009;1.681537777185440E-001;-1.023646742105484E-001;1.408048847224563E-004;1.557598588988185E-004;
2.426833333333334E+009;1.684881448745728E-001;-1.026320680975914E-001;1.322199968853965E-004;2.436278591630980E-004;
2.427000000000000E+009;1.684855073690414E-001;-1.028117686510086E-001;5.350386345526204E-005;2.551013312768191E-004;
2.427166666666667E+009;1.684630960226059E-001;-1.029989570379257E-001;2.569243661127985E-004;4.344969929661602E-004;
2.427333333333334E+009;1.683647632598877E-001;-1.032230406999588E-001;3.368872858118266E-004;3.602399665396661E-004;
2.427500000000000E+009;1.681453585624695E-001;-1.033831164240837E-001;2.800295478664339E-004;3.860104770865291E-004;
2.427666666666667E+009;1.678304523229599E-001;-1.034453362226486E-001;4.681645077653229E-004;5.498872487805784E-004;
