# Version 1.00
#
freq[Hz];re:Trc1_S11;im:Trc1_S11;re:Trc2_S21;im:Trc2_S21;
2.400000000000000E+009;1.553731262683868E-001;1.070678681135178E-001;2.529744291678071E-003;-1.983690075576305E-003;
2.400166666666667E+009;1.550640016794205E-001;1.046255901455879E-001;2.362828701734543E-003;-2.183150034397841E-003;
2.400333333333334E+009;1.552574783563614E-001;1.023017317056656E-001;2.250414807349443E-003;-2.273003105074167E-003;
2.400500000000000E+009;1.550870239734650E-001;9.961304813623428E-002;2.038670936599374E-003;-2.520239213481545E-003;
2.400666666666667E+009;1.553008556365967E-001;9.703321009874344E-002;1.836369163356721E-003;-2.734941896051168E-003;
2.400833333333334E+009;1.553170680999756E-001;9.401603788137436E-002;1.713139005005360E-003;-2.835727063938975E-003;
2.401000000000000E+009;1.555245667695999E-001;9.133623540401459E-002;1.322824391536415E-003;-2.829764271155000E-003;
2.401166666666667E+009;1.554449796676636E-001;8.846721053123474E-002;1.107826130464673E-003;-2.814482897520065E-003;
2.401333333333334E+009;1.560647785663605E-001;8.576676994562149E-002;9.405789314769208E-004;-2.867578063160181E-003;
2.401500000000000E+009;1.564507037401199E-001;8.258023858070374E-002;7.661375566385686E-004;-2.883174456655979E-003;
2.401666666666667E+009;1.566471159458160E-001;7.987295836210251E-002;3.728638112079352E-004;-2.873781835660338E-003;
2.401833333333334E+009;1.574733555316925E-001;7.712887972593308E-002;3.082316834479570E-004;-2.825254807248712E-003;
2.402000000000000E+009;1.580827087163925E-001;7.442704588174820E-002;3.361203998792917E-004;-2.728138817474246E-003;
2.402166666666667E+009;1.588879227638245E-001;7.187203317880631E-002;3.730982371052960E-006;-2.682842081412673E-003;
2.402333333333334E+009;1.600012481212616E-001;6.914303451776505E-002;-7.432659185724333E-005;-2.701069694012404E-003;
2.402500000000000E+009;1.612250655889511E-001;6.675600260496140E-002;-3.034737019333988E-004;-2.438075607642531E-003;
2.402666666666667E+009;1.624044626951218E-001;6.429001688957214E-002;-3.808563051279634E-004;-2.395345363765955E-003;
2.402833333333334E+009;1.636505573987961E-001;6.189908832311630E-002;-5.333004519343376E-004;-2.470340579748154E-003;
2.403000000000000E+009;1.652829498052597E-001;5.959633365273476E-002;-5.272921989671886E-004;-2.307057846337557E-003;
2.403166666666667E+009;1.667417585849762E-001;5.723661184310913E-002;-7.036115275695920E-004;-2.191719133406878E-003;
2.403333333333334E+009;1.683555543422699E-001;5.503518506884575E-002;-6.988603272475302E-004;-2.057689009234309E-003;
2.403500000000000E+009;1.701247543096542E-001;5.289927870035172E-002;-9.255245095118880E-004;-1.937336055561900E-003;
2.403666666666667E+009;1.717429608106613E-001;5.111113935709000E-002;-9.356301161460578E-004;-1.805914216674864E-003;
2.403833333333334E+009;1.736001372337341E-001;4.923317208886147E-002;-8.842975948937237E-004;-1.806644606404007E-003;
2.404000000000000E+009;1.750510036945343E-001;4.745722562074661E-002;-9.794009383767843E-004;-1.773635856807232E-003;
2.404166666666667E+009;1.767607629299164E-001;4.587528109550476E-002;-8.890143944881856E-004;-1.688825199380517E-003;
2.404333333333334E+009;1.784157603979111E-001;4.449345171451569E-002;-9.679398499429226E-004;-1.602587639354169E-003;
2.404500000000000E+009;1.800016909837723E-001;4.298700392246246E-002;-9.459948632866144E-004;-1.549823442474008E-003;
2.404666666666667E+009;1.817337572574616E-001;4.188945144414902E-002;-9.221749496646226E-004;-1.628543017432094E-003;
2.404833333333334E+009;1.832037717103958E-001;4.077143967151642E-002;-1.006078091450036E-003;-1.533216447569430E-003;
2.405000000000000E+009;1.845928579568863E-001;3.999437391757965E-002;-1.179441460408270E-003;-1.548932166770101E-003;
2.405166666666667E+009;1.861104816198349E-001;3.936058282852173E-002;-1.220487873069942E-003;-1.610448234714568E-003;
2.405333333333334E+009;1.874112784862518E-001;3.882123529911041E-002;-1.078286557458341E-003;-1.407101866789162E-003;
2.405500000000000E+009;1.888155192136765E-001;3.840313106775284E-002;-1.307060243561864E-003;-1.318818540312350E-003;
2.405666666666667E+009;1.900818943977356E-001;3.790809959173203E-002;-1.238908502273262E-003;-1.290349522605538E-003;
2.405833333333334E+009;1.911713480949402E-001;3.752791881561279E-002;-1.325361081399024E-003;-1.111820456571877E-003;
2.406000000000000E+009;1.921798884868622E-001;3.762939572334290E-002;-1.501555205322802E-003;-9.880444267764688E-004;
2.406166666666667E+009;1.931496709585190E-001;3.740250319242477E-002;-1.394471153616905E-003;-9.911679662764072E-004;
2.406333333333334E+009;1.941103041172028E-001;3.728066012263298E-002;-1.390226883813739E-003;-8.719149045646191E-004;
2.406500000000000E+009;1.945552527904511E-001;3.727648034691811E-002;-1.414863741956651E-003;-8.084003929980099E-004;
2.406666666666667E+009;1.953191608190537E-001;3.737357258796692E-002;-1.331137376837432E-003;-5.960292182862759E-004;
2.406833333333334E+009;1.958456635475159E-001;3.738349303603172E-002;-1.179842860437930E-003;-6.371015333570540E-004;
2.407000000000000E+009;1.958900690078735E-001;3.760046139359474E-002;-1.343748182989657E-003;-7.062760414555669E-004;
2.407166666666667E+009;1.965961754322052E-001;3.749318793416023E-002;-1.121380715630949E-003;-5.131770158186555E-004;
2.407333333333334E+009;1.964427828788757E-001;3.763402253389359E-002;-1.055933185853064E-003;-4.264534218236804E-004;
2.407500000000000E+009;1.964817196130753E-001;3.760771453380585E-002;-9.317751391790807E-004;-4.805723147001118E-004;
2.407666666666667E+009;1.963840425014496E-001;3.745478019118309E-002;-1.067148987203836E-003;-5.653408588841558E-004;
2.407833333333334E+009;1.958542466163635E-001;3.738743811845779E-002;-8.766007958911359E-004;-5.293717840686441E-004;
2.408000000000000E+009;1.957128345966339E-001;3.727814182639122E-002;-1.072069164365530E-003;-6.686552660539746E-004;
2.408166666666667E+009;1.952081173658371E-001;3.691004589200020E-002;-9.495912818238139E-004;-4.876990278717130E-004;
2.408333333333334E+009;1.947281360626221E-001;3.647728636860848E-002;-1.058556721545756E-003;-5.190376541577280E-004;
2.408500000000000E+009;1.939916461706162E-001;3.616372495889664E-002;-1.177100348286331E-003;-6.248423596844077E-004;
2.408666666666667E+009;1.933066993951798E-001;3.561595454812050E-002;-1.063968637026846E-003;-7.136036874726415E-004;
2.408833333333334E+009;1.924856156110764E-001;3.492414206266403E-002;-1.163379056379199E-003;-4.566476272884756E-004;
2.409000000000000E+009;1.917592436075211E-001;3.381754085421562E-002;-1.087823417037725E-003;-4.559046064969152E-004;
2.409166666666667E+009;1.906431466341019E-001;3.293694183230400E-002;-1.091224374249578E-003;-5.592657253146172E-004;
2.409333333333334E+009;1.898315548896790E-001;3.195615485310555E-002;-1.066071097739041E-003;-5.611047381535173E-004;
2.409500000000000E+009;1.887293159961700E-001;3.056871891021729E-002;-1.053792424499989E-003;-2.798493951559067E-004;
2.409666666666667E+009;1.877347081899643E-001;2.923822030425072E-002;-1.118008163757622E-003;-3.124969953205437E-004;
2.409833333333334E+009;1.866150498390198E-001;2.759572304785252E-002;-9.954243432730436E-004;-3.940733149647713E-004;
2.410000000000000E+009;1.857208460569382E-001;2.596386708319187E-002;-1.058554742485285E-003;-3.534586285240948E-004;
2.410166666666667E+009;1.846521049737930E-001;2.409276738762856E-002;-9.684893884696066E-004;-2.942349237855524E-004;
2.410333333333334E+009;1.837053894996643E-001;2.224504016339779E-002;-1.069429796189070E-003;-3.636842593550682E-004;
2.410500000000000E+009;1.828296929597855E-001;2.038426324725151E-002;-8.986486354842782E-004;-5.314984591677785E-004;
2.410666666666667E+009;1.818660497665405E-001;1.808406040072441E-002;-1.091030542738736E-003;-3.635275934357196E-004;
2.410833333333334E+009;1.811234951019287E-001;1.595010794699192E-002;-8.939380059018731E-004;-4.277808766346425E-004;
2.411000000000000E+009;1.804149746894836E-001;1.371450163424015E-002;-1.106283860281110E-003;-4.004688234999776E-004;
2.411166666666667E+009;1.798610091209412E-001;1.138911489397287E-002;-9.290497982874513E-004;-3.276086936239153E-004;
2.411333333333334E+009;1.793822199106216E-001;8.920066989958286E-003;-1.015440793707967E-003;-3.713945625349879E-004;
2.411500000000000E+009;1.788852512836456E-001;6.658828817307949E-003;-1.064980402588844E-003;-4.547853022813797E-004;
2.411666666666667E+009;1.786825656890869E-001;4.236503504216671E-003;-1.127668539993465E-003;-5.456664948724210E-004;
2.411833333333334E+009;1.782041937112808E-001;1.837868825532496E-003;-1.294518355280161E-003;-4.810575628653169E-004;
2.412000000000000E+009;1.784843504428864E-001;-7.906435639597476E-004;-1.364209223538637E-003;-6.328212912194431E-004;
2.412166666666667E+009;1.782934814691544E-001;-3.022602759301662E-003;-1.334233558736742E-003;-5.090454360470176E-004;
2.412333333333334E+009;1.787345558404923E-001;-5.714971106499434E-003;-1.422010245732963E-003;-5.013390909880400E-004;
2.412500000000000E+009;1.789502948522568E-001;-7.926004007458687E-003;-1.520970487035811E-003;-6.683431565761566E-004;
2.412666666666667E+009;1.796108335256577E-001;-1.042721234261990E-002;-1.543791731819511E-003;-5.010335589759052E-004;
2.412833333333334E+009;1.800809204578400E-001;-1.280667446553707E-002;-1.908603822812438E-003;-6.204882520250976E-004;
2.413000000000000E+009;1.808936893939972E-001;-1.507094968110323E-002;-1.830017776228488E-003;-4.108928260393441E-004;
2.413166666666667E+009;1.816121190786362E-001;-1.738492399454117E-002;-1.865008380264044E-003;-4.035029851365835E-004;
2.413333333333334E+009;1.827352046966553E-001;-1.962872780859470E-002;-2.145073842257261E-003;-2.400674275122583E-004;
2.413500000000000E+009;1.834814399480820E-001;-2.190061099827290E-002;-2.223745454102755E-003;-2.202718314947560E-005;
2.413666666666667E+009;1.845560222864151E-001;-2.411521598696709E-002;-2.241099020466209E-003;5.269615212455392E-005;
2.413833333333334E+009;1.856614351272583E-001;-2.608827129006386E-002;-2.265406306833029E-003;4.153214467805810E-005;
2.414000000000000E+009;1.867405921220779E-001;-2.797901816666126E-002;-2.293329918757081E-003;3.720566164702177E-004;
2.414166666666667E+009;1.878921389579773E-001;-2.951243147253990E-002;-2.208024729043245E-003;5.490996409207583E-004;
2.414333333333334E+009;1.889343410730362E-001;-3.160509467124939E-002;-2.126483479514718E-003;7.097967900335789E-004;
2.414500000000000E+009;1.901246905326843E-001;-3.297199308872223E-002;-2.225172473117709E-003;7.289855275303125E-004;
2.414666666666667E+009;1.912698596715927E-001;-3.429258987307549E-002;-2.174967201426625E-003;8.534609223715961E-004;
2.414833333333334E+009;1.924119442701340E-001;-3.558403998613358E-002;-2.159958705306053E-003;1.018801587633789E-003;
2.415000000000000E+009;1.934604197740555E-001;-3.689415752887726E-002;-2.140240743756294E-003;1.015625311993063E-003;
2.415166666666667E+009;1.948977261781693E-001;-3.803954645991325E-002;-2.198301954194903E-003;1.225234358571470E-003;
2.415333333333334E+009;1.959466040134430E-001;-3.883627057075501E-002;-2.209529280662537E-003;1.307269558310509E-003;
2.415500000000000E+009;1.969604939222336E-001;-3.961993753910065E-002;-2.097298158332706E-003;1.406703726388514E-003;
2.415666666666667E+009;1.979630738496780E-001;-4.043384268879890E-002;-1.957700820639730E-003;1.412322511896491E-003;
2.415833333333334E+009;1.987685114145279E-001;-4.089350625872612E-002;-1.943958457559347E-003;1.601435360498726E-003;
2.416000000000000E+009;1.995759606361389E-001;-4.137232154607773E-002;-1.885057543404400E-003;1.804606523364782E-003;
2.416166666666667E+009;2.002557367086411E-001;-4.184629395604134E-002;-1.826916355639696E-003;1.956345979124308E-003;
2.416333333333334E+009;2.008668333292007E-001;-4.219458252191544E-002;-1.787621993571520E-003;2.058247802779079E-003;
2.416500000000000E+009;2.013575583696365E-001;-4.227370023727417E-002;-1.519783749245107E-003;2.271940233185887E-003;
2.416666666666667E+009;2.017254978418350E-001;-4.259204864501953E-002;-1.505144755356014E-003;2.305200789123774E-003;
2.416833333333334E+009;2.017749696969986E-001;-4.265538975596428E-002;-1.255284296348691E-003;2.418878953903914E-003;
2.417000000000000E+009;2.020308375358582E-001;-4.270416125655174E-002;-1.130817807279527E-003;2.438079565763474E-003;
2.417166666666667E+009;2.017756700515747E-001;-4.261821880936623E-002;-8.620402077212930E-004;2.617247169837356E-003;
2.417333333333334E+009;2.015391588211060E-001;-4.242053255438805E-002;-8.381896186619997E-004;2.402287675067782E-003;
2.417500000000000E+009;2.012363672256470E-001;-4.245534166693687E-002;-5.971407517790794E-004;2.461473457515240E-003;
2.417666666666667E+009;2.007853090763092E-001;-4.220423474907875E-002;-4.205442382954061E-004;2.527726348489523E-003;
2.417833333333334E+009;2.004162371158600E-001;-4.203908145427704E-002;-3.211149887647480E-004;2.406100276857615E-003;
2.418000000000000E+009;1.995689123868942E-001;-4.167931899428368E-002;-1.241198042407632E-004;2.542841713875532E-003;
2.418166666666667E+009;1.988559961318970E-001;-4.174202308058739E-002;-2.679818426258862E-004;2.391762100160122E-003;
2.418333333333334E+009;1.979208141565323E-001;-4.160538688302040E-002;5.613423491013236E-005;2.444440033286810E-003;
2.418500000000000E+009;1.969062834978104E-001;-4.154311865568161E-002;6.173390283947811E-005;2.455467591062188E-003;
2.418666666666667E+009;1.960964500904083E-001;-4.150201007723808E-002;1.918958005262539E-004;2.261643763631582E-003;
2.418833333333334E+009;1.947501301765442E-001;-4.159792885184288E-002;3.392396029084921E-004;2.380043501034379E-003;
2.419000000000000E+009;1.935000717639923E-001;-4.186617955565453E-002;4.460319760255516E-004;2.352654933929443E-003;
2.419166666666667E+009;1.922764480113983E-001;-4.213635995984078E-002;4.924370441585779E-004;2.409340348094702E-003;
2.419333333333334E+009;1.908781826496124E-001;-4.269537702202797E-002;6.105469074100256E-004;2.246804069727659E-003;
2.419500000000000E+009;1.893883943557739E-001;-4.316863045096397E-002;8.571575162932277E-004;2.258076565340161E-003;
2.419666666666667E+009;1.878157109022141E-001;-4.392104968428612E-002;6.982181221246719E-004;2.293105935677886E-003;
2.419833333333334E+009;1.863217800855637E-001;-4.469570517539978E-002;9.716911590658128E-004;2.315308898687363E-003;
2.420000000000000E+009;1.848165392875671E-001;-4.544344171881676E-002;1.197050209157169E-003;2.130196196958423E-003;
2.420166666666667E+009;1.831434220075607E-001;-4.647686704993248E-002;1.182548701763153E-003;2.077165758237243E-003;
2.420333333333334E+009;1.815502643585205E-001;-4.759857058525085E-002;1.363061252050102E-003;2.005651826038957E-003;
2.420500000000000E+009;1.799086183309555E-001;-4.904241487383843E-002;1.488884561695159E-003;1.887267804704607E-003;
2.420666666666667E+009;1.782567948102951E-001;-5.006437748670578E-002;1.629072707146406E-003;1.725980313494802E-003;
2.420833333333334E+009;1.767288446426392E-001;-5.169538035988808E-002;1.736115082167089E-003;1.783880055882037E-003;
2.421000000000000E+009;1.752899736166000E-001;-5.304919555783272E-002;1.780605292879045E-003;1.424894900992513E-003;
2.421166666666667E+009;1.739538162946701E-001;-5.490653216838837E-002;2.004206879064441E-003;1.470643910579383E-003;
2.421333333333334E+009;1.722652465105057E-001;-5.638848990201950E-002;1.842243480496109E-003;1.165012596175075E-003;
2.421500000000000E+009;1.709503680467606E-001;-5.820662900805473E-002;1.944863353855908E-003;1.010546460747719E-003;
2.421666666666667E+009;1.700300872325897E-001;-6.016219034790993E-002;2.093785442411900E-003;8.277887245640159E-004;
2.421833333333334E+009;1.687137186527252E-001;-6.203323602676392E-002;1.977938693016768E-003;5.215764394961298E-004;
2.422000000000000E+009;1.676308512687683E-001;-6.395158916711807E-002;2.255945000797510E-003;6.048321374692023E-004;
2.422166666666667E+009;1.667853891849518E-001;-6.617169827222824E-002;2.019164385274053E-003;3.683916584122926E-004;
2.422333333333334E+009;1.657933294773102E-001;-6.796555966138840E-002;1.918174326419830E-003;2.486906596459448E-004;
2.422500000000000E+009;1.652423888444901E-001;-7.002392411231995E-002;1.768482383340597E-003;4.925002940581180E-005;
2.422666666666667E+009;1.643812358379364E-001;-7.203248143196106E-002;1.759808743372560E-003;-9.728907753014937E-005;
2.422833333333334E+009;1.639831066131592E-001;-7.412964105606079E-002;1.690794131718576E-003;-2.262856578454375E-004;
2.423000000000000E+009;1.633397936820984E-001;-7.625336199998856E-002;1.436160295270383E-003;-2.007278235396370E-004;
2.423166666666667E+009;1.631896793842316E-001;-7.812160998582840E-002;1.118802465498447E-003;-3.226015251129866E-004;
2.423333333333334E+009;1.627656817436218E-001;-8.015015721321106E-002;1.191160175949335E-003;-2.446303551550955E-004;
2.423500000000000E+009;1.627663373947144E-001;-8.191077411174774E-002;1.009522704407573E-003;-4.775672277901322E-004;
2.423666666666667E+009;1.629070937633514E-001;-8.372208476066589E-002;1.004243502393365E-003;-3.893579996656627E-004;
2.423833333333334E+009;1.628454178571701E-001;-8.546411246061325E-002;8.924992289394140E-004;-3.252816386520863E-004;
2.424000000000000E+009;1.628494858741760E-001;-8.732432872056961E-002;7.113549509085715E-004;-3.908461367245764E-004;
2.424166666666667E+009;1.630605459213257E-001;-8.881721645593643E-002;6.189413834363222E-004;-3.989426186308265E-004;
2.424333333333334E+009;1.632291525602341E-001;-9.024437516927719E-002;6.533972918987274E-004;-2.687178202904761E-004;
2.424500000000000E+009;1.635559946298599E-001;-9.201997518539429E-002;5.859350785613060E-004;-2.270186378154904E-004;
2.424666666666667E+009;1.639056503772736E-001;-9.325827658176422E-002;4.650749324355274E-004;-2.743934746831656E-004;
2.424833333333334E+009;1.645103842020035E-001;-9.452015906572342E-002;4.359907761681825E-004;-3.414382226765156E-004;
2.425000000000000E+009;1.648647189140320E-001;-9.580223262310028E-002;5.085248267278075E-004;-2.948864712379873E-004;
2.425166666666667E+009;1.651604026556015E-001;-9.677110612392426E-002;3.649798745755106E-004;-2.559479034971446E-004;
2.425333333333334E+009;1.655300110578537E-001;-9.781423956155777E-002;4.300858709029853E-004;-1.335043543804204E-005;
2.425500000000000E+009;1.659726947546005E-001;-9.876181930303574E-002;3.314093919470906E-004;-2.256215084344149E-004;
2.425666666666667E+009;1.664554923772812E-001;-9.947682172060013E-002;1.401445624651387E-004;-1.378146262140945E-004;
2.425833333333334E+009;1.666249483823776E-001;-1.002783179283142E-001;2.090903144562617E-004;-8.162672020262107E-005;
2.426000000000000E+009;1.671668887138367E-001;-1.006953343749046E-001;2.638054138515145E-004;-5.851408423040994E-005;
2.426166666666667E+009;1.674656718969345E-001;-1.012578085064888E-001;2.357991470489651E-004;-2.373644747422077E-005;
2.426333333333334E+009;1.675511300563812E-001;-1.017358005046845E-001;1.649555779295042E-004;9.427268378203735E-005;
2.426500000000000E+009;1.680089086294174E-001;-1.019769236445427E-001;2.778565394692123E-004;1.335662236670032E-004;
2.426666666666667E+009;1.682036370038986E-001;-1.023268401622772E-001;6.881231820443645E-005;2.608506183605641E-004;
2.426833333333334E+009;1.684607267379761E-001;-1.025821492075920E-001;2.267820818815380E-004;1.347380894003436E-004;
2.427000000000000E+009;1.684297323226929E-001;-1.027569100260735E-001;2.425448037683964E-004;2.933537180069834E-004;
2.427166666666667E+009;1.684079766273499E-001;-1.027830764651299E-001;2.262493508169428E-004;2.363138919463381E-004;
2.427333333333334E+009;1.683867722749710E-001;-1.030991226434708E-001;2.012312615988776E-004;4.343355249147862E-004;
2.427500000000000E+009;1.681009232997894E-001;-1.033195108175278E-001;2.594101824797690E-004;4.104069375898689E-004;
2.427666666666667E+009;1.677182167768478E-001;-1.032660081982613E-001;4.172080371063203E-004;5.474326899275184E-004;
