# Version 1.00
#
freq[Hz];re:Trc1_S11;im:Trc1_S11;re:Trc2_S21;im:Trc2_S21;
2.400000000000000E+009;1.555868089199066E-001;1.068108752369881E-001;2.496107015758753E-003;-2.042056061327457E-003;
2.400166666666667E+009;1.553895920515060E-001;1.043128892779350E-001;2.487213118001819E-003;-2.028999850153923E-003;
2.400333333333334E+009;1.554089635610580E-001;1.019422039389610E-001;2.337186131626368E-003;-2.399320481345058E-003;
2.400500000000000E+009;1.553308963775635E-001;9.925078600645065E-002;2.038189908489585E-003;-2.367597073316574E-003;
2.400666666666667E+009;1.554935723543167E-001;9.666448086500168E-002;1.993787707760930E-003;-2.475458197295666E-003;
2.400833333333334E+009;1.555630862712860E-001;9.370937198400497E-002;1.612543710507453E-003;-2.786872675642371E-003;
2.401000000000000E+009;1.556695103645325E-001;9.088013321161270E-002;1.540431054309011E-003;-2.567074261605740E-003;
2.401166666666667E+009;1.556537449359894E-001;8.811064809560776E-002;1.204596366733313E-003;-2.771400380879641E-003;
2.401333333333334E+009;1.561522334814072E-001;8.532822877168655E-002;1.043358701281250E-003;-2.799283247441053E-003;
2.401500000000000E+009;1.564574688673019E-001;8.244650810956955E-002;9.085003403015435E-004;-2.791042905300856E-003;
2.401666666666667E+009;1.567511111497879E-001;7.956889271736145E-002;6.247980636544526E-004;-2.860758686438203E-003;
2.401833333333334E+009;1.574772000312805E-001;7.674895226955414E-002;4.890920245088637E-004;-2.686290768906474E-003;
2.402000000000000E+009;1.581531465053558E-001;7.412438839673996E-002;3.087623626925051E-004;-2.799826674163342E-003;
2.402166666666667E+009;1.590879559516907E-001;7.155451178550720E-002;1.017803515424021E-004;-2.505102427676320E-003;
2.402333333333334E+009;1.598990857601166E-001;6.878818571567535E-002;5.126751716488798E-007;-2.550146775320172E-003;
2.402500000000000E+009;1.612612605094910E-001;6.622259318828583E-002;3.275871858932078E-005;-2.434336114674807E-003;
2.402666666666667E+009;1.622200310230255E-001;6.397112458944321E-002;-4.205130680929869E-004;-2.463554730638862E-003;
2.402833333333334E+009;1.635585427284241E-001;6.147943064570427E-002;-2.084059524349868E-004;-2.285199472680688E-003;
2.403000000000000E+009;1.648898571729660E-001;5.908253043889999E-002;-4.953146562911570E-004;-2.203846117481589E-003;
2.403166666666667E+009;1.668234467506409E-001;5.699582397937775E-002;-4.582366382237524E-004;-2.105238847434521E-003;
2.403333333333334E+009;1.680780202150345E-001;5.464947968721390E-002;-7.118595531210303E-004;-1.984248403459787E-003;
2.403500000000000E+009;1.699909567832947E-001;5.269047245383263E-002;-5.300015327520669E-004;-1.957471715286374E-003;
2.403666666666667E+009;1.717331260442734E-001;5.054986104369164E-002;-7.250694325193763E-004;-1.803865539841354E-003;
2.403833333333334E+009;1.732594370841980E-001;4.889822006225586E-002;-7.892562425695360E-004;-1.802781946025789E-003;
2.404000000000000E+009;1.747549921274185E-001;4.705337807536125E-002;-6.781729753129184E-004;-1.712093129754067E-003;
2.404166666666667E+009;1.765224933624268E-001;4.557076469063759E-002;-7.113181636668742E-004;-1.764092245139182E-003;
2.404333333333334E+009;1.782034188508987E-001;4.396588355302811E-002;-8.246505167335272E-004;-1.658863038755953E-003;
2.404500000000000E+009;1.797129660844803E-001;4.250721633434296E-002;-8.797401678748429E-004;-1.528605469502509E-003;
2.404666666666667E+009;1.814047098159790E-001;4.150587692856789E-002;-9.269923320971429E-004;-1.649395562708378E-003;
2.404833333333334E+009;1.830905526876450E-001;4.043968766927719E-002;-8.884596754796803E-004;-1.517515513114631E-003;
2.405000000000000E+009;1.843872070312500E-001;3.979555144906044E-002;-1.045381184667349E-003;-1.575701055116952E-003;
2.405166666666667E+009;1.857070475816727E-001;3.908617421984673E-002;-9.767841547727585E-004;-1.428628806024790E-003;
2.405333333333334E+009;1.871688216924667E-001;3.857424110174179E-002;-1.110028824768961E-003;-1.398468855768442E-003;
2.405500000000000E+009;1.886218041181564E-001;3.802019357681274E-002;-1.231434871442616E-003;-1.298251096159220E-003;
2.405666666666667E+009;1.897440850734711E-001;3.778339549899101E-002;-1.310737454332411E-003;-1.284655998460949E-003;
2.405833333333334E+009;1.909295767545700E-001;3.746204450726509E-002;-1.285691978409886E-003;-1.184393069706857E-003;
2.406000000000000E+009;1.919900178909302E-001;3.720837458968163E-002;-1.257850090041757E-003;-1.043917378410697E-003;
2.406166666666667E+009;1.927798837423325E-001;3.716982901096344E-002;-1.378357643261552E-003;-9.482323075644672E-004;
2.406333333333334E+009;1.937451362609863E-001;3.725493326783180E-002;-1.524015679024160E-003;-8.459141827188432E-004;
2.406500000000000E+009;1.943666636943817E-001;3.712156414985657E-002;-1.387971104122698E-003;-7.637184462510049E-004;
2.406666666666667E+009;1.950061619281769E-001;3.711159899830818E-002;-1.284402213059366E-003;-8.288183598779142E-004;
2.406833333333334E+009;1.955987513065338E-001;3.724539652466774E-002;-1.164453686214984E-003;-6.674067117273808E-004;
2.407000000000000E+009;1.957773566246033E-001;3.743288293480873E-002;-1.222269609570503E-003;-7.900241180323064E-004;
2.407166666666667E+009;1.962249875068665E-001;3.722602501511574E-002;-9.967102669179440E-004;-7.520251092500985E-004;
2.407333333333334E+009;1.960437446832657E-001;3.739260137081146E-002;-1.157524413429201E-003;-5.606049089692533E-004;
2.407500000000000E+009;1.958989202976227E-001;3.743054717779160E-002;-9.225729154422879E-004;-5.892161861993372E-004;
2.407666666666667E+009;1.960950493812561E-001;3.729794546961784E-002;-9.666691184975207E-004;-6.179496995173395E-004;
2.407833333333334E+009;1.955560594797134E-001;3.733641281723976E-002;-9.282446117140353E-004;-6.001761066727340E-004;
2.408000000000000E+009;1.953482478857040E-001;3.725318238139153E-002;-1.053004874847829E-003;-6.457456620410085E-004;
2.408166666666667E+009;1.947719454765320E-001;3.673819079995155E-002;-1.029720762744546E-003;-5.583253805525601E-004;
2.408333333333334E+009;1.942550987005234E-001;3.618286550045013E-002;-1.169718569144607E-003;-6.640392239205539E-004;
2.408500000000000E+009;1.937009394168854E-001;3.598236665129662E-002;-1.167420647107065E-003;-6.053078686818481E-004;
2.408666666666667E+009;1.929912418127060E-001;3.540928661823273E-002;-1.095343613997102E-003;-6.076059071347117E-004;
2.408833333333334E+009;1.921727359294891E-001;3.461088612675667E-002;-1.145787071436644E-003;-5.710991099476814E-004;
2.409000000000000E+009;1.913303136825562E-001;3.372494503855705E-002;-9.432673687115312E-004;-5.327866529114544E-004;
2.409166666666667E+009;1.903158724308014E-001;3.272990137338638E-002;-1.024372992105782E-003;-6.589180557057262E-004;
2.409333333333334E+009;1.893055438995361E-001;3.192062303423882E-002;-1.091407611966133E-003;-4.732732195407152E-004;
2.409500000000000E+009;1.882388591766357E-001;3.046855516731739E-002;-1.177313039079309E-003;-5.461313994601369E-004;
2.409666666666667E+009;1.873216331005096E-001;2.902644313871861E-002;-1.180347171612084E-003;-4.696907126344740E-004;
2.409833333333334E+009;1.862457096576691E-001;2.748963423073292E-002;-1.124049304053187E-003;-4.278077976778150E-004;
2.410000000000000E+009;1.852433979511261E-001;2.572299912571907E-002;-1.062701223418117E-003;-4.324858600739390E-004;
2.410166666666667E+009;1.842289865016937E-001;2.408508025109768E-002;-9.411138016730547E-004;-4.265992902219296E-004;
2.410333333333334E+009;1.833071559667587E-001;2.235360071063042E-002;-1.058076857589185E-003;-3.027185448445380E-004;
2.410500000000000E+009;1.821937412023544E-001;2.022643014788628E-002;-1.140731037594378E-003;-3.705717390403152E-004;
2.410666666666667E+009;1.814544647932053E-001;1.807753741741180E-002;-9.185302187688649E-004;-4.481194191612303E-004;
2.410833333333334E+009;1.808279305696487E-001;1.598629914224148E-002;-9.274790063500404E-004;-3.236324409954250E-004;
2.411000000000000E+009;1.800485402345657E-001;1.370781101286411E-002;-1.100777182728052E-003;-3.597565519157797E-004;
2.411166666666667E+009;1.793250888586044E-001;1.158234942704439E-002;-9.423206211067736E-004;-5.846954882144928E-004;
2.411333333333334E+009;1.785869598388672E-001;9.097073227167130E-003;-9.875672403723002E-004;-2.653395931702107E-004;
2.411500000000000E+009;1.783690601587296E-001;6.577924359589815E-003;-1.034218119457364E-003;-4.190529580228031E-004;
2.411666666666667E+009;1.780969798564911E-001;4.455656744539738E-003;-1.065647229552269E-003;-5.396470078267157E-004;
2.411833333333334E+009;1.777530312538147E-001;2.033886034041643E-003;-1.144060399383307E-003;-4.539935907814652E-004;
2.412000000000000E+009;1.778681576251984E-001;-7.374192937277257E-004;-1.238144468516111E-003;-6.570149562321603E-004;
2.412166666666667E+009;1.779512614011765E-001;-3.111477242782712E-003;-1.332503161393106E-003;-5.053778877481818E-004;
2.412333333333334E+009;1.779862493276596E-001;-5.356024485081434E-003;-1.348917256109417E-003;-6.878234562464058E-004;
2.412500000000000E+009;1.786477714776993E-001;-7.877932861447334E-003;-1.415447914041579E-003;-6.166131352074444E-004;
2.412666666666667E+009;1.789297014474869E-001;-1.024838257580996E-002;-1.662402180954814E-003;-7.063218508847058E-004;
2.412833333333334E+009;1.798048317432404E-001;-1.268015336245298E-002;-1.735570374876261E-003;-4.623183631338179E-004;
2.413000000000000E+009;1.804599165916443E-001;-1.491378713399172E-002;-1.906293793581426E-003;-4.774803819600493E-004;
2.413166666666667E+009;1.811380535364151E-001;-1.713623292744160E-002;-1.939678681083024E-003;-3.549171960912645E-004;
2.413333333333334E+009;1.821821331977844E-001;-1.941266283392906E-002;-2.018757630139589E-003;-2.364042302360758E-004;
2.413500000000000E+009;1.829871237277985E-001;-2.153849974274635E-002;-2.164019271731377E-003;-1.352732069790363E-004;
2.413666666666667E+009;1.842199862003326E-001;-2.388130314648151E-002;-2.242159796878696E-003;-1.357689179712907E-004;
2.413833333333334E+009;1.851800382137299E-001;-2.566912770271301E-002;-2.299003070220351E-003;2.059344406006858E-004;
2.414000000000000E+009;1.863012760877609E-001;-2.761558629572392E-002;-2.182171912863851E-003;3.730380267370492E-004;
2.414166666666667E+009;1.875276714563370E-001;-2.920201979577541E-002;-2.249921439215541E-003;4.865995433647186E-004;
2.414333333333334E+009;1.885468363761902E-001;-3.115725517272949E-002;-2.136976690962911E-003;5.911358748562634E-004;
2.414500000000000E+009;1.899883747100830E-001;-3.265327215194702E-002;-2.196725923568010E-003;6.121563492342830E-004;
2.414666666666667E+009;1.911105513572693E-001;-3.398764133453369E-002;-2.338925842195749E-003;7.385099306702614E-004;
2.414833333333334E+009;1.923526972532272E-001;-3.526102006435394E-002;-2.246717689558864E-003;1.085968455299735E-003;
2.415000000000000E+009;1.932658702135086E-001;-3.657949343323708E-002;-2.233974868431687E-003;9.738724911585450E-004;
2.415166666666667E+009;1.946116089820862E-001;-3.759689256548882E-002;-2.242094371467829E-003;1.207425026223064E-003;
2.415333333333334E+009;1.957051306962967E-001;-3.844520077109337E-002;-2.029123250395060E-003;1.370650832541287E-003;
2.415500000000000E+009;1.967837065458298E-001;-3.909041360020638E-002;-2.270382596179843E-003;1.393084297887981E-003;
2.415666666666667E+009;1.978416442871094E-001;-3.988061472773552E-002;-2.125638769939542E-003;1.570260385051370E-003;
2.415833333333334E+009;1.987445950508118E-001;-4.034014791250229E-002;-1.875624642707408E-003;1.694699283689261E-003;
2.416000000000000E+009;1.994184255599976E-001;-4.093620926141739E-002;-1.931568607687950E-003;2.019424922764301E-003;
2.416166666666667E+009;2.002019733190537E-001;-4.158852249383926E-002;-1.852890010923147E-003;1.964561408385634E-003;
2.416333333333334E+009;2.008458822965622E-001;-4.175658896565437E-002;-1.763185719028115E-003;1.965606119483709E-003;
2.416500000000000E+009;2.013315707445145E-001;-4.191102087497711E-002;-1.724549802020192E-003;2.256053732708097E-003;
2.416666666666667E+009;2.016032785177231E-001;-4.219164326786995E-002;-1.448466558940709E-003;2.472802065312862E-003;
2.416833333333334E+009;2.019096314907074E-001;-4.221677780151367E-002;-1.306523568928242E-003;2.429813845083118E-003;
2.417000000000000E+009;2.020213454961777E-001;-4.220223054289818E-002;-1.079583656974137E-003;2.454246627166867E-003;
2.417166666666667E+009;2.018572390079498E-001;-4.223402589559555E-002;-8.787465048953891E-004;2.615033183246851E-003;
2.417333333333334E+009;2.015738934278488E-001;-4.204008728265762E-002;-6.722938851453364E-004;2.629241207614541E-003;
2.417500000000000E+009;2.013242393732071E-001;-4.198944568634033E-002;-5.839802906848490E-004;2.597524551674724E-003;
2.417666666666667E+009;2.008156478404999E-001;-4.180112853646278E-002;-6.006190087646246E-004;2.441748976707459E-003;
2.417833333333334E+009;2.003576159477234E-001;-4.155346378684044E-002;-4.003159119747579E-004;2.402202226221561E-003;
2.418000000000000E+009;1.998144537210465E-001;-4.134181886911392E-002;-1.040933566400781E-004;2.470644423738122E-003;
2.418166666666667E+009;1.990210264921188E-001;-4.127065464854240E-002;-4.060694482177496E-005;2.467741258442402E-003;
2.418333333333334E+009;1.980635076761246E-001;-4.124443978071213E-002;1.097752465284430E-004;2.563043730333448E-003;
2.418500000000000E+009;1.970634162425995E-001;-4.117247462272644E-002;1.250511413672939E-004;2.398297656327486E-003;
2.418666666666667E+009;1.962507069110870E-001;-4.119766503572464E-002;1.954749895958230E-004;2.313366159796715E-003;
2.418833333333334E+009;1.948932409286499E-001;-4.130100086331368E-002;2.868263400159776E-004;2.348226495087147E-003;
2.419000000000000E+009;1.936348378658295E-001;-4.163990542292595E-002;3.550614346750081E-004;2.228292636573315E-003;
2.419166666666667E+009;1.924566477537155E-001;-4.194255173206329E-002;4.394829156808555E-004;2.354152500629425E-003;
2.419333333333334E+009;1.909922510385513E-001;-4.229494556784630E-002;7.076046895235777E-004;2.280225511640310E-003;
2.419500000000000E+009;1.895668208599091E-001;-4.267616942524910E-002;7.077414193190634E-004;2.229534555226564E-003;
2.419666666666667E+009;1.881436109542847E-001;-4.361383989453316E-002;8.283139322884381E-004;2.301334403455257E-003;
2.419833333333334E+009;1.864163875579834E-001;-4.422638937830925E-002;9.054238325916231E-004;2.214312553405762E-003;
2.420000000000000E+009;1.849805861711502E-001;-4.513291642069817E-002;1.197456265799701E-003;2.087209373712540E-003;
2.420166666666667E+009;1.831720918416977E-001;-4.609189555048943E-002;1.253570895642042E-003;1.976607134565711E-003;
2.420333333333334E+009;1.817108243703842E-001;-4.735627770423889E-002;1.465773442760110E-003;2.098304685205221E-003;
2.420500000000000E+009;1.801498830318451E-001;-4.868677258491516E-002;1.495414879173040E-003;1.851771841757000E-003;
2.420666666666667E+009;1.785578131675720E-001;-4.979785904288292E-002;1.680158544331789E-003;1.862789387814701E-003;
2.420833333333334E+009;1.768623888492584E-001;-5.134219676256180E-002;1.686219475232065E-003;1.677680062130094E-003;
2.421000000000000E+009;1.755278110504150E-001;-5.287023633718491E-002;1.798506476916373E-003;1.578817958943546E-003;
2.421166666666667E+009;1.741741895675659E-001;-5.466467514634132E-002;1.999859465286136E-003;1.424057059921324E-003;
2.421333333333334E+009;1.725001782178879E-001;-5.620931833982468E-002;2.022821689024568E-003;1.154826022684574E-003;
2.421500000000000E+009;1.714381128549576E-001;-5.813532695174217E-002;2.081463579088450E-003;1.049003913067281E-003;
2.421666666666667E+009;1.698874086141586E-001;-5.988906323909760E-002;2.110857982188463E-003;8.126903558149934E-004;
2.421833333333334E+009;1.689723581075668E-001;-6.198162958025932E-002;1.942739821970463E-003;5.682926275767386E-004;
2.422000000000000E+009;1.679432094097138E-001;-6.369736790657044E-002;1.895492780022323E-003;6.128039094619453E-004;
2.422166666666667E+009;1.669814288616180E-001;-6.586892157793045E-002;2.018626779317856E-003;3.587273531593382E-004;
2.422333333333334E+009;1.660517305135727E-001;-6.775943189859390E-002;1.909876940771937E-003;1.564164849696681E-004;
2.422500000000000E+009;1.652048379182816E-001;-6.986466050148010E-002;1.821654150262475E-003;2.441336982883513E-005;
2.422666666666667E+009;1.646863967180252E-001;-7.178505510091782E-002;1.763667911291122E-003;-1.232818613061681E-005;
2.422833333333334E+009;1.642849296331406E-001;-7.386320829391480E-002;1.574763795360923E-003;-9.858783596428111E-005;
2.423000000000000E+009;1.636585444211960E-001;-7.614750415086746E-002;1.395310042425990E-003;-2.453056804370135E-004;
2.423166666666667E+009;1.632356643676758E-001;-7.790320366621018E-002;1.342744217254221E-003;-2.880101092159748E-004;
2.423333333333334E+009;1.632383614778519E-001;-8.002256602048874E-002;1.005382742732763E-003;-4.054678429383785E-004;
2.423500000000000E+009;1.629533320665360E-001;-8.176316320896149E-002;1.128453179262579E-003;-3.739631501957774E-004;
2.423666666666667E+009;1.631370335817337E-001;-8.369867503643036E-002;8.374814642593265E-004;-3.789193578995764E-004;
2.423833333333334E+009;1.628946661949158E-001;-8.530564606189728E-002;8.249465608969331E-004;-3.509389935061336E-004;
2.424000000000000E+009;1.630370616912842E-001;-8.702179044485092E-002;7.222024723887444E-004;-3.992115089204162E-004;
2.424166666666667E+009;1.632561385631561E-001;-8.874928206205368E-002;6.361664854921401E-004;-2.934844233095646E-004;
2.424333333333334E+009;1.634175479412079E-001;-9.029579162597656E-002;7.613321649841964E-004;-2.989327767863870E-004;
2.424500000000000E+009;1.638872772455216E-001;-9.201937168836594E-002;5.114148952998221E-004;-2.416344213997945E-004;
2.424666666666667E+009;1.640851199626923E-001;-9.337750077247620E-002;5.513232317753136E-004;-2.312417345819995E-004;
2.424833333333334E+009;1.647818386554718E-001;-9.449564665555954E-002;4.510880971793085E-004;-1.940338406711817E-004;
2.425000000000000E+009;1.650498658418655E-001;-9.570551663637161E-002;3.731967008206993E-004;-3.643699456006289E-004;
2.425166666666667E+009;1.654630303382874E-001;-9.686179459095001E-002;2.433253685012460E-004;-2.818865468725562E-004;
2.425333333333334E+009;1.657066047191620E-001;-9.785455465316773E-002;3.670755249913782E-004;-1.929618592839688E-004;
2.425500000000000E+009;1.661875098943710E-001;-9.882455319166184E-002;3.272361354902387E-004;-2.048537571681663E-004;
2.425666666666667E+009;1.667476892471314E-001;-9.942543506622315E-002;2.679526223801076E-004;-2.229435631306842E-004;
2.425833333333334E+009;1.669367849826813E-001;-1.003569588065147E-001;2.758987830020487E-004;-7.106659177225083E-005;
2.426000000000000E+009;1.673123091459274E-001;-1.007350236177445E-001;1.649582263780758E-004;-4.864126822212711E-006;
2.426166666666667E+009;1.677079498767853E-001;-1.011691763997078E-001;1.022011929308064E-004;-1.565038655826356E-005;
2.426333333333334E+009;1.678393334150314E-001;-1.016833186149597E-001;1.365280768368393E-004;1.616003137314692E-004;
2.426500000000000E+009;1.681210398674011E-001;-1.020492091774941E-001;2.254385763080791E-004;1.667699107201770E-004;
2.426666666666667E+009;1.683037728071213E-001;-1.023332402110100E-001;6.155580194899812E-005;2.295070589752868E-004;
2.426833333333334E+009;1.686470955610275E-001;-1.026530414819717E-001;1.476399629609659E-004;1.866826787590981E-004;
2.427000000000000E+009;1.685410439968109E-001;-1.027483269572258E-001;2.679262252058834E-004;2.622142201289535E-004;
2.427166666666667E+009;1.686710864305496E-001;-1.030211150646210E-001;1.757279969751835E-004;3.117721062153578E-004;
2.427333333333334E+009;1.684601306915283E-001;-1.031650528311729E-001;3.067762008868158E-004;2.972385846078396E-004;
2.427500000000000E+009;1.682728528976440E-001;-1.033498719334602E-001;3.254601615481079E-004;3.289392334409058E-004;
2.427666666666667E+009;1.678138226270676E-001;-1.034964025020599E-001;3.322425473015755E-004;4.243646690156311E-004;
