# Version 1.00
#
freq[Hz];re:Trc1_S11;im:Trc1_S11;re:Trc2_S21;im:Trc2_S21;
2.400000000000000E+009;1.584545969963074E-001;6.292428821325302E-002;-3.319492097944021E-004;-1.549343229271472E-003;
2.400166666666667E+009;1.583084315061569E-001;6.138433888554573E-002;-3.425420436542481E-004;-1.477191690355539E-003;
2.400333333333334E+009;1.580186486244202E-001;5.948083847761154E-002;-4.466528480406851E-004;-1.618201495148242E-003;
2.400500000000000E+009;1.579459458589554E-001;5.765803158283234E-002;-3.144625807181001E-004;-1.518637989647687E-003;
2.400666666666667E+009;1.578848659992218E-001;5.549081787467003E-002;-1.855660229921341E-004;-1.565320068039000E-003;
2.400833333333334E+009;1.578769534826279E-001;5.379111319780350E-002;-3.822272410616279E-004;-1.560661359690130E-003;
2.401000000000000E+009;1.580230593681335E-001;5.162715911865234E-002;-4.535194020718336E-004;-1.722616958431900E-003;
2.401166666666667E+009;1.582766920328140E-001;4.947549849748612E-002;-2.063182910205796E-004;-1.653474173508585E-003;
2.401333333333334E+009;1.582202166318893E-001;4.749752581119537E-002;-3.818684490397573E-004;-1.610193168744445E-003;
2.401500000000000E+009;1.586136370897293E-001;4.560558497905731E-002;-3.032298991456628E-004;-1.819562050513923E-003;
2.401666666666667E+009;1.587758213281632E-001;4.354406520724297E-002;-4.682294384110719E-004;-1.889454200863838E-003;
2.401833333333334E+009;1.591805368661881E-001;4.147985205054283E-002;-5.461178370751441E-004;-1.844992162659764E-003;
2.402000000000000E+009;1.595031321048737E-001;3.939999267458916E-002;-5.516397650353611E-004;-1.902693882584572E-003;
2.402166666666667E+009;1.599831283092499E-001;3.725867345929146E-002;-5.248764646239579E-004;-1.896472531370819E-003;
2.402333333333334E+009;1.603641360998154E-001;3.542692586779594E-002;-5.665927310474217E-004;-1.874296809546650E-003;
2.402500000000000E+009;1.613330841064453E-001;3.358720242977142E-002;-8.134339004755020E-004;-1.892618369311094E-003;
2.402666666666667E+009;1.618147641420364E-001;3.176013380289078E-002;-8.483770070597529E-004;-1.964417053386569E-003;
2.402833333333334E+009;1.625133454799652E-001;3.000779077410698E-002;-9.821237763389945E-004;-2.092283684760332E-003;
2.403000000000000E+009;1.633511930704117E-001;2.827175147831440E-002;-1.042439136654139E-003;-2.057147212326527E-003;
2.403166666666667E+009;1.641177088022232E-001;2.665813080966473E-002;-1.148897921666503E-003;-1.967154676094651E-003;
2.403333333333334E+009;1.651180982589722E-001;2.523394115269184E-002;-1.374853192828596E-003;-2.112963004037738E-003;
2.403500000000000E+009;1.659094542264938E-001;2.377898432314396E-002;-1.387691940180957E-003;-1.862079603597522E-003;
2.403666666666667E+009;1.668763458728790E-001;2.213195525109768E-002;-1.421535969711840E-003;-1.856219023466110E-003;
2.403833333333334E+009;1.679355204105377E-001;2.079194411635399E-002;-1.557785784825683E-003;-1.986640272662044E-003;
2.404000000000000E+009;1.689307093620300E-001;1.977702416479588E-002;-1.839434378780425E-003;-1.728088827803731E-003;
2.404166666666667E+009;1.700434386730194E-001;1.848893240094185E-002;-1.852396526373923E-003;-1.762465341016650E-003;
2.404333333333334E+009;1.708023250102997E-001;1.747359707951546E-002;-1.973161473870277E-003;-1.510681584477425E-003;
2.404500000000000E+009;1.717461496591568E-001;1.622056402266026E-002;-2.035058801993728E-003;-1.490254770033062E-003;
2.404666666666667E+009;1.727464795112610E-001;1.547119393944740E-002;-1.959589309990406E-003;-1.493399147875607E-003;
2.404833333333334E+009;1.735325902700424E-001;1.454198546707630E-002;-2.081701299175620E-003;-1.375959604047239E-003;
2.405000000000000E+009;1.745364964008331E-001;1.386237051337957E-002;-2.131945919245482E-003;-1.142058172263205E-003;
2.405166666666667E+009;1.754107326269150E-001;1.322614680975676E-002;-2.154960064217448E-003;-1.090386998839676E-003;
2.405333333333334E+009;1.762590110301971E-001;1.245744805783033E-002;-2.130339620634913E-003;-9.794260840862989E-004;
2.405500000000000E+009;1.770380437374115E-001;1.213179808109999E-002;-2.071338007226586E-003;-9.068321087397635E-004;
2.405666666666667E+009;1.777678728103638E-001;1.158499252051115E-002;-2.266859402880073E-003;-6.778602837584913E-004;
2.405833333333334E+009;1.783193796873093E-001;1.129243429750204E-002;-2.292174147441983E-003;-7.685429300181568E-004;
2.406000000000000E+009;1.789237111806870E-001;1.068000588566065E-002;-2.207669196650386E-003;-6.455718539655209E-004;
2.406166666666667E+009;1.793357729911804E-001;1.050845626741648E-002;-2.244341420009732E-003;-4.645293811336160E-004;
2.406333333333334E+009;1.800224184989929E-001;1.017472892999649E-002;-2.232015132904053E-003;-5.010010208934546E-004;
2.406500000000000E+009;1.802374273538590E-001;9.848346933722496E-003;-2.241818699985743E-003;-3.993302234448493E-004;
2.406666666666667E+009;1.802660822868347E-001;9.565676562488079E-003;-2.265984658151865E-003;-2.479009854141623E-004;
2.406833333333334E+009;1.806986182928085E-001;9.178522042930126E-003;-2.147031482309103E-003;-8.628275827504695E-005;
2.407000000000000E+009;1.808466464281082E-001;8.981331251561642E-003;-2.159963827580214E-003;-5.151373989065178E-005;
2.407166666666667E+009;1.810460686683655E-001;8.520120754837990E-003;-2.160112373530865E-003;1.460103085264564E-004;
2.407333333333334E+009;1.807149499654770E-001;8.153941482305527E-003;-2.099645091220737E-003;2.662528131622821E-004;
2.407500000000000E+009;1.806976646184921E-001;7.885447703301907E-003;-1.900303061120212E-003;2.294988371431828E-004;
2.407666666666667E+009;1.805117577314377E-001;7.340196054428816E-003;-2.074540127068758E-003;1.997056242544204E-004;
2.407833333333334E+009;1.801589280366898E-001;6.773979868739843E-003;-1.911954954266548E-003;4.537974309641868E-004;
2.408000000000000E+009;1.799804717302322E-001;6.251045037060976E-003;-1.791757647879422E-003;3.295661881566048E-004;
2.408166666666667E+009;1.795282065868378E-001;5.922015756368637E-003;-1.968409400433302E-003;3.093280829489231E-004;
2.408333333333334E+009;1.791866272687912E-001;5.119716282933950E-003;-1.753017306327820E-003;4.213636857457459E-004;
2.408500000000000E+009;1.785318106412888E-001;4.190492443740368E-003;-1.704176655039191E-003;6.670897128060460E-004;
2.408666666666667E+009;1.779995113611221E-001;3.362821880728006E-003;-1.621620962396264E-003;4.566159623209387E-004;
2.408833333333334E+009;1.773057729005814E-001;2.414517337456346E-003;-1.608690363354981E-003;6.819614791311324E-004;
2.409000000000000E+009;1.767230331897736E-001;1.515168230980635E-003;-1.437949598766863E-003;5.805065738968551E-004;
2.409166666666667E+009;1.760895401239395E-001;3.692898317240179E-004;-1.451884862035513E-003;5.650910898111761E-004;
2.409333333333334E+009;1.754983812570572E-001;-7.783957407809794E-004;-1.394275808706880E-003;5.798070924356580E-004;
2.409500000000000E+009;1.745554506778717E-001;-2.245896495878696E-003;-1.346817938610911E-003;6.232014857232571E-004;
2.409666666666667E+009;1.738620400428772E-001;-3.472347278147936E-003;-1.397479325532913E-003;6.175645976327360E-004;
2.409833333333334E+009;1.731149703264237E-001;-4.672163631767035E-003;-1.295668189413846E-003;7.321037701331079E-004;
2.410000000000000E+009;1.725474596023560E-001;-6.126138381659985E-003;-1.162625383585692E-003;5.574119277298451E-004;
2.410166666666667E+009;1.718807667493820E-001;-7.765911053866148E-003;-1.050759688951075E-003;5.059771356172860E-004;
2.410333333333334E+009;1.712208986282349E-001;-9.351552464067936E-003;-1.180816208943725E-003;4.522780945990235E-004;
2.410500000000000E+009;1.707833707332611E-001;-1.098224241286516E-002;-1.080142916180193E-003;5.609249928966165E-004;
2.410666666666667E+009;1.701186746358872E-001;-1.289231702685356E-002;-1.113109639845789E-003;5.524280713871121E-004;
2.410833333333334E+009;1.696501672267914E-001;-1.451907120645046E-002;-1.185292028822005E-003;5.649425438605249E-004;
2.411000000000000E+009;1.691196858882904E-001;-1.637169905006886E-002;-1.071312348358333E-003;5.809438298456371E-004;
2.411166666666667E+009;1.689406335353851E-001;-1.821120083332062E-002;-1.008419902063906E-003;4.441264318302274E-004;
2.411333333333334E+009;1.684755086898804E-001;-2.017110772430897E-002;-1.082761213183403E-003;4.332271055318415E-004;
2.411500000000000E+009;1.680860221385956E-001;-2.209688723087311E-002;-9.400703129358590E-004;4.705773317255080E-004;
2.411666666666667E+009;1.681349575519562E-001;-2.396328747272492E-002;-1.121492474339902E-003;4.242787254042924E-004;
2.411833333333334E+009;1.681014150381088E-001;-2.602734789252281E-002;-1.117543433792889E-003;3.303702396806330E-004;
2.412000000000000E+009;1.681568473577499E-001;-2.786130085587502E-002;-1.199624268338084E-003;4.411811241880059E-004;
2.412166666666667E+009;1.679875999689102E-001;-2.974456734955311E-002;-1.196641707792878E-003;4.705423780251294E-004;
2.412333333333334E+009;1.680553406476975E-001;-3.168410807847977E-002;-1.301991869695485E-003;3.801996645051986E-004;
2.412500000000000E+009;1.682262718677521E-001;-3.365373238921166E-002;-1.290949294343591E-003;5.378010682761669E-004;
2.412666666666667E+009;1.687173247337341E-001;-3.576257079839706E-002;-1.375125488266349E-003;5.111235077492893E-004;
2.412833333333334E+009;1.689766943454742E-001;-3.748123347759247E-002;-1.332446699962020E-003;3.497012949083000E-004;
2.413000000000000E+009;1.693954020738602E-001;-3.923075646162033E-002;-1.345362281426787E-003;4.331787058617920E-004;
2.413166666666667E+009;1.696485579013825E-001;-4.112687334418297E-002;-1.420063897967339E-003;6.582439527846873E-004;
2.413333333333334E+009;1.702337116003037E-001;-4.274530336260796E-002;-1.504464074969292E-003;7.601959514431655E-004;
2.413500000000000E+009;1.706740558147430E-001;-4.444611072540283E-002;-1.380708301439881E-003;6.978154997341335E-004;
2.413666666666667E+009;1.712041795253754E-001;-4.608118906617165E-002;-1.349544851109386E-003;7.394389249384403E-004;
2.413833333333334E+009;1.716554611921310E-001;-4.753625020384789E-002;-1.424847985617816E-003;8.029259042814374E-004;
2.414000000000000E+009;1.722058206796646E-001;-4.902881756424904E-002;-1.404299517162144E-003;9.516712743788958E-004;
2.414166666666667E+009;1.727865636348724E-001;-5.020917952060700E-002;-1.530283712781966E-003;8.870976744219661E-004;
2.414333333333334E+009;1.733250617980957E-001;-5.165975168347359E-002;-1.528846332803369E-003;1.006577280350030E-003;
2.414500000000000E+009;1.740554869174957E-001;-5.281488224864006E-002;-1.323359785601497E-003;1.034023123793304E-003;
2.414666666666667E+009;1.744486838579178E-001;-5.380826070904732E-002;-1.279870164580643E-003;9.573715506121516E-004;
2.414833333333334E+009;1.749309897422791E-001;-5.502401292324066E-002;-1.268916297703981E-003;1.166482339613140E-003;
2.415000000000000E+009;1.753442138433456E-001;-5.588568747043610E-002;-1.172610674984753E-003;1.126457704231143E-003;
2.415166666666667E+009;1.758058369159699E-001;-5.674541369080544E-002;-1.273985602892935E-003;1.240791403688490E-003;
2.415333333333334E+009;1.763463169336319E-001;-5.757794901728630E-002;-1.220702775754035E-003;1.221159007400274E-003;
2.415500000000000E+009;1.765699833631516E-001;-5.811433494091034E-002;-1.136032282374799E-003;1.291095744818449E-003;
2.415666666666667E+009;1.769327819347382E-001;-5.853275954723358E-002;-1.167425420135260E-003;1.314986729994416E-003;
2.415833333333334E+009;1.772099435329437E-001;-5.924357101321220E-002;-1.061842311173677E-003;1.185457687824965E-003;
2.416000000000000E+009;1.771148890256882E-001;-5.962261930108070E-002;-1.097614062018693E-003;1.326467376202345E-003;
2.416166666666667E+009;1.775336861610413E-001;-6.008825451135635E-002;-1.055301399901509E-003;1.387974596582353E-003;
2.416333333333334E+009;1.774345040321350E-001;-6.043452024459839E-002;-1.039885799400508E-003;1.367345917969942E-003;
2.416500000000000E+009;1.773423850536346E-001;-6.071685627102852E-002;-1.031217747367919E-003;1.336964545771480E-003;
2.416666666666667E+009;1.771469116210938E-001;-6.093147024512291E-002;-1.070328871719539E-003;1.445632078684866E-003;
2.416833333333334E+009;1.769854426383972E-001;-6.135734915733337E-002;-8.392955060116947E-004;1.525668194517493E-003;
2.417000000000000E+009;1.765028685331345E-001;-6.160639971494675E-002;-7.373130647465587E-004;1.522541977465153E-003;
2.417166666666667E+009;1.761606633663178E-001;-6.164145097136498E-002;-9.161279886029661E-004;1.469959155656397E-003;
2.417333333333334E+009;1.756810843944550E-001;-6.183536723256111E-002;-7.779321167618036E-004;1.636752975173295E-003;
2.417500000000000E+009;1.749754399061203E-001;-6.235253065824509E-002;-8.752697613090277E-004;1.707761199213564E-003;
2.417666666666667E+009;1.745105236768723E-001;-6.225684657692909E-002;-6.495496490970254E-004;1.602540025487542E-003;
2.417833333333334E+009;1.737221479415894E-001;-6.258043646812439E-002;-6.889759679324925E-004;1.632157596759498E-003;
2.418000000000000E+009;1.727929860353470E-001;-6.295633316040039E-002;-6.692673778161407E-004;1.697597093880177E-003;
2.418166666666667E+009;1.718990057706833E-001;-6.303700059652329E-002;-5.615017726086080E-004;1.677379943430424E-003;
2.418333333333334E+009;1.712543368339539E-001;-6.350143998861313E-002;-6.123844650574029E-004;1.764560234732926E-003;
2.418500000000000E+009;1.700973361730576E-001;-6.389472633600235E-002;-4.607300506904721E-004;1.670654281042516E-003;
2.418666666666667E+009;1.690925061702728E-001;-6.430654227733612E-002;-3.617487382143736E-004;1.746525987982750E-003;
2.418833333333334E+009;1.679116338491440E-001;-6.490781158208847E-002;-4.372941330075264E-004;1.770416623912752E-003;
2.419000000000000E+009;1.666665822267532E-001;-6.544436514377594E-002;-4.473084700293839E-004;1.970930723473430E-003;
2.419166666666667E+009;1.655133813619614E-001;-6.601125001907349E-002;-3.694237384479493E-004;1.823458471335471E-003;
2.419333333333334E+009;1.642268002033234E-001;-6.650394946336746E-002;-2.290301199536771E-004;1.709110452793539E-003;
2.419500000000000E+009;1.631111055612564E-001;-6.747683882713318E-002;-2.139921271009371E-004;1.777101308107376E-003;
2.419666666666667E+009;1.619249135255814E-001;-6.836795061826706E-002;-2.444910351186991E-004;1.979671418666840E-003;
2.419833333333334E+009;1.606840938329697E-001;-6.914009898900986E-002;-1.972517202375457E-004;1.841690856963396E-003;
2.420000000000000E+009;1.595155745744705E-001;-7.014955580234528E-002;-8.579351742810104E-006;1.993637531995773E-003;
2.420166666666667E+009;1.585577726364136E-001;-7.124993950128555E-002;-1.186832305393182E-004;1.811098423786461E-003;
2.420333333333334E+009;1.574662029743195E-001;-7.248508185148239E-002;1.916896280818037E-006;1.900195027701557E-003;
2.420500000000000E+009;1.564591675996780E-001;-7.365467399358749E-002;7.237061799969524E-005;1.780566992238164E-003;
2.420666666666667E+009;1.554318070411682E-001;-7.482344657182694E-002;6.149721593828872E-005;1.853178837336600E-003;
2.420833333333334E+009;1.546250730752945E-001;-7.628076523542404E-002;2.784167918434832E-005;1.929773832671344E-003;
2.421000000000000E+009;1.535438001155853E-001;-7.777199149131775E-002;1.526764244772494E-004;1.879383693449199E-003;
2.421166666666667E+009;1.528422236442566E-001;-7.916053384542465E-002;1.638021640246734E-004;1.837472547776997E-003;
2.421333333333334E+009;1.521719694137573E-001;-8.070977032184601E-002;1.903224765555933E-004;1.850650412961841E-003;
2.421500000000000E+009;1.514809578657150E-001;-8.224946260452271E-002;3.453636018093675E-004;1.851482898928225E-003;
2.421666666666667E+009;1.509100347757340E-001;-8.379317075014114E-002;3.249286965001375E-004;1.921440241858363E-003;
2.421833333333334E+009;1.506353467702866E-001;-8.553316444158554E-002;4.089443827979267E-004;1.812746515497565E-003;
2.422000000000000E+009;1.500558853149414E-001;-8.712269365787506E-002;4.591502074617893E-004;1.864794408902526E-003;
2.422166666666667E+009;1.497604548931122E-001;-8.907074481248856E-002;4.239022964611650E-004;1.846199273131788E-003;
2.422333333333334E+009;1.495450586080551E-001;-9.066446125507355E-002;5.178469582460821E-004;1.889748731628060E-003;
2.422500000000000E+009;1.493070274591446E-001;-9.238192439079285E-002;6.134978611953557E-004;1.890642917715013E-003;
2.422666666666667E+009;1.492221057415009E-001;-9.412353485822678E-002;5.061208503320813E-004;1.776289660483599E-003;
2.422833333333334E+009;1.492944359779358E-001;-9.580449014902115E-002;6.285721319727600E-004;1.890713931061328E-003;
2.423000000000000E+009;1.494369208812714E-001;-9.745418280363083E-002;4.656300006899983E-004;1.835270551964641E-003;
2.423166666666667E+009;1.496822237968445E-001;-9.911985695362091E-002;5.166662740521133E-004;1.833720132708550E-003;
2.423333333333334E+009;1.499293595552445E-001;-1.004058048129082E-001;7.128394208848476E-004;1.998465508222580E-003;
2.423500000000000E+009;1.502359509468079E-001;-1.022005602717400E-001;8.922570268623531E-004;1.945211086422205E-003;
2.423666666666667E+009;1.504989415407181E-001;-1.038530245423317E-001;6.838711560703814E-004;1.914775231853128E-003;
2.423833333333334E+009;1.509891748428345E-001;-1.052929461002350E-001;9.193492587655783E-004;1.874996349215508E-003;
2.424000000000000E+009;1.511755287647247E-001;-1.064806729555130E-001;8.620936423540115E-004;1.788831199519336E-003;
2.424166666666667E+009;1.515394896268845E-001;-1.078693643212318E-001;8.459376404061914E-004;1.838285243138671E-003;
2.424333333333334E+009;1.522478461265564E-001;-1.091367825865746E-001;1.033479929901660E-003;1.874363981187344E-003;
2.424500000000000E+009;1.527559459209442E-001;-1.103684902191162E-001;1.112376688979566E-003;1.835003262385726E-003;
2.424666666666667E+009;1.533399522304535E-001;-1.112991422414780E-001;1.225252053700388E-003;1.836310839280486E-003;
2.424833333333334E+009;1.536204218864441E-001;-1.123157665133476E-001;1.277584116905928E-003;1.915627741254866E-003;
2.425000000000000E+009;1.541622430086136E-001;-1.133734211325645E-001;1.332949264906347E-003;1.891559106297791E-003;
2.425166666666667E+009;1.544022411108017E-001;-1.143626943230629E-001;1.609587343409658E-003;1.817688695155084E-003;
2.425333333333334E+009;1.549037992954254E-001;-1.149482131004334E-001;1.337053952738643E-003;1.812263624742627E-003;
2.425500000000000E+009;1.553920954465866E-001;-1.158017963171005E-001;1.488284789957106E-003;1.850572763942182E-003;
2.425666666666667E+009;1.555727869272232E-001;-1.164410188794136E-001;1.629745005629957E-003;1.850528758950532E-003;
2.425833333333334E+009;1.558743715286255E-001;-1.170178502798080E-001;1.691740937530994E-003;1.941978815011680E-003;
2.426000000000000E+009;1.560628116130829E-001;-1.175835356116295E-001;1.696104183793068E-003;1.676349551416934E-003;
2.426166666666667E+009;1.563819497823715E-001;-1.180178746581078E-001;1.791719347238541E-003;1.758507802151144E-003;
2.426333333333334E+009;1.563821732997894E-001;-1.182887926697731E-001;1.897694426588714E-003;1.690123230218887E-003;
2.426500000000000E+009;1.564602702856064E-001;-1.187370792031288E-001;1.878020935691893E-003;1.597409020178020E-003;
2.426666666666667E+009;1.564005464315414E-001;-1.187888011336327E-001;2.017866121605039E-003;1.361516187898815E-003;
2.426833333333334E+009;1.563012748956680E-001;-1.189529597759247E-001;2.186134923249483E-003;1.457784092053771E-003;
2.427000000000000E+009;1.559757888317108E-001;-1.194111183285713E-001;2.150390762835741E-003;1.446656999178231E-003;
2.427166666666667E+009;1.556664556264877E-001;-1.192661449313164E-001;2.236058935523033E-003;1.363797695375979E-003;
2.427333333333334E+009;1.551550179719925E-001;-1.194004863500595E-001;2.165208337828517E-003;1.383144641295075E-003;
2.427500000000000E+009;1.547618657350540E-001;-1.196036562323570E-001;2.318771788850427E-003;1.240259502083063E-003;
2.427666666666667E+009;1.538976281881332E-001;-1.197122037410736E-001;2.415809547528625E-003;1.019646762870252E-003;
