# Version 1.00
#
freq[Hz];re:Trc1_S11;im:Trc1_S11;re:Trc2_S21;im:Trc2_S21;
2.400000000000000E+009;1.584007441997528E-001;6.281531602144241E-002;-4.001201596111059E-003;3.225289401598275E-004;
2.400166666666667E+009;1.583484858274460E-001;6.132912635803223E-002;-3.831978887319565E-003;4.164324491284788E-004;
2.400333333333334E+009;1.580778509378433E-001;5.951799824833870E-002;-3.989366814494133E-003;5.655802087858319E-004;
2.400500000000000E+009;1.579311341047287E-001;5.759695172309876E-002;-3.894748166203499E-003;6.545033538714051E-004;
2.400666666666667E+009;1.578827053308487E-001;5.551674962043762E-002;-3.956294152885675E-003;8.577661355957389E-004;
2.400833333333334E+009;1.578306704759598E-001;5.383946374058723E-002;-3.824673825874925E-003;8.643190376460552E-004;
2.401000000000000E+009;1.580313742160797E-001;5.170746892690659E-002;-3.679604735225439E-003;1.003217766992748E-003;
2.401166666666667E+009;1.578435152769089E-001;4.958265647292137E-002;-3.710818709805608E-003;1.257633790373802E-003;
2.401333333333334E+009;1.580736339092255E-001;4.770309478044510E-002;-3.592483000829816E-003;1.195053802803159E-003;
2.401500000000000E+009;1.585348844528198E-001;4.565864428877831E-002;-3.614579560235143E-003;1.507867476902902E-003;
2.401666666666667E+009;1.588067263364792E-001;4.376268386840820E-002;-3.634596476331353E-003;1.473645912483335E-003;
2.401833333333334E+009;1.591250598430634E-001;4.156905412673950E-002;-3.433761885389686E-003;1.521999598480761E-003;
2.402000000000000E+009;1.593015342950821E-001;3.960122913122177E-002;-3.465500194579363E-003;1.767296344041824E-003;
2.402166666666667E+009;1.598994880914688E-001;3.736435249447823E-002;-3.403408220037818E-003;1.817623386159539E-003;
2.402333333333334E+009;1.604102104902268E-001;3.573201969265938E-002;-3.437662264332175E-003;1.959819812327623E-003;
2.402500000000000E+009;1.612221002578735E-001;3.368959948420525E-002;-3.300622804090381E-003;1.904180156998336E-003;
2.402666666666667E+009;1.619074940681458E-001;3.200547397136688E-002;-3.248079447075725E-003;2.254431135952473E-003;
2.402833333333334E+009;1.625799089670181E-001;3.009450063109398E-002;-3.224615938961506E-003;2.294656587764621E-003;
2.403000000000000E+009;1.633670181035996E-001;2.829859592020512E-002;-2.992500551044941E-003;2.346571767702699E-003;
2.403166666666667E+009;1.643419414758682E-001;2.696878463029862E-002;-3.025152022019029E-003;2.512404229491949E-003;
2.403333333333334E+009;1.650871485471726E-001;2.543989196419716E-002;-2.785559976473451E-003;2.796007087454200E-003;
2.403500000000000E+009;1.658702045679092E-001;2.396503463387489E-002;-2.764299744740129E-003;2.913966774940491E-003;
2.403666666666667E+009;1.668479293584824E-001;2.227878384292126E-002;-2.595769008621573E-003;3.032045438885689E-003;
2.403833333333334E+009;1.680170744657517E-001;2.107664756476879E-002;-2.420549048110843E-003;2.992026740685105E-003;
2.404000000000000E+009;1.689563840627670E-001;1.980047859251499E-002;-2.383391838520765E-003;3.121625166386366E-003;
2.404166666666667E+009;1.698238402605057E-001;1.856657303869724E-002;-2.130641369149089E-003;3.093104809522629E-003;
2.404333333333334E+009;1.708310246467590E-001;1.773164793848991E-002;-2.025388181209564E-003;3.258571960031986E-003;
2.404500000000000E+009;1.717837750911713E-001;1.655460894107819E-002;-1.816456322558224E-003;3.316298592835665E-003;
2.404666666666667E+009;1.728902310132980E-001;1.564245112240315E-002;-1.788689871318638E-003;3.343862714245915E-003;
2.404833333333334E+009;1.736144572496414E-001;1.472038868814707E-002;-1.684242277406156E-003;3.533963579684496E-003;
2.405000000000000E+009;1.745746135711670E-001;1.402627956122160E-002;-1.496182638220489E-003;3.412795253098011E-003;
2.405166666666667E+009;1.755695492029190E-001;1.329437084496021E-002;-1.311845961026847E-003;3.595096757635474E-003;
2.405333333333334E+009;1.765100657939911E-001;1.256980374455452E-002;-1.028344850055873E-003;3.751683980226517E-003;
2.405500000000000E+009;1.771133095026016E-001;1.216293964534998E-002;-8.335583261214197E-004;3.600710304453969E-003;
2.405666666666667E+009;1.779537945985794E-001;1.172173582017422E-002;-7.875933079048991E-004;3.892140695825219E-003;
2.405833333333334E+009;1.783754080533981E-001;1.119096949696541E-002;-5.821965751238167E-004;3.649151651188731E-003;
2.406000000000000E+009;1.791436672210693E-001;1.068372186273336E-002;-3.701175737660378E-004;3.679716028273106E-003;
2.406166666666667E+009;1.794886291027069E-001;1.061441190540791E-002;-1.850325206760317E-004;3.723829751834273E-003;
2.406333333333334E+009;1.801709979772568E-001;1.015219464898109E-002;-1.058734269463457E-004;3.525523934513331E-003;
2.406500000000000E+009;1.803846806287766E-001;9.768590331077576E-003;1.755008706822991E-004;3.534725168719888E-003;
2.406666666666667E+009;1.804911941289902E-001;9.414243511855602E-003;3.442720335442573E-004;3.412318183109164E-003;
2.406833333333334E+009;1.808605939149857E-001;9.212649427354336E-003;5.622622556984425E-004;3.358195303007960E-003;
2.407000000000000E+009;1.809969544410706E-001;8.749848231673241E-003;5.014555645175278E-004;3.339817281812429E-003;
2.407166666666667E+009;1.812012046575546E-001;8.546040393412113E-003;7.311516674235463E-004;3.109746612608433E-003;
2.407333333333334E+009;1.809969693422318E-001;8.049572817981243E-003;8.608908392488957E-004;3.030106658115983E-003;
2.407500000000000E+009;1.808773726224899E-001;7.640799041837454E-003;1.040390809066594E-003;2.957435790449381E-003;
2.407666666666667E+009;1.806037127971649E-001;7.343647070229054E-003;1.197859179228544E-003;2.652426483109593E-003;
2.407833333333334E+009;1.803026348352432E-001;6.650653667747974E-003;1.222054706886411E-003;2.652638358995318E-003;
2.408000000000000E+009;1.800917983055115E-001;6.164375692605972E-003;1.228604814969003E-003;2.381431870162487E-003;
2.408166666666667E+009;1.796527355909348E-001;5.764847621321678E-003;1.360406051389873E-003;2.468581078574061E-003;
2.408333333333334E+009;1.791160106658936E-001;4.934740718454123E-003;1.460361294448376E-003;2.340490231290460E-003;
2.408500000000000E+009;1.786986887454987E-001;4.193254746496677E-003;1.569160260260105E-003;2.156388713046908E-003;
2.408666666666667E+009;1.780284494161606E-001;3.241466125473380E-003;1.507403096184135E-003;1.991341821849346E-003;
2.408833333333334E+009;1.773300468921661E-001;2.444829791784287E-003;1.671218196861446E-003;1.909944694489241E-003;
2.409000000000000E+009;1.765820533037186E-001;1.440130057744682E-003;1.536618568934500E-003;1.655272906646133E-003;
2.409166666666667E+009;1.759963780641556E-001;2.724491932895035E-004;1.618264126591384E-003;1.659921836107969E-003;
2.409333333333334E+009;1.754859238862991E-001;-8.095454541034997E-004;1.517812605015934E-003;1.647573895752430E-003;
2.409500000000000E+009;1.746216267347336E-001;-2.237700391560793E-003;1.555939088575542E-003;1.510962028987706E-003;
2.409666666666667E+009;1.739880740642548E-001;-3.317661816254258E-003;1.433743746019900E-003;1.331743784248829E-003;
2.409833333333334E+009;1.731550544500351E-001;-4.632083699107170E-003;1.515767071396112E-003;1.310216146521270E-003;
2.410000000000000E+009;1.724752634763718E-001;-6.127076689153910E-003;1.503283740021288E-003;1.354378182440996E-003;
2.410166666666667E+009;1.718620508909226E-001;-7.659134920686483E-003;1.479624770581722E-003;1.054012915119529E-003;
2.410333333333334E+009;1.711412519216538E-001;-9.346388280391693E-003;1.381928450427949E-003;1.059995498508215E-003;
2.410500000000000E+009;1.706711202859879E-001;-1.091738417744637E-002;1.340704155154526E-003;8.502300479449332E-004;
2.410666666666667E+009;1.700582355260849E-001;-1.285810396075249E-002;1.272844034247100E-003;9.957973379641771E-004;
2.410833333333334E+009;1.696932762861252E-001;-1.451624464243650E-002;1.318827155046165E-003;9.660074138082564E-004;
2.411000000000000E+009;1.693792045116425E-001;-1.638681814074516E-002;1.263574813492596E-003;8.593011298216879E-004;
2.411166666666667E+009;1.688046306371689E-001;-1.818043738603592E-002;1.281147240661085E-003;9.094230481423438E-004;
2.411333333333334E+009;1.685198694467545E-001;-2.006522566080093E-002;1.260691438801587E-003;5.900108371861279E-004;
2.411500000000000E+009;1.681907922029495E-001;-2.218660898506641E-002;1.319529139436781E-003;6.816371460445225E-004;
2.411666666666667E+009;1.683271974325180E-001;-2.395440079271793E-002;1.192315365187824E-003;8.055462385527790E-004;
2.411833333333334E+009;1.681179106235504E-001;-2.591481618583202E-002;1.156982150860131E-003;5.426447605714202E-004;
2.412000000000000E+009;1.681421101093292E-001;-2.788331732153893E-002;1.140097156167030E-003;6.641837535426021E-004;
2.412166666666667E+009;1.680665463209152E-001;-3.000946715474129E-002;1.042739371769130E-003;5.505582666955888E-004;
2.412333333333334E+009;1.684206724166870E-001;-3.168663755059242E-002;9.961434407159686E-004;4.649636393878609E-004;
2.412500000000000E+009;1.685035675764084E-001;-3.353727981448174E-002;1.119497464969754E-003;5.147354677319527E-004;
2.412666666666667E+009;1.686498522758484E-001;-3.569141402840614E-002;1.056854147464037E-003;4.677573451772332E-004;
2.412833333333334E+009;1.691502332687378E-001;-3.745452687144280E-002;1.116279279813170E-003;3.771907067857683E-004;
2.413000000000000E+009;1.693649888038635E-001;-3.915903344750404E-002;1.088307239115238E-003;3.216076584067196E-004;
2.413166666666667E+009;1.697586923837662E-001;-4.087984934449196E-002;9.900109143927693E-004;4.390606191009283E-004;
2.413333333333334E+009;1.700573861598969E-001;-4.276277497410774E-002;7.616541697643697E-004;3.273384936619550E-004;
2.413500000000000E+009;1.706908494234085E-001;-4.443928599357605E-002;8.438408840447664E-004;2.647824876476079E-004;
2.413666666666667E+009;1.711761802434921E-001;-4.604239389300346E-002;8.685016073286533E-004;2.758810296654701E-004;
2.413833333333334E+009;1.716948896646500E-001;-4.754370450973511E-002;8.753205183893442E-004;2.784309035632759E-004;
2.414000000000000E+009;1.720516532659531E-001;-4.901257157325745E-002;8.465066784992814E-004;2.858384978026152E-004;
2.414166666666667E+009;1.727156043052673E-001;-5.039603635668755E-002;9.673527674749494E-004;2.937950193881989E-004;
2.414333333333334E+009;1.732654720544815E-001;-5.161182954907417E-002;7.631167536601424E-004;2.183849428547546E-004;
2.414500000000000E+009;1.739990711212158E-001;-5.281548947095871E-002;7.140586385503411E-004;3.759311221074313E-004;
2.414666666666667E+009;1.744089126586914E-001;-5.385762453079224E-002;6.213406450115144E-004;3.975789586547762E-004;
2.414833333333334E+009;1.748115718364716E-001;-5.496365204453468E-002;7.481914362870157E-004;3.002870944328606E-004;
2.415000000000000E+009;1.753627955913544E-001;-5.561247095465660E-002;5.346151301637292E-004;4.423616337589920E-004;
2.415166666666667E+009;1.757320910692215E-001;-5.662245303392410E-002;4.078447527717799E-004;4.700751451309770E-004;
2.415333333333334E+009;1.762323230504990E-001;-5.742127075791359E-002;5.845977575518191E-004;3.011579392477870E-004;
2.415500000000000E+009;1.766349971294403E-001;-5.801128596067429E-002;6.488742073997855E-004;3.573597932700068E-004;
2.415666666666667E+009;1.769911050796509E-001;-5.852084979414940E-002;6.151764537207782E-004;9.883100574370474E-005;
2.415833333333334E+009;1.772644072771072E-001;-5.909457802772522E-002;5.042391712777317E-004;3.383780713193119E-004;
2.416000000000000E+009;1.772729456424713E-001;-5.961428210139275E-002;5.781781510449946E-004;4.025789094157517E-004;
2.416166666666667E+009;1.775231212377548E-001;-5.992534384131432E-002;5.484526627697051E-004;3.033783868886530E-004;
2.416333333333334E+009;1.774687767028809E-001;-6.027339026331902E-002;7.489111158065498E-004;4.577913205139339E-004;
2.416500000000000E+009;1.774489879608154E-001;-6.061439961194992E-002;6.257445784285665E-004;2.921524283010513E-004;
2.416666666666667E+009;1.773035824298859E-001;-6.084853410720825E-002;4.527566779870540E-004;2.885134890675545E-004;
2.416833333333334E+009;1.772147566080093E-001;-6.112940609455109E-002;5.906816804781556E-004;3.809641930274665E-004;
2.417000000000000E+009;1.766305565834045E-001;-6.143261492252350E-002;5.579360295087099E-004;2.841826062649488E-004;
2.417166666666667E+009;1.763219088315964E-001;-6.162013858556747E-002;4.993155016563833E-004;5.657851579599083E-004;
2.417333333333334E+009;1.759001612663269E-001;-6.179314851760864E-002;5.969997146166861E-004;2.608992217574269E-004;
2.417500000000000E+009;1.753142476081848E-001;-6.215862929821014E-002;4.627885064110160E-004;3.197088080924004E-004;
2.417666666666667E+009;1.746612638235092E-001;-6.224143505096436E-002;5.296827876009047E-004;2.474596258252859E-004;
2.417833333333334E+009;1.739539057016373E-001;-6.255675107240677E-002;5.274696741253138E-004;3.883711178787053E-004;
2.418000000000000E+009;1.730555891990662E-001;-6.299690157175064E-002;5.431486060842872E-004;2.901410043705255E-004;
2.418166666666667E+009;1.721599549055100E-001;-6.306475400924683E-002;6.235517794266343E-004;4.510963917709887E-004;
2.418333333333334E+009;1.715232133865356E-001;-6.353722512722015E-002;4.175241338089109E-004;4.266167816240341E-004;
2.418500000000000E+009;1.702209264039993E-001;-6.388296931982040E-002;6.124459905549884E-004;4.374017298687249E-004;
2.418666666666667E+009;1.693375259637833E-001;-6.440640985965729E-002;4.306561895646155E-004;5.876464419998229E-004;
2.418833333333334E+009;1.679774075746536E-001;-6.482466310262680E-002;3.778786049224436E-004;5.936285015195608E-004;
2.419000000000000E+009;1.668720841407776E-001;-6.540942937135696E-002;5.551477079279721E-004;6.709854933433235E-004;
2.419166666666667E+009;1.657111048698425E-001;-6.600434333086014E-002;5.193231045268476E-004;5.204650224186480E-004;
2.419333333333334E+009;1.643832325935364E-001;-6.655030697584152E-002;5.048055318184197E-004;6.288069416768849E-004;
2.419500000000000E+009;1.633590012788773E-001;-6.759216636419296E-002;4.607529554050416E-004;6.468030624091625E-004;
2.419666666666667E+009;1.621433645486832E-001;-6.848549842834473E-002;5.791096482425928E-004;6.568540702573955E-004;
2.419833333333334E+009;1.608939021825790E-001;-6.928829103708267E-002;4.641845880541951E-004;7.665858138352633E-004;
2.420000000000000E+009;1.598202139139175E-001;-7.007617503404617E-002;5.042392876930535E-004;8.041335968300700E-004;
2.420166666666667E+009;1.585073620080948E-001;-7.125933468341827E-002;6.263331160880625E-004;8.786463295109570E-004;
2.420333333333334E+009;1.576551496982575E-001;-7.252732664346695E-002;5.634764092974365E-004;8.184850448742509E-004;
2.420500000000000E+009;1.564268320798874E-001;-7.359354197978973E-002;4.109790024813265E-004;9.744587005116046E-004;
2.420666666666667E+009;1.553733646869659E-001;-7.492247223854065E-002;6.184275262057781E-004;1.008366583846510E-003;
2.420833333333334E+009;1.546325981616974E-001;-7.629871368408203E-002;7.064922247081995E-004;9.358113748021424E-004;
2.421000000000000E+009;1.535436958074570E-001;-7.788587361574173E-002;7.442468195222318E-004;1.089768484234810E-003;
2.421166666666667E+009;1.530290842056274E-001;-7.914478331804276E-002;7.380045135505498E-004;8.534746011719108E-004;
2.421333333333334E+009;1.521946936845779E-001;-8.068971335887909E-002;8.227309444919229E-004;1.079855253919959E-003;
2.421500000000000E+009;1.512503772974014E-001;-8.229289948940277E-002;7.962220697663724E-004;1.110144425183535E-003;
2.421666666666667E+009;1.510363519191742E-001;-8.384684473276138E-002;7.942626252770424E-004;1.217419398017228E-003;
2.421833333333334E+009;1.506682932376862E-001;-8.547079563140869E-002;1.062578870914877E-003;1.178824924863875E-003;
2.422000000000000E+009;1.500539779663086E-001;-8.710318058729172E-002;1.025737030431628E-003;1.235593808814883E-003;
2.422166666666667E+009;1.496551632881165E-001;-8.891759812831879E-002;1.019668648950756E-003;1.145707909017801E-003;
2.422333333333334E+009;1.495530307292938E-001;-9.055808186531067E-002;1.196380937471986E-003;1.243326580151916E-003;
2.422500000000000E+009;1.493336111307144E-001;-9.221160411834717E-002;1.316285575740039E-003;1.249180524609983E-003;
2.422666666666667E+009;1.490852832794190E-001;-9.405463188886643E-002;1.448645372875035E-003;1.190483686514199E-003;
2.422833333333334E+009;1.491705626249313E-001;-9.569927304983139E-002;1.658314955420792E-003;1.217925571836531E-003;
2.423000000000000E+009;1.495036631822586E-001;-9.741527587175369E-002;1.702044159173966E-003;1.326513825915754E-003;
2.423166666666667E+009;1.497364640235901E-001;-9.907702356576920E-002;1.854574773460627E-003;1.229942310601473E-003;
2.423333333333334E+009;1.498626023530960E-001;-1.005867794156075E-001;1.711471239104867E-003;1.056190230883658E-003;
2.423500000000000E+009;1.500773429870606E-001;-1.021785885095596E-001;1.820482662878931E-003;1.150782918557525E-003;
2.423666666666667E+009;1.503303349018097E-001;-1.038088575005531E-001;2.005586400628090E-003;1.077797380276024E-003;
2.423833333333334E+009;1.508850753307343E-001;-1.053126007318497E-001;2.236485248431563E-003;1.133950427174568E-003;
2.424000000000000E+009;1.512399166822434E-001;-1.065119132399559E-001;2.166676567867398E-003;1.100592897273600E-003;
2.424166666666667E+009;1.515736281871796E-001;-1.078930646181107E-001;2.372042741626501E-003;9.244640823453665E-004;
2.424333333333334E+009;1.522643715143204E-001;-1.090830191969872E-001;2.397903241217136E-003;9.021252044476569E-004;
2.424500000000000E+009;1.527786552906036E-001;-1.103854924440384E-001;2.460418269038200E-003;6.813743384554982E-004;
2.424666666666667E+009;1.533287018537521E-001;-1.112436801195145E-001;2.751005347818136E-003;6.123479106463492E-004;
2.424833333333334E+009;1.535471230745316E-001;-1.124430522322655E-001;2.561654662713409E-003;5.572237423621118E-004;
2.425000000000000E+009;1.541381776332855E-001;-1.132163181900978E-001;2.796505345031619E-003;5.095837987028062E-004;
2.425166666666667E+009;1.544356197118759E-001;-1.143135353922844E-001;2.733611967414618E-003;2.804791147354990E-004;
2.425333333333334E+009;1.549182832241058E-001;-1.150099337100983E-001;2.872986253350973E-003;1.625823788344860E-004;
2.425500000000000E+009;1.553152352571487E-001;-1.158981099724770E-001;2.983534242957830E-003;2.249393583042547E-004;
2.425666666666667E+009;1.554991602897644E-001;-1.163849011063576E-001;2.889895811676979E-003;-3.970040052081458E-005;
2.425833333333334E+009;1.557163894176483E-001;-1.170281916856766E-001;3.175661666318774E-003;-8.182356395991519E-005;
2.426000000000000E+009;1.559385955333710E-001;-1.174925044178963E-001;3.100768662989140E-003;-2.742496435530484E-004;
2.426166666666667E+009;1.564105451107025E-001;-1.179313957691193E-001;3.098300192505121E-003;-3.067891520913690E-004;
2.426333333333334E+009;1.562077254056931E-001;-1.182921603322029E-001;3.036199137568474E-003;-5.888804444111884E-004;
2.426500000000000E+009;1.564040184020996E-001;-1.185831278562546E-001;3.044510260224342E-003;-5.884918500669301E-004;
2.426666666666667E+009;1.565099656581879E-001;-1.186739727854729E-001;3.032171865925193E-003;-7.851597620174289E-004;
2.426833333333334E+009;1.561416685581207E-001;-1.189609766006470E-001;3.194320714101195E-003;-9.602378704585135E-004;
2.427000000000000E+009;1.559102982282639E-001;-1.192088276147842E-001;3.206447465345264E-003;-1.169280498288572E-003;
2.427166666666667E+009;1.554984599351883E-001;-1.191716119647026E-001;3.030567895621061E-003;-1.192172640003264E-003;
2.427333333333334E+009;1.550886034965515E-001;-1.193281263113022E-001;3.168785478919745E-003;-1.142922323197126E-003;
2.427500000000000E+009;1.546657085418701E-001;-1.195676401257515E-001;2.931171562522650E-003;-1.320487936027348E-003;
2.427666666666667E+009;1.539784669876099E-001;-1.196389868855476E-001;2.986375009641051E-003;-1.551247667521238E-003;
2.427833333333334E+009;1.531966626644135E-001;-1.196491792798042E-001;2.975052455440164E-003;-1.783891930244863E-003;
