# Version 1.00
#
freq[Hz];re:Trc1_S11;im:Trc1_S11;re:Trc2_S21;im:Trc2_S21;
2.400000000000000E+009;1.584816575050354E-001;6.277776509523392E-002;-3.990256227552891E-003;3.755598736461252E-004;
2.400166666666667E+009;1.582853049039841E-001;6.133659929037094E-002;-3.859335556626320E-003;6.794853834435344E-004;
2.400333333333334E+009;1.580312997102737E-001;5.943460017442703E-002;-3.911533392965794E-003;5.783814121969044E-004;
2.400500000000000E+009;1.579608172178268E-001;5.770024657249451E-002;-3.955923486500979E-003;6.325072608888149E-004;
2.400666666666667E+009;1.578390598297119E-001;5.548041686415672E-002;-3.882953897118568E-003;9.145077783614397E-004;
2.400833333333334E+009;1.580145508050919E-001;5.358222872018814E-002;-3.704217961058021E-003;9.261802188120782E-004;
2.401000000000000E+009;1.578903198242188E-001;5.166469141840935E-002;-3.733883146196604E-003;1.040636911056936E-003;
2.401166666666667E+009;1.580696105957031E-001;4.947661235928536E-002;-3.701904322952032E-003;1.091671758331358E-003;
2.401333333333334E+009;1.582403630018234E-001;4.745455458760262E-002;-3.687022486701608E-003;1.228048815391958E-003;
2.401500000000000E+009;1.583713889122009E-001;4.546110704541206E-002;-3.707551863044500E-003;1.283861463889480E-003;
2.401666666666667E+009;1.586987078189850E-001;4.352046176791191E-002;-3.610012121498585E-003;1.507690991275013E-003;
2.401833333333334E+009;1.590106785297394E-001;4.130665212869644E-002;-3.682703245431185E-003;1.532223890535533E-003;
2.402000000000000E+009;1.593447476625443E-001;3.928302973508835E-002;-3.565500490367413E-003;1.722403103485704E-003;
2.402166666666667E+009;1.598169803619385E-001;3.731136396527290E-002;-3.448734292760491E-003;1.953220460563898E-003;
2.402333333333334E+009;1.603317558765411E-001;3.530606627464294E-002;-3.282192163169384E-003;2.035034121945500E-003;
2.402500000000000E+009;1.610691398382187E-001;3.357503563165665E-002;-3.219816600903869E-003;2.085543936118484E-003;
2.402666666666667E+009;1.616405993700028E-001;3.185001388192177E-002;-3.217622870579362E-003;2.166141523048282E-003;
2.402833333333334E+009;1.624700576066971E-001;3.011718578636646E-002;-3.094872925430536E-003;2.381672151386738E-003;
2.403000000000000E+009;1.634134501218796E-001;2.835754491388798E-002;-3.085477510467172E-003;2.439201110973954E-003;
2.403166666666667E+009;1.641501784324646E-001;2.671065740287304E-002;-2.977392636239529E-003;2.503648400306702E-003;
2.403333333333334E+009;1.648790985345841E-001;2.541313506662846E-002;-2.751218387857080E-003;2.658873097971082E-003;
2.403500000000000E+009;1.657637059688568E-001;2.368415892124176E-002;-2.691151807084680E-003;2.707656705752015E-003;
2.403666666666667E+009;1.666900813579559E-001;2.218954637646675E-002;-2.642648061737418E-003;2.934696385636926E-003;
2.403833333333334E+009;1.679316461086273E-001;2.107299305498600E-002;-2.686110557988286E-003;3.013533074408770E-003;
2.404000000000000E+009;1.689150035381317E-001;1.984341628849506E-002;-2.333180513232946E-003;3.159840358421207E-003;
2.404166666666667E+009;1.698012501001358E-001;1.853769831359386E-002;-2.182344906032085E-003;3.181296633556485E-003;
2.404333333333334E+009;1.708164960145950E-001;1.749264635145664E-002;-2.168815582990646E-003;3.186921123415232E-003;
2.404500000000000E+009;1.716281622648239E-001;1.646116375923157E-002;-1.860029995441437E-003;3.332111984491348E-003;
2.404666666666667E+009;1.727086156606674E-001;1.560085546225309E-002;-1.592597807757556E-003;3.403838025406003E-003;
2.404833333333334E+009;1.735065728425980E-001;1.476680487394333E-002;-1.545346574857831E-003;3.431693650782108E-003;
2.405000000000000E+009;1.745385825634003E-001;1.393957715481520E-002;-1.333278138190508E-003;3.589473431929946E-003;
2.405166666666667E+009;1.755840778350830E-001;1.326190028339624E-002;-1.244340557605028E-003;3.541707759723067E-003;
2.405333333333334E+009;1.763906776905060E-001;1.259510125964880E-002;-9.095272398553789E-004;3.503208747133613E-003;
2.405500000000000E+009;1.771838963031769E-001;1.217683497816324E-002;-1.004086458124220E-003;3.728667506948113E-003;
2.405666666666667E+009;1.777483373880386E-001;1.156313810497522E-002;-8.051491458900273E-004;3.539881668984890E-003;
2.405833333333334E+009;1.783614307641983E-001;1.127006299793720E-002;-5.421413225121796E-004;3.608316415920854E-003;
2.406000000000000E+009;1.789889335632324E-001;1.073794066905975E-002;-3.037705319002271E-004;3.731842851266265E-003;
2.406166666666667E+009;1.793613433837891E-001;1.049695722758770E-002;-2.297443716088310E-004;3.600436961278319E-003;
2.406333333333334E+009;1.800516247749329E-001;1.022323966026306E-002;-6.373700307449326E-005;3.417749190703034E-003;
2.406500000000000E+009;1.803611516952515E-001;9.732834063470364E-003;1.907395344460383E-004;3.465960035100579E-003;
2.406666666666667E+009;1.803610920906067E-001;9.453807957470417E-003;2.245844225399196E-004;3.330302657559514E-003;
2.406833333333334E+009;1.808158606290817E-001;9.206227026879787E-003;4.650625924114138E-004;3.422601381316781E-003;
2.407000000000000E+009;1.810717880725861E-001;8.865913376212120E-003;7.537363562732935E-004;3.239445155486465E-003;
2.407166666666667E+009;1.810868382453919E-001;8.614883758127689E-003;7.970609585754573E-004;3.058001631870866E-003;
2.407333333333334E+009;1.808823347091675E-001;7.999504916369915E-003;8.650221279822290E-004;3.043339820578694E-003;
2.407500000000000E+009;1.809290796518326E-001;7.681954652070999E-003;9.282414685003460E-004;3.098912304267287E-003;
2.407666666666667E+009;1.806793212890625E-001;7.325940299779177E-003;1.175372744910419E-003;2.829563571140170E-003;
2.407833333333334E+009;1.803422272205353E-001;6.773630622774363E-003;1.225821091793478E-003;2.738459501415491E-003;
2.408000000000000E+009;1.799398809671402E-001;6.117970682680607E-003;1.156804733909667E-003;2.479154150933027E-003;
2.408166666666667E+009;1.796429306268692E-001;5.673099309206009E-003;1.267070067115128E-003;2.374729607254267E-003;
2.408333333333334E+009;1.792380958795548E-001;4.902099724858999E-003;1.365393982268870E-003;2.382271923124790E-003;
2.408500000000000E+009;1.786593347787857E-001;4.218940623104572E-003;1.571052824147046E-003;2.095815492793918E-003;
2.408666666666667E+009;1.781020164489746E-001;3.181559965014458E-003;1.478563295677304E-003;1.984738744795322E-003;
2.408833333333334E+009;1.773708164691925E-001;2.310197800397873E-003;1.618562848307192E-003;1.773908734321594E-003;
2.409000000000000E+009;1.766019314527512E-001;1.287043211050332E-003;1.579627976752818E-003;1.873643253929913E-003;
2.409166666666667E+009;1.760277450084686E-001;2.472358464729041E-004;1.602048054337502E-003;1.802953542210162E-003;
2.409333333333334E+009;1.753499209880829E-001;-9.632805013097823E-004;1.501998864114285E-003;1.503341016359627E-003;
2.409500000000000E+009;1.745627522468567E-001;-2.217483241111040E-003;1.465024310164154E-003;1.394600840285420E-003;
2.409666666666667E+009;1.737469434738159E-001;-3.519429825246334E-003;1.461627660319209E-003;1.520411926321685E-003;
2.409833333333334E+009;1.730348169803619E-001;-4.746164195239544E-003;1.586183090694249E-003;1.392868696711958E-003;
2.410000000000000E+009;1.724775284528732E-001;-6.222770549356937E-003;1.554604736156762E-003;1.304821576923132E-003;
2.410166666666667E+009;1.718781739473343E-001;-7.787890266627073E-003;1.502579543739557E-003;1.238031778484583E-003;
2.410333333333334E+009;1.711337864398956E-001;-9.419392794370651E-003;1.298829098232091E-003;1.003924757242203E-003;
2.410500000000000E+009;1.706864088773727E-001;-1.110996119678021E-002;1.388797769322991E-003;1.010901527479291E-003;
2.410666666666667E+009;1.700956672430039E-001;-1.292315218597651E-002;1.408520387485623E-003;9.367151651531458E-004;
2.410833333333334E+009;1.696779578924179E-001;-1.449436880648136E-002;1.321402727626264E-003;8.530337945558131E-004;
2.411000000000000E+009;1.691044718027115E-001;-1.620251312851906E-002;1.351887010969222E-003;7.631973712705076E-004;
2.411166666666667E+009;1.687255352735519E-001;-1.819425262510777E-002;1.085098483599722E-003;9.634938323870301E-004;
2.411333333333334E+009;1.684944182634354E-001;-2.012304402887821E-002;1.293166773393750E-003;7.079213974066079E-004;
2.411500000000000E+009;1.681684255599976E-001;-2.210139110684395E-002;1.240380574017763E-003;7.365485653281212E-004;
2.411666666666667E+009;1.681663095951080E-001;-2.404598146677017E-002;1.141921384260058E-003;7.169988239184022E-004;
2.411833333333334E+009;1.679915636777878E-001;-2.599708177149296E-002;1.258305972442031E-003;5.880653043277562E-004;
2.412000000000000E+009;1.681111752986908E-001;-2.793225832283497E-002;1.239019562490284E-003;5.350172868929803E-004;
2.412166666666667E+009;1.679834574460983E-001;-2.999205328524113E-002;1.138794119469822E-003;5.678778979927301E-004;
2.412333333333334E+009;1.683587133884430E-001;-3.171518445014954E-002;1.185800996609032E-003;5.433483165688813E-004;
2.412500000000000E+009;1.683384776115418E-001;-3.360683843493462E-002;1.098337350413203E-003;5.373331950977445E-004;
2.412666666666667E+009;1.686757355928421E-001;-3.561875224113464E-002;1.067403936758637E-003;4.703841404989362E-004;
2.412833333333334E+009;1.691513806581497E-001;-3.742735460400581E-002;1.077824039384723E-003;4.244153678882867E-004;
2.413000000000000E+009;1.694057136774063E-001;-3.923411667346954E-002;9.636770118959248E-004;4.088085843250155E-004;
2.413166666666667E+009;1.698291450738907E-001;-4.106014594435692E-002;7.911812863312662E-004;4.060917417518795E-004;
2.413333333333334E+009;1.699994206428528E-001;-4.276175424456596E-002;1.028996892273426E-003;4.436966555658728E-004;
2.413500000000000E+009;1.706625819206238E-001;-4.445827752351761E-002;7.330205990001559E-004;3.025794285349548E-004;
2.413666666666667E+009;1.712926179170609E-001;-4.605542495846748E-002;7.471755961887538E-004;3.037025453522801E-004;
2.413833333333334E+009;1.716304719448090E-001;-4.740170389413834E-002;9.075892739929259E-004;3.129700489807874E-004;
2.414000000000000E+009;1.721042245626450E-001;-4.899263754487038E-002;7.292054942809045E-004;4.644541768357158E-004;
2.414166666666667E+009;1.728695780038834E-001;-5.050956457853317E-002;7.305090548470616E-004;2.667758089955896E-004;
2.414333333333334E+009;1.731115430593491E-001;-5.168175324797630E-002;7.135699270293117E-004;2.903048589359969E-004;
2.414500000000000E+009;1.740242391824722E-001;-5.278918147087097E-002;7.305624312721193E-004;3.664859686978161E-004;
2.414666666666667E+009;1.743919551372528E-001;-5.380636081099510E-002;6.435777759179473E-004;2.467990852892399E-004;
2.414833333333334E+009;1.749503016471863E-001;-5.489763990044594E-002;5.799428327009082E-004;4.802306066267192E-004;
2.415000000000000E+009;1.752878278493881E-001;-5.584410205483437E-002;6.295844796113670E-004;3.655935579445213E-004;
2.415166666666667E+009;1.759094446897507E-001;-5.653200298547745E-002;7.123870309442282E-004;2.595818077679724E-004;
2.415333333333334E+009;1.763021200895309E-001;-5.742589384317398E-002;6.539507303386927E-004;2.624988846946508E-004;
2.415500000000000E+009;1.766630858182907E-001;-5.794530734419823E-002;5.684407078661025E-004;4.166646103840321E-004;
2.415666666666667E+009;1.768605113029480E-001;-5.865207314491272E-002;6.415514508262277E-004;2.781510702334344E-004;
2.415833333333334E+009;1.773522645235062E-001;-5.914103984832764E-002;4.989398294128478E-004;2.199652954004705E-004;
2.416000000000000E+009;1.772116869688034E-001;-5.958203971385956E-002;5.506520974449813E-004;3.518448502290994E-004;
2.416166666666667E+009;1.775903850793839E-001;-5.998546257615089E-002;4.574276681523770E-004;3.643729432951659E-004;
2.416333333333334E+009;1.775541156530380E-001;-6.036271154880524E-002;4.468826518859714E-004;5.027847946621478E-004;
2.416500000000000E+009;1.774780303239822E-001;-6.066559255123138E-002;4.719697462860495E-004;2.605366171337664E-004;
2.416666666666667E+009;1.773006319999695E-001;-6.086158379912376E-002;4.219034744892269E-004;4.230298218317330E-004;
2.416833333333334E+009;1.771740913391113E-001;-6.129610538482666E-002;3.860758442897350E-004;3.664834366645664E-004;
2.417000000000000E+009;1.767822206020355E-001;-6.160753965377808E-002;3.825812309514731E-004;4.827928205486387E-004;
2.417166666666667E+009;1.763544231653214E-001;-6.166027113795281E-002;3.985649964306504E-004;5.064763827249408E-004;
2.417333333333334E+009;1.758072525262833E-001;-6.170186772942543E-002;3.421125002205372E-004;3.259030054323375E-004;
2.417500000000000E+009;1.751979589462280E-001;-6.223372742533684E-002;3.930010425392538E-004;6.067050853744149E-004;
2.417666666666667E+009;1.746223270893097E-001;-6.226731836795807E-002;4.196657973807305E-004;5.646275239996612E-004;
2.417833333333334E+009;1.738783568143845E-001;-6.260783970355988E-002;6.264961557462812E-004;4.557170614134520E-004;
2.418000000000000E+009;1.730225086212158E-001;-6.299604475498200E-002;5.451763281598687E-004;5.114012164995074E-004;
2.418166666666667E+009;1.720536053180695E-001;-6.311254948377609E-002;4.510749131441116E-004;5.692919366993010E-004;
2.418333333333334E+009;1.713953465223312E-001;-6.360656023025513E-002;4.351716779638082E-004;4.544732219073921E-004;
2.418500000000000E+009;1.702745705842972E-001;-6.385638564825058E-002;5.516695673577488E-004;6.425986066460609E-004;
2.418666666666667E+009;1.692536771297455E-001;-6.449121236801148E-002;4.334823461249471E-004;5.021575489081442E-004;
2.418833333333334E+009;1.680129021406174E-001;-6.493427604436874E-002;4.497178888414055E-004;7.071055006235838E-004;
2.419000000000000E+009;1.668357253074646E-001;-6.544110924005508E-002;3.436345141381025E-004;6.469613872468472E-004;
2.419166666666667E+009;1.656623482704163E-001;-6.614698469638825E-002;6.102198967710137E-004;6.915319245308638E-004;
2.419333333333334E+009;1.643628180027008E-001;-6.661800295114517E-002;5.070904153399169E-004;7.766479975543916E-004;
2.419500000000000E+009;1.633363813161850E-001;-6.750539690256119E-002;4.295179969631136E-004;7.593826740048826E-004;
2.419666666666667E+009;1.620566993951798E-001;-6.849791854619980E-002;6.092836847528815E-004;7.777371210977435E-004;
2.419833333333334E+009;1.607911735773087E-001;-6.926506757736206E-002;4.445237282197923E-004;7.843365892767906E-004;
2.420000000000000E+009;1.597208380699158E-001;-7.030964642763138E-002;4.537606437224895E-004;8.303461363539100E-004;
2.420166666666667E+009;1.585374623537064E-001;-7.138022780418396E-002;6.014583632349968E-004;8.286749944090843E-004;
2.420333333333334E+009;1.575006246566773E-001;-7.254648208618164E-002;4.928194684907794E-004;9.133641724474728E-004;
2.420500000000000E+009;1.564850658178330E-001;-7.359742373228073E-002;4.728605563286692E-004;9.568676468916237E-004;
2.420666666666667E+009;1.553760915994644E-001;-7.484729588031769E-002;7.036408060230315E-004;9.943874320015311E-004;
2.420833333333334E+009;1.545655131340027E-001;-7.637643814086914E-002;7.596465875394642E-004;9.141587070189416E-004;
2.421000000000000E+009;1.534863859415054E-001;-7.777737826108933E-002;6.361379055306315E-004;1.070301281288266E-003;
2.421166666666667E+009;1.528503000736237E-001;-7.917829602956772E-002;9.310426539741457E-004;1.132844830863178E-003;
2.421333333333334E+009;1.521654576063156E-001;-8.082965016365051E-002;8.081338019110262E-004;1.275499467737973E-003;
2.421500000000000E+009;1.513416171073914E-001;-8.226840943098068E-002;1.068100100383163E-003;1.154030207544565E-003;
2.421666666666667E+009;1.508940160274506E-001;-8.395572751760483E-002;9.760313550941646E-004;1.117897569201887E-003;
2.421833333333334E+009;1.504705399274826E-001;-8.550931513309479E-002;1.010943902656436E-003;1.232874114066362E-003;
2.422000000000000E+009;1.499530822038651E-001;-8.713120967149735E-002;1.070747734047473E-003;1.249052351340652E-003;
2.422166666666667E+009;1.497047692537308E-001;-8.906497806310654E-002;1.168720074929297E-003;1.190686482004821E-003;
2.422333333333334E+009;1.494287550449371E-001;-9.063684195280075E-002;1.268847263418138E-003;1.268914435058832E-003;
2.422500000000000E+009;1.492450386285782E-001;-9.209015965461731E-002;1.366349635645747E-003;1.319590723142028E-003;
2.422666666666667E+009;1.491140276193619E-001;-9.391832351684570E-002;1.500903395935893E-003;1.317476388067007E-003;
2.422833333333334E+009;1.492725908756256E-001;-9.585182368755341E-002;1.469907700084150E-003;1.030718442052603E-003;
2.423000000000000E+009;1.494038701057434E-001;-9.732278436422348E-002;1.630385871976614E-003;1.357112079858780E-003;
2.423166666666667E+009;1.497172713279724E-001;-9.920637309551239E-002;1.725910115055740E-003;1.271563698537648E-003;
2.423333333333334E+009;1.500612348318100E-001;-1.004165709018707E-001;1.746553694829345E-003;1.200484810397029E-003;
2.423500000000000E+009;1.501204818487167E-001;-1.020841598510742E-001;2.048638183623552E-003;1.140274107456207E-003;
2.423666666666667E+009;1.504113525152206E-001;-1.038260683417320E-001;1.979599241167307E-003;9.768935851752758E-004;
2.423833333333334E+009;1.509024500846863E-001;-1.053495779633522E-001;2.094564493745565E-003;1.009452389553189E-003;
2.424000000000000E+009;1.511878371238709E-001;-1.066215783357620E-001;2.140242373570800E-003;9.006685577332974E-004;
2.424166666666667E+009;1.516669839620590E-001;-1.079976782202721E-001;2.282010391354561E-003;9.726217249408364E-004;
2.424333333333334E+009;1.522176861763001E-001;-1.092307791113854E-001;2.268859185278416E-003;8.321841014549136E-004;
2.424500000000000E+009;1.526032388210297E-001;-1.103719472885132E-001;2.478266833350062E-003;7.560512749478221E-004;
2.424666666666667E+009;1.533488184213638E-001;-1.113243997097015E-001;2.602955559268594E-003;6.390302442014217E-004;
2.424833333333334E+009;1.536371260881424E-001;-1.125064566731453E-001;2.646301174536347E-003;7.166267023421824E-004;
2.425000000000000E+009;1.541534513235092E-001;-1.134526059031487E-001;2.613793360069394E-003;6.022184970788658E-004;
2.425166666666667E+009;1.543152928352356E-001;-1.143581643700600E-001;2.648570807650685E-003;5.206962232477963E-004;
2.425333333333334E+009;1.549113839864731E-001;-1.151142269372940E-001;2.764713950455189E-003;2.268538373755291E-004;
2.425500000000000E+009;1.553858816623688E-001;-1.159206628799439E-001;2.772269537672401E-003;2.552756923250854E-004;
2.425666666666667E+009;1.554494649171829E-001;-1.164629012346268E-001;2.891568932682276E-003;1.513426977908239E-004;
2.425833333333334E+009;1.558889597654343E-001;-1.170674338936806E-001;3.072032239288092E-003;-7.567224383819848E-005;
2.426000000000000E+009;1.559579372406006E-001;-1.177033036947250E-001;3.004012396559119E-003;-1.560110249556601E-004;
2.426166666666667E+009;1.563419252634049E-001;-1.180246546864510E-001;3.018959192559123E-003;-3.040970768779516E-004;
2.426333333333334E+009;1.563331633806229E-001;-1.183973997831345E-001;3.079316811636090E-003;-5.354512832127512E-004;
2.426500000000000E+009;1.563716977834702E-001;-1.186153963208199E-001;3.115679137408733E-003;-6.073342519812286E-004;
2.426666666666667E+009;1.563887894153595E-001;-1.187399998307228E-001;3.089615376666188E-003;-6.962638581171632E-004;
2.426833333333334E+009;1.561878770589829E-001;-1.189408302307129E-001;3.122754162177444E-003;-9.153223363682628E-004;
2.427000000000000E+009;1.558815389871597E-001;-1.192069500684738E-001;3.044843673706055E-003;-8.820320945233107E-004;
2.427166666666667E+009;1.555679887533188E-001;-1.192464604973793E-001;2.990186680108309E-003;-1.141271903179586E-003;
2.427333333333334E+009;1.550496667623520E-001;-1.193919628858566E-001;3.072356339544058E-003;-1.348715857602656E-003;
2.427500000000000E+009;1.547008007764816E-001;-1.194493323564529E-001;2.887829206883907E-003;-1.363016664981842E-003;
2.427666666666667E+009;1.540407538414002E-001;-1.196851059794426E-001;3.025490092113614E-003;-1.545223640277982E-003;
2.427833333333334E+009;1.531140208244324E-001;-1.197403222322464E-001;2.838176442310214E-003;-1.578736118972302E-003;
