# Version 1.00
#
freq[Hz];re:Trc1_S11;im:Trc1_S11;re:Trc2_S21;im:Trc2_S21;
2.400000000000000E+009;1.584443598985672E-001;6.282252818346024E-002;-4.008688498288393E-003;3.270460874773562E-004;
2.400166666666667E+009;1.581615358591080E-001;6.129469722509384E-002;-4.091718234121800E-003;4.506037803366780E-004;
2.400333333333334E+009;1.580164432525635E-001;5.948273092508316E-002;-3.941401373594999E-003;6.068015936762095E-004;
2.400500000000000E+009;1.579314321279526E-001;5.741143971681595E-002;-3.813474206253886E-003;6.411508657038212E-004;
2.400666666666667E+009;1.578387171030045E-001;5.551707744598389E-002;-3.951839637011290E-003;8.405030239373446E-004;
2.400833333333334E+009;1.577555686235428E-001;5.369858071208000E-002;-3.810396883636713E-003;8.446381543762982E-004;
2.401000000000000E+009;1.578872203826904E-001;5.166796594858170E-002;-3.893231973052025E-003;9.756938088685274E-004;
2.401166666666667E+009;1.579794138669968E-001;4.957441240549088E-002;-3.785424632951617E-003;1.063250470906496E-003;
2.401333333333334E+009;1.581511795520783E-001;4.747560992836952E-002;-3.734919708222151E-003;1.108734402805567E-003;
2.401500000000000E+009;1.584365963935852E-001;4.544208198785782E-002;-3.537118202075362E-003;1.298907212913036E-003;
2.401666666666667E+009;1.587785929441452E-001;4.345222935080528E-002;-3.720587585121393E-003;1.423356239683926E-003;
2.401833333333334E+009;1.590006798505783E-001;4.140695184469223E-002;-3.693185048177838E-003;1.644343370571733E-003;
2.402000000000000E+009;1.594489663839340E-001;3.931699693202972E-002;-3.552817273885012E-003;1.570518827065826E-003;
2.402166666666667E+009;1.599289923906326E-001;3.724057227373123E-002;-3.487562527880073E-003;1.672079903073609E-003;
2.402333333333334E+009;1.603328734636307E-001;3.535114973783493E-002;-3.600046038627625E-003;1.886361977085471E-003;
2.402500000000000E+009;1.611385494470596E-001;3.357615694403648E-002;-3.459017956629396E-003;2.055726712569594E-003;
2.402666666666667E+009;1.617434024810791E-001;3.194297477602959E-002;-3.209009533748031E-003;2.201481023803353E-003;
2.402833333333334E+009;1.622569859027863E-001;3.010288812220097E-002;-3.281550481915474E-003;2.237726235762239E-003;
2.403000000000000E+009;1.632766425609589E-001;2.838691882789135E-002;-3.241927828639746E-003;2.512644277885556E-003;
2.403166666666667E+009;1.642250269651413E-001;2.667304128408432E-002;-3.058977657929063E-003;2.468476304784417E-003;
2.403333333333334E+009;1.649971157312393E-001;2.541363239288330E-002;-2.887063659727573E-003;2.502025570720434E-003;
2.403500000000000E+009;1.657580137252808E-001;2.372264862060547E-002;-2.803944982588291E-003;2.855342347174883E-003;
2.403666666666667E+009;1.667548716068268E-001;2.236424945294857E-002;-2.909534145146608E-003;2.742466982454062E-003;
2.403833333333334E+009;1.677734106779099E-001;2.103520371019840E-002;-2.617025282233954E-003;2.965552266687155E-003;
2.404000000000000E+009;1.688500195741653E-001;1.991621591150761E-002;-2.317733829841018E-003;3.234401578083634E-003;
2.404166666666667E+009;1.697623431682587E-001;1.863713189959526E-002;-2.444167854264379E-003;3.284639911726117E-003;
2.404333333333334E+009;1.706761270761490E-001;1.755289547145367E-002;-2.165261888876557E-003;3.377593588083983E-003;
2.404500000000000E+009;1.715105623006821E-001;1.653692312538624E-002;-2.048383234068751E-003;3.390733851119876E-003;
2.404666666666667E+009;1.726079583168030E-001;1.565581373870373E-002;-1.816701260395348E-003;3.463886445388198E-003;
2.404833333333334E+009;1.735936999320984E-001;1.471499819308519E-002;-1.768707996234298E-003;3.537345677614212E-003;
2.405000000000000E+009;1.745820939540863E-001;1.393755059689283E-002;-1.456960104405880E-003;3.544573206454516E-003;
2.405166666666667E+009;1.755900233983994E-001;1.321808248758316E-002;-1.287158695049584E-003;3.529232228174806E-003;
2.405333333333334E+009;1.763797849416733E-001;1.261887792497873E-002;-1.234671799466014E-003;3.548595588654280E-003;
2.405500000000000E+009;1.770952492952347E-001;1.217990275472403E-002;-1.006159698590636E-003;3.679553279653192E-003;
2.405666666666667E+009;1.777476817369461E-001;1.177085377275944E-002;-8.384851971641183E-004;3.586204489693046E-003;
2.405833333333334E+009;1.782549768686295E-001;1.128314342349768E-002;-6.245474796742201E-004;3.694685641676188E-003;
2.406000000000000E+009;1.790617108345032E-001;1.070235576480627E-002;-5.379579961299896E-004;3.656583139672875E-003;
2.406166666666667E+009;1.794962137937546E-001;1.057223603129387E-002;-4.453002475202084E-004;3.708675503730774E-003;
2.406333333333334E+009;1.800542473793030E-001;1.018637046217918E-002;-1.194094656966627E-004;3.476347774267197E-003;
2.406500000000000E+009;1.804233491420746E-001;9.819335304200649E-003;1.663060684222728E-004;3.352268598973751E-003;
2.406666666666667E+009;1.806313991546631E-001;9.528422728180885E-003;2.683891216292977E-004;3.429098054766655E-003;
2.406833333333334E+009;1.808548569679260E-001;9.028431028127670E-003;2.595740079414100E-004;3.499521408230066E-003;
2.407000000000000E+009;1.810560226440430E-001;8.777793496847153E-003;4.792201216332614E-004;3.324665362015367E-003;
2.407166666666667E+009;1.811802387237549E-001;8.564024232327938E-003;6.952579715289176E-004;3.163824090734124E-003;
2.407333333333334E+009;1.810826659202576E-001;8.088672533631325E-003;6.703613908030093E-004;2.982310950756073E-003;
2.407500000000000E+009;1.809823065996170E-001;7.737975101917982E-003;9.458513814024627E-004;2.907025860622525E-003;
2.407666666666667E+009;1.807213276624680E-001;7.274462375789881E-003;9.520305902697146E-004;3.027584170922637E-003;
2.407833333333334E+009;1.802797317504883E-001;6.665673572570086E-003;1.081593567505479E-003;2.700729295611382E-003;
2.408000000000000E+009;1.800446212291718E-001;5.945096723735333E-003;1.088298973627389E-003;2.574334852397442E-003;
2.408166666666667E+009;1.796141564846039E-001;5.607079248875380E-003;1.301966258324683E-003;2.525257412344217E-003;
2.408333333333334E+009;1.792789399623871E-001;4.874294158071280E-003;1.160954940132797E-003;2.254647202789784E-003;
2.408500000000000E+009;1.786502003669739E-001;3.981499932706356E-003;1.397440209984779E-003;2.299576299265027E-003;
2.408666666666667E+009;1.780570745468140E-001;3.196526318788528E-003;1.376482658088207E-003;2.088464796543121E-003;
2.408833333333334E+009;1.773892790079117E-001;2.260182751342654E-003;1.421897904947400E-003;2.062280662357807E-003;
2.409000000000000E+009;1.766210943460465E-001;1.342545147053897E-003;1.424097223207355E-003;1.860351418145001E-003;
2.409166666666667E+009;1.760978996753693E-001;2.500056289136410E-004;1.491420553065836E-003;1.854291185736656E-003;
2.409333333333334E+009;1.753442436456680E-001;-9.852882940322161E-004;1.350805512629449E-003;1.623247284442186E-003;
2.409500000000000E+009;1.745515018701553E-001;-2.288469113409519E-003;1.365999458357692E-003;1.636549364775419E-003;
2.409666666666667E+009;1.739184409379959E-001;-3.551761386916041E-003;1.347050187177956E-003;1.562906196340919E-003;
2.409833333333334E+009;1.731735467910767E-001;-4.701090976595879E-003;1.406689407303929E-003;1.505594816990197E-003;
2.410000000000000E+009;1.725931912660599E-001;-6.243288982659578E-003;1.430275733582676E-003;1.221187878400087E-003;
2.410166666666667E+009;1.720007210969925E-001;-7.893118076026440E-003;1.375234802253544E-003;1.178512116894126E-003;
2.410333333333334E+009;1.712989658117294E-001;-9.386005811393261E-003;1.327140256762505E-003;1.364998868666589E-003;
2.410500000000000E+009;1.706706434488297E-001;-1.114561688154936E-002;1.264565740711987E-003;1.183674903586507E-003;
2.410666666666667E+009;1.700356006622315E-001;-1.299456879496574E-002;1.217566663399339E-003;1.122582238167524E-003;
2.410833333333334E+009;1.695896238088608E-001;-1.451816782355309E-002;1.302968594245613E-003;1.024980912916362E-003;
2.411000000000000E+009;1.691786497831345E-001;-1.654944568872452E-002;1.310121966525912E-003;9.563285275362432E-004;
2.411166666666667E+009;1.685888618230820E-001;-1.833967491984367E-002;1.219247817061842E-003;8.814424509182572E-004;
2.411333333333334E+009;1.683951169252396E-001;-2.007224783301354E-002;1.196995493955910E-003;9.034720133058727E-004;
2.411500000000000E+009;1.682402640581131E-001;-2.220016159117222E-002;1.276491326279938E-003;8.201011805795133E-004;
2.411666666666667E+009;1.682142317295075E-001;-2.413204498589039E-002;1.074271742254496E-003;8.526386809535325E-004;
2.411833333333334E+009;1.680887639522553E-001;-2.596502937376499E-002;1.142154447734356E-003;7.895664311945438E-004;
2.412000000000000E+009;1.681292802095413E-001;-2.799727953970432E-002;1.111950841732323E-003;7.179300882853568E-004;
2.412166666666667E+009;1.679680049419403E-001;-2.998125739395618E-002;1.180637977086008E-003;7.987128919921815E-004;
2.412333333333334E+009;1.682850122451782E-001;-3.168008849024773E-002;1.225284882821143E-003;6.413752562366426E-004;
2.412500000000000E+009;1.683774888515472E-001;-3.365606442093849E-002;1.040215720422566E-003;5.514048389159143E-004;
2.412666666666667E+009;1.688189804553986E-001;-3.567043319344521E-002;9.332547779195011E-004;5.075877998024225E-004;
2.412833333333334E+009;1.690767854452133E-001;-3.749467059969902E-002;9.060202864930034E-004;3.424250171519816E-004;
2.413000000000000E+009;1.692358702421188E-001;-3.925739973783493E-002;9.780718246474862E-004;5.926340818405151E-004;
2.413166666666667E+009;1.696442365646362E-001;-4.102719947695732E-002;9.505365160293877E-004;5.210026283748448E-004;
2.413333333333334E+009;1.702347844839096E-001;-4.274187982082367E-002;9.362940327264369E-004;5.466074799187481E-004;
2.413500000000000E+009;1.706655025482178E-001;-4.442466422915459E-002;9.913713438436389E-004;5.272199050523341E-004;
2.413666666666667E+009;1.713018417358398E-001;-4.615623503923416E-002;9.627284016460180E-004;4.303690511733294E-004;
2.413833333333334E+009;1.715896129608154E-001;-4.762509465217590E-002;7.882155478000641E-004;5.022903205826879E-004;
2.414000000000000E+009;1.721222400665283E-001;-4.898543283343315E-002;8.536048117093742E-004;4.484311211854219E-004;
2.414166666666667E+009;1.728012412786484E-001;-5.041918531060219E-002;7.866331143304706E-004;3.957551671192050E-004;
2.414333333333334E+009;1.733690351247788E-001;-5.174451321363449E-002;7.457690080627799E-004;3.157476894557476E-004;
2.414500000000000E+009;1.738881915807724E-001;-5.283888429403305E-002;7.933367742225528E-004;4.585354181472212E-004;
2.414666666666667E+009;1.743626594543457E-001;-5.376780778169632E-002;7.253282819874585E-004;3.687697753775865E-004;
2.414833333333334E+009;1.749063581228256E-001;-5.493339151144028E-002;7.166966097429395E-004;4.068630805704743E-004;
2.415000000000000E+009;1.753836125135422E-001;-5.567308142781258E-002;5.685570067726076E-004;3.719840606208891E-004;
2.415166666666667E+009;1.756003350019455E-001;-5.650099366903305E-002;6.858974811621010E-004;3.623304655775428E-004;
2.415333333333334E+009;1.763319969177246E-001;-5.745346471667290E-002;7.136828498914838E-004;3.102634218521416E-004;
2.415500000000000E+009;1.766145974397659E-001;-5.805924534797669E-002;6.791272317059338E-004;4.782774485647678E-004;
2.415666666666667E+009;1.769244819879532E-001;-5.847660452127457E-002;5.188343930058181E-004;4.285570466890931E-004;
2.415833333333334E+009;1.771806180477142E-001;-5.918855592608452E-002;4.725598846562207E-004;4.315002879593521E-004;
2.416000000000000E+009;1.771128475666046E-001;-5.964339151978493E-002;4.763054603245109E-004;3.124807262793183E-004;
2.416166666666667E+009;1.775116622447968E-001;-6.003826111555100E-002;5.683071212843061E-004;4.546492127701640E-004;
2.416333333333334E+009;1.774946302175522E-001;-6.026281416416168E-002;5.572246154770255E-004;4.147474537603557E-004;
2.416500000000000E+009;1.774695813655853E-001;-6.072674691677094E-002;6.771078915335238E-004;3.501584578771144E-004;
2.416666666666667E+009;1.772388666868210E-001;-6.093159690499306E-002;5.717264721170068E-004;3.456473641563207E-004;
2.416833333333334E+009;1.770844757556915E-001;-6.126997619867325E-002;5.550527712330222E-004;4.951868322677910E-004;
2.417000000000000E+009;1.765585690736771E-001;-6.141148507595062E-002;5.627818754874170E-004;5.258658202365041E-004;
2.417166666666667E+009;1.763319671154022E-001;-6.164089590311050E-002;6.134121213108301E-004;3.641034127213061E-004;
2.417333333333334E+009;1.757069528102875E-001;-6.180391088128090E-002;5.420406814664602E-004;5.238644080236554E-004;
2.417500000000000E+009;1.751850843429565E-001;-6.219672784209251E-002;4.071466391906142E-004;4.779683949891478E-004;
2.417666666666667E+009;1.745354980230331E-001;-6.225784868001938E-002;4.570699238684028E-004;4.167245933786035E-004;
2.417833333333334E+009;1.738491803407669E-001;-6.258274614810944E-002;4.724015889223665E-004;6.907373899593949E-004;
2.418000000000000E+009;1.728833317756653E-001;-6.296011805534363E-002;6.176870665512979E-004;5.736468010582030E-004;
2.418166666666667E+009;1.720694303512573E-001;-6.303156912326813E-002;4.048740956932306E-004;6.990412948653102E-004;
2.418333333333334E+009;1.713687926530838E-001;-6.360519677400589E-002;3.540215839166194E-004;6.340822437778115E-004;
2.418500000000000E+009;1.701290905475617E-001;-6.385196745395660E-002;4.110723966732621E-004;6.130644469521940E-004;
2.418666666666667E+009;1.692546010017395E-001;-6.432387232780457E-002;5.978748667985201E-004;6.650837021879852E-004;
2.418833333333334E+009;1.678864657878876E-001;-6.494382768869400E-002;5.142109002918005E-004;6.858286214992404E-004;
2.419000000000000E+009;1.666500419378281E-001;-6.543135643005371E-002;6.336293299682438E-004;7.233750075101852E-004;
2.419166666666667E+009;1.656168252229691E-001;-6.599009782075882E-002;5.620813462883234E-004;5.910434410907328E-004;
2.419333333333334E+009;1.643261611461639E-001;-6.654954701662064E-002;6.147234817035496E-004;8.773743174970150E-004;
2.419500000000000E+009;1.631977558135986E-001;-6.759195774793625E-002;5.449443706311286E-004;7.165241404436529E-004;
2.419666666666667E+009;1.619611978530884E-001;-6.853280961513519E-002;6.203135708346963E-004;7.941351504996419E-004;
2.419833333333334E+009;1.608268320560455E-001;-6.922999769449234E-002;5.543975858017802E-004;8.398738573305309E-004;
2.420000000000000E+009;1.597331613302231E-001;-7.031893730163574E-002;5.670973914675415E-004;9.317547664977610E-004;
2.420166666666667E+009;1.584934890270233E-001;-7.137209177017212E-002;6.027226336300373E-004;9.425280732102692E-004;
2.420333333333334E+009;1.575012654066086E-001;-7.262936979532242E-002;7.430647383444011E-004;9.837049292400479E-004;
2.420500000000000E+009;1.564831882715225E-001;-7.364506274461746E-002;6.227141711860895E-004;8.701788028702140E-004;
2.420666666666667E+009;1.553722620010376E-001;-7.481718063354492E-002;7.428751559928060E-004;9.915203554555774E-004;
2.420833333333334E+009;1.544419974088669E-001;-7.630572468042374E-002;7.563783437944949E-004;1.104151015169919E-003;
2.421000000000000E+009;1.536867171525955E-001;-7.774829119443893E-002;9.580710902810097E-004;1.039179274812341E-003;
2.421166666666667E+009;1.528236865997315E-001;-7.935039699077606E-002;8.635622216388583E-004;1.100762747228146E-003;
2.421333333333334E+009;1.523590236902237E-001;-8.080828189849854E-002;9.460012661293149E-004;1.062062801793218E-003;
2.421500000000000E+009;1.512907147407532E-001;-8.231230080127716E-002;9.713250910863280E-004;1.197806326672435E-003;
2.421666666666667E+009;1.508172750473023E-001;-8.373814076185226E-002;1.020933268591762E-003;1.142400666140020E-003;
2.421833333333334E+009;1.505172103643417E-001;-8.552947640419006E-002;1.196928904391825E-003;1.152799814008176E-003;
2.422000000000000E+009;1.499845236539841E-001;-8.707003295421600E-002;1.219901372678578E-003;1.220088684931397E-003;
2.422166666666667E+009;1.496559083461762E-001;-8.899090439081192E-002;1.182924024760723E-003;1.319548231549561E-003;
2.422333333333334E+009;1.495334208011627E-001;-9.065295010805130E-002;1.449357019737363E-003;1.287109102122486E-003;
2.422500000000000E+009;1.493344306945801E-001;-9.212537109851837E-002;1.295392168685794E-003;1.274335663765669E-003;
2.422666666666667E+009;1.491360813379288E-001;-9.385219216346741E-002;1.544057740829885E-003;1.188536756671965E-003;
2.422833333333334E+009;1.492973417043686E-001;-9.573408961296082E-002;1.744507462717593E-003;1.201240113005042E-003;
2.423000000000000E+009;1.495237648487091E-001;-9.742890298366547E-002;1.708149444311857E-003;1.087586977519095E-003;
2.423166666666667E+009;1.497334688901901E-001;-9.898258000612259E-002;1.746588386595249E-003;1.218014629557729E-003;
2.423333333333334E+009;1.500821858644486E-001;-1.005841270089150E-001;1.886192592792213E-003;1.197364297695458E-003;
2.423500000000000E+009;1.501549780368805E-001;-1.022335961461067E-001;2.028999850153923E-003;1.085312804207206E-003;
2.423666666666667E+009;1.504549533128738E-001;-1.037129163742065E-001;2.094014780595899E-003;9.698583162389696E-004;
2.423833333333334E+009;1.509913504123688E-001;-1.053375601768494E-001;2.108516870066524E-003;9.593256982043386E-004;
2.424000000000000E+009;1.512710601091385E-001;-1.065652370452881E-001;2.271119272336364E-003;8.081769919954240E-004;
2.424166666666667E+009;1.516336947679520E-001;-1.080066263675690E-001;2.403768943622708E-003;8.017609361559153E-004;
2.424333333333334E+009;1.522007435560226E-001;-1.091194599866867E-001;2.325456589460373E-003;7.182774133980274E-004;
2.424500000000000E+009;1.527181565761566E-001;-1.103201881051064E-001;2.532321959733963E-003;6.746417493559420E-004;
2.424666666666667E+009;1.532785743474960E-001;-1.114387884736061E-001;2.560076303780079E-003;5.986451869830489E-004;
2.424833333333334E+009;1.534685790538788E-001;-1.124599874019623E-001;2.447427716106176E-003;5.004216800443828E-004;
2.425000000000000E+009;1.541538089513779E-001;-1.134803295135498E-001;2.839609514921904E-003;4.153419286012650E-004;
2.425166666666667E+009;1.545001864433289E-001;-1.143085211515427E-001;2.702049678191543E-003;5.368904676288366E-004;
2.425333333333334E+009;1.549259275197983E-001;-1.150256618857384E-001;2.819807501509786E-003;3.165385860484093E-004;
2.425500000000000E+009;1.553404778242111E-001;-1.158204600214958E-001;2.896312158554792E-003;-3.507542487568571E-007;
2.425666666666667E+009;1.554930955171585E-001;-1.164999604225159E-001;2.835121471434832E-003;-9.849055641097948E-005;
2.425833333333334E+009;1.558513492345810E-001;-1.171162500977516E-001;2.949882531538606E-003;-2.255993749713525E-004;
2.426000000000000E+009;1.561048775911331E-001;-1.176479458808899E-001;2.969486871734262E-003;-2.589329669717699E-004;
2.426166666666667E+009;1.563292443752289E-001;-1.180057227611542E-001;3.038677154108882E-003;-3.197391924913973E-004;
2.426333333333334E+009;1.562792658805847E-001;-1.183228194713593E-001;3.005660371854901E-003;-5.275667062960565E-004;
2.426500000000000E+009;1.563827842473984E-001;-1.187663301825523E-001;3.090179525315762E-003;-6.308653973974288E-004;
2.426666666666667E+009;1.564636081457138E-001;-1.187161058187485E-001;3.097491804510355E-003;-8.765105740167201E-004;
2.426833333333334E+009;1.562236845493317E-001;-1.189852431416512E-001;3.114434657618403E-003;-9.467566269449890E-004;
2.427000000000000E+009;1.559231877326965E-001;-1.192632913589478E-001;2.977744909003377E-003;-1.146876486018300E-003;
2.427166666666667E+009;1.555632799863815E-001;-1.193494945764542E-001;2.965693594887853E-003;-1.393177430145443E-003;
2.427333333333334E+009;1.550428420305252E-001;-1.194012314081192E-001;3.089023986831307E-003;-1.424574758857489E-003;
2.427500000000000E+009;1.546755433082581E-001;-1.195460185408592E-001;2.930409740656614E-003;-1.439768006093800E-003;
2.427666666666667E+009;1.539665609598160E-001;-1.195908263325691E-001;2.956036711111665E-003;-1.553084235638380E-003;
2.427833333333334E+009;1.531686186790466E-001;-1.197240650653839E-001;2.973847091197968E-003;-1.687217503786087E-003;
