# Version 1.00
#
freq[Hz];re:Trc1_S11;im:Trc1_S11;re:Trc2_S21;im:Trc2_S21;
2.400000000000000E+009;1.585310548543930E-001;6.276880949735642E-002;-3.853430040180683E-003;3.830957284662873E-004;
2.400166666666667E+009;1.584193706512451E-001;6.129082292318344E-002;-3.896558191627264E-003;4.185871512163431E-004;
2.400333333333334E+009;1.580009460449219E-001;5.937251076102257E-002;-3.879470983520150E-003;7.104956894181669E-004;
2.400500000000000E+009;1.579522788524628E-001;5.760133266448975E-002;-3.891911823302507E-003;6.902072345837951E-004;
2.400666666666667E+009;1.578725129365921E-001;5.544381961226463E-002;-3.869447158649564E-003;7.469445699825883E-004;
2.400833333333334E+009;1.580058634281158E-001;5.363281071186066E-002;-3.791622119024396E-003;8.339398191310465E-004;
2.401000000000000E+009;1.579515933990479E-001;5.164999887347221E-002;-3.767152549698949E-003;9.620954515412450E-004;
2.401166666666667E+009;1.581354737281799E-001;4.946020245552063E-002;-3.589690662920475E-003;1.283420016989112E-003;
2.401333333333334E+009;1.581586301326752E-001;4.734914749860764E-002;-3.656453918665648E-003;1.178339123725891E-003;
2.401500000000000E+009;1.584756076335907E-001;4.534015432000160E-002;-3.633792512118816E-003;1.380606438033283E-003;
2.401666666666667E+009;1.586084663867950E-001;4.336881637573242E-002;-3.622156335040927E-003;1.352531719021499E-003;
2.401833333333334E+009;1.590308845043182E-001;4.144693911075592E-002;-3.476626472547650E-003;1.578580820932984E-003;
2.402000000000000E+009;1.592896878719330E-001;3.939206525683403E-002;-3.596612485125661E-003;1.655827974900603E-003;
2.402166666666667E+009;1.598658561706543E-001;3.744660690426827E-002;-3.560640616342425E-003;1.934196683578193E-003;
2.402333333333334E+009;1.603377014398575E-001;3.543224558234215E-002;-3.222876694053412E-003;1.967018935829401E-003;
2.402500000000000E+009;1.611209511756897E-001;3.361362963914871E-002;-3.325457684695721E-003;2.095883712172508E-003;
2.402666666666667E+009;1.616533249616623E-001;3.188171237707138E-002;-3.233758267015219E-003;2.278327476233244E-003;
2.402833333333334E+009;1.622685343027115E-001;3.025559522211552E-002;-3.101300913840532E-003;2.345626708120108E-003;
2.403000000000000E+009;1.633510887622833E-001;2.837972901761532E-002;-2.937455894425511E-003;2.334868069738150E-003;
2.403166666666667E+009;1.642061024904251E-001;2.693562023341656E-002;-3.043165896087885E-003;2.548900665715337E-003;
2.403333333333334E+009;1.649693250656128E-001;2.540236897766590E-002;-3.069177037104964E-003;2.734369365498424E-003;
2.403500000000000E+009;1.658951193094254E-001;2.389465086162090E-002;-2.825304167345166E-003;2.759923925623298E-003;
2.403666666666667E+009;1.667500585317612E-001;2.254460379481316E-002;-2.648586407303810E-003;2.789563965052366E-003;
2.403833333333334E+009;1.679502874612808E-001;2.105411700904369E-002;-2.479242626577616E-003;2.918984740972519E-003;
2.404000000000000E+009;1.688458621501923E-001;1.994346082210541E-002;-2.525831572711468E-003;3.062425181269646E-003;
2.404166666666667E+009;1.699144989252091E-001;1.864130795001984E-002;-2.286837436258793E-003;3.221238264814019E-003;
2.404333333333334E+009;1.710273325443268E-001;1.761525869369507E-002;-2.248183824121952E-003;3.201481187716126E-003;
2.404500000000000E+009;1.716574728488922E-001;1.646872982382774E-002;-1.958120847120881E-003;3.445356618613005E-003;
2.404666666666667E+009;1.728468835353851E-001;1.558290794491768E-002;-1.783036859706044E-003;3.319700714200735E-003;
2.404833333333334E+009;1.738606095314026E-001;1.489780843257904E-002;-1.625066390261054E-003;3.571881679818034E-003;
2.405000000000000E+009;1.747062504291534E-001;1.389269717037678E-002;-1.503852661699057E-003;3.564586862921715E-003;
2.405166666666667E+009;1.756505668163300E-001;1.330180838704109E-002;-1.362145412713289E-003;3.558694152161479E-003;
2.405333333333334E+009;1.764151751995087E-001;1.263279095292091E-002;-1.165713299997151E-003;3.680956084281206E-003;
2.405500000000000E+009;1.773434281349182E-001;1.220422051846981E-002;-9.507210925221443E-004;3.506403416395187E-003;
2.405666666666667E+009;1.779475510120392E-001;1.159471739083529E-002;-6.797580863349140E-004;3.812246024608612E-003;
2.405833333333334E+009;1.784501820802689E-001;1.120867487043142E-002;-6.958344019949436E-004;3.684464842081070E-003;
2.406000000000000E+009;1.791977882385254E-001;1.078046485781670E-002;-5.034344503656030E-004;3.521270118653774E-003;
2.406166666666667E+009;1.794889569282532E-001;1.055437698960304E-002;-2.301503845956177E-004;3.693185513839126E-003;
2.406333333333334E+009;1.800970286130905E-001;1.013189833611250E-002;-1.958175926120020E-005;3.463358152657747E-003;
2.406500000000000E+009;1.804548054933548E-001;9.831869043409824E-003;2.498071698937565E-004;3.427977673709393E-003;
2.406666666666667E+009;1.805513948202133E-001;9.562199935317040E-003;4.348538932390511E-004;3.455413971096277E-003;
2.406833333333334E+009;1.809146106243134E-001;9.201313368976116E-003;5.608095088973641E-004;3.460187930613756E-003;
2.407000000000000E+009;1.810121983289719E-001;8.727690204977989E-003;5.464080604724586E-004;3.254247363656759E-003;
2.407166666666667E+009;1.811820864677429E-001;8.450399152934551E-003;8.553600637242198E-004;3.072761930525303E-003;
2.407333333333334E+009;1.808983981609345E-001;8.058835752308369E-003;9.064283221960068E-004;3.069134894758463E-003;
2.407500000000000E+009;1.808637380599976E-001;7.753205485641956E-003;9.270113077946007E-004;2.970613073557615E-003;
2.407666666666667E+009;1.806661784648895E-001;7.234309334307909E-003;1.107060234062374E-003;2.756194677203894E-003;
2.407833333333334E+009;1.802950650453568E-001;6.689706351608038E-003;1.176440971903503E-003;2.537971595302224E-003;
2.408000000000000E+009;1.799192577600479E-001;6.075152195990086E-003;1.210848684422672E-003;2.762545831501484E-003;
2.408166666666667E+009;1.796549707651138E-001;5.676739383488894E-003;1.234634197317064E-003;2.433792920783162E-003;
2.408333333333334E+009;1.791757494211197E-001;4.983659833669663E-003;1.326724188402295E-003;2.269804244861007E-003;
2.408500000000000E+009;1.786613911390305E-001;4.065807443112135E-003;1.279196818359196E-003;2.070342190563679E-003;
2.408666666666667E+009;1.779446303844452E-001;3.183397464454174E-003;1.392176724039018E-003;2.047033049166203E-003;
2.408833333333334E+009;1.772473305463791E-001;2.398411976173520E-003;1.454194076359272E-003;2.012202981859446E-003;
2.409000000000000E+009;1.767418235540390E-001;1.354941516183317E-003;1.322163152508438E-003;1.780199818313122E-003;
2.409166666666667E+009;1.760819256305695E-001;2.624294138513506E-004;1.467566005885601E-003;1.693995320238173E-003;
2.409333333333334E+009;1.754212230443955E-001;-7.833792478777468E-004;1.542648649774492E-003;1.511016977019608E-003;
2.409500000000000E+009;1.746561527252197E-001;-2.205664059147239E-003;1.473255222663283E-003;1.538112410344183E-003;
2.409666666666667E+009;1.738177239894867E-001;-3.342145588248968E-003;1.400776323862374E-003;1.410050317645073E-003;
2.409833333333334E+009;1.730542182922363E-001;-4.727753810584545E-003;1.373691484332085E-003;1.340700197033584E-003;
2.410000000000000E+009;1.725896298885346E-001;-6.212647072970867E-003;1.413902849890292E-003;1.170437433756888E-003;
2.410166666666667E+009;1.719841808080673E-001;-7.613726891577244E-003;1.356125692836940E-003;1.206380780786276E-003;
2.410333333333334E+009;1.711775064468384E-001;-9.340673685073853E-003;1.436343300156295E-003;1.054695341736078E-003;
2.410500000000000E+009;1.707446426153183E-001;-1.102968398481607E-002;1.356725115329027E-003;1.153399120084941E-003;
2.410666666666667E+009;1.699969023466110E-001;-1.281365193426609E-002;1.344064134173095E-003;1.045346376486123E-003;
2.410833333333334E+009;1.696269214153290E-001;-1.456343661993742E-002;1.241242047399283E-003;7.348685176111758E-004;
2.411000000000000E+009;1.692911386489868E-001;-1.624136790633202E-002;1.393027137964964E-003;8.937441161833704E-004;
2.411166666666667E+009;1.688442677259445E-001;-1.819271966814995E-002;1.384601113386452E-003;7.334432448260486E-004;
2.411333333333334E+009;1.684612035751343E-001;-2.001547254621983E-002;1.388002187013626E-003;8.285046787932515E-004;
2.411500000000000E+009;1.681566834449768E-001;-2.193535491824150E-002;1.227423665113747E-003;6.904330221004784E-004;
2.411666666666667E+009;1.681913733482361E-001;-2.404303848743439E-002;1.105346134863794E-003;7.623146520927548E-004;
2.411833333333334E+009;1.681281477212906E-001;-2.576180733740330E-002;1.253830967471004E-003;4.323491884861141E-004;
2.412000000000000E+009;1.680415421724320E-001;-2.779156714677811E-002;1.194673473946750E-003;6.137915188446641E-004;
2.412166666666667E+009;1.680729538202286E-001;-2.985066734254360E-002;1.111832447350025E-003;4.789782688021660E-004;
2.412333333333334E+009;1.683711409568787E-001;-3.176134452223778E-002;1.152116805315018E-003;6.087950314395130E-004;
2.412500000000000E+009;1.682764440774918E-001;-3.369701281189919E-002;9.696370689198375E-004;3.941621980629861E-004;
2.412666666666667E+009;1.686829179525375E-001;-3.555842861533165E-002;1.125056878663600E-003;5.032490589655936E-004;
2.412833333333334E+009;1.690734773874283E-001;-3.738938644528389E-002;1.029924955219030E-003;3.870046348311007E-004;
2.413000000000000E+009;1.692435592412949E-001;-3.918528929352760E-002;1.021961332298815E-003;3.621080832090229E-004;
2.413166666666667E+009;1.698743104934692E-001;-4.111326113343239E-002;8.250608807429671E-004;3.674156905617565E-004;
2.413333333333334E+009;1.701295077800751E-001;-4.278464242815971E-002;9.172792779281735E-004;3.240934456698597E-004;
2.413500000000000E+009;1.706015169620514E-001;-4.462169110774994E-002;7.556343334726989E-004;1.411494740750641E-004;
2.413666666666667E+009;1.712859570980072E-001;-4.621610790491104E-002;8.143880986608565E-004;3.235911135561764E-004;
2.413833333333334E+009;1.716163307428360E-001;-4.742470011115074E-002;8.199534495361149E-004;2.973389055114240E-004;
2.414000000000000E+009;1.721412539482117E-001;-4.913626983761787E-002;6.368576432578266E-004;4.479908093344420E-004;
2.414166666666667E+009;1.726943254470825E-001;-5.029447749257088E-002;7.176920189522207E-004;2.810489095281810E-004;
2.414333333333334E+009;1.732570379972458E-001;-5.170916765928268E-002;6.811726489104331E-004;3.269783337600529E-004;
2.414500000000000E+009;1.740458011627197E-001;-5.270630121231079E-002;6.838527042418718E-004;3.536675358191133E-004;
2.414666666666667E+009;1.744128316640854E-001;-5.377794802188873E-002;7.367237121798098E-004;2.021063846768811E-004;
2.414833333333334E+009;1.748796403408051E-001;-5.502196028828621E-002;7.587777799926698E-004;2.108897024299949E-004;
2.415000000000000E+009;1.753809899091721E-001;-5.576420202851296E-002;7.073574815876782E-004;3.171425196342170E-004;
2.415166666666667E+009;1.757998317480087E-001;-5.658011883497238E-002;4.852128331549466E-004;2.956459356937558E-004;
2.415333333333334E+009;1.764163374900818E-001;-5.751396715641022E-002;6.000743014737964E-004;3.523982013575733E-004;
2.415500000000000E+009;1.765858530998230E-001;-5.791899561882019E-002;5.892535555176437E-004;4.055812023580074E-004;
2.415666666666667E+009;1.769617050886154E-001;-5.851017311215401E-002;5.604603793472052E-004;2.218442095909268E-004;
2.415833333333334E+009;1.772615760564804E-001;-5.920632183551788E-002;5.454835481941700E-004;2.980389108415693E-004;
2.416000000000000E+009;1.771711558103561E-001;-5.961681157350540E-002;4.761293821502477E-004;2.541023131925613E-004;
2.416166666666667E+009;1.775664389133453E-001;-6.002796441316605E-002;5.462385597638786E-004;4.090986039955169E-004;
2.416333333333334E+009;1.774600446224213E-001;-6.025663763284683E-002;4.889305564574897E-004;3.250892623327673E-004;
2.416500000000000E+009;1.774870008230209E-001;-6.064451485872269E-002;5.245999200269580E-004;4.089048015885055E-004;
2.416666666666667E+009;1.773024499416351E-001;-6.077074632048607E-002;5.450676544569433E-004;4.685500753112137E-004;
2.416833333333334E+009;1.772215217351914E-001;-6.124126911163330E-002;4.415362200234085E-004;4.131106543354690E-004;
2.417000000000000E+009;1.766455471515656E-001;-6.156409904360771E-002;3.828342305496335E-004;4.543866962194443E-004;
2.417166666666667E+009;1.762418001890183E-001;-6.155403330922127E-002;5.087730824016035E-004;4.227769677527249E-004;
2.417333333333334E+009;1.758316755294800E-001;-6.181161105632782E-002;4.766315978486091E-004;3.730859898496419E-004;
2.417500000000000E+009;1.751297265291214E-001;-6.225273385643959E-002;3.847165498882532E-004;6.096202996559441E-004;
2.417666666666667E+009;1.747676581144333E-001;-6.220471486449242E-002;4.714649694506079E-004;3.305221325717866E-004;
2.417833333333334E+009;1.738638728857040E-001;-6.254450976848602E-002;4.703984595835209E-004;5.571571527980268E-004;
2.418000000000000E+009;1.729598939418793E-001;-6.303823739290237E-002;4.477365000639111E-004;6.494558183476329E-004;
2.418166666666667E+009;1.719854474067688E-001;-6.304888427257538E-002;5.008703446947038E-004;5.758220795542002E-004;
2.418333333333334E+009;1.713788807392120E-001;-6.353939324617386E-002;5.710186669602990E-004;5.110758938826621E-004;
2.418500000000000E+009;1.701829135417938E-001;-6.394849717617035E-002;5.284329527057707E-004;4.604135756380856E-004;
2.418666666666667E+009;1.691915243864059E-001;-6.435828655958176E-002;4.525462281890214E-004;6.495175766758621E-004;
2.418833333333334E+009;1.679956167936325E-001;-6.479015946388245E-002;5.994583480060101E-004;6.079031736589968E-004;
2.419000000000000E+009;1.668069213628769E-001;-6.543578207492828E-002;5.027160514146090E-004;5.273061688058078E-004;
2.419166666666667E+009;1.656136810779572E-001;-6.606034189462662E-002;5.114747327752411E-004;6.580717745237052E-004;
2.419333333333334E+009;1.644465327262878E-001;-6.646493822336197E-002;4.479110066313297E-004;6.707385182380676E-004;
2.419500000000000E+009;1.632000803947449E-001;-6.758721917867661E-002;4.980477970093489E-004;7.341424934566021E-004;
2.419666666666667E+009;1.621635854244232E-001;-6.847678124904633E-002;5.177014390937984E-004;5.243875202722848E-004;
2.419833333333334E+009;1.608503013849258E-001;-6.927607953548431E-002;6.329406169243157E-004;6.821454735472798E-004;
2.420000000000000E+009;1.598070710897446E-001;-7.042022794485092E-002;5.305247614160180E-004;7.060753996483982E-004;
2.420166666666667E+009;1.588253676891327E-001;-7.128534466028214E-002;5.721360212191939E-004;6.497989525087178E-004;
2.420333333333334E+009;1.576165109872818E-001;-7.260192185640335E-002;4.412973357830197E-004;6.744501879438758E-004;
2.420500000000000E+009;1.565573513507843E-001;-7.364995032548904E-002;5.195073899812996E-004;7.738876156508923E-004;
2.420666666666667E+009;1.553992778062820E-001;-7.485378533601761E-002;5.751961725763977E-004;9.534309501759708E-004;
2.420833333333334E+009;1.546959131956101E-001;-7.637189328670502E-002;6.435550167225301E-004;7.970329606905580E-004;
2.421000000000000E+009;1.536860615015030E-001;-7.775065302848816E-002;6.140086334198713E-004;9.305519633926451E-004;
2.421166666666667E+009;1.528755575418472E-001;-7.928621768951416E-002;7.016446907073259E-004;8.762741927057505E-004;
2.421333333333334E+009;1.523636877536774E-001;-8.085964620113373E-002;8.289531688205898E-004;9.971761610358954E-004;
2.421500000000000E+009;1.516555547714233E-001;-8.234104514122009E-002;8.997762924991548E-004;1.078498549759388E-003;
2.421666666666667E+009;1.508778333663940E-001;-8.405564725399017E-002;1.009444706141949E-003;1.108443597331643E-003;
2.421833333333334E+009;1.505478471517563E-001;-8.556855469942093E-002;9.282997343689203E-004;1.239182776771486E-003;
2.422000000000000E+009;1.499218642711639E-001;-8.732251077890396E-002;1.061220071278513E-003;1.143636996857822E-003;
2.422166666666667E+009;1.497616618871689E-001;-8.913260698318481E-002;1.269543659873307E-003;1.281375531107187E-003;
2.422333333333334E+009;1.494734287261963E-001;-9.065436571836472E-002;1.221350976265967E-003;1.248010084964335E-003;
2.422500000000000E+009;1.493304371833801E-001;-9.234076738357544E-002;1.200122293084860E-003;1.298218849115074E-003;
2.422666666666667E+009;1.492748707532883E-001;-9.419466555118561E-002;1.573680783621967E-003;1.156833255663514E-003;
2.422833333333334E+009;1.493090540170670E-001;-9.586495906114578E-002;1.460599829442799E-003;1.200435915961862E-003;
2.423000000000000E+009;1.492710560560226E-001;-9.742209315299988E-002;1.653095823712647E-003;1.243569771759212E-003;
2.423166666666667E+009;1.495848149061203E-001;-9.905556589365006E-002;1.757358666509390E-003;1.319652656093240E-003;
2.423333333333334E+009;1.499186754226685E-001;-1.004215180873871E-001;1.861069933511317E-003;1.160001964308322E-003;
2.423500000000000E+009;1.500376909971237E-001;-1.022340059280396E-001;1.966476673260331E-003;1.110328594222665E-003;
2.423666666666667E+009;1.503550112247467E-001;-1.037854850292206E-001;2.015547128394246E-003;1.167032751254737E-003;
2.423833333333334E+009;1.508542746305466E-001;-1.052593067288399E-001;2.065915381535888E-003;1.126397633925080E-003;
2.424000000000000E+009;1.512059718370438E-001;-1.065421998500824E-001;2.289360854774714E-003;9.985906071960926E-004;
2.424166666666667E+009;1.515910029411316E-001;-1.078222393989563E-001;2.378768520429730E-003;1.031912863254547E-003;
2.424333333333334E+009;1.521419137716293E-001;-1.090656444430351E-001;2.414088230580092E-003;6.567789241671562E-004;
2.424500000000000E+009;1.526264548301697E-001;-1.103505715727806E-001;2.458933042362332E-003;7.083085365593433E-004;
2.424666666666667E+009;1.533071845769882E-001;-1.113093197345734E-001;2.662974642589688E-003;7.358454167842865E-004;
2.424833333333334E+009;1.535094976425171E-001;-1.124594882130623E-001;2.675434341654182E-003;6.458463030867279E-004;
2.425000000000000E+009;1.541234701871872E-001;-1.132892593741417E-001;2.774423453956842E-003;4.222835123073310E-004;
2.425166666666667E+009;1.544844955205917E-001;-1.141761317849159E-001;2.767372177913785E-003;2.696954179555178E-004;
2.425333333333334E+009;1.549427360296249E-001;-1.150486841797829E-001;2.723577432334423E-003;1.365036878269166E-004;
2.425500000000000E+009;1.553659141063690E-001;-1.157922372221947E-001;3.011947032064199E-003;-4.250961865182035E-005;
2.425666666666667E+009;1.555072218179703E-001;-1.163710430264473E-001;2.858323277905583E-003;2.313622098881751E-005;
2.425833333333334E+009;1.557819247245789E-001;-1.168952062726021E-001;3.021470969542861E-003;-2.442384138703346E-004;
2.426000000000000E+009;1.561778932809830E-001;-1.174500733613968E-001;3.010534914210439E-003;-3.791093186009675E-004;
2.426166666666667E+009;1.563003659248352E-001;-1.179940626025200E-001;3.229297930374742E-003;-3.728049341589212E-004;
2.426333333333334E+009;1.564013510942459E-001;-1.183257326483727E-001;3.056802554056048E-003;-5.181535962037742E-004;
2.426500000000000E+009;1.564093381166458E-001;-1.184832602739334E-001;3.119569271802902E-003;-6.080323364585638E-004;
2.426666666666667E+009;1.564304530620575E-001;-1.187872588634491E-001;3.090111305937171E-003;-6.332829361781478E-004;
2.426833333333334E+009;1.562267690896988E-001;-1.189286261796951E-001;3.023502882570028E-003;-8.704246720299125E-004;
2.427000000000000E+009;1.559254825115204E-001;-1.192055270075798E-001;3.020515665411949E-003;-1.113014412112534E-003;
2.427166666666667E+009;1.556252241134644E-001;-1.192286312580109E-001;3.093071049079299E-003;-1.236111856997013E-003;
2.427333333333334E+009;1.550834327936173E-001;-1.193106025457382E-001;3.110236255452037E-003;-1.340550603345037E-003;
2.427500000000000E+009;1.547534167766571E-001;-1.193954497575760E-001;2.912311581894755E-003;-1.493202522397041E-003;
2.427666666666667E+009;1.539842635393143E-001;-1.195755749940872E-001;2.919368445873261E-003;-1.584695652127266E-003;
2.427833333333334E+009;1.532099246978760E-001;-1.196142882108688E-001;2.850694349035621E-003;-1.728065661154687E-003;
