# Version 1.00
#
freq[Hz];re:Trc1_S11;im:Trc1_S11;re:Trc2_S21;im:Trc2_S21;
2.400000000000000E+009;1.551588922739029E-001;1.064502894878388E-001;4.599597887136042E-004;-4.942747764289379E-003;
2.400166666666667E+009;1.549989134073257E-001;1.042455136775971E-001;4.964782856404781E-004;-5.024489481002092E-003;
2.400333333333334E+009;1.550642251968384E-001;1.018972769379616E-001;3.986319352407008E-004;-4.860199056565762E-003;
2.400500000000000E+009;1.549844592809677E-001;9.907114505767822E-002;3.542763006407768E-004;-4.837812855839729E-003;
2.400666666666667E+009;1.553307473659515E-001;9.659945219755173E-002;3.469326475169510E-004;-4.667030647397041E-003;
2.400833333333334E+009;1.552031487226486E-001;9.373752027750015E-002;3.089827660005540E-004;-4.729862324893475E-003;
2.401000000000000E+009;1.553655266761780E-001;9.111125767230988E-002;3.248598077334464E-004;-4.585078917443752E-003;
2.401166666666667E+009;1.554923653602600E-001;8.838357031345367E-002;2.207278594141826E-004;-4.660481587052345E-003;
2.401333333333334E+009;1.558295190334320E-001;8.566909283399582E-002;2.161458687623963E-004;-4.648505710065365E-003;
2.401500000000000E+009;1.562580913305283E-001;8.263523131608963E-002;-1.307153297602781E-006;-4.582246765494347E-003;
2.401666666666667E+009;1.565296500921249E-001;7.988818734884262E-002;2.248535747639835E-004;-4.701689351350069E-003;
2.401833333333334E+009;1.571635305881500E-001;7.723595201969147E-002;9.830712224356830E-005;-4.534029867500067E-003;
2.402000000000000E+009;1.580725610256195E-001;7.464934885501862E-002;8.720721780264285E-006;-4.837724845856428E-003;
2.402166666666667E+009;1.588512808084488E-001;7.211060822010040E-002;-1.726955670164898E-004;-5.024430342018604E-003;
2.402333333333334E+009;1.597502529621124E-001;6.936395913362503E-002;-2.499024849385023E-004;-4.915925674140453E-003;
2.402500000000000E+009;1.608060896396637E-001;6.649522483348846E-002;-4.285687173251063E-004;-5.357911344617605E-003;
2.402666666666667E+009;1.627915799617767E-001;6.502325087785721E-002;-2.531131322029978E-004;-4.284346476197243E-003;
2.402833333333334E+009;1.633040755987167E-001;6.168545037508011E-002;-8.757027098909020E-004;-5.553415510803461E-003;
2.403000000000000E+009;1.648987084627152E-001;5.964854359626770E-002;-1.014336245134473E-003;-5.141593981534243E-003;
2.403166666666667E+009;1.667701303958893E-001;5.734948441386223E-002;-1.270427834242582E-003;-5.332581698894501E-003;
2.403333333333334E+009;1.685086786746979E-001;5.510136112570763E-002;-1.032962696626782E-003;-5.132605321705341E-003;
2.403500000000000E+009;1.698793768882752E-001;5.340027809143066E-002;-1.493099844083190E-003;-4.948180168867111E-003;
2.403666666666667E+009;1.717195361852646E-001;5.152514949440956E-002;-1.686159637756646E-003;-4.490567371249199E-003;
2.403833333333334E+009;1.734536141157150E-001;4.979885369539261E-002;-1.729945652186871E-003;-4.515673499554396E-003;
2.404000000000000E+009;1.747465282678604E-001;4.801670461893082E-002;-1.882100710645318E-003;-4.165622405707836E-003;
2.404166666666667E+009;1.766931116580963E-001;4.650032892823219E-002;-1.878866110928357E-003;-4.139315336942673E-003;
2.404333333333334E+009;1.783392429351807E-001;4.497742280364037E-002;-1.992780948057771E-003;-4.113650880753994E-003;
2.404500000000000E+009;1.798851341009140E-001;4.358189925551415E-002;-1.863000565208495E-003;-4.018955398350954E-003;
2.404666666666667E+009;1.814355850219727E-001;4.255010560154915E-002;-1.865416648797691E-003;-3.996872343122959E-003;
2.404833333333334E+009;1.832266598939896E-001;4.146217182278633E-002;-2.080118982121348E-003;-3.959456924349070E-003;
2.405000000000000E+009;1.845085024833679E-001;4.071320220828056E-002;-2.040405524894595E-003;-3.909122198820114E-003;
2.405166666666667E+009;1.858677417039871E-001;4.004848003387451E-002;-2.072905423119664E-003;-3.785226261243224E-003;
2.405333333333334E+009;1.873297691345215E-001;3.938124328851700E-002;-2.024245448410511E-003;-3.896993817761540E-003;
2.405500000000000E+009;1.887292712926865E-001;3.893707692623138E-002;-2.334758872166276E-003;-3.897056216374040E-003;
2.405666666666667E+009;1.899526715278626E-001;3.852737322449684E-002;-2.477366942912340E-003;-3.583583980798721E-003;
2.405833333333334E+009;1.911636888980866E-001;3.834569081664085E-002;-2.502444665879011E-003;-3.865034086629748E-003;
2.406000000000000E+009;1.921790093183518E-001;3.807221353054047E-002;-2.640513004735112E-003;-3.706210292875767E-003;
2.406166666666667E+009;1.930964738130570E-001;3.787163645029068E-002;-2.696927869692445E-003;-3.756672609597445E-003;
2.406333333333334E+009;1.939792484045029E-001;3.775059804320335E-002;-2.917354460805655E-003;-3.542337333783507E-003;
2.406500000000000E+009;1.945494711399078E-001;3.782961145043373E-002;-2.890428528189659E-003;-3.403884591534734E-003;
2.406666666666667E+009;1.952379196882248E-001;3.788983076810837E-002;-3.169157309457660E-003;-3.329006489366293E-003;
2.406833333333334E+009;1.956778615713120E-001;3.790660202503204E-002;-2.988005522638559E-003;-3.100638277828693E-003;
2.407000000000000E+009;1.961010247468948E-001;3.802167624235153E-002;-3.481138730421662E-003;-3.572674002498388E-003;
2.407166666666667E+009;1.964609026908875E-001;3.763886168599129E-002;-3.382728202268481E-003;-3.226316068321466E-003;
2.407333333333334E+009;1.963742673397064E-001;3.776893019676209E-002;-2.951692091301084E-003;-2.939322032034397E-003;
2.407500000000000E+009;1.962540000677109E-001;3.782828152179718E-002;-3.209109185263515E-003;-2.611217321828008E-003;
2.407666666666667E+009;1.962937414646149E-001;3.760850057005882E-002;-3.238664939999580E-003;-3.017319366335869E-003;
2.407833333333334E+009;1.957577615976334E-001;3.761549666523933E-002;-3.345475299283862E-003;-3.061918541789055E-003;
2.408000000000000E+009;1.955314129590988E-001;3.734134510159493E-002;-3.125336254015565E-003;-2.502795075997710E-003;
2.408166666666667E+009;1.946861296892166E-001;3.693982586264610E-002;-2.751837018877268E-003;-2.384494757279754E-003;
2.408333333333334E+009;1.946793794631958E-001;3.643808513879776E-002;-3.482201136648655E-003;-2.586486749351025E-003;
2.408500000000000E+009;1.937656849622726E-001;3.608578443527222E-002;-2.784094074741006E-003;-2.239363268017769E-003;
2.408666666666667E+009;1.932026445865631E-001;3.546673431992531E-002;-2.614789409562945E-003;-2.675848081707954E-003;
2.408833333333334E+009;1.924618184566498E-001;3.459100052714348E-002;-3.080940339714289E-003;-2.448988379910588E-003;
2.409000000000000E+009;1.915387064218521E-001;3.366233035922051E-002;-3.098509972915053E-003;-2.406476065516472E-003;
2.409166666666667E+009;1.906116306781769E-001;3.271244466304779E-002;-2.999779535457492E-003;-2.556200604885817E-003;
2.409333333333334E+009;1.897184252738953E-001;3.167929500341415E-002;-3.195228986442089E-003;-2.408093772828579E-003;
2.409500000000000E+009;1.885584741830826E-001;3.046631254255772E-002;-3.154733451083303E-003;-2.423570957034826E-003;
2.409666666666667E+009;1.875005960464478E-001;2.887832373380661E-002;-3.347521182149649E-003;-2.439316594973207E-003;
2.409833333333334E+009;1.864930242300034E-001;2.744461968541145E-002;-3.479709615930915E-003;-2.645957516506314E-003;
2.410000000000000E+009;1.854176223278046E-001;2.566932141780853E-002;-3.546074731275439E-003;-2.422752557322383E-003;
2.410166666666667E+009;1.845478266477585E-001;2.393470332026482E-002;-3.660769667476416E-003;-2.430164720863104E-003;
2.410333333333334E+009;1.835509240627289E-001;2.208505570888519E-002;-3.661018330603838E-003;-2.290406031534076E-003;
2.410500000000000E+009;1.824449151754379E-001;2.033795602619648E-002;-3.783880732953548E-003;-2.394873183220625E-003;
2.410666666666667E+009;1.816745698451996E-001;1.804295741021633E-002;-3.823333419859409E-003;-2.218604087829590E-003;
2.410833333333334E+009;1.811058819293976E-001;1.576189137995243E-002;-3.921697381883860E-003;-2.271556295454502E-003;
2.411000000000000E+009;1.802225559949875E-001;1.376564800739288E-002;-4.135283641517162E-003;-2.247792668640614E-003;
2.411166666666667E+009;1.796880513429642E-001;1.145432237535715E-002;-4.111902322620153E-003;-2.107168314978480E-003;
2.411333333333334E+009;1.790248304605484E-001;9.002323262393475E-003;-4.326063673943281E-003;-2.049142029136419E-003;
2.411500000000000E+009;1.786961853504181E-001;6.676713936030865E-003;-4.326111637055874E-003;-1.907662139274180E-003;
2.411666666666667E+009;1.785894781351090E-001;4.262573085725308E-003;-4.487523343414068E-003;-1.856334623880684E-003;
2.411833333333334E+009;1.781461983919144E-001;1.959928311407566E-003;-4.646635614335537E-003;-1.816556090489030E-003;
2.412000000000000E+009;1.784367263317108E-001;-5.932466592639685E-004;-4.658774472773075E-003;-1.485488843172789E-003;
2.412166666666667E+009;1.784823983907700E-001;-2.825652481988072E-003;-4.869816359132528E-003;-1.455856137908995E-003;
2.412333333333334E+009;1.787371933460236E-001;-5.334109067916870E-003;-4.954393021762371E-003;-1.392948557622731E-003;
2.412500000000000E+009;1.792273819446564E-001;-7.828138768672943E-003;-4.973631817847490E-003;-1.174801378510892E-003;
2.412666666666667E+009;1.795835345983505E-001;-1.012875139713287E-002;-5.097139626741409E-003;-1.118350657634437E-003;
2.412833333333334E+009;1.803527772426605E-001;-1.261907257139683E-002;-5.161778070032597E-003;-9.726287098601461E-004;
2.413000000000000E+009;1.810631304979324E-001;-1.490537449717522E-002;-5.492286756634712E-003;-8.484127465635538E-004;
2.413166666666667E+009;1.819246262311935E-001;-1.702504977583885E-002;-5.514448508620262E-003;-7.876778836362064E-004;
2.413333333333334E+009;1.828024238348007E-001;-1.924382150173187E-002;-5.645429715514183E-003;-5.246280925348401E-004;
2.413500000000000E+009;1.837221384048462E-001;-2.134987153112888E-002;-5.855774041265249E-003;-3.109530953224748E-004;
2.413666666666667E+009;1.850585639476776E-001;-2.353006973862648E-002;-5.857019219547510E-003;-2.140360084013082E-005;
2.413833333333334E+009;1.859249770641327E-001;-2.551240101456642E-002;-5.856639705598354E-003;3.351946070324630E-004;
2.414000000000000E+009;1.870422959327698E-001;-2.738288789987564E-002;-5.881436169147492E-003;5.223468178883195E-004;
2.414166666666667E+009;1.882243603467941E-001;-2.923638746142387E-002;-5.937939509749413E-003;9.264929103665054E-004;
2.414333333333334E+009;1.894359290599823E-001;-3.107053600251675E-002;-5.786184687167406E-003;1.170489005744457E-003;
2.414500000000000E+009;1.907824575901032E-001;-3.257941827178001E-002;-5.559147335588932E-003;1.522210193797946E-003;
2.414666666666667E+009;1.917576342821121E-001;-3.392016515135765E-002;-5.561622790992260E-003;1.806221785955131E-003;
2.414833333333334E+009;1.929747760295868E-001;-3.540395200252533E-002;-5.469095893204212E-003;1.940853660926223E-003;
2.415000000000000E+009;1.939975619316101E-001;-3.666414692997932E-002;-5.312356166541576E-003;2.245422918349505E-003;
2.415166666666667E+009;1.952893286943436E-001;-3.761465102434158E-002;-5.186193156987429E-003;2.420666161924601E-003;
2.415333333333334E+009;1.962531208992004E-001;-3.855048492550850E-002;-4.864136688411236E-003;2.676767297089100E-003;
2.415500000000000E+009;1.974243968725205E-001;-3.923571854829788E-002;-4.939336795359850E-003;2.701213117688894E-003;
2.415666666666667E+009;1.983940899372101E-001;-4.004456102848053E-002;-4.694677423685789E-003;2.938753459602594E-003;
2.415833333333334E+009;1.990683823823929E-001;-4.064242541790009E-002;-4.651297349482775E-003;3.101986832916737E-003;
2.416000000000000E+009;1.999673843383789E-001;-4.120938852429390E-002;-4.318943247199059E-003;3.303914563730359E-003;
2.416166666666667E+009;2.006879001855850E-001;-4.175150766968727E-002;-4.117642994970083E-003;3.361127106472850E-003;
2.416333333333334E+009;2.012762427330017E-001;-4.209339246153832E-002;-3.871306544169784E-003;3.516208380460739E-003;
2.416500000000000E+009;2.017042934894562E-001;-4.226975142955780E-002;-3.787793917581439E-003;3.573763649910688E-003;
2.416666666666667E+009;2.019859999418259E-001;-4.264894872903824E-002;-3.470954019576311E-003;3.822433063760400E-003;
2.416833333333334E+009;2.021348327398300E-001;-4.260538145899773E-002;-3.165460657328367E-003;3.777950769290328E-003;
2.417000000000000E+009;2.023285031318665E-001;-4.287195578217506E-002;-3.004597034305334E-003;3.856115974485874E-003;
2.417166666666667E+009;2.018466144800186E-001;-4.269433394074440E-002;-2.750753890722990E-003;3.817279823124409E-003;
2.417333333333334E+009;2.017603367567062E-001;-4.255709424614906E-002;-2.587074181064963E-003;3.775390796363354E-003;
2.417500000000000E+009;2.013847976922989E-001;-4.257161915302277E-002;-2.440589712932706E-003;3.693206235766411E-003;
2.417666666666667E+009;2.007647454738617E-001;-4.234777018427849E-002;-2.295124577358365E-003;3.635621396824718E-003;
2.417833333333334E+009;2.003121078014374E-001;-4.236462339758873E-002;-2.086632419377565E-003;3.467738395556808E-003;
2.418000000000000E+009;1.996013671159744E-001;-4.212232306599617E-002;-2.110266825184226E-003;3.454370889812708E-003;
2.418166666666667E+009;1.988133341073990E-001;-4.201551899313927E-002;-1.901458366774023E-003;3.279004711657763E-003;
2.418333333333334E+009;1.978687494993210E-001;-4.200443252921104E-002;-1.876878086477518E-003;3.274152753874660E-003;
2.418500000000000E+009;1.968913823366165E-001;-4.195738211274147E-002;-2.011791104450822E-003;3.125159069895744E-003;
2.418666666666667E+009;1.959574818611145E-001;-4.173021018505096E-002;-1.769214053638279E-003;3.077792236581445E-003;
2.418833333333334E+009;1.946728229522705E-001;-4.201492667198181E-002;-1.810829038731754E-003;2.986428095027804E-003;
2.419000000000000E+009;1.934005022048950E-001;-4.219726100564003E-002;-1.823115511797369E-003;2.933295443654060E-003;
2.419166666666667E+009;1.922393739223480E-001;-4.256682470440865E-002;-1.796714612282813E-003;2.969547873362899E-003;
2.419333333333334E+009;1.907029151916504E-001;-4.310686141252518E-002;-1.780729624442756E-003;3.040488576516509E-003;
2.419500000000000E+009;1.892492026090622E-001;-4.353830218315125E-002;-1.844323938712478E-003;2.727922052145004E-003;
2.419666666666667E+009;1.877534836530685E-001;-4.431844875216484E-002;-1.946374541148543E-003;2.911077113822103E-003;
2.419833333333334E+009;1.861710399389267E-001;-4.504527524113655E-002;-1.916757668368518E-003;2.805287716910243E-003;
2.420000000000000E+009;1.845063418149948E-001;-4.577821493148804E-002;-1.970626180991530E-003;2.897047204896808E-003;
2.420166666666667E+009;1.829104870557785E-001;-4.673405736684799E-002;-1.986668445169926E-003;2.868643729016185E-003;
2.420333333333334E+009;1.816205382347107E-001;-4.805117473006249E-002;-1.907479716464877E-003;2.815116196870804E-003;
2.420500000000000E+009;1.797518879175186E-001;-4.926363006234169E-002;-2.115635899826884E-003;2.901484956964850E-003;
2.420666666666667E+009;1.781135201454163E-001;-5.041688680648804E-002;-2.098087687045336E-003;2.985863480716944E-003;
2.420833333333334E+009;1.765780001878738E-001;-5.187887698411942E-002;-2.234824700281024E-003;3.086859593167901E-003;
2.421000000000000E+009;1.751330643892288E-001;-5.346821248531342E-002;-2.202847739681602E-003;3.295059781521559E-003;
2.421166666666667E+009;1.739527881145477E-001;-5.513056367635727E-002;-2.340056234970689E-003;3.341030096635222E-003;
2.421333333333334E+009;1.723052859306335E-001;-5.648240074515343E-002;-2.193096093833447E-003;3.438597079366446E-003;
2.421500000000000E+009;1.711462885141373E-001;-5.849986523389816E-002;-2.299205632880330E-003;3.558422904461622E-003;
2.421666666666667E+009;1.698351353406906E-001;-6.019623950123787E-002;-2.293654950335622E-003;3.654617117717862E-003;
2.421833333333334E+009;1.689018607139587E-001;-6.206703186035156E-002;-2.219930756837130E-003;3.782428102567792E-003;
2.422000000000000E+009;1.678090542554855E-001;-6.398345530033112E-002;-2.265453804284334E-003;4.116033669561148E-003;
2.422166666666667E+009;1.668810397386551E-001;-6.601774692535400E-002;-1.906067249365151E-003;4.165625199675560E-003;
2.422333333333334E+009;1.659765094518662E-001;-6.811299920082092E-002;-1.874316832982004E-003;4.302499350160360E-003;
2.422500000000000E+009;1.653701514005661E-001;-7.007182389497757E-002;-1.884239609353244E-003;4.399435594677925E-003;
2.422666666666667E+009;1.646224707365036E-001;-7.209020853042603E-002;-1.650264603085816E-003;4.523275885730982E-003;
2.422833333333334E+009;1.642160713672638E-001;-7.404442876577377E-002;-1.541915233246982E-003;4.678081721067429E-003;
2.423000000000000E+009;1.636518985033035E-001;-7.615871727466583E-002;-1.440339023247361E-003;4.828250035643578E-003;
2.423166666666667E+009;1.631703227758408E-001;-7.807540148496628E-002;-1.378218643367291E-003;4.792506806552410E-003;
2.423333333333334E+009;1.631002426147461E-001;-8.012948185205460E-002;-1.231144997291267E-003;4.980171564966440E-003;
2.423500000000000E+009;1.629795283079147E-001;-8.173124492168427E-002;-1.101016183383763E-003;4.980202298611403E-003;
2.423666666666667E+009;1.630975306034088E-001;-8.361729234457016E-002;-9.748387383297086E-004;5.098942201584578E-003;
2.423833333333334E+009;1.628646254539490E-001;-8.544080704450607E-002;-8.992794319055975E-004;5.319673568010330E-003;
2.424000000000000E+009;1.630535274744034E-001;-8.724670857191086E-002;-6.931106327101588E-004;5.222430452704430E-003;
2.424166666666667E+009;1.631591469049454E-001;-8.855471760034561E-002;-6.360581610351801E-004;5.417926702648401E-003;
2.424333333333334E+009;1.633851528167725E-001;-9.019717574119568E-002;-2.773954183794558E-004;5.475222598761320E-003;
2.424500000000000E+009;1.637871563434601E-001;-9.179354459047318E-002;-1.455108431400731E-004;5.608034320175648E-003;
2.424666666666667E+009;1.640051901340485E-001;-9.323737025260925E-002;1.796466240193695E-004;5.685898475348949E-003;
2.424833333333334E+009;1.645420044660568E-001;-9.445849806070328E-002;4.281557630747557E-004;5.898563191294670E-003;
2.425000000000000E+009;1.649597883224487E-001;-9.564121812582016E-002;6.415841635316610E-004;5.878944415599108E-003;
2.425166666666667E+009;1.651392877101898E-001;-9.685297310352325E-002;9.625944076105952E-004;5.809556692838669E-003;
2.425333333333334E+009;1.654672473669052E-001;-9.771871566772461E-002;1.305846730247140E-003;5.774063523858786E-003;
2.425500000000000E+009;1.659980714321137E-001;-9.862184524536133E-002;1.595380366779864E-003;5.664419382810593E-003;
2.425666666666667E+009;1.663841605186462E-001;-9.931559860706329E-002;1.806688611395657E-003;5.712252110242844E-003;
2.425833333333334E+009;1.665673106908798E-001;-1.002361923456192E-001;1.949460594914854E-003;5.585345439612865E-003;
2.426000000000000E+009;1.670584082603455E-001;-1.005381941795349E-001;2.273951191455126E-003;5.543342791497707E-003;
2.426166666666667E+009;1.674237251281738E-001;-1.009912490844727E-001;2.398246899247170E-003;5.279236007481813E-003;
2.426333333333334E+009;1.674828231334686E-001;-1.015547886490822E-001;2.613762859255076E-003;5.196788813918829E-003;
2.426500000000000E+009;1.677829623222351E-001;-1.018226370215416E-001;2.825530245900154E-003;5.105054937303066E-003;
2.426666666666667E+009;1.680178046226502E-001;-1.021028235554695E-001;3.060115501284599E-003;4.707957617938519E-003;
2.426833333333334E+009;1.681538075208664E-001;-1.023866161704063E-001;3.235737793147564E-003;4.767096135765314E-003;
2.427000000000000E+009;1.681450307369232E-001;-1.025945544242859E-001;3.252645023167133E-003;4.435162059962750E-003;
2.427166666666667E+009;1.681547313928604E-001;-1.027068942785263E-001;3.518696874380112E-003;4.289431031793356E-003;
2.427333333333334E+009;1.679563969373703E-001;-1.030314266681671E-001;3.566052997484803E-003;4.091143142431974E-003;
2.427500000000000E+009;1.677503436803818E-001;-1.031497046351433E-001;3.508091205731034E-003;3.911369480192661E-003;
2.427666666666667E+009;1.673915088176727E-001;-1.031468436121941E-001;3.655173350125551E-003;3.805906511843205E-003;
