# Version 1.00
#
freq[Hz];re:Trc1_S11;im:Trc1_S11;re:Trc2_S21;im:Trc2_S21;
2.400000000000000E+009;1.544643938541412E-001;6.148299202322960E-002;-8.420499507337809E-004;5.643164273351431E-003;
2.400166666666667E+009;1.544726639986038E-001;5.942467600107193E-002;-4.624522407539189E-004;5.715262144804001E-003;
2.400333333333334E+009;1.544006168842316E-001;5.736124143004417E-002;-4.174351342953742E-004;5.710343364626169E-003;
2.400500000000000E+009;1.547148227691650E-001;5.520975589752197E-002;-2.758973278105259E-004;5.803102627396584E-003;
2.400666666666667E+009;1.548961699008942E-001;5.294187739491463E-002;8.356620674021542E-005;5.710527766495943E-003;
2.400833333333334E+009;1.550680547952652E-001;5.074599757790566E-002;2.293558791279793E-004;5.754419602453709E-003;
2.401000000000000E+009;1.553318947553635E-001;4.853934049606323E-002;3.850791836157441E-004;5.780064500868321E-003;
2.401166666666667E+009;1.558354347944260E-001;4.626674577593803E-002;6.275360938161612E-004;5.977078340947628E-003;
2.401333333333334E+009;1.560975462198257E-001;4.387168213725090E-002;8.863672846928239E-004;5.721100606024265E-003;
2.401500000000000E+009;1.569296121597290E-001;4.164433851838112E-002;1.232651527971029E-003;5.806503817439079E-003;
2.401666666666667E+009;1.574405431747437E-001;3.966988250613213E-002;1.222756109200418E-003;5.712363403290510E-003;
2.401833333333334E+009;1.582335978746414E-001;3.764775395393372E-002;1.413517980836332E-003;5.616937763988972E-003;
2.402000000000000E+009;1.588734686374664E-001;3.546622395515442E-002;1.749101094901562E-003;5.552285350859165E-003;
2.402166666666667E+009;1.595372408628464E-001;3.337596729397774E-002;2.042852109298110E-003;5.602088291198015E-003;
2.402333333333334E+009;1.605713963508606E-001;3.165548294782639E-002;2.187147969380021E-003;5.526567343622446E-003;
2.402500000000000E+009;1.617501378059387E-001;2.994055859744549E-002;2.411136636510491E-003;5.388536024838686E-003;
2.402666666666667E+009;1.627431064844132E-001;2.818104624748230E-002;2.494544489309192E-003;5.418741144239903E-003;
2.402833333333334E+009;1.636774241924286E-001;2.677068300545216E-002;2.843159716576338E-003;5.140731576830149E-003;
2.403000000000000E+009;1.647769212722778E-001;2.517706528306007E-002;2.952624345198274E-003;5.137148778885603E-003;
2.403166666666667E+009;1.659796535968781E-001;2.355910651385784E-002;3.165665548294783E-003;4.984786268323660E-003;
2.403333333333334E+009;1.670487225055695E-001;2.231585979461670E-002;3.336766501888633E-003;4.787611775100231E-003;
2.403500000000000E+009;1.680154800415039E-001;2.108749374747276E-002;3.425605362281203E-003;4.655709024518728E-003;
2.403666666666667E+009;1.692328900098801E-001;1.985742151737213E-002;3.734477562829852E-003;4.563304129987955E-003;
2.403833333333334E+009;1.704279929399490E-001;1.895371638238430E-002;3.806324908509851E-003;4.209216684103012E-003;
2.404000000000000E+009;1.716814488172531E-001;1.796307601034641E-002;4.023890942335129E-003;3.799884580075741E-003;
2.404166666666667E+009;1.727849543094635E-001;1.709079183638096E-002;4.163697361946106E-003;3.650957951322198E-003;
2.404333333333334E+009;1.736705899238586E-001;1.633436046540737E-002;4.280301742255688E-003;3.678636392578483E-003;
2.404500000000000E+009;1.747339665889740E-001;1.548697892576456E-002;4.490687977522612E-003;3.447057213634253E-003;
2.404666666666667E+009;1.759107112884522E-001;1.510282140225172E-002;4.657623358070850E-003;3.247987246140838E-003;
2.404833333333334E+009;1.767135709524155E-001;1.477901265025139E-002;4.801751114428043E-003;3.097039181739092E-003;
2.405000000000000E+009;1.775088608264923E-001;1.414718851447105E-002;4.692009650170803E-003;2.866336377337575E-003;
2.405166666666667E+009;1.783806234598160E-001;1.376139000058174E-002;4.947737324982882E-003;2.621020888909698E-003;
2.405333333333334E+009;1.791561394929886E-001;1.357149053364992E-002;4.951848648488522E-003;2.260704757645726E-003;
2.405500000000000E+009;1.797838360071182E-001;1.349818799644709E-002;4.948984365910292E-003;2.081495476886630E-003;
2.405666666666667E+009;1.803732812404633E-001;1.317936927080154E-002;5.137360654771328E-003;1.884916564449668E-003;
2.405833333333334E+009;1.805660128593445E-001;1.310055050998926E-002;5.021421238780022E-003;1.883473480120301E-003;
2.406000000000000E+009;1.811230480670929E-001;1.289299689233303E-002;5.167916417121887E-003;1.577371614985168E-003;
2.406166666666667E+009;1.811991333961487E-001;1.303484290838242E-002;5.023248028010130E-003;1.351896324194968E-003;
2.406333333333334E+009;1.814926564693451E-001;1.279920246452093E-002;5.054943263530731E-003;1.183565356768668E-003;
2.406500000000000E+009;1.815670728683472E-001;1.249926909804344E-002;5.240048747509718E-003;8.234986453317106E-004;
2.406666666666667E+009;1.813916563987732E-001;1.253992784768343E-002;5.017268471419811E-003;6.373873329721391E-004;
2.406833333333334E+009;1.813648343086243E-001;1.229885034263134E-002;5.057429429143667E-003;4.131857713218778E-004;
2.407000000000000E+009;1.811819076538086E-001;1.194967050105333E-002;4.924401640892029E-003;3.657960332930088E-004;
2.407166666666667E+009;1.810686588287354E-001;1.180189196020365E-002;4.837451502680779E-003;-3.486714558675885E-005;
2.407333333333334E+009;1.804508268833160E-001;1.138090342283249E-002;4.817797336727381E-003;-1.583901903359219E-004;
2.407500000000000E+009;1.800645440816879E-001;1.104244403541088E-002;4.800242837518454E-003;-2.797597553580999E-004;
2.407666666666667E+009;1.795186549425125E-001;1.064671482890844E-002;4.646518267691135E-003;-3.460286825429648E-004;
2.407833333333334E+009;1.788421869277954E-001;9.909335523843765E-003;4.668043460696936E-003;-5.922043928876519E-004;
2.408000000000000E+009;1.780718415975571E-001;9.261968545615673E-003;4.486527759581804E-003;-9.368896717205644E-004;
2.408166666666667E+009;1.773392558097839E-001;8.769651874899864E-003;4.440334159880877E-003;-1.059507136233151E-003;
2.408333333333334E+009;1.768288314342499E-001;7.872798480093479E-003;4.272037651389837E-003;-1.165067078545690E-003;
2.408500000000000E+009;1.758727431297302E-001;6.847625132650137E-003;4.160000011324883E-003;-1.286524813622236E-003;
2.408666666666667E+009;1.750630587339401E-001;5.697810556739569E-003;4.097390454262495E-003;-1.498119323514402E-003;
2.408833333333334E+009;1.741499304771423E-001;4.607148002833128E-003;4.008752759546042E-003;-1.624357886612415E-003;
2.409000000000000E+009;1.732237040996552E-001;3.453551093116403E-003;3.746798960492015E-003;-1.522910431958735E-003;
2.409166666666667E+009;1.724873185157776E-001;2.087458269670606E-003;3.812530543655157E-003;-1.872384571470320E-003;
2.409333333333334E+009;1.718139499425888E-001;6.503047770820558E-004;3.573133610188961E-003;-1.770756207406521E-003;
2.409500000000000E+009;1.708298772573471E-001;-1.195481978356838E-003;3.506771754473448E-003;-1.958720153197646E-003;
2.409666666666667E+009;1.699713319540024E-001;-2.612652024254203E-003;3.428330644965172E-003;-2.030410571023822E-003;
2.409833333333334E+009;1.691339462995529E-001;-4.347107373178005E-003;3.163659712299705E-003;-2.097788499668241E-003;
2.410000000000000E+009;1.686449050903320E-001;-6.015041377395392E-003;3.156812861561775E-003;-2.160247648134828E-003;
2.410166666666667E+009;1.680305004119873E-001;-7.950795814394951E-003;3.082355950027704E-003;-2.250194549560547E-003;
2.410333333333334E+009;1.674151420593262E-001;-9.804214350879192E-003;3.038255264982581E-003;-2.227481920272112E-003;
2.410500000000000E+009;1.669609248638153E-001;-1.184531580656767E-002;2.723751123994589E-003;-2.291406970471144E-003;
2.410666666666667E+009;1.664597094058991E-001;-1.404948253184557E-002;2.563505433499813E-003;-2.262006979435682E-003;
2.410833333333334E+009;1.662538051605225E-001;-1.612187363207340E-002;2.508104313164949E-003;-2.403103979304433E-003;
2.411000000000000E+009;1.659005433320999E-001;-1.805071160197258E-002;2.451820997521281E-003;-2.551427809521556E-003;
2.411166666666667E+009;1.657541692256928E-001;-2.024735696613789E-002;2.173214452341199E-003;-2.597164129838347E-003;
2.411333333333334E+009;1.657551229000092E-001;-2.229840308427811E-002;2.160406438633800E-003;-2.580752829089761E-003;
2.411500000000000E+009;1.656423807144165E-001;-2.458793111145496E-002;1.991440076380968E-003;-2.518532797694206E-003;
2.411666666666667E+009;1.659794002771378E-001;-2.657660096883774E-002;1.948019606061280E-003;-2.653439529240131E-003;
2.411833333333334E+009;1.662115454673767E-001;-2.872297912836075E-002;1.661010785028338E-003;-2.625368069857359E-003;
2.412000000000000E+009;1.664678752422333E-001;-3.087102994322777E-002;1.702389679849148E-003;-2.693617716431618E-003;
2.412166666666667E+009;1.668130308389664E-001;-3.297925367951393E-002;1.561482902616262E-003;-2.761487150564790E-003;
2.412333333333334E+009;1.673583537340164E-001;-3.455244377255440E-002;1.429101801477373E-003;-2.728748135268688E-003;
2.412500000000000E+009;1.676705479621887E-001;-3.683364018797875E-002;1.281212433241308E-003;-2.663286868482828E-003;
2.412666666666667E+009;1.685642898082733E-001;-3.875006362795830E-002;1.257844618521631E-003;-2.706096507608891E-003;
2.412833333333334E+009;1.690451651811600E-001;-4.065017029643059E-002;1.211937051266432E-003;-2.596011618152261E-003;
2.413000000000000E+009;1.698614507913590E-001;-4.244119301438332E-002;1.062875729985535E-003;-2.517928835004568E-003;
2.413166666666667E+009;1.705851852893829E-001;-4.403714835643768E-002;9.045756305567920E-004;-2.603741129860282E-003;
2.413333333333334E+009;1.710475534200668E-001;-4.559607431292534E-002;8.898154483176768E-004;-2.591828349977732E-003;
2.413500000000000E+009;1.718863844871521E-001;-4.727444425225258E-002;6.504806224256754E-004;-2.516119973734021E-003;
2.413666666666667E+009;1.727205216884613E-001;-4.869445413351059E-002;5.245731445029378E-004;-2.335225930437446E-003;
2.413833333333334E+009;1.733624190092087E-001;-4.996814951300621E-002;5.068819154985249E-004;-2.465332858264446E-003;
2.414000000000000E+009;1.741354465484619E-001;-5.127265304327011E-002;5.862053949385881E-004;-2.424733014777303E-003;
2.414166666666667E+009;1.749958246946335E-001;-5.245906114578247E-002;3.905017802026123E-004;-2.188631799072027E-003;
2.414333333333334E+009;1.757531464099884E-001;-5.337869375944138E-002;2.838402579072863E-004;-2.296360442414880E-003;
2.414500000000000E+009;1.765455156564713E-001;-5.433692410588265E-002;3.933736297767609E-004;-2.249268582090735E-003;
2.414666666666667E+009;1.770767569541931E-001;-5.518423393368721E-002;2.084036241285503E-004;-2.074072137475014E-003;
2.414833333333334E+009;1.777117699384689E-001;-5.592736601829529E-002;1.830117544159293E-004;-2.263508038595319E-003;
2.415000000000000E+009;1.781249791383743E-001;-5.640598759055138E-002;1.625429576961324E-004;-2.208275021985173E-003;
2.415166666666667E+009;1.785987317562103E-001;-5.715413391590118E-002;1.054469685186632E-004;-1.923640258610249E-003;
2.415333333333334E+009;1.791316866874695E-001;-5.776049196720123E-002;-5.834563853568398E-005;-1.894101034849882E-003;
2.415500000000000E+009;1.793607026338577E-001;-5.787957087159157E-002;-1.057027984643355E-004;-1.999217551201582E-003;
2.415666666666667E+009;1.796128749847412E-001;-5.810072645545006E-002;-5.930320185143501E-006;-1.939533278346062E-003;
2.415833333333334E+009;1.798021942377091E-001;-5.841453373432159E-002;-1.413650461472571E-004;-1.887858612462878E-003;
2.416000000000000E+009;1.796053349971771E-001;-5.864148586988449E-002;-1.505099789937958E-004;-1.765249646268785E-003;
2.416166666666667E+009;1.797436773777008E-001;-5.878484249114990E-002;-1.849782420322299E-004;-1.921336166560650E-003;
2.416333333333334E+009;1.796132922172546E-001;-5.870038643479347E-002;-2.772603766061366E-004;-1.830128254368901E-003;
2.416500000000000E+009;1.793110817670822E-001;-5.897155776619911E-002;-2.884148561861366E-004;-1.687363022938371E-003;
2.416666666666667E+009;1.789055913686752E-001;-5.882696807384491E-002;-2.509976038709283E-004;-1.775797223672271E-003;
2.416833333333334E+009;1.785716116428375E-001;-5.897361785173416E-002;-4.160931566730142E-004;-1.647978904657066E-003;
2.417000000000000E+009;1.777622699737549E-001;-5.909806117415428E-002;-4.311649827286601E-004;-1.602210570126772E-003;
2.417166666666667E+009;1.770913898944855E-001;-5.899698287248612E-002;-5.353757296688855E-004;-1.600054209120572E-003;
2.417333333333334E+009;1.762425005435944E-001;-5.914221331477165E-002;-4.163900157436729E-004;-1.646448741666973E-003;
2.417500000000000E+009;1.754704862833023E-001;-5.935476347804070E-002;-3.737166989594698E-004;-1.516636461019516E-003;
2.417666666666667E+009;1.745096445083618E-001;-5.943286046385765E-002;-6.131466943770647E-004;-1.368851284496486E-003;
2.417833333333334E+009;1.734036505222321E-001;-5.952909961342812E-002;-5.978156113997102E-004;-1.458849525079131E-003;
2.418000000000000E+009;1.720667332410812E-001;-5.979919061064720E-002;-6.252404418773949E-004;-1.447866554372013E-003;
2.418166666666667E+009;1.709441989660263E-001;-6.002574041485786E-002;-5.894907517358661E-004;-1.569571904838085E-003;
2.418333333333334E+009;1.699955165386200E-001;-6.047407537698746E-002;-5.426629795692861E-004;-1.360944239422679E-003;
2.418500000000000E+009;1.684492528438568E-001;-6.095881387591362E-002;-7.474329322576523E-004;-1.339283422566950E-003;
2.418666666666667E+009;1.671652495861054E-001;-6.151179596781731E-002;-6.051751552149653E-004;-1.444539637304843E-003;
2.418833333333334E+009;1.657249182462692E-001;-6.226566061377525E-002;-6.436249241232872E-004;-1.469077076762915E-003;
2.419000000000000E+009;1.641425937414169E-001;-6.278275698423386E-002;-4.854443250223994E-004;-1.165183726698160E-003;
2.419166666666667E+009;1.628447473049164E-001;-6.370808929204941E-002;-6.983215571381152E-004;-1.184327062219381E-003;
2.419333333333334E+009;1.612721681594849E-001;-6.430409848690033E-002;-6.812381325289607E-004;-1.065804506652057E-003;
2.419500000000000E+009;1.600476503372192E-001;-6.560949981212616E-002;-6.575632723979652E-004;-1.106098643504083E-003;
2.419666666666667E+009;1.588045209646225E-001;-6.658522784709930E-002;-7.073338492773473E-004;-9.136591106653214E-004;
2.419833333333334E+009;1.573349833488464E-001;-6.772246211767197E-002;-7.546650595031679E-004;-1.030813204124570E-003;
2.420000000000000E+009;1.562614440917969E-001;-6.900678575038910E-002;-6.978770252317190E-004;-8.702258346602321E-004;
2.420166666666667E+009;1.548804193735123E-001;-7.022113353013992E-002;-8.119153790175915E-004;-8.802514057606459E-004;
2.420333333333334E+009;1.538757830858231E-001;-7.174161821603775E-002;-6.738474476151168E-004;-8.223445038311184E-004;
2.420500000000000E+009;1.530369818210602E-001;-7.299944013357163E-002;-7.116216002032161E-004;-7.839133031666279E-004;
2.420666666666667E+009;1.519835740327835E-001;-7.461676001548767E-002;-7.874548900872469E-004;-7.435358129441738E-004;
2.420833333333334E+009;1.510046571493149E-001;-7.623505592346191E-002;-7.255509844981134E-004;-7.869758410379291E-004;
2.421000000000000E+009;1.501841396093369E-001;-7.818194478750229E-002;-7.136515341699123E-004;-6.526391953229904E-004;
2.421166666666667E+009;1.495796144008637E-001;-7.961291819810867E-002;-6.207596161402762E-004;-6.280054803937674E-004;
2.421333333333334E+009;1.492341756820679E-001;-8.166067302227020E-002;-7.707731565460563E-004;-6.705881678499281E-004;
2.421500000000000E+009;1.484442949295044E-001;-8.329308032989502E-002;-6.299185333773494E-004;-5.657161818817258E-004;
2.421666666666667E+009;1.481710970401764E-001;-8.510433882474899E-002;-5.730406264774501E-004;-4.879875632468611E-004;
2.421833333333334E+009;1.480024904012680E-001;-8.704251796007156E-002;-4.737416747957468E-004;-6.279259687289596E-004;
2.422000000000000E+009;1.477847695350647E-001;-8.888487517833710E-002;-6.836937391199172E-004;-3.800083359237760E-004;
2.422166666666667E+009;1.476570069789887E-001;-9.090034663677216E-002;-4.856728482991457E-004;-6.349912146106362E-004;
2.422333333333334E+009;1.476201117038727E-001;-9.268387407064438E-002;-5.230809329077601E-004;-5.197626305744052E-004;
2.422500000000000E+009;1.478704065084457E-001;-9.430059045553207E-002;-4.090240108780563E-004;-5.884998245164752E-004;
2.422666666666667E+009;1.479839384555817E-001;-9.609850496053696E-002;-4.099794605281204E-004;-6.124207284301519E-004;
2.422833333333334E+009;1.483166664838791E-001;-9.797721356153488E-002;-4.406759107951075E-004;-5.755775491707027E-004;
2.423000000000000E+009;1.486521959304810E-001;-9.979246556758881E-002;-6.588295800611377E-004;-5.754310986958444E-004;
2.423166666666667E+009;1.492703258991242E-001;-1.013760343194008E-001;-4.442801291588694E-004;-5.895101930946112E-004;
2.423333333333334E+009;1.496906876564026E-001;-1.028864160180092E-001;-4.911628784611821E-004;-5.150863435119391E-004;
2.423500000000000E+009;1.502935439348221E-001;-1.044069826602936E-001;-4.833395360037684E-004;-5.109980702400208E-004;
2.423666666666667E+009;1.505566537380219E-001;-1.058309003710747E-001;-4.430103290360421E-004;-5.206718342378736E-004;
2.423833333333334E+009;1.516412049531937E-001;-1.072278544306755E-001;-4.401971236802638E-004;-5.976725369691849E-004;
2.424000000000000E+009;1.521246582269669E-001;-1.084496229887009E-001;-4.972732858732343E-004;-6.464436301030219E-004;
2.424166666666667E+009;1.526681929826737E-001;-1.096045747399330E-001;-3.579985059332103E-004;-5.473035271279514E-004;
2.424333333333334E+009;1.533749997615814E-001;-1.107032522559166E-001;-4.017711908090860E-004;-4.759164585266262E-004;
2.424500000000000E+009;1.541220694780350E-001;-1.119093522429466E-001;-3.550695255398750E-004;-5.977833643555641E-004;
2.424666666666667E+009;1.548005640506744E-001;-1.125309392809868E-001;-4.556748026516289E-004;-5.289171240292490E-004;
2.424833333333334E+009;1.553938537836075E-001;-1.133327260613442E-001;-6.164410733617842E-004;-6.077569560147822E-004;
2.425000000000000E+009;1.559455394744873E-001;-1.142045632004738E-001;-4.132759640924633E-004;-5.953017389401794E-004;
2.425166666666667E+009;1.563231796026230E-001;-1.147667169570923E-001;-3.377870307303965E-004;-4.884398076683283E-004;
2.425333333333334E+009;1.568791717290878E-001;-1.153300181031227E-001;-3.518221201375127E-004;-6.282815011218190E-004;
2.425500000000000E+009;1.574282497167587E-001;-1.158120259642601E-001;-4.772005486302078E-004;-4.555493360385299E-004;
2.425666666666667E+009;1.575529873371124E-001;-1.162957102060318E-001;-4.366309731267393E-004;-5.683082854375243E-004;
2.425833333333334E+009;1.578906923532486E-001;-1.165525615215302E-001;-3.692055761348456E-004;-4.619144019670785E-004;
2.426000000000000E+009;1.580056101083756E-001;-1.168527826666832E-001;-3.727700968738645E-004;-4.529237921815366E-004;
2.426166666666667E+009;1.583199054002762E-001;-1.170526072382927E-001;-5.532163777388632E-004;-3.731509787030518E-004;
2.426333333333334E+009;1.582604646682739E-001;-1.170861795544624E-001;-3.975288418587297E-004;-5.843946128152311E-004;
2.426500000000000E+009;1.580882221460342E-001;-1.172704845666885E-001;-4.968938301317394E-004;-3.170855925418437E-004;
2.426666666666667E+009;1.580183655023575E-001;-1.170815676450729E-001;-4.653646319638938E-004;-4.829739045817405E-004;
2.426833333333334E+009;1.576934307813644E-001;-1.171849966049194E-001;-5.403519026003778E-004;-4.975175252184272E-004;
2.427000000000000E+009;1.571797877550125E-001;-1.171995699405670E-001;-4.804747877642512E-004;-3.694013576023281E-004;
2.427166666666667E+009;1.566854864358902E-001;-1.170721575617790E-001;-5.526268505491316E-004;-3.823834704235196E-004;
2.427333333333334E+009;1.559751033782959E-001;-1.170129552483559E-001;-4.908527480438352E-004;-4.064477689098567E-004;
2.427500000000000E+009;1.552596539258957E-001;-1.171612590551376E-001;-5.713079590350390E-004;-3.823691513389349E-004;
2.427666666666667E+009;1.543851792812347E-001;-1.170839071273804E-001;-4.792996624018997E-004;-3.590185369830579E-004;
