# Version 1.00
#
freq[Hz];re:Trc1_S11;im:Trc1_S11;re:Trc2_S21;im:Trc2_S21;
2.400000000000000E+009;1.542022973299027E-001;6.156463176012039E-002;-6.885352195240557E-004;5.546449683606625E-003;
2.400166666666667E+009;1.543498039245606E-001;5.964913964271545E-002;-3.679023357108235E-004;5.558879580348730E-003;
2.400333333333334E+009;1.543263792991638E-001;5.734891444444656E-002;-3.064791962970048E-004;5.693320650607348E-003;
2.400500000000000E+009;1.544671505689621E-001;5.515459552407265E-002;1.110230659833178E-004;5.708534270524979E-003;
2.400666666666667E+009;1.545878201723099E-001;5.304413288831711E-002;6.899637082824484E-005;5.610368680208921E-003;
2.400833333333334E+009;1.550291031599045E-001;5.092648416757584E-002;3.748774179257453E-004;5.657881963998079E-003;
2.401000000000000E+009;1.552003771066666E-001;4.846568405628204E-002;4.829565295949578E-004;5.816929973661900E-003;
2.401166666666667E+009;1.557482481002808E-001;4.641525447368622E-002;6.274880724959076E-004;5.603863392025232E-003;
2.401333333333334E+009;1.561086773872376E-001;4.407100379467011E-002;8.634125115349889E-004;5.487557034939528E-003;
2.401500000000000E+009;1.567565053701401E-001;4.189842566847801E-002;1.111122197471559E-003;5.702493712306023E-003;
2.401666666666667E+009;1.575479209423065E-001;3.982735052704811E-002;1.376981614157558E-003;5.550800357013941E-003;
2.401833333333334E+009;1.582125723361969E-001;3.759044408798218E-002;1.537209842354059E-003;5.477529019117355E-003;
2.402000000000000E+009;1.588490605354309E-001;3.549185767769814E-002;1.786670065484941E-003;5.565301049500704E-003;
2.402166666666667E+009;1.596003472805023E-001;3.342497721314430E-002;2.041943604126573E-003;5.316365510225296E-003;
2.402333333333334E+009;1.604570448398590E-001;3.168147057294846E-002;2.261694753542543E-003;5.507063120603561E-003;
2.402500000000000E+009;1.617500633001328E-001;2.988044731318951E-002;2.328282687813044E-003;5.242277402430773E-003;
2.402666666666667E+009;1.624966710805893E-001;2.827814035117626E-002;2.601608168333769E-003;5.051275249570608E-003;
2.402833333333334E+009;1.636364907026291E-001;2.660807222127914E-002;2.933089155703783E-003;5.127569660544395E-003;
2.403000000000000E+009;1.645983159542084E-001;2.499971352517605E-002;3.099359106272459E-003;4.878986161202192E-003;
2.403166666666667E+009;1.657795459032059E-001;2.359901741147041E-002;3.295778064057231E-003;4.844551440328360E-003;
2.403333333333334E+009;1.670029461383820E-001;2.238050103187561E-002;3.384713781997562E-003;4.674777388572693E-003;
2.403500000000000E+009;1.680635064840317E-001;2.105838991701603E-002;3.704426344484091E-003;4.367885645478964E-003;
2.403666666666667E+009;1.691799163818359E-001;1.997756585478783E-002;3.837188472971320E-003;4.347258247435093E-003;
2.403833333333334E+009;1.704459339380264E-001;1.886489614844322E-002;3.912875428795815E-003;4.148151725530624E-003;
2.404000000000000E+009;1.715222895145416E-001;1.796511188149452E-002;4.116052761673927E-003;3.969942219555378E-003;
2.404166666666667E+009;1.726366579532623E-001;1.704101450741291E-002;4.228155128657818E-003;3.869492793455720E-003;
2.404333333333334E+009;1.737321168184280E-001;1.642694883048534E-002;4.432504996657372E-003;3.605753649026156E-003;
2.404500000000000E+009;1.745597720146179E-001;1.557303592562676E-002;4.501844290643930E-003;3.535751020535827E-003;
2.404666666666667E+009;1.756667643785477E-001;1.517334114760160E-002;4.643722902983427E-003;3.160612890496850E-003;
2.404833333333334E+009;1.767458915710449E-001;1.464634202420712E-002;4.693832248449326E-003;3.035386325791478E-003;
2.405000000000000E+009;1.775433570146561E-001;1.424321066588163E-002;4.645133856683970E-003;2.707545412704349E-003;
2.405166666666667E+009;1.782790720462799E-001;1.384378783404827E-002;4.932909272611141E-003;2.569044008851051E-003;
2.405333333333334E+009;1.790638118982315E-001;1.342038158327341E-002;4.811345133930445E-003;2.302151406183839E-003;
2.405500000000000E+009;1.796372234821320E-001;1.332169119268656E-002;4.841035697609186E-003;1.941640628501773E-003;
2.405666666666667E+009;1.801513135433197E-001;1.312777865678072E-002;4.990434739738703E-003;1.928893383592367E-003;
2.405833333333334E+009;1.805640459060669E-001;1.311014965176582E-002;5.079451482743025E-003;1.510647009126842E-003;
2.406000000000000E+009;1.810148954391480E-001;1.282044313848019E-002;5.138726904988289E-003;1.440753228962421E-003;
2.406166666666667E+009;1.811742484569550E-001;1.290095131844282E-002;4.920455161482096E-003;1.224969164468348E-003;
2.406333333333334E+009;1.814316958189011E-001;1.280122064054012E-002;4.987565800547600E-003;1.024898258037865E-003;
2.406500000000000E+009;1.814251095056534E-001;1.259296573698521E-002;5.052424967288971E-003;8.110292837955058E-004;
2.406666666666667E+009;1.812205612659454E-001;1.253414619714022E-002;4.900625906884670E-003;5.656329449266195E-004;
2.406833333333334E+009;1.811600029468536E-001;1.237952522933483E-002;4.924790002405644E-003;3.929112863261253E-004;
2.407000000000000E+009;1.811047494411469E-001;1.204404328018427E-002;4.882490728050470E-003;1.025566525640898E-004;
2.407166666666667E+009;1.809190213680267E-001;1.183106191456318E-002;4.764841403812170E-003;-9.558602323522791E-005;
2.407333333333334E+009;1.803124547004700E-001;1.138840336352587E-002;4.780352581292391E-003;-1.102634341805242E-004;
2.407500000000000E+009;1.799734234809876E-001;1.119175180792809E-002;4.762695636600256E-003;-4.286057665012777E-004;
2.407666666666667E+009;1.794016063213348E-001;1.079316716641188E-002;4.753218032419682E-003;-6.265456322580576E-004;
2.407833333333334E+009;1.786244660615921E-001;1.008843537420034E-002;4.583392292261124E-003;-7.559949881397188E-004;
2.408000000000000E+009;1.780339032411575E-001;9.364596568048000E-003;4.544925410300493E-003;-1.058051013387740E-003;
2.408166666666667E+009;1.773216873407364E-001;8.844248019158840E-003;4.383528605103493E-003;-9.788800962269306E-004;
2.408333333333334E+009;1.767122745513916E-001;7.916417904198170E-003;4.452338442206383E-003;-1.255365088582039E-003;
2.408500000000000E+009;1.758844107389450E-001;6.946947425603867E-003;4.170098807662725E-003;-1.369832549244165E-003;
2.408666666666667E+009;1.750205308198929E-001;5.947122350335121E-003;4.045201931148768E-003;-1.371588325127959E-003;
2.408833333333334E+009;1.741101890802383E-001;4.684142302721739E-003;3.896745154634118E-003;-1.504507381469011E-003;
2.409000000000000E+009;1.732561141252518E-001;3.527138149365783E-003;3.785251174122095E-003;-1.690785866230726E-003;
2.409166666666667E+009;1.724062561988831E-001;2.222866285592318E-003;3.593656700104475E-003;-1.716032973490655E-003;
2.409333333333334E+009;1.715568751096726E-001;6.683336105197668E-004;3.509012749418616E-003;-1.885801786556840E-003;
2.409500000000000E+009;1.708362698554993E-001;-9.599431068636477E-004;3.479163395240903E-003;-2.004904439672828E-003;
2.409666666666667E+009;1.700107455253601E-001;-2.487906021997333E-003;3.395124571397901E-003;-1.985367154702544E-003;
2.409833333333334E+009;1.691476404666901E-001;-4.228854086250067E-003;3.328042337670922E-003;-2.091513480991125E-003;
2.410000000000000E+009;1.684944778680801E-001;-5.887322593480349E-003;3.094644285738468E-003;-2.236063359305263E-003;
2.410166666666667E+009;1.679134070873261E-001;-7.860481739044190E-003;3.001249860972166E-003;-2.223481191322208E-003;
2.410333333333334E+009;1.674241423606873E-001;-9.826819412410259E-003;2.664326922968030E-003;-2.231020480394363E-003;
2.410500000000000E+009;1.670202016830444E-001;-1.171580143272877E-002;2.593274693936110E-003;-2.308117225766182E-003;
2.410666666666667E+009;1.663914620876312E-001;-1.389947999268770E-002;2.569963922724128E-003;-2.304569585248828E-003;
2.410833333333334E+009;1.660291105508804E-001;-1.590371131896973E-002;2.462812699377537E-003;-2.465968485921621E-003;
2.411000000000000E+009;1.660038828849793E-001;-1.806107535958290E-002;2.370716538280249E-003;-2.550035482272506E-003;
2.411166666666667E+009;1.655923724174500E-001;-2.023146860301495E-002;2.274073893204331E-003;-2.551365876570344E-003;
2.411333333333334E+009;1.657864898443222E-001;-2.222051657736301E-002;2.117328811436892E-003;-2.539731096476317E-003;
2.411500000000000E+009;1.656892746686935E-001;-2.431201376020908E-002;2.011060481891036E-003;-2.725354861468077E-003;
2.411666666666667E+009;1.658733040094376E-001;-2.639098465442658E-002;1.832889625802636E-003;-2.665336010977626E-003;
2.411833333333334E+009;1.661355644464493E-001;-2.853937633335590E-002;1.701459870673716E-003;-2.611740492284298E-003;
2.412000000000000E+009;1.665092259645462E-001;-3.082410246133804E-002;1.666045282036066E-003;-2.538101747632027E-003;
2.412166666666667E+009;1.667736172676086E-001;-3.274240344762802E-002;1.487357309088111E-003;-2.651267684996128E-003;
2.412333333333334E+009;1.673555672168732E-001;-3.463750332593918E-002;1.509535475634038E-003;-2.640707185491920E-003;
2.412500000000000E+009;1.678819507360458E-001;-3.662361949682236E-002;1.206006621941924E-003;-2.661013975739479E-003;
2.412666666666667E+009;1.684631854295731E-001;-3.886725381016731E-002;1.162778236903250E-003;-2.557453000918031E-003;
2.412833333333334E+009;1.691528111696243E-001;-4.060626402497292E-002;9.977247100323439E-004;-2.420864067971706E-003;
2.413000000000000E+009;1.697115898132324E-001;-4.239334166049957E-002;8.884461130946875E-004;-2.450416563078761E-003;
2.413166666666667E+009;1.705360412597656E-001;-4.400212317705154E-002;7.801202591508627E-004;-2.378296339884400E-003;
2.413333333333334E+009;1.711320281028748E-001;-4.562966898083687E-002;7.415146683342755E-004;-2.402718178927898E-003;
2.413500000000000E+009;1.719107478857040E-001;-4.727514088153839E-002;7.178179221227765E-004;-2.489692764356732E-003;
2.413666666666667E+009;1.727748364210129E-001;-4.858307540416718E-002;5.450737080536783E-004;-2.281219931319356E-003;
2.413833333333334E+009;1.733479201793671E-001;-4.985129460692406E-002;5.432457546703517E-004;-2.383044688031077E-003;
2.414000000000000E+009;1.741710305213928E-001;-5.123492330312729E-002;3.573627327568829E-004;-2.335396828129888E-003;
2.414166666666667E+009;1.751177906990051E-001;-5.231691524386406E-002;4.737774434033781E-004;-2.160272095352411E-003;
2.414333333333334E+009;1.755895018577576E-001;-5.337387695908546E-002;2.378684148425236E-004;-2.152042230591178E-003;
2.414500000000000E+009;1.765398085117340E-001;-5.423725768923760E-002;3.438222047407180E-004;-2.115957671776414E-003;
2.414666666666667E+009;1.769812405109406E-001;-5.503032729029656E-002;1.095187762985006E-004;-2.063586143776774E-003;
2.414833333333334E+009;1.776083260774612E-001;-5.583514273166657E-002;1.887694670585915E-004;-2.208948601037264E-003;
2.415000000000000E+009;1.782609671354294E-001;-5.637378990650177E-002;2.301537897437811E-004;-1.865006284788251E-003;
2.415166666666667E+009;1.785814911127091E-001;-5.678659304976463E-002;1.834540307754651E-004;-2.055483637377620E-003;
2.415333333333334E+009;1.791700273752213E-001;-5.757891759276390E-002;4.108303255634382E-005;-1.974653219804168E-003;
2.415500000000000E+009;1.793849617242813E-001;-5.772314593195915E-002;-2.534779378038365E-005;-1.885357894934714E-003;
2.415666666666667E+009;1.797297149896622E-001;-5.801499262452126E-002;1.653304352657870E-004;-1.936103100888431E-003;
2.415833333333334E+009;1.798391044139862E-001;-5.833456665277481E-002;-1.213397263200022E-005;-1.750051975250244E-003;
2.416000000000000E+009;1.797350943088532E-001;-5.848259106278420E-002;-1.103336398955435E-004;-1.855817623436451E-003;
2.416166666666667E+009;1.798498183488846E-001;-5.855138972401619E-002;-5.980016067042016E-005;-1.755533507093787E-003;
2.416333333333334E+009;1.796042174100876E-001;-5.876050889492035E-002;-6.318704981822521E-005;-1.755840727128089E-003;
2.416500000000000E+009;1.793512850999832E-001;-5.879913270473480E-002;-2.719067852012813E-004;-1.710934680886567E-003;
2.416666666666667E+009;1.789478510618210E-001;-5.880954116582871E-002;-3.796999226324260E-004;-1.636754604987800E-003;
2.416833333333334E+009;1.785960793495178E-001;-5.893920361995697E-002;-3.511418763082475E-004;-1.578055205754936E-003;
2.417000000000000E+009;1.778130233287811E-001;-5.903428047895432E-002;-2.786626864690334E-004;-1.636709785088897E-003;
2.417166666666667E+009;1.770876646041870E-001;-5.893997475504875E-002;-3.965115465689451E-004;-1.543998019769788E-003;
2.417333333333334E+009;1.762994974851608E-001;-5.894849076867104E-002;-4.511756415013224E-004;-1.613826141692698E-003;
2.417500000000000E+009;1.753755658864975E-001;-5.912600085139275E-002;-3.009227511938661E-004;-1.479702768847346E-003;
2.417666666666667E+009;1.744154989719391E-001;-5.927955731749535E-002;-4.037323524244130E-004;-1.542042125947774E-003;
2.417833333333334E+009;1.733703911304474E-001;-5.958659201860428E-002;-3.759504179470241E-004;-1.506076892837882E-003;
2.418000000000000E+009;1.721235513687134E-001;-5.979387834668160E-002;-4.844900395255536E-004;-1.312229665927589E-003;
2.418166666666667E+009;1.709149628877640E-001;-5.993523821234703E-002;-6.041458691470325E-004;-1.321128220297396E-003;
2.418333333333334E+009;1.699385643005371E-001;-6.050061807036400E-002;-4.639793769456446E-004;-1.353529049083591E-003;
2.418500000000000E+009;1.685491502285004E-001;-6.074651703238487E-002;-4.826958756893873E-004;-1.362252631224692E-003;
2.418666666666667E+009;1.672288626432419E-001;-6.154450029134750E-002;-6.412011571228504E-004;-1.261965953744948E-003;
2.418833333333334E+009;1.656240671873093E-001;-6.220655888319016E-002;-5.972255021333695E-004;-1.259812153875828E-003;
2.419000000000000E+009;1.641319096088409E-001;-6.283273547887802E-002;-6.540112080983818E-004;-1.309988903813064E-003;
2.419166666666667E+009;1.627894490957260E-001;-6.363419443368912E-002;-7.684407755732536E-004;-1.085167750716209E-003;
2.419333333333334E+009;1.612986773252487E-001;-6.427165120840073E-002;-5.325936945155263E-004;-1.107167219743133E-003;
2.419500000000000E+009;1.599757373332977E-001;-6.555321067571640E-002;-6.229605642147362E-004;-1.098933629691601E-003;
2.419666666666667E+009;1.588658690452576E-001;-6.666491925716400E-002;-8.203573524951935E-004;-9.779728716239333E-004;
2.419833333333334E+009;1.574247926473618E-001;-6.753624230623245E-002;-7.177203078754246E-004;-9.732744074426591E-004;
2.420000000000000E+009;1.563137918710709E-001;-6.897509098052979E-002;-6.180775235407054E-004;-9.386681485921145E-004;
2.420166666666667E+009;1.550503820180893E-001;-7.027814537286758E-002;-7.244211737997830E-004;-9.139603353105485E-004;
2.420333333333334E+009;1.539914160966873E-001;-7.180444151163101E-002;-7.085189572535455E-004;-8.864444098435342E-004;
2.420500000000000E+009;1.528526991605759E-001;-7.311696559190750E-002;-6.188100669533014E-004;-8.052316261455417E-004;
2.420666666666667E+009;1.519712060689926E-001;-7.464396208524704E-002;-7.084199460223317E-004;-6.966296350583434E-004;
2.420833333333334E+009;1.511049717664719E-001;-7.634264975786209E-002;-6.606926908716559E-004;-7.221124251373112E-004;
2.421000000000000E+009;1.501972377300263E-001;-7.812133431434631E-002;-7.288902997970581E-004;-6.762568955309689E-004;
2.421166666666667E+009;1.495795845985413E-001;-7.968639582395554E-002;-6.469476502388716E-004;-7.021292112767696E-004;
2.421333333333334E+009;1.490346938371658E-001;-8.157996088266373E-002;-6.175929447636008E-004;-5.459808744490147E-004;
2.421500000000000E+009;1.485193669795990E-001;-8.325716853141785E-002;-7.431472185999155E-004;-5.606967024505138E-004;
2.421666666666667E+009;1.481331437826157E-001;-8.519064635038376E-002;-4.173077468294650E-004;-3.485870547592640E-004;
2.421833333333334E+009;1.479509174823761E-001;-8.696043491363525E-002;-5.652047111652792E-004;-6.266238051466644E-004;
2.422000000000000E+009;1.476593017578125E-001;-8.890967071056366E-002;-4.907830734737217E-004;-4.542706592474133E-004;
2.422166666666667E+009;1.475827991962433E-001;-9.084469079971314E-002;-4.898523911833763E-004;-3.965732466895133E-004;
2.422333333333334E+009;1.477221399545670E-001;-9.253657609224320E-002;-4.421097401063889E-004;-4.115097108297050E-004;
2.422500000000000E+009;1.477845907211304E-001;-9.437333047389984E-002;-4.937681369483471E-004;-4.940535291098058E-004;
2.422666666666667E+009;1.479677557945252E-001;-9.615714102983475E-002;-3.759418905247003E-004;-4.810863756574690E-004;
2.422833333333334E+009;1.482367813587189E-001;-9.798893332481384E-002;-3.543497587088496E-004;-4.533377650659531E-004;
2.423000000000000E+009;1.484568417072296E-001;-9.950917214155197E-002;-4.247108881827444E-004;-3.680028312373906E-004;
2.423166666666667E+009;1.491174697875977E-001;-1.014644727110863E-001;-2.688132517505437E-004;-4.903837107121944E-004;
2.423333333333334E+009;1.497115194797516E-001;-1.026520878076553E-001;-2.207500074291602E-004;-3.952503320761025E-004;
2.423500000000000E+009;1.502739489078522E-001;-1.042363196611404E-001;-4.025993694085628E-004;-5.009965389035642E-004;
2.423666666666667E+009;1.506428569555283E-001;-1.058861240744591E-001;-3.759998653549701E-004;-4.645808658096939E-004;
2.423833333333334E+009;1.515206992626190E-001;-1.070577055215836E-001;-2.505729789845645E-004;-4.494809836614877E-004;
2.424000000000000E+009;1.520216614007950E-001;-1.082435324788094E-001;-2.050448820227757E-004;-4.259194538462907E-004;
2.424166666666667E+009;1.525925844907761E-001;-1.094614937901497E-001;-1.387563970638439E-004;-6.240837392397225E-004;
2.424333333333334E+009;1.534119993448257E-001;-1.107185557484627E-001;-2.224392374046147E-004;-2.910919429268688E-004;
2.424500000000000E+009;1.540621966123581E-001;-1.116665154695511E-001;-3.604582452680916E-004;-5.649917293339968E-004;
2.424666666666667E+009;1.547468304634094E-001;-1.124037057161331E-001;-3.297666844446212E-004;-4.750756779685617E-004;
2.424833333333334E+009;1.552576869726181E-001;-1.132643446326256E-001;-3.747577720787376E-004;-4.003716167062521E-004;
2.425000000000000E+009;1.558387130498886E-001;-1.141502931714058E-001;-2.844368282239884E-004;-6.704676197841764E-004;
2.425166666666667E+009;1.562905162572861E-001;-1.146644130349159E-001;-2.307016548002139E-004;-4.625565197784454E-004;
2.425333333333334E+009;1.568315327167511E-001;-1.152224987745285E-001;-4.012434510514140E-004;-5.385982221923769E-004;
2.425500000000000E+009;1.574395298957825E-001;-1.156994551420212E-001;-3.874495159834623E-004;-4.634408978745341E-004;
2.425666666666667E+009;1.576890349388123E-001;-1.161908209323883E-001;-3.904268087353557E-004;-5.601383163593710E-004;
2.425833333333334E+009;1.578856408596039E-001;-1.165207102894783E-001;-3.809234185609967E-004;-5.958690890111029E-004;
2.426000000000000E+009;1.580158025026321E-001;-1.166631728410721E-001;-4.242795985192061E-004;-6.143382634036243E-004;
2.426166666666667E+009;1.582348346710205E-001;-1.169190779328346E-001;-3.907030622940511E-004;-3.935370768886060E-004;
2.426333333333334E+009;1.581522077322006E-001;-1.170995011925697E-001;-3.357943496666849E-004;-5.258286255411804E-004;
2.426500000000000E+009;1.580783724784851E-001;-1.171157136559486E-001;-4.959831712767482E-004;-4.493750166147947E-004;
2.426666666666667E+009;1.580504477024078E-001;-1.170541271567345E-001;-4.247732867952436E-004;-6.121518090367317E-004;
2.426833333333334E+009;1.576576828956604E-001;-1.171823143959045E-001;-3.483614709693939E-004;-4.547877761069685E-004;
2.427000000000000E+009;1.571896523237228E-001;-1.171931624412537E-001;-3.873427631333470E-004;-4.764936747960746E-004;
2.427166666666667E+009;1.566396802663803E-001;-1.170321479439735E-001;-3.176472673658282E-004;-5.463262205012143E-004;
2.427333333333334E+009;1.560006141662598E-001;-1.170776635408402E-001;-5.042800912633538E-004;-3.143409558106214E-004;
2.427500000000000E+009;1.552825421094894E-001;-1.170434504747391E-001;-4.091360315214843E-004;-4.175604553893209E-004;
2.427666666666667E+009;1.543904691934586E-001;-1.170034557580948E-001;-3.762564156204462E-004;-4.331540258135647E-004;
