# Version 1.00
#
freq[Hz];re:Trc1_S11;im:Trc1_S11;re:Trc2_S21;im:Trc2_S21;
2.400000000000000E+009;1.544568687677383E-001;6.125494092702866E-002;-6.878101848997176E-004;5.603314377367497E-003;
2.400166666666667E+009;1.544437110424042E-001;5.961777642369270E-002;-5.329236155375838E-004;5.616001319140196E-003;
2.400333333333334E+009;1.544104963541031E-001;5.725636705756187E-002;-2.189102378906682E-004;5.709851626306772E-003;
2.400500000000000E+009;1.546531766653061E-001;5.499738827347755E-002;-1.517521304776892E-004;5.792361218482256E-003;
2.400666666666667E+009;1.546386629343033E-001;5.303280428051949E-002;3.173467848682776E-005;5.866537336260080E-003;
2.400833333333334E+009;1.551102995872498E-001;5.089445784687996E-002;2.748732513282448E-004;5.841447040438652E-003;
2.401000000000000E+009;1.554316729307175E-001;4.846348613500595E-002;4.779479349963367E-004;5.632641725242138E-003;
2.401166666666667E+009;1.558238565921783E-001;4.627695679664612E-002;7.089998107403517E-004;5.695868283510208E-003;
2.401333333333334E+009;1.561874151229858E-001;4.392031952738762E-002;1.025788136757910E-003;5.500325001776218E-003;
2.401500000000000E+009;1.569847166538239E-001;4.176749661564827E-002;1.146819908171892E-003;5.691837985068560E-003;
2.401666666666667E+009;1.574916094541550E-001;3.984948992729187E-002;1.310805091634393E-003;5.638921167701483E-003;
2.401833333333334E+009;1.582127064466476E-001;3.761493787169457E-002;1.640897360630333E-003;5.643060430884361E-003;
2.402000000000000E+009;1.587161570787430E-001;3.563169389963150E-002;1.748131122440100E-003;5.484088324010372E-003;
2.402166666666667E+009;1.595890969038010E-001;3.343675658106804E-002;2.055768622085452E-003;5.395011510699987E-003;
2.402333333333334E+009;1.606546789407730E-001;3.164087235927582E-002;2.234772546216846E-003;5.325519479811192E-003;
2.402500000000000E+009;1.617629081010819E-001;2.992304041981697E-002;2.486552344635129E-003;5.308501888066530E-003;
2.402666666666667E+009;1.626885086297989E-001;2.843297831714153E-002;2.536466112360358E-003;5.171080585569143E-003;
2.402833333333334E+009;1.637133806943893E-001;2.667636051774025E-002;2.690558321774006E-003;4.993514157831669E-003;
2.403000000000000E+009;1.646261513233185E-001;2.531608380377293E-002;3.223919775336981E-003;4.848496057093144E-003;
2.403166666666667E+009;1.659845411777496E-001;2.366258390247822E-002;3.117987653240562E-003;4.574934951961041E-003;
2.403333333333334E+009;1.671300381422043E-001;2.245365642011166E-002;3.517674049362540E-003;4.624339751899242E-003;
2.403500000000000E+009;1.680832207202911E-001;2.109058015048504E-002;3.580880817025900E-003;4.565243143588305E-003;
2.403666666666667E+009;1.693365573883057E-001;2.004491537809372E-002;3.731453791260719E-003;4.471535794436932E-003;
2.403833333333334E+009;1.705792695283890E-001;1.904068700969219E-002;3.981076646596193E-003;4.096335265785456E-003;
2.404000000000000E+009;1.717160940170288E-001;1.801011897623539E-002;3.903999924659729E-003;3.737539518624544E-003;
2.404166666666667E+009;1.725793480873108E-001;1.708258129656315E-002;4.139272496104240E-003;3.925995435565710E-003;
2.404333333333334E+009;1.737876087427139E-001;1.648003421723843E-002;4.463250748813152E-003;3.610902931541205E-003;
2.404500000000000E+009;1.747757047414780E-001;1.573514379560947E-002;4.495726898312569E-003;3.364256117492914E-003;
2.404666666666667E+009;1.756308525800705E-001;1.503098662942648E-002;4.680142272263765E-003;3.191570285707712E-003;
2.404833333333334E+009;1.766923516988754E-001;1.457152049988508E-002;4.672567360103130E-003;2.977612661197782E-003;
2.405000000000000E+009;1.775570362806320E-001;1.422856375575066E-002;4.744819365441799E-003;2.775330096483231E-003;
2.405166666666667E+009;1.782467067241669E-001;1.383602339774370E-002;4.846574738621712E-003;2.610223367810249E-003;
2.405333333333334E+009;1.790908277034760E-001;1.347851194441319E-002;4.755794536322355E-003;2.172637032344937E-003;
2.405500000000000E+009;1.797195225954056E-001;1.325723528862000E-002;4.988686647266150E-003;2.132639754563570E-003;
2.405666666666667E+009;1.802361458539963E-001;1.320653222501278E-002;4.960528109222651E-003;1.880625146441162E-003;
2.405833333333334E+009;1.805268675088882E-001;1.310485135763884E-002;5.065947305411100E-003;1.598436851054430E-003;
2.406000000000000E+009;1.810128390789032E-001;1.280472241342068E-002;5.066148471087217E-003;1.323511824011803E-003;
2.406166666666667E+009;1.810431331396103E-001;1.298140734434128E-002;4.961938597261906E-003;1.154977246187627E-003;
2.406333333333334E+009;1.814539581537247E-001;1.276526506990194E-002;5.004779901355505E-003;9.451456717215478E-004;
2.406500000000000E+009;1.813698858022690E-001;1.254240516573191E-002;4.989817272871733E-003;8.141635335050523E-004;
2.406666666666667E+009;1.813092976808548E-001;1.252086833119392E-002;4.954693838953972E-003;5.500696715898812E-004;
2.406833333333334E+009;1.812715232372284E-001;1.227662619203329E-002;5.076270084828138E-003;4.984756815247238E-004;
2.407000000000000E+009;1.810071915388107E-001;1.215734612196684E-002;4.953202791512013E-003;1.774499396560714E-004;
2.407166666666667E+009;1.808913499116898E-001;1.185875758528709E-002;4.938145633786917E-003;1.137634826591238E-004;
2.407333333333334E+009;1.804089248180389E-001;1.143941376358271E-002;4.988904111087322E-003;-3.146171220578253E-004;
2.407500000000000E+009;1.799164116382599E-001;1.122433040291071E-002;4.592743702232838E-003;-3.886215854436159E-004;
2.407666666666667E+009;1.794177442789078E-001;1.062817219644785E-002;4.800713155418634E-003;-6.297820946201682E-004;
2.407833333333334E+009;1.785305142402649E-001;1.014180015772581E-002;4.605497699230909E-003;-9.296321077272296E-004;
2.408000000000000E+009;1.779805719852448E-001;9.402201510965824E-003;4.502524621784687E-003;-9.536024299450219E-004;
2.408166666666667E+009;1.772887110710144E-001;8.762625046074390E-003;4.349671304225922E-003;-1.061839982867241E-003;
2.408333333333334E+009;1.767226755619049E-001;7.877370342612267E-003;4.373070318251848E-003;-1.215751748532057E-003;
2.408500000000000E+009;1.757256686687470E-001;6.911377888172865E-003;4.206255543977022E-003;-1.330666244029999E-003;
2.408666666666667E+009;1.750134974718094E-001;5.778179038316011E-003;4.006596282124519E-003;-1.412446959875524E-003;
2.408833333333334E+009;1.740704625844955E-001;4.783452022820711E-003;4.029557574540377E-003;-1.469538547098637E-003;
2.409000000000000E+009;1.731543838977814E-001;3.490061499178410E-003;3.752826713025570E-003;-1.678256783634424E-003;
2.409166666666667E+009;1.723236441612244E-001;2.163218567147851E-003;3.589059226214886E-003;-1.805442618206143E-003;
2.409333333333334E+009;1.716770380735397E-001;5.250956746749580E-004;3.642578143626452E-003;-1.848455984145403E-003;
2.409500000000000E+009;1.708452999591827E-001;-9.082473698072135E-004;3.463019384071231E-003;-1.897844951599836E-003;
2.409666666666667E+009;1.699809283018112E-001;-2.568063791841269E-003;3.249800764024258E-003;-1.990770222619176E-003;
2.409833333333334E+009;1.691139191389084E-001;-4.273178987205029E-003;3.298640018329024E-003;-2.163657452911139E-003;
2.410000000000000E+009;1.685906201601028E-001;-5.909764207899571E-003;2.976767485961318E-003;-2.133514033630490E-003;
2.410166666666667E+009;1.680273413658142E-001;-7.717548403888941E-003;2.821523230522871E-003;-2.181950025260449E-003;
2.410333333333334E+009;1.673772186040878E-001;-9.761211462318897E-003;2.835966879501939E-003;-2.249359153211117E-003;
2.410500000000000E+009;1.671013683080673E-001;-1.179745420813561E-002;2.665724372491241E-003;-2.382004400715232E-003;
2.410666666666667E+009;1.665315181016922E-001;-1.384217850863934E-002;2.620151266455650E-003;-2.374639967456460E-003;
2.410833333333334E+009;1.662912964820862E-001;-1.595888845622540E-002;2.377593657001853E-003;-2.477492904290557E-003;
2.411000000000000E+009;1.659590154886246E-001;-1.795534230768681E-002;2.464303979650140E-003;-2.359094098210335E-003;
2.411166666666667E+009;1.658072918653488E-001;-2.019503526389599E-002;2.351945033296943E-003;-2.573705976828933E-003;
2.411333333333334E+009;1.657311618328095E-001;-2.223470620810986E-002;2.122497418895364E-003;-2.552532358095050E-003;
2.411500000000000E+009;1.656124889850617E-001;-2.462255395948887E-002;1.973507227376103E-003;-2.608775161206722E-003;
2.411666666666667E+009;1.659192442893982E-001;-2.645145356655121E-002;1.910318154841662E-003;-2.618381287902594E-003;
2.411833333333334E+009;1.662148833274841E-001;-2.847922593355179E-002;1.687623327597976E-003;-2.647685119882226E-003;
2.412000000000000E+009;1.666303426027298E-001;-3.073659539222717E-002;1.659999252296984E-003;-2.528518671169877E-003;
2.412166666666667E+009;1.668168455362320E-001;-3.268717229366303E-002;1.408870797604322E-003;-2.470048377290368E-003;
2.412333333333334E+009;1.674336791038513E-001;-3.470231592655182E-002;1.399243832565844E-003;-2.678448799997568E-003;
2.412500000000000E+009;1.678100377321243E-001;-3.682552650570869E-002;1.136987237259746E-003;-2.619324252009392E-003;
2.412666666666667E+009;1.684891879558563E-001;-3.876454010605812E-002;1.304948469623923E-003;-2.483496675267816E-003;
2.412833333333334E+009;1.692065745592117E-001;-4.052650183439255E-002;1.083367969840765E-003;-2.641413360834122E-003;
2.413000000000000E+009;1.696535944938660E-001;-4.239792749285698E-002;9.768094168975949E-004;-2.474063076078892E-003;
2.413166666666667E+009;1.704384386539459E-001;-4.397644847631455E-002;9.342399425804615E-004;-2.461046911776066E-003;
2.413333333333334E+009;1.711782813072205E-001;-4.557966068387032E-002;6.853886297903955E-004;-2.420242642983794E-003;
2.413500000000000E+009;1.720690876245499E-001;-4.722563549876213E-002;6.572438287548721E-004;-2.382645849138498E-003;
2.413666666666667E+009;1.728356033563614E-001;-4.865801334381104E-002;7.536606863141060E-004;-2.324532251805067E-003;
2.413833333333334E+009;1.732994616031647E-001;-5.000211670994759E-002;6.113975541666150E-004;-2.294219564646483E-003;
2.414000000000000E+009;1.741591244935989E-001;-5.133901908993721E-002;2.302111970493570E-004;-2.281384309753776E-003;
2.414166666666667E+009;1.750043928623200E-001;-5.222450569272041E-002;2.268328826176003E-004;-2.223035320639610E-003;
2.414333333333334E+009;1.758165359497070E-001;-5.340672656893730E-002;2.867105358745903E-004;-2.311144955456257E-003;
2.414500000000000E+009;1.765169799327850E-001;-5.434798449277878E-002;2.963278093375266E-004;-2.116113668307662E-003;
2.414666666666667E+009;1.770654022693634E-001;-5.516016855835915E-002;1.026614918373525E-004;-2.023860812187195E-003;
2.414833333333334E+009;1.776718199253082E-001;-5.591779947280884E-002;1.802664337446913E-004;-2.048740163445473E-003;
2.415000000000000E+009;1.782747209072113E-001;-5.651906877756119E-002;4.811032704310492E-005;-2.133120084181428E-003;
2.415166666666667E+009;1.786284297704697E-001;-5.698981508612633E-002;6.597077299375087E-005;-1.923024887219071E-003;
2.415333333333334E+009;1.791099160909653E-001;-5.764292180538178E-002;-9.992355626309291E-005;-1.814744551666081E-003;
2.415500000000000E+009;1.794139742851257E-001;-5.792378261685371E-002;5.371507359086536E-005;-1.951848273165524E-003;
2.415666666666667E+009;1.795786470174789E-001;-5.810218304395676E-002;-1.302344899158925E-004;-2.008985960856080E-003;
2.415833333333334E+009;1.797920316457748E-001;-5.846648663282394E-002;2.807544660754502E-005;-1.905040349811316E-003;
2.416000000000000E+009;1.796677410602570E-001;-5.871949717402458E-002;-1.188500900752842E-004;-1.822867547161877E-003;
2.416166666666667E+009;1.798038780689240E-001;-5.871993675827980E-002;-2.470719628036022E-004;-1.715435762889683E-003;
2.416333333333334E+009;1.797110438346863E-001;-5.874739214777947E-002;-2.289205003762618E-004;-1.776098739355803E-003;
2.416500000000000E+009;1.793110966682434E-001;-5.892423912882805E-002;-1.521824160590768E-004;-1.797220436856151E-003;
2.416666666666667E+009;1.788948625326157E-001;-5.884948372840881E-002;-1.807848020689562E-004;-1.676303916610777E-003;
2.416833333333334E+009;1.784880012273789E-001;-5.895173177123070E-002;-2.014664642047137E-004;-1.541749923489988E-003;
2.417000000000000E+009;1.777401119470596E-001;-5.897126719355583E-002;-2.687481173779815E-004;-1.483017229475081E-003;
2.417166666666667E+009;1.770839542150497E-001;-5.895445123314858E-002;-2.301627973793075E-004;-1.462599728256464E-003;
2.417333333333334E+009;1.763271093368530E-001;-5.906205996870995E-002;-2.787960402201861E-004;-1.547490246593952E-003;
2.417500000000000E+009;1.754257231950760E-001;-5.922669917345047E-002;-2.722741046454758E-004;-1.413559424690902E-003;
2.417666666666667E+009;1.744717359542847E-001;-5.925364419817925E-002;-3.760241961572319E-004;-1.522611943073571E-003;
2.417833333333334E+009;1.734440922737122E-001;-5.939847230911255E-002;-3.658735076896846E-004;-1.506122527644038E-003;
2.418000000000000E+009;1.721925288438797E-001;-5.980802699923515E-002;-3.791467170231044E-004;-1.377610955387354E-003;
2.418166666666667E+009;1.710108220577240E-001;-6.000357121229172E-002;-3.167092218063772E-004;-1.333437161520124E-003;
2.418333333333334E+009;1.700595170259476E-001;-6.047934666275978E-002;-4.939594655297697E-004;-1.275781542062759E-003;
2.418500000000000E+009;1.685543060302734E-001;-6.084974110126495E-002;-4.972970928065479E-004;-1.411877223290503E-003;
2.418666666666667E+009;1.672502458095551E-001;-6.139953434467316E-002;-5.388300633057952E-004;-1.276894705370069E-003;
2.418833333333334E+009;1.657520532608032E-001;-6.213246658444405E-002;-5.186073249205947E-004;-1.367368502542377E-003;
2.419000000000000E+009;1.641832739114761E-001;-6.274142861366272E-002;-6.767616141587496E-004;-1.237633405253291E-003;
2.419166666666667E+009;1.628862470388413E-001;-6.356645375490189E-002;-5.761168431490660E-004;-1.173987169750035E-003;
2.419333333333334E+009;1.614511609077454E-001;-6.436592340469360E-002;-6.421366706490517E-004;-1.114585669711232E-003;
2.419500000000000E+009;1.600710302591324E-001;-6.547717005014420E-002;-5.166460177861154E-004;-1.111256307922304E-003;
2.419666666666667E+009;1.588412523269653E-001;-6.666658818721771E-002;-6.095024291425943E-004;-1.049376325681806E-003;
2.419833333333334E+009;1.574921905994415E-001;-6.767347455024719E-002;-5.847110296599567E-004;-9.562282357364893E-004;
2.420000000000000E+009;1.562186777591705E-001;-6.896767765283585E-002;-6.425780593417585E-004;-9.448362397961319E-004;
2.420166666666667E+009;1.549784094095230E-001;-7.022248953580856E-002;-6.239796057343483E-004;-9.264820837415755E-004;
2.420333333333334E+009;1.538556814193726E-001;-7.170455902814865E-002;-7.394407293759286E-004;-8.440753445029259E-004;
2.420500000000000E+009;1.529508829116821E-001;-7.312244921922684E-002;-6.617358885705471E-004;-8.708928944543004E-004;
2.420666666666667E+009;1.520750671625137E-001;-7.461149990558624E-002;-6.573453429155052E-004;-7.673367508687079E-004;
2.420833333333334E+009;1.510141938924789E-001;-7.635299116373062E-002;-6.048926734365523E-004;-7.653431384824216E-004;
2.421000000000000E+009;1.502016782760620E-001;-7.802572101354599E-002;-6.578112952411175E-004;-7.150362362153828E-004;
2.421166666666667E+009;1.496718525886536E-001;-7.979903370141983E-002;-6.421183352358639E-004;-5.522116553038359E-004;
2.421333333333334E+009;1.491665393114090E-001;-8.151318132877350E-002;-5.773432785645127E-004;-7.202294073067606E-004;
2.421500000000000E+009;1.483826041221619E-001;-8.325087279081345E-002;-5.074964719824493E-004;-6.856593536213040E-004;
2.421666666666667E+009;1.480137258768082E-001;-8.511438220739365E-002;-5.025356658734381E-004;-5.264480132609606E-004;
2.421833333333334E+009;1.480440497398377E-001;-8.706811815500259E-002;-6.019158172421157E-004;-5.510140908882022E-004;
2.422000000000000E+009;1.476150900125504E-001;-8.878232538700104E-002;-4.635784716811031E-004;-4.795884306076914E-004;
2.422166666666667E+009;1.476130187511444E-001;-9.072758257389069E-002;-4.075626784469932E-004;-4.590463649947196E-004;
2.422333333333334E+009;1.475626677274704E-001;-9.244200587272644E-002;-4.892477300018072E-004;-4.203363496344537E-004;
2.422500000000000E+009;1.477272808551788E-001;-9.420561045408249E-002;-4.276469408068806E-004;-5.749480333179236E-004;
2.422666666666667E+009;1.478883475065231E-001;-9.608653187751770E-002;-3.401117573957890E-004;-4.330879019107670E-004;
2.422833333333334E+009;1.482463479042053E-001;-9.792448580265045E-002;-3.409559722058475E-004;-5.978941917419434E-004;
2.423000000000000E+009;1.487306356430054E-001;-9.961962699890137E-002;-3.896456619258970E-004;-5.641116295009852E-004;
2.423166666666667E+009;1.491134911775589E-001;-1.013588383793831E-001;-4.826914228033274E-004;-4.283234593458474E-004;
2.423333333333334E+009;1.495978981256485E-001;-1.025364995002747E-001;-3.031094965990633E-004;-5.579402204602957E-004;
2.423500000000000E+009;1.502954661846161E-001;-1.042524203658104E-001;-2.618964063003659E-004;-5.405825795605779E-004;
2.423666666666667E+009;1.507584750652313E-001;-1.058230698108673E-001;-1.787993387551978E-004;-4.555777413770556E-004;
2.423833333333334E+009;1.514190435409546E-001;-1.071683168411255E-001;-2.390455338172615E-004;-5.551358917728066E-004;
2.424000000000000E+009;1.518911123275757E-001;-1.083674728870392E-001;-4.383711493574083E-004;-5.653116386383772E-004;
2.424166666666667E+009;1.525208503007889E-001;-1.095120236277580E-001;-5.231497925706208E-004;-5.868562730029225E-004;
2.424333333333334E+009;1.534285247325897E-001;-1.105907782912254E-001;-3.162711218465120E-004;-5.122751463204622E-004;
2.424500000000000E+009;1.539902538061142E-001;-1.116542294621468E-001;-4.740663571283221E-004;-5.698321620002389E-004;
2.424666666666667E+009;1.548321396112442E-001;-1.124438717961311E-001;-1.753699616529048E-004;-6.472776876762509E-004;
2.424833333333334E+009;1.551954299211502E-001;-1.132303550839424E-001;-2.916145022027195E-004;-5.633728578686714E-004;
2.425000000000000E+009;1.559368818998337E-001;-1.140885800123215E-001;-2.973339287564158E-004;-5.489769973792136E-004;
2.425166666666667E+009;1.563358455896378E-001;-1.146693527698517E-001;-3.895613190252334E-004;-4.718326381407678E-004;
2.425333333333334E+009;1.568591147661209E-001;-1.151637211441994E-001;-3.739775856956840E-004;-6.312869954854250E-004;
2.425500000000000E+009;1.573615670204163E-001;-1.157434284687042E-001;-2.829639124684036E-004;-4.860786430072039E-004;
2.425666666666667E+009;1.574478298425674E-001;-1.161282658576965E-001;-2.007655421039090E-004;-5.698107415810227E-004;
2.425833333333334E+009;1.579565703868866E-001;-1.164009571075440E-001;-3.584969963412732E-004;-5.405090632848442E-004;
2.426000000000000E+009;1.579216122627258E-001;-1.167515814304352E-001;-4.141142417211086E-004;-5.074493237771094E-004;
2.426166666666667E+009;1.582530438899994E-001;-1.168773472309113E-001;-4.608330782502890E-004;-4.832807462662458E-004;
2.426333333333334E+009;1.581648737192154E-001;-1.170973852276802E-001;-4.411596455611289E-004;-4.963088431395590E-004;
2.426500000000000E+009;1.581578105688095E-001;-1.171021908521652E-001;-5.285076913423836E-004;-4.299686115700752E-004;
2.426666666666667E+009;1.579776257276535E-001;-1.169160008430481E-001;-4.149652668274939E-004;-5.322276847437024E-004;
2.426833333333334E+009;1.575787961483002E-001;-1.171567216515541E-001;-3.656538901850581E-004;-4.183296114206314E-004;
2.427000000000000E+009;1.573131531476975E-001;-1.171685382723808E-001;-5.592507077381015E-004;-3.587744431570172E-004;
2.427166666666667E+009;1.566151380538940E-001;-1.170243918895721E-001;-3.857046831399202E-004;-4.634064389392734E-004;
2.427333333333334E+009;1.558841466903687E-001;-1.170416027307510E-001;-4.614087520167232E-004;-3.942549228668213E-004;
2.427500000000000E+009;1.552753001451492E-001;-1.169678196310997E-001;-5.837907083332539E-004;-3.360165865160525E-004;
2.427666666666667E+009;1.544256657361984E-001;-1.170792207121849E-001;-5.505813751369715E-004;-4.987308639101684E-004;
