# Version 1.00
#
freq[Hz];re:Trc1_S11;im:Trc1_S11;re:Trc2_S21;im:Trc2_S21;
2.400000000000000E+009;1.555299013853073E-001;1.072558164596558E-001;-8.994176751002669E-004;5.797924939543009E-003;
2.400166666666667E+009;1.552333533763886E-001;1.050144582986832E-001;-8.053875062614679E-004;5.708843469619751E-003;
2.400333333333334E+009;1.551390588283539E-001;1.026370748877525E-001;-4.243639414198697E-004;5.897697992622852E-003;
2.400500000000000E+009;1.552108079195023E-001;9.991387277841568E-002;-2.964594459626824E-004;5.747656337916851E-003;
2.400666666666667E+009;1.553583294153214E-001;9.732127934694290E-002;-1.007827086141333E-004;5.849394481629133E-003;
2.400833333333334E+009;1.553455740213394E-001;9.431077539920807E-002;4.412992348079570E-005;5.683484487235546E-003;
2.401000000000000E+009;1.555906683206558E-001;9.153613448143005E-002;2.933453361038119E-004;5.825389176607132E-003;
2.401166666666667E+009;1.557466238737106E-001;8.880468457937241E-002;3.559844626579434E-004;5.656150635331869E-003;
2.401333333333334E+009;1.560132652521133E-001;8.592125773429871E-002;6.318636005744338E-004;5.651758518069983E-003;
2.401500000000000E+009;1.564871966838837E-001;8.290117979049683E-002;9.437467670068145E-004;5.594398360699415E-003;
2.401666666666667E+009;1.569472998380661E-001;8.002139627933502E-002;1.116131083108485E-003;5.632799118757248E-003;
2.401833333333334E+009;1.573242396116257E-001;7.720407098531723E-002;1.257920055650175E-003;5.468998104333878E-003;
2.402000000000000E+009;1.581565141677856E-001;7.437911629676819E-002;1.411578035913408E-003;5.555476993322372E-003;
2.402166666666667E+009;1.591417193412781E-001;7.177331298589706E-002;1.628646277822554E-003;5.271831527352333E-003;
2.402333333333334E+009;1.600664407014847E-001;6.896571815013886E-002;1.835723174735904E-003;5.118192639201880E-003;
2.402500000000000E+009;1.611444950103760E-001;6.637556850910187E-002;2.245696028694511E-003;5.004183389246464E-003;
2.402666666666667E+009;1.623118966817856E-001;6.399596482515335E-002;2.315717050805688E-003;4.860920831561089E-003;
2.402833333333334E+009;1.635208427906036E-001;6.141513213515282E-002;2.515159081667662E-003;4.707540385425091E-003;
2.403000000000000E+009;1.650455296039581E-001;5.920230224728584E-002;2.600812818855047E-003;4.449890460819006E-003;
2.403166666666667E+009;1.667691171169281E-001;5.696054175496101E-002;2.833526814356446E-003;4.194761160761118E-003;
2.403333333333334E+009;1.681713610887528E-001;5.472566932439804E-002;2.904294757172465E-003;4.066515248268843E-003;
2.403500000000000E+009;1.699723154306412E-001;5.259622633457184E-002;3.009615000337362E-003;3.838965669274330E-003;
2.403666666666667E+009;1.718112975358963E-001;5.066813901066780E-002;3.114217659458518E-003;3.868393367156386E-003;
2.403833333333334E+009;1.734087616205216E-001;4.871534556150436E-002;2.955670701339841E-003;3.355420427396894E-003;
2.404000000000000E+009;1.746951192617416E-001;4.691429808735848E-002;3.258246695622802E-003;3.448122413828969E-003;
2.404166666666667E+009;1.766217797994614E-001;4.556282609701157E-002;3.188761649653316E-003;3.165934700518847E-003;
2.404333333333334E+009;1.780699193477631E-001;4.407899826765060E-002;3.213752759620547E-003;3.034075489267707E-003;
2.404500000000000E+009;1.796984225511551E-001;4.233237728476524E-002;3.221369581297040E-003;2.892035758122802E-003;
2.404666666666667E+009;1.815991401672363E-001;4.134150594472885E-002;3.270741784945130E-003;2.688153879716992E-003;
2.404833333333334E+009;1.831140667200089E-001;4.035987332463265E-002;3.332933643832803E-003;2.606065943837166E-003;
2.405000000000000E+009;1.844907402992249E-001;3.970517590641975E-002;3.340735100209713E-003;2.364043146371841E-003;
2.405166666666667E+009;1.860506683588028E-001;3.886070102453232E-002;3.375571919605136E-003;2.182081807404757E-003;
2.405333333333334E+009;1.874339878559113E-001;3.823705762624741E-002;3.412984777241945E-003;1.897531561553478E-003;
2.405500000000000E+009;1.886867731809616E-001;3.773688897490501E-002;3.331692190840840E-003;1.814595772884786E-003;
2.405666666666667E+009;1.900261491537094E-001;3.761891275644302E-002;3.338389331474900E-003;1.606954494491220E-003;
2.405833333333334E+009;1.912993043661118E-001;3.714440762996674E-002;3.273155307397246E-003;1.509577501565218E-003;
2.406000000000000E+009;1.922422498464584E-001;3.699337318539619E-002;3.251901594921947E-003;1.504787127487361E-003;
2.406166666666667E+009;1.932035684585571E-001;3.681950271129608E-002;3.204758046194911E-003;1.234587514773011E-003;
2.406333333333334E+009;1.940062493085861E-001;3.669789433479309E-002;3.093331120908260E-003;1.071015140041709E-003;
2.406500000000000E+009;1.948012411594391E-001;3.685668110847473E-002;2.882488071918488E-003;1.061955816112459E-003;
2.406666666666667E+009;1.954530030488968E-001;3.690095618367195E-002;2.970526460558176E-003;1.001518103294075E-003;
2.406833333333334E+009;1.959019899368286E-001;3.692224621772766E-002;2.730841748416424E-003;8.747428073547781E-004;
2.407000000000000E+009;1.961379945278168E-001;3.709523379802704E-002;2.768710255622864E-003;8.451276808045805E-004;
2.407166666666667E+009;1.964548528194428E-001;3.692026063799858E-002;2.560025313869119E-003;7.548424764536321E-004;
2.407333333333334E+009;1.963136196136475E-001;3.716420009732246E-002;2.527750562876463E-003;9.678564383648336E-004;
2.407500000000000E+009;1.961738467216492E-001;3.718816116452217E-002;2.526088850572705E-003;7.127786520868540E-004;
2.407666666666667E+009;1.962722092866898E-001;3.721161559224129E-002;2.407661871984601E-003;6.712353206239641E-004;
2.407833333333334E+009;1.956432610750198E-001;3.708824515342712E-002;2.381109632551670E-003;7.160724489949644E-004;
2.408000000000000E+009;1.957009881734848E-001;3.683903068304062E-002;2.235947642475367E-003;6.122916238382459E-004;
2.408166666666667E+009;1.949429064989090E-001;3.670950606465340E-002;2.278721192851663E-003;5.712460260838270E-004;
2.408333333333334E+009;1.945257335901260E-001;3.622703626751900E-002;2.172926673665643E-003;5.298248142935336E-004;
2.408500000000000E+009;1.936952471733093E-001;3.599103540182114E-002;2.110553439706564E-003;7.112178718671203E-004;
2.408666666666667E+009;1.931874603033066E-001;3.543195128440857E-002;2.205385593697429E-003;7.386874058283866E-004;
2.408833333333334E+009;1.923787593841553E-001;3.471517562866211E-002;2.190487924963236E-003;7.434849976561964E-004;
2.409000000000000E+009;1.913264095783234E-001;3.381770104169846E-002;2.056680154055357E-003;5.785297253169119E-004;
2.409166666666667E+009;1.904354244470596E-001;3.290547057986260E-002;2.005150308832526E-003;5.729938857257366E-004;
2.409333333333334E+009;1.894273161888123E-001;3.182351589202881E-002;2.016298240050674E-003;5.181134329177439E-004;
2.409500000000000E+009;1.884210556745529E-001;3.081274405121803E-002;1.945410040207207E-003;7.446515955962241E-004;
2.409666666666667E+009;1.874612271785736E-001;2.906271442770958E-002;1.847498118877411E-003;7.341098389588296E-004;
2.409833333333334E+009;1.862414330244064E-001;2.778381109237671E-002;1.893609645776451E-003;7.526057888753712E-004;
2.410000000000000E+009;1.852842867374420E-001;2.609680406749249E-002;1.885415171273053E-003;9.503351757302880E-004;
2.410166666666667E+009;1.841214597225189E-001;2.416034042835236E-002;1.819311175495386E-003;8.885100833140314E-004;
2.410333333333334E+009;1.832998842000961E-001;2.254508621990681E-002;1.941353781148791E-003;9.631421999074519E-004;
2.410500000000000E+009;1.822548955678940E-001;2.043375931680203E-002;1.921557937748730E-003;1.087258104234934E-003;
2.410666666666667E+009;1.813014000654221E-001;1.836460083723068E-002;1.889625797048211E-003;1.164097804576159E-003;
2.410833333333334E+009;1.806872785091400E-001;1.603980734944344E-002;2.098823199048638E-003;1.238191383890808E-003;
2.411000000000000E+009;1.799450218677521E-001;1.394395809620619E-002;2.018696628510952E-003;1.273256959393621E-003;
2.411166666666667E+009;1.792470812797546E-001;1.165530271828175E-002;2.311087679117918E-003;1.265262719243765E-003;
2.411333333333334E+009;1.786647588014603E-001;9.127351455390453E-003;2.240512985736132E-003;1.258947653695941E-003;
2.411500000000000E+009;1.781141757965088E-001;6.771584972739220E-003;2.421219600364566E-003;1.440212246961892E-003;
2.411666666666667E+009;1.778962463140488E-001;4.591455217450857E-003;2.517530461773276E-003;1.362345530651510E-003;
2.411833333333334E+009;1.778381913900375E-001;2.072707982733846E-003;2.632481511682272E-003;1.463297056034207E-003;
2.412000000000000E+009;1.779888272285461E-001;-3.992641286458820E-004;2.837747801095247E-003;1.224165898747742E-003;
2.412166666666667E+009;1.779541224241257E-001;-2.852792618796229E-003;3.097214037552476E-003;1.222613849677146E-003;
2.412333333333334E+009;1.781169325113297E-001;-5.243687424808741E-003;3.111921483650804E-003;1.194531214423478E-003;
2.412500000000000E+009;1.786150038242340E-001;-7.626086007803679E-003;3.350252518430352E-003;1.087150187231600E-003;
2.412666666666667E+009;1.790919750928879E-001;-1.019658334553242E-002;3.503485815599561E-003;7.605657447129488E-004;
2.412833333333334E+009;1.797751039266586E-001;-1.237841974943876E-002;3.461106680333614E-003;7.442319183610380E-004;
2.413000000000000E+009;1.805683523416519E-001;-1.489759329706430E-002;3.628115635365248E-003;5.619870498776436E-004;
2.413166666666667E+009;1.813019961118698E-001;-1.705162227153778E-002;3.642274765297771E-003;2.249064127681777E-004;
2.413333333333334E+009;1.824644058942795E-001;-1.938366517424583E-002;3.747029462829232E-003;1.259523269254714E-004;
2.413500000000000E+009;1.832439452409744E-001;-2.165341377258301E-002;3.835151670500636E-003;-1.023431541398168E-004;
2.413666666666667E+009;1.845029890537262E-001;-2.365857921540737E-002;3.787758061662316E-003;-3.412490186747164E-004;
2.413833333333334E+009;1.855114400386810E-001;-2.578111924231052E-002;3.595986869186163E-003;-3.537921002134681E-004;
2.414000000000000E+009;1.867675483226776E-001;-2.784668095409870E-002;3.693582024425268E-003;-7.090801373124123E-004;
2.414166666666667E+009;1.880984157323837E-001;-2.968510426580906E-002;3.564918879419565E-003;-9.145294316112995E-004;
2.414333333333334E+009;1.891480684280396E-001;-3.145821392536163E-002;3.582335077226162E-003;-9.075706475414336E-004;
2.414500000000000E+009;1.905616521835327E-001;-3.305152058601379E-002;3.441564505919814E-003;-1.150497118942440E-003;
2.414666666666667E+009;1.916554570198059E-001;-3.455218300223351E-002;3.358355723321438E-003;-1.318380935117602E-003;
2.414833333333334E+009;1.927918344736099E-001;-3.594050556421280E-002;3.314594039693475E-003;-1.433711149729788E-003;
2.415000000000000E+009;1.940050274133682E-001;-3.707508742809296E-002;3.262185025960207E-003;-1.568090752698481E-003;
2.415166666666667E+009;1.951836943626404E-001;-3.828525170683861E-002;3.102554241195321E-003;-1.644143369048834E-003;
2.415333333333334E+009;1.963753849267960E-001;-3.925568982958794E-002;3.065015655010939E-003;-1.703900285065174E-003;
2.415500000000000E+009;1.974176615476608E-001;-4.004019498825073E-002;2.961898455396295E-003;-1.898288959637284E-003;
2.415666666666667E+009;1.984829008579254E-001;-4.080428183078766E-002;2.668262459337711E-003;-1.933596911840141E-003;
2.415833333333334E+009;1.991986185312271E-001;-4.137460514903069E-002;2.664178377017379E-003;-2.071562921628356E-003;
2.416000000000000E+009;2.001537829637528E-001;-4.185580462217331E-002;2.628649584949017E-003;-2.217638539150357E-003;
2.416166666666667E+009;2.006831169128418E-001;-4.251140356063843E-002;2.407540800049901E-003;-2.100796671584249E-003;
2.416333333333334E+009;2.014802992343903E-001;-4.270274937152863E-002;2.226948272436857E-003;-2.318261191248894E-003;
2.416500000000000E+009;2.019301652908325E-001;-4.305313155055046E-002;2.183265751227737E-003;-2.172270324081183E-003;
2.416666666666667E+009;2.021867185831070E-001;-4.319977387785912E-002;2.068242756649852E-003;-2.194935921579599E-003;
2.416833333333334E+009;2.023253887891769E-001;-4.325895011425018E-002;1.894094399176538E-003;-2.359893871471286E-003;
2.417000000000000E+009;2.024054527282715E-001;-4.328868910670281E-002;1.831828849390149E-003;-2.159642288461328E-003;
2.417166666666667E+009;2.020007669925690E-001;-4.313244670629501E-002;1.651971484534442E-003;-2.233457984402776E-003;
2.417333333333334E+009;2.019211351871491E-001;-4.292288050055504E-002;1.508406247012317E-003;-2.207122044637799E-003;
2.417500000000000E+009;2.016139924526215E-001;-4.294239357113838E-002;1.604071818292141E-003;-2.241643145680428E-003;
2.417666666666667E+009;2.010158002376556E-001;-4.271883144974709E-002;1.500906422734261E-003;-2.108915941789746E-003;
2.417833333333334E+009;2.006154805421829E-001;-4.248028248548508E-002;1.367346150800586E-003;-2.213036874309182E-003;
2.418000000000000E+009;1.999371349811554E-001;-4.217335209250450E-002;1.360747613944113E-003;-2.171565080061555E-003;
2.418166666666667E+009;1.990535706281662E-001;-4.209289699792862E-002;1.319953822530806E-003;-2.154581015929580E-003;
2.418333333333334E+009;1.982835680246353E-001;-4.189767315983772E-002;1.243013306520879E-003;-2.148519037291408E-003;
2.418500000000000E+009;1.972102969884872E-001;-4.189652204513550E-002;1.097046071663499E-003;-2.226096577942371E-003;
2.418666666666667E+009;1.962880641222000E-001;-4.180500656366348E-002;1.135116908699274E-003;-2.118482487276197E-003;
2.418833333333334E+009;1.949559152126312E-001;-4.195808991789818E-002;1.144765643402934E-003;-2.197567839175463E-003;
2.419000000000000E+009;1.937105953693390E-001;-4.219661280512810E-002;1.053399173542857E-003;-2.130527514964342E-003;
2.419166666666667E+009;1.925427317619324E-001;-4.255618155002594E-002;9.150022524408996E-004;-2.037524012848735E-003;
2.419333333333334E+009;1.909894347190857E-001;-4.291559755802155E-002;8.203788893297315E-004;-1.968606375157833E-003;
2.419500000000000E+009;1.895561218261719E-001;-4.329023510217667E-002;7.475430029444397E-004;-1.961702946573496E-003;
2.419666666666667E+009;1.878869533538818E-001;-4.413448646664619E-002;5.668864469043911E-004;-1.966392388567329E-003;
2.419833333333334E+009;1.861864030361176E-001;-4.480125755071640E-002;5.190462106838822E-004;-1.910205231979489E-003;
2.420000000000000E+009;1.847483366727829E-001;-4.572965577244759E-002;4.421411431394517E-004;-1.843280042521656E-003;
2.420166666666667E+009;1.832540035247803E-001;-4.659273475408554E-002;4.635481745935977E-004;-1.750182476826012E-003;
2.420333333333334E+009;1.814703792333603E-001;-4.776831343770027E-002;5.706534720957279E-004;-1.655245316214860E-003;
2.420500000000000E+009;1.796281635761261E-001;-4.917864874005318E-002;5.456421058624983E-004;-1.623375574126840E-003;
2.420666666666667E+009;1.781581491231918E-001;-5.034824088215828E-002;5.610185908153653E-004;-1.512743532657623E-003;
2.420833333333334E+009;1.766395270824432E-001;-5.189501494169235E-002;5.399024230428040E-004;-1.575584057718515E-003;
2.421000000000000E+009;1.749537289142609E-001;-5.339041352272034E-002;5.458708619698882E-004;-1.503515522927046E-003;
2.421166666666667E+009;1.735099405050278E-001;-5.514359846711159E-002;5.497555248439312E-004;-1.391629572026432E-003;
2.421333333333334E+009;1.719669550657272E-001;-5.667524784803391E-002;6.464773323386908E-004;-1.484202570281923E-003;
2.421500000000000E+009;1.705597788095474E-001;-5.853667482733727E-002;5.562481237575412E-004;-1.420389045961201E-003;
2.421666666666667E+009;1.694070845842362E-001;-6.037526205182076E-002;6.677261553704739E-004;-1.439054496586323E-003;
2.421833333333334E+009;1.682131141424179E-001;-6.216735765337944E-002;6.957699079066515E-004;-1.436685794033110E-003;
2.422000000000000E+009;1.669833660125732E-001;-6.405188888311386E-002;6.963933701626957E-004;-1.334186992608011E-003;
2.422166666666667E+009;1.663660407066345E-001;-6.629562377929688E-002;7.577539654448628E-004;-1.297860755585134E-003;
2.422333333333334E+009;1.651868522167206E-001;-6.826696544885635E-002;9.123857598751783E-004;-1.432441524229944E-003;
2.422500000000000E+009;1.645844280719757E-001;-7.014434784650803E-002;6.989636458456516E-004;-1.330479746684432E-003;
2.422666666666667E+009;1.638338416814804E-001;-7.218109071254730E-002;7.776193087920547E-004;-1.417663530446589E-003;
2.422833333333334E+009;1.634372323751450E-001;-7.434430718421936E-002;9.191537974402309E-004;-1.549275126308203E-003;
2.423000000000000E+009;1.628486961126328E-001;-7.625772804021835E-002;1.027632621116936E-003;-1.538894837722182E-003;
2.423166666666667E+009;1.626302599906921E-001;-7.830941677093506E-002;1.008488587103784E-003;-1.549693057313561E-003;
2.423333333333334E+009;1.623665839433670E-001;-8.040159940719605E-002;1.053946558386087E-003;-1.630058861337602E-003;
2.423500000000000E+009;1.624690890312195E-001;-8.192642778158188E-002;9.336295188404620E-004;-1.723689027130604E-003;
2.423666666666667E+009;1.624239385128021E-001;-8.399828523397446E-002;9.836059762164950E-004;-1.608563237823546E-003;
2.423833333333334E+009;1.624001860618591E-001;-8.572771400213242E-002;9.502678876742721E-004;-1.762590720318258E-003;
2.424000000000000E+009;1.625913679599762E-001;-8.760261535644531E-002;9.192102006636560E-004;-1.863899291492999E-003;
2.424166666666667E+009;1.628204137086868E-001;-8.910848945379257E-002;1.017597736790776E-003;-1.916553592309356E-003;
2.424333333333334E+009;1.629696339368820E-001;-9.074503928422928E-002;7.813395932316780E-004;-1.988236559554935E-003;
2.424500000000000E+009;1.634571403264999E-001;-9.237544238567352E-002;9.176007006317377E-004;-2.002913272008300E-003;
2.424666666666667E+009;1.637121438980103E-001;-9.371075779199600E-002;8.470297907479107E-004;-2.050617011263967E-003;
2.424833333333334E+009;1.641949415206909E-001;-9.510178864002228E-002;7.339882431551814E-004;-2.218082780018449E-003;
2.425000000000000E+009;1.647322922945023E-001;-9.625463932752609E-002;7.617269875481725E-004;-2.241361653432250E-003;
2.425166666666667E+009;1.649061441421509E-001;-9.736737608909607E-002;7.921166252344847E-004;-2.368780318647623E-003;
2.425333333333334E+009;1.653442382812500E-001;-9.834574908018112E-002;6.943511543795466E-004;-2.282134955748916E-003;
2.425500000000000E+009;1.658402234315872E-001;-9.946388751268387E-002;4.520649672485888E-004;-2.248274395242333E-003;
2.425666666666667E+009;1.663166284561157E-001;-9.991685301065445E-002;6.205696263350546E-004;-2.348008565604687E-003;
2.425833333333334E+009;1.666714400053024E-001;-1.008233577013016E-001;5.956163513474166E-004;-2.368217334151268E-003;
2.426000000000000E+009;1.671029478311539E-001;-1.011932194232941E-001;4.770103842020035E-004;-2.383018145337701E-003;
2.426166666666667E+009;1.675207763910294E-001;-1.017024517059326E-001;3.955803695134819E-004;-2.438296098262072E-003;
2.426333333333334E+009;1.677390038967133E-001;-1.023825109004974E-001;3.899180446751416E-004;-2.590401563793421E-003;
2.426500000000000E+009;1.681725382804871E-001;-1.025832369923592E-001;2.630167582537979E-004;-2.538934582844377E-003;
2.426666666666667E+009;1.683377176523209E-001;-1.029346957802773E-001;8.487716695526615E-005;-2.538559958338738E-003;
2.426833333333334E+009;1.686282604932785E-001;-1.031537353992462E-001;6.886361370561644E-005;-2.793082501739264E-003;
2.427000000000000E+009;1.685101389884949E-001;-1.033656597137451E-001;1.776880526449531E-005;-2.725554862990975E-003;
2.427166666666667E+009;1.686000972986221E-001;-1.034609302878380E-001;-9.448013588553295E-005;-2.734417095780373E-003;
2.427333333333334E+009;1.685676574707031E-001;-1.037301272153854E-001;-1.457195467082784E-004;-2.667085034772754E-003;
2.427500000000000E+009;1.683202087879181E-001;-1.038177832961083E-001;-1.952230668393895E-004;-2.783135976642370E-003;
2.427666666666667E+009;1.679851114749908E-001;-1.038280576467514E-001;-3.727293224073947E-004;-2.870444208383560E-003;
2.427833333333334E+009;1.675688028335571E-001;-1.040771082043648E-001;-3.778475802391768E-004;-2.733828499913216E-003;
