# Version 1.00
#
freq[Hz];re:Trc1_S11;im:Trc1_S11;re:Trc2_S21;im:Trc2_S21;
2.400000000000000E+009;1.554161608219147E-001;1.064110249280930E-001;-8.280487381853163E-004;5.887630861252546E-003;
2.400166666666667E+009;1.550596952438355E-001;1.037492901086807E-001;-6.871026707813144E-004;5.942964460700750E-003;
2.400333333333334E+009;1.551199555397034E-001;1.013767123222351E-001;-3.685410774778575E-004;5.837015341967344E-003;
2.400500000000000E+009;1.552121341228485E-001;9.866350144147873E-002;-2.245916548417881E-004;5.898268427699804E-003;
2.400666666666667E+009;1.553006619215012E-001;9.610266238451004E-002;-5.445305941975676E-005;5.798511207103729E-003;
2.400833333333334E+009;1.550428867340088E-001;9.324745088815689E-002;3.270285742473789E-005;5.813022144138813E-003;
2.401000000000000E+009;1.553613245487213E-001;9.044297784566879E-002;3.143881913274527E-004;5.882950499653816E-003;
2.401166666666667E+009;1.554241329431534E-001;8.761659264564514E-002;5.178654682822526E-004;5.758343730121851E-003;
2.401333333333334E+009;1.557100713253021E-001;8.467628806829453E-002;7.648160681128502E-004;5.586643703281879E-003;
2.401500000000000E+009;1.558092236518860E-001;8.193480968475342E-002;8.055852958932519E-004;5.640645045787096E-003;
2.401666666666667E+009;1.564373373985291E-001;7.897577434778214E-002;1.069806283339858E-003;5.628093145787716E-003;
2.401833333333334E+009;1.567089557647705E-001;7.610353082418442E-002;1.441627275198698E-003;5.509040318429470E-003;
2.402000000000000E+009;1.575424224138260E-001;7.336776703596115E-002;1.566592021845281E-003;5.312731955200434E-003;
2.402166666666667E+009;1.583073735237122E-001;7.076030224561691E-002;1.924849697388709E-003;5.458092316985130E-003;
2.402333333333334E+009;1.592145115137100E-001;6.814211606979370E-002;2.111582085490227E-003;5.206446163356304E-003;
2.402500000000000E+009;1.601952761411667E-001;6.564428657293320E-002;2.335116267204285E-003;5.026396829634905E-003;
2.402666666666667E+009;1.613778024911881E-001;6.330060958862305E-002;2.378209494054318E-003;4.804490599781275E-003;
2.402833333333334E+009;1.625921726226807E-001;6.089573726058006E-002;2.583421301096678E-003;4.645545035600662E-003;
2.403000000000000E+009;1.640167236328125E-001;5.849065631628037E-002;2.722395118325949E-003;4.376736003905535E-003;
2.403166666666667E+009;1.657992750406265E-001;5.632641166448593E-002;3.054012777283788E-003;4.227982368320227E-003;
2.403333333333334E+009;1.671160012483597E-001;5.412719771265984E-002;3.027468454092741E-003;4.005191382020712E-003;
2.403500000000000E+009;1.687002032995224E-001;5.220037326216698E-002;3.101863199844956E-003;3.651678562164307E-003;
2.403666666666667E+009;1.706200391054153E-001;5.023696646094322E-002;3.191621974110603E-003;3.478769911453128E-003;
2.403833333333334E+009;1.720691621303558E-001;4.835207760334015E-002;3.091252874583006E-003;3.451389959082007E-003;
2.404000000000000E+009;1.736781299114227E-001;4.683205485343933E-002;3.141520079225302E-003;3.168875584378839E-003;
2.404166666666667E+009;1.754990369081497E-001;4.513933509588242E-002;3.199966158717871E-003;3.091301536187530E-003;
2.404333333333334E+009;1.771920025348663E-001;4.378726705908775E-002;3.173659322783351E-003;2.869697287678719E-003;
2.404500000000000E+009;1.787495613098145E-001;4.229215532541275E-002;3.378614550456405E-003;2.829895121976733E-003;
2.404666666666667E+009;1.803573966026306E-001;4.124874249100685E-002;3.390123834833503E-003;2.642075298354030E-003;
2.404833333333334E+009;1.818289756774902E-001;4.020334407687187E-002;3.452720819041133E-003;2.477891277521849E-003;
2.405000000000000E+009;1.834350973367691E-001;3.962038829922676E-002;3.386648138985038E-003;2.172699430957437E-003;
2.405166666666667E+009;1.848539412021637E-001;3.885985538363457E-002;3.484694985672832E-003;2.088849432766438E-003;
2.405333333333334E+009;1.862635612487793E-001;3.843291476368904E-002;3.351297229528427E-003;1.928218291141093E-003;
2.405500000000000E+009;1.876586973667145E-001;3.791351988911629E-002;3.309635678306222E-003;1.643854659050703E-003;
2.405666666666667E+009;1.888402253389359E-001;3.761451318860054E-002;3.455960424616933E-003;1.571797882206738E-003;
2.405833333333334E+009;1.901635825634003E-001;3.750836849212647E-002;3.270648187026382E-003;1.390553545206785E-003;
2.406000000000000E+009;1.911998242139816E-001;3.726666048169136E-002;3.306903643533588E-003;1.415324513800442E-003;
2.406166666666667E+009;1.922125369310379E-001;3.722734376788139E-002;3.161065513268113E-003;1.077830791473389E-003;
2.406333333333334E+009;1.930160820484161E-001;3.718275576829910E-002;3.092769300565124E-003;1.002939068712294E-003;
2.406500000000000E+009;1.937998384237289E-001;3.727889806032181E-002;3.142181085422635E-003;9.598060860298574E-004;
2.406666666666667E+009;1.943015009164810E-001;3.742732852697372E-002;2.885014051571488E-003;7.259635021910071E-004;
2.406833333333334E+009;1.949824541807175E-001;3.745933249592781E-002;2.862025750800967E-003;7.735018734820187E-004;
2.407000000000000E+009;1.951989084482193E-001;3.761957585811615E-002;2.758667804300785E-003;5.768975242972374E-004;
2.407166666666667E+009;1.955644786357880E-001;3.745184093713760E-002;2.647513756528497E-003;3.735324717126787E-004;
2.407333333333334E+009;1.955173164606094E-001;3.772129863500595E-002;2.458303468301892E-003;6.450214423239231E-004;
2.407500000000000E+009;1.953567266464233E-001;3.786106780171394E-002;2.417264273390174E-003;4.121344245504588E-004;
2.407666666666667E+009;1.954146027565002E-001;3.793873265385628E-002;2.441732445731759E-003;5.091031780466437E-004;
2.407833333333334E+009;1.949490159749985E-001;3.784580156207085E-002;2.317496575415134E-003;5.111034261062741E-004;
2.408000000000000E+009;1.948536336421967E-001;3.775407746434212E-002;2.122282283380628E-003;4.124052939005196E-004;
2.408166666666667E+009;1.942767053842545E-001;3.752757608890533E-002;2.015278209000826E-003;5.035300855524838E-004;
2.408333333333334E+009;1.938799321651459E-001;3.713878616690636E-002;2.173404674977064E-003;5.922392010688782E-004;
2.408500000000000E+009;1.930846720933914E-001;3.690724447369576E-002;2.049203962087631E-003;4.443879879545420E-004;
2.408666666666667E+009;1.926212459802628E-001;3.638267144560814E-002;1.972732599824667E-003;4.246101889293641E-004;
2.408833333333334E+009;1.918632984161377E-001;3.566565737128258E-002;2.094712341204286E-003;4.139846132602543E-004;
2.409000000000000E+009;1.909902244806290E-001;3.488668799400330E-002;1.918030553497374E-003;5.600704462267458E-004;
2.409166666666667E+009;1.901544630527496E-001;3.395343944430351E-002;1.933280145749450E-003;6.121420883573592E-004;
2.409333333333334E+009;1.893883943557739E-001;3.291431069374085E-002;1.812793198041618E-003;4.787459620274603E-004;
2.409500000000000E+009;1.882073283195496E-001;3.158912807703018E-002;1.709664822556078E-003;5.847797729074955E-004;
2.409666666666667E+009;1.871029138565064E-001;3.013038262724876E-002;1.723566558212042E-003;6.523073534481227E-004;
2.409833333333334E+009;1.863036602735519E-001;2.865788899362087E-002;1.694878330454230E-003;7.003821083344519E-004;
2.410000000000000E+009;1.854946017265320E-001;2.706514112651348E-002;1.697806641459465E-003;6.344764842651784E-004;
2.410166666666667E+009;1.844234764575958E-001;2.513344399631023E-002;1.768617657944560E-003;8.289230754598975E-004;
2.410333333333334E+009;1.834735870361328E-001;2.348442934453487E-002;1.737616374157369E-003;9.154450381174684E-004;
2.410500000000000E+009;1.823917329311371E-001;2.161583490669727E-002;1.815399387851358E-003;9.569263202138245E-004;
2.410666666666667E+009;1.815937608480454E-001;1.909422874450684E-002;1.753065967932344E-003;8.915954967960715E-004;
2.410833333333334E+009;1.809424310922623E-001;1.682366803288460E-002;1.917473273351789E-003;1.089451718144119E-003;
2.411000000000000E+009;1.801729202270508E-001;1.472417172044516E-002;1.832005567848682E-003;1.146925147622824E-003;
2.411166666666667E+009;1.794771552085877E-001;1.254959963262081E-002;1.921989023685455E-003;1.237712334841490E-003;
2.411333333333334E+009;1.790215820074081E-001;9.964795783162117E-003;2.103667007759213E-003;1.322816126048565E-003;
2.411500000000000E+009;1.785730719566345E-001;7.521611638367176E-003;2.160240430384874E-003;1.218221615999937E-003;
2.411666666666667E+009;1.784668713808060E-001;5.144464783370495E-003;2.292037941515446E-003;1.263780752196908E-003;
2.411833333333334E+009;1.781277209520340E-001;2.765002427622676E-003;2.511595841497183E-003;1.344368327409029E-003;
2.412000000000000E+009;1.783478558063507E-001;1.731265510898083E-004;2.650232519954443E-003;1.177482539787889E-003;
2.412166666666667E+009;1.784643977880478E-001;-2.079344354569912E-003;2.711986890062690E-003;1.100051682442427E-003;
2.412333333333334E+009;1.786511838436127E-001;-4.692092537879944E-003;2.934188116341829E-003;1.051323139108717E-003;
2.412500000000000E+009;1.790781021118164E-001;-7.162239868193865E-003;3.110998310148716E-003;1.006735838018358E-003;
2.412666666666667E+009;1.795546859502792E-001;-9.747539646923542E-003;3.275197464972735E-003;8.197114220820367E-004;
2.412833333333334E+009;1.801894158124924E-001;-1.219821814447641E-002;3.399372799322009E-003;5.679262103512883E-004;
2.413000000000000E+009;1.811063140630722E-001;-1.447338517755270E-002;3.424701979383826E-003;5.359043134376407E-004;
2.413166666666667E+009;1.819418668746948E-001;-1.681113429367542E-002;3.470470197498798E-003;2.292464632773772E-004;
2.413333333333334E+009;1.829015761613846E-001;-1.916190981864929E-002;3.584202844649553E-003;9.193392907036468E-005;
2.413500000000000E+009;1.838199049234390E-001;-2.137055061757565E-002;3.611439839005470E-003;-1.074169631465338E-004;
2.413666666666667E+009;1.848675012588501E-001;-2.356201410293579E-002;3.629238111898303E-003;-2.602195891086012E-004;
2.413833333333334E+009;1.859083920717239E-001;-2.562842704355717E-002;3.492598887532949E-003;-4.852045385632664E-004;
2.414000000000000E+009;1.872953921556473E-001;-2.755722030997276E-002;3.430467564612627E-003;-6.159601616673172E-004;
2.414166666666667E+009;1.883576065301895E-001;-2.939009480178356E-002;3.296725219115615E-003;-8.569412748329341E-004;
2.414333333333334E+009;1.895732730627060E-001;-3.135830909013748E-002;3.302580211311579E-003;-9.042908786796033E-004;
2.414500000000000E+009;1.909798979759216E-001;-3.290334716439247E-002;3.287500934675336E-003;-1.062209252268076E-003;
2.414666666666667E+009;1.919807046651840E-001;-3.441636264324188E-002;3.057763678953052E-003;-1.238418743014336E-003;
2.414833333333334E+009;1.933752149343491E-001;-3.577351570129395E-002;3.032861044630408E-003;-1.203121733851731E-003;
2.415000000000000E+009;1.942743360996246E-001;-3.700460121035576E-002;3.012417349964380E-003;-1.486323890276253E-003;
2.415166666666667E+009;1.955171078443527E-001;-3.818371891975403E-002;2.918774727731943E-003;-1.336612273007631E-003;
2.415333333333334E+009;1.966636925935745E-001;-3.919560834765434E-002;2.833140548318625E-003;-1.553641282953322E-003;
2.415500000000000E+009;1.979301422834396E-001;-3.975524008274078E-002;2.690604422241449E-003;-1.718781772069633E-003;
2.415666666666667E+009;1.988218873739243E-001;-4.058685898780823E-002;2.561765024438500E-003;-1.766024273820221E-003;
2.415833333333334E+009;1.997432708740234E-001;-4.126665741205216E-002;2.540836576372385E-003;-1.713281497359276E-003;
2.416000000000000E+009;2.005354613065720E-001;-4.182551801204681E-002;2.278852974995971E-003;-1.838841242715716E-003;
2.416166666666667E+009;2.012051194906235E-001;-4.229357093572617E-002;2.222483279183507E-003;-2.208297606557608E-003;
2.416333333333334E+009;2.019460499286652E-001;-4.260670393705368E-002;2.154306508600712E-003;-1.927212462760508E-003;
2.416500000000000E+009;2.023194730281830E-001;-4.286643490195274E-002;1.992583274841309E-003;-2.072357339784503E-003;
2.416666666666667E+009;2.025764882564545E-001;-4.328177869319916E-002;1.805587438866496E-003;-2.044936409220099E-003;
2.416833333333334E+009;2.027130872011185E-001;-4.330585896968842E-002;1.779656973667443E-003;-2.109444933012128E-003;
2.417000000000000E+009;2.029000073671341E-001;-4.332464188337326E-002;1.722549437545240E-003;-1.956091262400150E-003;
2.417166666666667E+009;2.025566697120667E-001;-4.324834048748016E-002;1.604353426955640E-003;-1.956060295924544E-003;
2.417333333333334E+009;2.023274749517441E-001;-4.297536239027977E-002;1.476215315051377E-003;-2.050161594524980E-003;
2.417500000000000E+009;2.019494771957398E-001;-4.314124211668968E-002;1.436750637367368E-003;-1.987333176657558E-003;
2.417666666666667E+009;2.015312910079956E-001;-4.289335757493973E-002;1.425350666977465E-003;-1.833802787587047E-003;
2.417833333333334E+009;2.011018544435501E-001;-4.262771457433701E-002;1.444832189008594E-003;-1.984064700081945E-003;
2.418000000000000E+009;2.003278881311417E-001;-4.232551530003548E-002;1.402905676513910E-003;-1.967984950169921E-003;
2.418166666666667E+009;1.996145099401474E-001;-4.217509925365448E-002;1.181740779429674E-003;-1.951959100551903E-003;
2.418333333333334E+009;1.985943913459778E-001;-4.203067719936371E-002;1.161609892733395E-003;-1.886424608528614E-003;
2.418500000000000E+009;1.975429654121399E-001;-4.216011241078377E-002;1.186111243441701E-003;-1.882227719761431E-003;
2.418666666666667E+009;1.966330111026764E-001;-4.194779694080353E-002;1.107040210627019E-003;-1.823521452024579E-003;
2.418833333333334E+009;1.953467726707459E-001;-4.220619052648544E-002;1.058969763107598E-003;-1.900014234706760E-003;
2.419000000000000E+009;1.940439641475678E-001;-4.226996004581451E-002;8.830120204947889E-004;-1.986054470762610E-003;
2.419166666666667E+009;1.927987784147263E-001;-4.263666272163391E-002;8.844317053444684E-004;-1.928749843500555E-003;
2.419333333333334E+009;1.913802474737167E-001;-4.302251711487770E-002;9.079206502065063E-004;-1.947439624927938E-003;
2.419500000000000E+009;1.899251937866211E-001;-4.366323724389076E-002;7.252889336086810E-004;-1.750648370943964E-003;
2.419666666666667E+009;1.883139014244080E-001;-4.438678175210953E-002;7.785317138768733E-004;-1.761923427693546E-003;
2.419833333333334E+009;1.865696758031845E-001;-4.497560113668442E-002;6.367566529661417E-004;-1.682899193838239E-003;
2.420000000000000E+009;1.849660724401474E-001;-4.591578990221024E-002;7.365000201389194E-004;-1.644953619688749E-003;
2.420166666666667E+009;1.833542734384537E-001;-4.693496227264404E-002;6.369331385940313E-004;-1.507485168986023E-003;
2.420333333333334E+009;1.816527098417282E-001;-4.802700504660606E-002;5.434224149212241E-004;-1.505935331806541E-003;
2.420500000000000E+009;1.800172775983810E-001;-4.933435097336769E-002;6.128011154942215E-004;-1.450692303478718E-003;
2.420666666666667E+009;1.784311085939407E-001;-5.035397037863731E-002;4.905477981083095E-004;-1.391921774484217E-003;
2.420833333333334E+009;1.768470853567123E-001;-5.196342617273331E-002;7.123663672246039E-004;-1.221392652951181E-003;
2.421000000000000E+009;1.752690821886063E-001;-5.364399403333664E-002;6.635823519900441E-004;-1.167428679764271E-003;
2.421166666666667E+009;1.739240139722824E-001;-5.519929155707359E-002;7.851317641325295E-004;-1.220115576870740E-003;
2.421333333333334E+009;1.721725314855576E-001;-5.678928643465042E-002;7.762536406517029E-004;-1.245131366886199E-003;
2.421500000000000E+009;1.709183305501938E-001;-5.867391079664230E-002;9.346258011646569E-004;-1.229360350407660E-003;
2.421666666666667E+009;1.695639789104462E-001;-6.056130304932594E-002;8.301521302200854E-004;-1.197690144181252E-003;
2.421833333333334E+009;1.684284955263138E-001;-6.237470731139183E-002;8.194887195713818E-004;-1.134773716330528E-003;
2.422000000000000E+009;1.672943681478500E-001;-6.437572091817856E-002;9.245799737982452E-004;-1.145947957411408E-003;
2.422166666666667E+009;1.664930135011673E-001;-6.659384816884995E-002;1.029773149639368E-003;-1.305146608501673E-003;
2.422333333333334E+009;1.654841005802155E-001;-6.842145323753357E-002;9.686041157692671E-004;-1.196886878460646E-003;
2.422500000000000E+009;1.646826267242432E-001;-7.043167948722839E-002;9.616269962862134E-004;-1.249169697985053E-003;
2.422666666666667E+009;1.642642319202423E-001;-7.245662063360214E-002;1.107457093894482E-003;-1.351731480099261E-003;
2.422833333333334E+009;1.636864989995956E-001;-7.445193082094193E-002;1.093578175641596E-003;-1.466487883590162E-003;
2.423000000000000E+009;1.631038039922714E-001;-7.664700597524643E-002;1.285521429963410E-003;-1.442969543859363E-003;
2.423166666666667E+009;1.628102362155914E-001;-7.870647311210632E-002;1.290289568714798E-003;-1.466392539441586E-003;
2.423333333333334E+009;1.625204980373383E-001;-8.064846694469452E-002;1.316436566412449E-003;-1.633215812034905E-003;
2.423500000000000E+009;1.625272035598755E-001;-8.246614784002304E-002;1.143595087341964E-003;-1.644096686504781E-003;
2.423666666666667E+009;1.626556664705277E-001;-8.438491076231003E-002;1.164024579338729E-003;-1.740589621476829E-003;
2.423833333333334E+009;1.625487506389618E-001;-8.606352657079697E-002;1.200262922793627E-003;-1.814548624679446E-003;
2.424000000000000E+009;1.628848761320114E-001;-8.780449628829956E-002;1.078321016393602E-003;-1.850353786721826E-003;
2.424166666666667E+009;1.627570241689682E-001;-8.957537263631821E-002;1.197723788209260E-003;-1.873817760497332E-003;
2.424333333333334E+009;1.630084812641144E-001;-9.110932797193527E-002;9.624746744520962E-004;-1.971434336155653E-003;
2.424500000000000E+009;1.634624749422073E-001;-9.280674159526825E-002;9.856928372755647E-004;-2.019493374973536E-003;
2.424666666666667E+009;1.637971401214600E-001;-9.416323900222778E-002;9.830642957240343E-004;-2.171875210478902E-003;
2.424833333333334E+009;1.644727736711502E-001;-9.545101970434189E-002;1.001030206680298E-003;-2.093764953315258E-003;
2.425000000000000E+009;1.647859811782837E-001;-9.665680676698685E-002;9.919935837388039E-004;-2.106019761413336E-003;
2.425166666666667E+009;1.652076840400696E-001;-9.774259477853775E-002;8.929194882512093E-004;-2.203901764005423E-003;
2.425333333333334E+009;1.655517071485519E-001;-9.878010302782059E-002;8.988694753497839E-004;-2.227224176749587E-003;
2.425500000000000E+009;1.659413576126099E-001;-9.969913959503174E-002;7.656416855752468E-004;-2.527325879782438E-003;
2.425666666666667E+009;1.664473712444305E-001;-1.003726050257683E-001;8.356054313480854E-004;-2.390966052189469E-003;
2.425833333333334E+009;1.667781621217728E-001;-1.012318804860115E-001;6.602882058359683E-004;-2.438290510326624E-003;
2.426000000000000E+009;1.671931445598602E-001;-1.017121598124504E-001;6.527143996208906E-004;-2.571054967120290E-003;
2.426166666666667E+009;1.675285249948502E-001;-1.022109761834145E-001;6.837823893874884E-004;-2.713516820222139E-003;
2.426333333333334E+009;1.677188128232956E-001;-1.027145385742188E-001;5.619917646981776E-004;-2.764803823083639E-003;
2.426500000000000E+009;1.680801212787628E-001;-1.029557287693024E-001;5.335356108844280E-004;-2.677265787497163E-003;
2.426666666666667E+009;1.683605611324310E-001;-1.032742038369179E-001;2.603593457024545E-004;-2.881548600271344E-003;
2.426833333333334E+009;1.685414165258408E-001;-1.036727130413055E-001;2.637212455738336E-004;-2.921681152656674E-003;
2.427000000000000E+009;1.685625761747360E-001;-1.037521213293076E-001;1.216767268488184E-004;-2.986440202221274E-003;
2.427166666666667E+009;1.686176061630249E-001;-1.038558483123779E-001;9.513437544228509E-005;-2.897709608078003E-003;
2.427333333333334E+009;1.683595478534699E-001;-1.041606813669205E-001;-1.262395380763337E-004;-2.951702568680048E-003;
2.427500000000000E+009;1.680628508329392E-001;-1.042975559830666E-001;-2.225896168965846E-004;-2.996407216414809E-003;
2.427666666666667E+009;1.677367091178894E-001;-1.043026149272919E-001;-2.360827784286812E-004;-2.899693557992578E-003;
2.427833333333334E+009;1.673929095268250E-001;-1.043627783656120E-001;-3.709648444782943E-004;-3.018592018634081E-003;
