# Version 1.00
#
freq[Hz];re:Trc1_S11;im:Trc1_S11;re:Trc2_S21;im:Trc2_S21;
2.400000000000000E+009;1.554472893476486E-001;1.069525852799416E-001;-1.034457585774362E-003;5.813052877783775E-003;
2.400166666666667E+009;1.552028059959412E-001;1.047060713171959E-001;-6.694850744679570E-004;5.711468867957592E-003;
2.400333333333334E+009;1.553590893745422E-001;1.022362411022186E-001;-5.315093440003693E-004;5.664324853569269E-003;
2.400500000000000E+009;1.549988836050034E-001;9.949958324432373E-002;-4.245401360094547E-004;5.737979896366596E-003;
2.400666666666667E+009;1.553203761577606E-001;9.674366563558579E-002;-2.742048527579755E-004;5.710516124963760E-003;
2.400833333333334E+009;1.553580015897751E-001;9.390672296285629E-002;8.011246973183006E-005;5.744249094277620E-003;
2.401000000000000E+009;1.556234806776047E-001;9.117817133665085E-002;3.085230127908289E-004;5.594141315668821E-003;
2.401166666666667E+009;1.556602567434311E-001;8.834991604089737E-002;3.877415147144347E-004;5.433857906609774E-003;
2.401333333333334E+009;1.559797823429108E-001;8.546182513237000E-002;6.978394230827689E-004;5.619661882519722E-003;
2.401500000000000E+009;1.562747210264206E-001;8.236341923475266E-002;7.690996862947941E-004;5.696743261069059E-003;
2.401666666666667E+009;1.566745787858963E-001;7.955137640237808E-002;1.045341719873250E-003;5.497329402714968E-003;
2.401833333333334E+009;1.571684479713440E-001;7.679919898509979E-002;1.124332076869905E-003;5.542625207453966E-003;
2.402000000000000E+009;1.580551564693451E-001;7.394182682037354E-002;1.555391354486346E-003;5.237818695604801E-003;
2.402166666666667E+009;1.588999480009079E-001;7.153635472059250E-002;1.753800781443715E-003;5.263587459921837E-003;
2.402333333333334E+009;1.597821563482285E-001;6.875429302453995E-002;1.932145445607603E-003;5.177593324333429E-003;
2.402500000000000E+009;1.609674245119095E-001;6.605688482522965E-002;2.202410250902176E-003;4.926327150315046E-003;
2.402666666666667E+009;1.621219962835312E-001;6.366380304098129E-002;2.457504393532872E-003;4.720088560134172E-003;
2.402833333333334E+009;1.633709073066711E-001;6.129789724946022E-002;2.514316467568278E-003;4.489439539611340E-003;
2.403000000000000E+009;1.650102436542511E-001;5.883944034576416E-002;2.658577170222998E-003;4.477180540561676E-003;
2.403166666666667E+009;1.663693338632584E-001;5.663419142365456E-002;2.772560808807612E-003;4.304539877921343E-003;
2.403333333333334E+009;1.680630594491959E-001;5.442314222455025E-002;2.834509126842022E-003;3.961285576224327E-003;
2.403500000000000E+009;1.696144938468933E-001;5.226256325840950E-002;2.995850984007120E-003;3.813227871432900E-003;
2.403666666666667E+009;1.715215593576431E-001;5.032298341393471E-002;2.983244368806481E-003;3.708973294124007E-003;
2.403833333333334E+009;1.730614602565765E-001;4.841778054833412E-002;3.157675499096513E-003;3.445862093940377E-003;
2.404000000000000E+009;1.744844168424606E-001;4.678797349333763E-002;2.992455381900072E-003;3.321793628856540E-003;
2.404166666666667E+009;1.763450205326080E-001;4.516946524381638E-002;3.194409888237715E-003;3.213513642549515E-003;
2.404333333333334E+009;1.779493093490601E-001;4.367751255631447E-002;3.283939324319363E-003;3.194999415427446E-003;
2.404500000000000E+009;1.797527670860291E-001;4.218224436044693E-002;3.165001748129726E-003;2.922392915934324E-003;
2.404666666666667E+009;1.812166571617127E-001;4.119938611984253E-002;3.384019713848829E-003;2.553316531702876E-003;
2.404833333333334E+009;1.829134374856949E-001;3.994075581431389E-002;3.387376200407744E-003;2.312329830601811E-003;
2.405000000000000E+009;1.841673552989960E-001;3.925967216491699E-002;3.371813800185919E-003;2.524878131225705E-003;
2.405166666666667E+009;1.856787949800491E-001;3.847520798444748E-002;3.285218961536884E-003;2.232138998806477E-003;
2.405333333333334E+009;1.871327161788940E-001;3.811651840806007E-002;3.289086744189262E-003;2.201644703745842E-003;
2.405500000000000E+009;1.884734630584717E-001;3.757868334650993E-002;3.268652828410268E-003;2.037352649495006E-003;
2.405666666666667E+009;1.896971017122269E-001;3.725211694836617E-002;3.322788514196873E-003;1.713532838039100E-003;
2.405833333333334E+009;1.911073774099350E-001;3.701219707727432E-002;3.236643271520734E-003;1.555273425765336E-003;
2.406000000000000E+009;1.919441819190979E-001;3.678562864661217E-002;3.305159974843264E-003;1.384314382448793E-003;
2.406166666666667E+009;1.930036991834641E-001;3.657766431570053E-002;3.129691351205111E-003;1.307608559727669E-003;
2.406333333333334E+009;1.938662230968475E-001;3.666222468018532E-002;3.057539695873857E-003;1.089117606170476E-003;
2.406500000000000E+009;1.945128440856934E-001;3.674297779798508E-002;2.974556293338537E-003;1.162333879619837E-003;
2.406666666666667E+009;1.950651407241821E-001;3.668553382158279E-002;2.820935100317001E-003;9.232441661879420E-004;
2.406833333333334E+009;1.955105960369110E-001;3.670512512326241E-002;2.897525206208229E-003;9.755469509400427E-004;
2.407000000000000E+009;1.957000643014908E-001;3.696747869253159E-002;2.821554895490408E-003;8.141718572005630E-004;
2.407166666666667E+009;1.961693763732910E-001;3.690432757139206E-002;2.733003813773394E-003;8.116758544929326E-004;
2.407333333333334E+009;1.959326416254044E-001;3.715451061725617E-002;2.357645425945520E-003;6.398412515409291E-004;
2.407500000000000E+009;1.959013193845749E-001;3.728990256786346E-002;2.349053509533405E-003;7.812341209501028E-004;
2.407666666666667E+009;1.958096623420715E-001;3.712742030620575E-002;2.446832833811641E-003;6.845906027592719E-004;
2.407833333333334E+009;1.953794360160828E-001;3.703976795077324E-002;2.288169227540493E-003;6.201682845130563E-004;
2.408000000000000E+009;1.951918900012970E-001;3.706991299986839E-002;2.303537447005510E-003;6.300903623923659E-004;
2.408166666666667E+009;1.947080641984940E-001;3.672179579734802E-002;2.200207905843854E-003;5.967539036646485E-004;
2.408333333333334E+009;1.942270547151566E-001;3.627527877688408E-002;2.137476811185479E-003;5.984817398712039E-004;
2.408500000000000E+009;1.933374553918839E-001;3.591636568307877E-002;2.113270806148648E-003;6.044737529009581E-004;
2.408666666666667E+009;1.926645636558533E-001;3.549863398075104E-002;2.039777580648661E-003;6.044089095667005E-004;
2.408833333333334E+009;1.919481307268143E-001;3.484926000237465E-002;1.988348085433245E-003;6.539731402881444E-004;
2.409000000000000E+009;1.910063326358795E-001;3.394123911857605E-002;1.992731355130673E-003;7.004026556387544E-004;
2.409166666666667E+009;1.901440769433975E-001;3.297817707061768E-002;1.747163943946362E-003;7.269160123541951E-004;
2.409333333333334E+009;1.891011744737625E-001;3.202448785305023E-002;1.853465917520225E-003;6.554806604981422E-004;
2.409500000000000E+009;1.880226880311966E-001;3.081174939870834E-002;1.864666934125125E-003;5.983525188639760E-004;
2.409666666666667E+009;1.870154589414597E-001;2.939589507877827E-002;1.723897643387318E-003;7.621214026585221E-004;
2.409833333333334E+009;1.860586255788803E-001;2.801640331745148E-002;1.724850968457758E-003;7.951777661219239E-004;
2.410000000000000E+009;1.849655956029892E-001;2.641391381621361E-002;1.817682525143027E-003;9.265198605135083E-004;
2.410166666666667E+009;1.841846555471420E-001;2.454149723052979E-002;1.729996525682509E-003;9.540149476379156E-004;
2.410333333333334E+009;1.830615252256393E-001;2.282025106251240E-002;1.759331207722426E-003;9.685742552392185E-004;
2.410500000000000E+009;1.820888519287109E-001;2.089954540133476E-002;1.832155976444483E-003;1.023329212330282E-003;
2.410666666666667E+009;1.811457723379135E-001;1.858135312795639E-002;2.001118380576372E-003;1.134760794229806E-003;
2.410833333333334E+009;1.804405897855759E-001;1.628470420837402E-002;1.915398635901511E-003;1.300253905355930E-003;
2.411000000000000E+009;1.796611547470093E-001;1.429960038512945E-002;2.030732342973352E-003;1.212695147842169E-003;
2.411166666666667E+009;1.790323406457901E-001;1.193908881396055E-002;2.059831749647856E-003;1.328997663222253E-003;
2.411333333333334E+009;1.784251332283020E-001;9.554629214107990E-003;2.190078375861049E-003;1.390874269418418E-003;
2.411500000000000E+009;1.781025677919388E-001;7.139293942600489E-003;2.359125530347228E-003;1.405078917741776E-003;
2.411666666666667E+009;1.779018938541412E-001;4.676456097513437E-003;2.686178777366877E-003;1.380097703076899E-003;
2.411833333333334E+009;1.776203513145447E-001;2.398783573880792E-003;2.558072330430150E-003;1.457401667721570E-003;
2.412000000000000E+009;1.777016371488571E-001;-1.679675042396411E-004;2.813361585140228E-003;1.488986541517079E-003;
2.412166666666667E+009;1.776981949806213E-001;-2.547175623476505E-003;2.946215681731701E-003;1.198828220367432E-003;
2.412333333333334E+009;1.779069006443024E-001;-5.084468983113766E-003;3.070220118388534E-003;1.010625157505274E-003;
2.412500000000000E+009;1.785180717706680E-001;-7.339744828641415E-003;3.380538895726204E-003;1.151175121776760E-003;
2.412666666666667E+009;1.788936406373978E-001;-9.928146377205849E-003;3.479040227830410E-003;8.668801165185869E-004;
2.412833333333334E+009;1.796233505010605E-001;-1.231847517192364E-002;3.513858886435628E-003;7.293159724213183E-004;
2.413000000000000E+009;1.804469227790833E-001;-1.451476477086544E-002;3.671060316264629E-003;5.445162532851100E-004;
2.413166666666667E+009;1.811465620994568E-001;-1.674879901111126E-002;3.628560574725270E-003;2.734025183599442E-004;
2.413333333333334E+009;1.822832673788071E-001;-1.895301602780819E-002;3.825210034847260E-003;1.552549219923094E-004;
2.413500000000000E+009;1.831852644681931E-001;-2.135670185089111E-002;3.695633495226502E-003;-1.765559572959319E-004;
2.413666666666667E+009;1.844053268432617E-001;-2.361091785132885E-002;3.748696297407150E-003;-3.335526562295854E-004;
2.413833333333334E+009;1.855508834123612E-001;-2.564387209713459E-002;3.702726680785418E-003;-5.473796627484262E-004;
2.414000000000000E+009;1.866580396890640E-001;-2.750874310731888E-002;3.552737412974238E-003;-8.075367077253759E-004;
2.414166666666667E+009;1.880632489919663E-001;-2.917314320802689E-002;3.528620116412640E-003;-8.550442289561033E-004;
2.414333333333334E+009;1.890571713447571E-001;-3.125788643956184E-002;3.532263915985823E-003;-1.054391614161432E-003;
2.414500000000000E+009;1.904952526092529E-001;-3.268629685044289E-002;3.481697523966432E-003;-1.116981962695718E-003;
2.414666666666667E+009;1.916953921318054E-001;-3.414050862193108E-002;3.255433170124888E-003;-1.341682975180447E-003;
2.414833333333334E+009;1.927155852317810E-001;-3.550125285983086E-002;3.379923291504383E-003;-1.392391277477145E-003;
2.415000000000000E+009;1.939373314380646E-001;-3.685970231890678E-002;3.126900875940919E-003;-1.518355216830969E-003;
2.415166666666667E+009;1.953082084655762E-001;-3.791828081011772E-002;3.271800698712468E-003;-1.526857144199312E-003;
2.415333333333334E+009;1.964334994554520E-001;-3.890571743249893E-002;3.007898340001702E-003;-1.571887056343257E-003;
2.415500000000000E+009;1.974451839923859E-001;-3.970616310834885E-002;2.900039544329047E-003;-1.805954729206860E-003;
2.415666666666667E+009;1.985138356685638E-001;-4.052594304084778E-002;2.659813035279512E-003;-1.791238901205361E-003;
2.415833333333334E+009;1.993208974599838E-001;-4.111289232969284E-002;2.675075316801667E-003;-1.959810964763165E-003;
2.416000000000000E+009;2.001992315053940E-001;-4.167153313755989E-002;2.416539238765836E-003;-2.079233527183533E-003;
2.416166666666667E+009;2.008948624134064E-001;-4.232503846287727E-002;2.399029675871134E-003;-2.179936971515417E-003;
2.416333333333334E+009;2.015011459589005E-001;-4.245160147547722E-002;2.128602704033256E-003;-2.059597289189696E-003;
2.416500000000000E+009;2.019737660884857E-001;-4.269086569547653E-002;2.108940389007330E-003;-2.121001482009888E-003;
2.416666666666667E+009;2.023363411426544E-001;-4.308341443538666E-002;2.070465823635459E-003;-2.063630614429712E-003;
2.416833333333334E+009;2.024534493684769E-001;-4.291222617030144E-002;1.873256289400160E-003;-2.120442455634475E-003;
2.417000000000000E+009;2.025916576385498E-001;-4.308437556028366E-002;1.832603244110942E-003;-2.136862836778164E-003;
2.417166666666667E+009;2.021837085485458E-001;-4.296530038118362E-002;1.779920072294772E-003;-2.237719716504216E-003;
2.417333333333334E+009;2.020403295755386E-001;-4.279569536447525E-002;1.560598961077631E-003;-2.082168823108077E-003;
2.417500000000000E+009;2.018027007579804E-001;-4.270665720105171E-002;1.536620315164328E-003;-2.238223096355796E-003;
2.417666666666667E+009;2.012340128421783E-001;-4.241653159260750E-002;1.517473603598774E-003;-1.957101514562964E-003;
2.417833333333334E+009;2.008424401283264E-001;-4.232956841588020E-002;1.445087254978716E-003;-2.079237950965762E-003;
2.418000000000000E+009;2.001532912254334E-001;-4.196830093860626E-002;1.218720572069287E-003;-2.155501395463944E-003;
2.418166666666667E+009;1.993811130523682E-001;-4.194255918264389E-002;1.235717325471342E-003;-2.006290480494499E-003;
2.418333333333334E+009;1.984876096248627E-001;-4.173028469085693E-002;1.282777637243271E-003;-1.910918857902288E-003;
2.418500000000000E+009;1.975670456886292E-001;-4.166912660002708E-002;1.336319721303880E-003;-2.079459605738521E-003;
2.418666666666667E+009;1.964909881353378E-001;-4.167515039443970E-002;1.051026745699346E-003;-2.111037261784077E-003;
2.418833333333334E+009;1.952652037143707E-001;-4.182921350002289E-002;1.054446562193334E-003;-1.983106369152665E-003;
2.419000000000000E+009;1.939536333084106E-001;-4.196773841977119E-002;9.411855717189610E-004;-2.091645961627364E-003;
2.419166666666667E+009;1.926712542772293E-001;-4.218982532620430E-002;8.824842516332865E-004;-2.040688414126635E-003;
2.419333333333334E+009;1.912687122821808E-001;-4.281582683324814E-002;8.782417862676084E-004;-2.021476626396179E-003;
2.419500000000000E+009;1.897927373647690E-001;-4.319076240062714E-002;6.988463574089110E-004;-1.886804704554379E-003;
2.419666666666667E+009;1.882374137639999E-001;-4.407769441604614E-002;7.458806503564119E-004;-1.951477956026793E-003;
2.419833333333334E+009;1.865750849246979E-001;-4.472280293703079E-002;6.343318964354694E-004;-1.927800360135734E-003;
2.420000000000000E+009;1.851443052291870E-001;-4.568728804588318E-002;4.693160590250045E-004;-1.761126215569675E-003;
2.420166666666667E+009;1.835015118122101E-001;-4.659087210893631E-002;5.884154234081507E-004;-1.716139493510127E-003;
2.420333333333334E+009;1.818879693746567E-001;-4.786754399538040E-002;3.856316325254738E-004;-1.595864538103342E-003;
2.420500000000000E+009;1.802035123109818E-001;-4.916366934776306E-002;3.759592655114830E-004;-1.506130909547210E-003;
2.420666666666667E+009;1.785330474376679E-001;-5.015254020690918E-002;4.910218412987888E-004;-1.542381360195577E-003;
2.420833333333334E+009;1.768326610326767E-001;-5.181500688195229E-002;5.394032923504710E-004;-1.532151596620679E-003;
2.421000000000000E+009;1.753481030464172E-001;-5.344393104314804E-002;6.711337482556701E-004;-1.476814737543464E-003;
2.421166666666667E+009;1.739654093980789E-001;-5.518092960119247E-002;6.378195248544216E-004;-1.408236566931009E-003;
2.421333333333334E+009;1.721308380365372E-001;-5.665383115410805E-002;7.068049744702876E-004;-1.385232550092042E-003;
2.421500000000000E+009;1.708222031593323E-001;-5.854770913720131E-002;7.688972982577980E-004;-1.486946363002062E-003;
2.421666666666667E+009;1.695872694253922E-001;-6.049386784434319E-002;8.392834570258856E-004;-1.322541618719697E-003;
2.421833333333334E+009;1.685525029897690E-001;-6.235072389245033E-002;8.242435287684202E-004;-1.338020432740450E-003;
2.422000000000000E+009;1.674442142248154E-001;-6.416191160678864E-002;8.060636464506388E-004;-1.541895675472915E-003;
2.422166666666667E+009;1.665724068880081E-001;-6.635086238384247E-002;8.315153536386788E-004;-1.314999186433852E-003;
2.422333333333334E+009;1.656829565763474E-001;-6.839714199304581E-002;8.256884175352752E-004;-1.342455390840769E-003;
2.422500000000000E+009;1.647521108388901E-001;-7.024461030960083E-002;8.120632264763117E-004;-1.267630839720368E-003;
2.422666666666667E+009;1.641534715890884E-001;-7.223337143659592E-002;9.642306249588728E-004;-1.430360483936966E-003;
2.422833333333334E+009;1.636314541101456E-001;-7.442972064018250E-002;1.001330325379968E-003;-1.480197184719145E-003;
2.423000000000000E+009;1.631803661584854E-001;-7.648510485887528E-002;9.692374733276665E-004;-1.546620391309261E-003;
2.423166666666667E+009;1.629208922386169E-001;-7.838051021099091E-002;9.813297074288130E-004;-1.629465958103538E-003;
2.423333333333334E+009;1.626272946596146E-001;-8.031032234430313E-002;1.145644229836762E-003;-1.652146922424436E-003;
2.423500000000000E+009;1.626539975404739E-001;-8.218901604413986E-002;9.884509490802884E-004;-1.728744944557548E-003;
2.423666666666667E+009;1.627275049686432E-001;-8.400245755910873E-002;1.031022286042571E-003;-1.657164189964533E-003;
2.423833333333334E+009;1.627537906169891E-001;-8.586144447326660E-002;9.922060417011380E-004;-1.837539137341082E-003;
2.424000000000000E+009;1.628723144531250E-001;-8.781903982162476E-002;9.899615542963147E-004;-1.851522363722324E-003;
2.424166666666667E+009;1.629608124494553E-001;-8.942227065563202E-002;1.005299622192979E-003;-1.968403114005923E-003;
2.424333333333334E+009;1.632717251777649E-001;-9.084168821573257E-002;9.175652521662414E-004;-1.819610944949091E-003;
2.424500000000000E+009;1.636830568313599E-001;-9.264206886291504E-002;9.678209898993373E-004;-2.040458377450705E-003;
2.424666666666667E+009;1.639054864645004E-001;-9.393788874149323E-002;8.298312895931304E-004;-2.007049275562167E-003;
2.424833333333334E+009;1.645610183477402E-001;-9.519906342029572E-002;8.984375162981451E-004;-2.095503965392709E-003;
2.425000000000000E+009;1.649021655321121E-001;-9.644700586795807E-002;8.412062306888402E-004;-2.281422726809979E-003;
2.425166666666667E+009;1.652379930019379E-001;-9.754572063684464E-002;9.626359096728265E-004;-2.279218286275864E-003;
2.425333333333334E+009;1.655304282903671E-001;-9.855166822671890E-002;8.236414869315922E-004;-2.294776029884815E-003;
2.425500000000000E+009;1.660712212324143E-001;-9.953459352254868E-002;8.332967408932746E-004;-2.320196013897657E-003;
2.425666666666667E+009;1.665206998586655E-001;-1.002568602561951E-001;7.084852550178766E-004;-2.506303600966930E-003;
2.425833333333334E+009;1.668831855058670E-001;-1.010591015219688E-001;7.349507068283856E-004;-2.525062300264835E-003;
2.426000000000000E+009;1.673756688833237E-001;-1.013920679688454E-001;5.019238451495767E-004;-2.598098712041974E-003;
2.426166666666667E+009;1.678319275379181E-001;-1.021044626832008E-001;4.013626894447953E-004;-2.711264183744788E-003;
2.426333333333334E+009;1.678369939327240E-001;-1.025902852416039E-001;3.386062453500927E-004;-2.537753432989121E-003;
2.426500000000000E+009;1.683050543069840E-001;-1.027860119938850E-001;3.714219492394477E-004;-2.754959044978023E-003;
2.426666666666667E+009;1.684340536594391E-001;-1.032561808824539E-001;2.914436045102775E-004;-2.743531949818134E-003;
2.426833333333334E+009;1.686667501926422E-001;-1.034379974007607E-001;2.622347674332559E-004;-2.649455098435283E-003;
2.427000000000000E+009;1.687166690826416E-001;-1.036304533481598E-001;5.703756687580608E-005;-2.722653094679117E-003;
2.427166666666667E+009;1.687472015619278E-001;-1.036472171545029E-001;3.693990220199339E-005;-2.874585334211588E-003;
2.427333333333334E+009;1.687259674072266E-001;-1.039535924792290E-001;-6.806630699429661E-005;-2.892661141231656E-003;
2.427500000000000E+009;1.683489680290222E-001;-1.040561944246292E-001;-1.185703949886374E-004;-2.883422654122114E-003;
2.427666666666667E+009;1.680578887462616E-001;-1.041704714298248E-001;-3.143579233437777E-004;-2.836060477420688E-003;
2.427833333333334E+009;1.676212251186371E-001;-1.043580994009972E-001;-3.812240902334452E-004;-2.873621881008148E-003;
