# Version 1.00
#
freq[Hz];re:Trc1_S11;im:Trc1_S11;re:Trc2_S21;im:Trc2_S21;
2.400000000000000E+009;1.550810337066650E-001;1.064735576510429E-001;-8.509304607287049E-004;5.534771364182234E-003;
2.400166666666667E+009;1.547135859727860E-001;1.041340976953507E-001;-6.308772717602551E-004;5.543513689190149E-003;
2.400333333333334E+009;1.546569019556046E-001;1.017134264111519E-001;-5.036292131990194E-004;5.486191716045141E-003;
2.400500000000000E+009;1.547447443008423E-001;9.900669753551483E-002;-3.419375570956618E-004;5.590618588030338E-003;
2.400666666666667E+009;1.548209041357040E-001;9.643148630857468E-002;-3.345922232256271E-005;5.526589695364237E-003;
2.400833333333334E+009;1.547913253307343E-001;9.360468387603760E-002;1.972706959350035E-004;5.557284690439701E-003;
2.401000000000000E+009;1.549271047115326E-001;9.091810882091522E-002;1.699413114693016E-004;5.515438038855791E-003;
2.401166666666667E+009;1.550177633762360E-001;8.792191743850708E-002;4.297801060602069E-004;5.501693114638329E-003;
2.401333333333334E+009;1.554775983095169E-001;8.508194237947464E-002;7.768307114019990E-004;5.336781963706017E-003;
2.401500000000000E+009;1.555952429771423E-001;8.220577239990234E-002;9.512850083410740E-004;5.366637371480465E-003;
2.401666666666667E+009;1.560874283313751E-001;7.914979755878449E-002;1.030136132612824E-003;5.409507080912590E-003;
2.401833333333334E+009;1.565333455801010E-001;7.662989944219589E-002;1.398848253302276E-003;5.300022661685944E-003;
2.402000000000000E+009;1.574073284864426E-001;7.373992353677750E-002;1.503522158600390E-003;5.268584471195936E-003;
2.402166666666667E+009;1.581098437309265E-001;7.122814655303955E-002;1.728331553749740E-003;5.089296493679285E-003;
2.402333333333334E+009;1.590615659952164E-001;6.834409385919571E-002;2.089008921757340E-003;4.956262186169624E-003;
2.402500000000000E+009;1.600619405508041E-001;6.581468880176544E-002;2.131324261426926E-003;4.823572933673859E-003;
2.402666666666667E+009;1.611502170562744E-001;6.364605575799942E-002;2.289313822984695E-003;4.604522138834000E-003;
2.402833333333334E+009;1.626505404710770E-001;6.100547313690186E-002;2.496844157576561E-003;4.462807904928923E-003;
2.403000000000000E+009;1.639404594898224E-001;5.879064649343491E-002;2.595247235149145E-003;4.240599460899830E-003;
2.403166666666667E+009;1.657409965991974E-001;5.659472942352295E-002;2.869498450309038E-003;3.987069241702557E-003;
2.403333333333334E+009;1.670264303684235E-001;5.430629104375839E-002;2.844821428880096E-003;3.720917506143451E-003;
2.403500000000000E+009;1.686841696500778E-001;5.251290649175644E-002;2.869474701583386E-003;3.590610111132264E-003;
2.403666666666667E+009;1.703944206237793E-001;5.067160353064537E-002;2.892384771257639E-003;3.424104535952210E-003;
2.403833333333334E+009;1.719879359006882E-001;4.863436892628670E-002;2.989075845107436E-003;3.257346572354436E-003;
2.404000000000000E+009;1.735763251781464E-001;4.709693044424057E-002;2.939695026725531E-003;3.044249024242163E-003;
2.404166666666667E+009;1.754373759031296E-001;4.558859393000603E-002;2.996145049110055E-003;2.914936980232596E-003;
2.404333333333334E+009;1.769514530897141E-001;4.413979873061180E-002;3.033343004062772E-003;2.667738124728203E-003;
2.404500000000000E+009;1.785725951194763E-001;4.272273927927017E-002;2.984026214107871E-003;2.633356722071767E-003;
2.404666666666667E+009;1.802395582199097E-001;4.175915569067001E-002;3.149850992485881E-003;2.472937107086182E-003;
2.404833333333334E+009;1.819174289703369E-001;4.056738689541817E-002;3.043732373043895E-003;2.378591801971197E-003;
2.405000000000000E+009;1.833643019199371E-001;3.990809246897697E-002;3.165041329339147E-003;2.196073532104492E-003;
2.405166666666667E+009;1.847786754369736E-001;3.942971676588059E-002;2.969259629026055E-003;2.106477506458759E-003;
2.405333333333334E+009;1.863144040107727E-001;3.887948393821716E-002;2.985526109114289E-003;1.843103207647800E-003;
2.405500000000000E+009;1.877862364053726E-001;3.846839815378189E-002;3.169012488797307E-003;1.590445986948907E-003;
2.405666666666667E+009;1.888819187879562E-001;3.806189075112343E-002;3.117684042081237E-003;1.641137991100550E-003;
2.405833333333334E+009;1.902000755071640E-001;3.792138025164604E-002;2.986460458487272E-003;1.487698755227029E-003;
2.406000000000000E+009;1.911664605140686E-001;3.772082924842835E-002;3.044347977265716E-003;1.202482962980866E-003;
2.406166666666667E+009;1.922581791877747E-001;3.769474476575851E-002;2.946898574009538E-003;1.017430447973311E-003;
2.406333333333334E+009;1.931550204753876E-001;3.769554570317268E-002;2.709654625505209E-003;1.021301373839378E-003;
2.406500000000000E+009;1.938232779502869E-001;3.779415041208267E-002;2.800283720716834E-003;8.513728971593082E-004;
2.406666666666667E+009;1.944997757673264E-001;3.782660141587257E-002;2.721280092373490E-003;7.547236164100468E-004;
2.406833333333334E+009;1.950991302728653E-001;3.787855431437492E-002;2.477943897247315E-003;7.719017448835075E-004;
2.407000000000000E+009;1.953784376382828E-001;3.797102719545364E-002;2.489042235538364E-003;6.928408984094858E-004;
2.407166666666667E+009;1.956265121698380E-001;3.793828561902046E-002;2.446983242407441E-003;5.706450319848955E-004;
2.407333333333334E+009;1.956064105033875E-001;3.823666647076607E-002;2.247742610052228E-003;6.862590089440346E-004;
2.407500000000000E+009;1.955455988645554E-001;3.838763758540154E-002;2.194575965404511E-003;6.338651292026043E-004;
2.407666666666667E+009;1.956377178430557E-001;3.838524594902992E-002;2.115484094247222E-003;6.268668803386390E-004;
2.407833333333334E+009;1.950746625661850E-001;3.826365247368813E-002;1.985194860026240E-003;7.568357978016138E-004;
2.408000000000000E+009;1.950422525405884E-001;3.816454857587814E-002;1.885479316115379E-003;5.669452366419137E-004;
2.408166666666667E+009;1.944889575242996E-001;3.802291676402092E-002;1.904806122183800E-003;6.285381386987865E-004;
2.408333333333334E+009;1.939938962459564E-001;3.764341026544571E-002;1.811765716411173E-003;6.684555555693805E-004;
2.408500000000000E+009;1.933850646018982E-001;3.733499348163605E-002;1.791796647012234E-003;6.286670104600489E-004;
2.408666666666667E+009;1.927750855684280E-001;3.687354177236557E-002;1.758020487613976E-003;4.972206079401076E-004;
2.408833333333334E+009;1.921524554491043E-001;3.620381280779839E-002;1.659753615967929E-003;6.314507336355746E-004;
2.409000000000000E+009;1.913119107484818E-001;3.522070124745369E-002;1.735163736157119E-003;6.938999867998064E-004;
2.409166666666667E+009;1.903632581233978E-001;3.435768932104111E-002;1.754175289534032E-003;7.145287236198783E-004;
2.409333333333334E+009;1.895714700222015E-001;3.339017555117607E-002;1.662870869040489E-003;7.267146720550954E-004;
2.409500000000000E+009;1.884122043848038E-001;3.203542530536652E-002;1.597616588696837E-003;7.378155132755637E-004;
2.409666666666667E+009;1.875653117895126E-001;3.060995787382126E-002;1.525285770185292E-003;9.614870068617165E-004;
2.409833333333334E+009;1.864581108093262E-001;2.906841784715653E-002;1.578128198161721E-003;8.773425361141563E-004;
2.410000000000000E+009;1.856432855129242E-001;2.741027437150478E-002;1.539987162686884E-003;9.165097144432366E-004;
2.410166666666667E+009;1.846132129430771E-001;2.542103081941605E-002;1.700686290860176E-003;1.006894977763295E-003;
2.410333333333334E+009;1.836920976638794E-001;2.389051951467991E-002;1.706933951936662E-003;1.113501959480345E-003;
2.410500000000000E+009;1.827138215303421E-001;2.170951664447784E-002;1.546048442833126E-003;1.266784733161330E-003;
2.410666666666667E+009;1.818677186965942E-001;1.949189975857735E-002;1.695310114882886E-003;1.209728186950088E-003;
2.410833333333334E+009;1.812743693590164E-001;1.726640202105045E-002;1.736919628456235E-003;1.367088174447417E-003;
2.411000000000000E+009;1.803904175758362E-001;1.512326858937740E-002;1.869390485808253E-003;1.420909538865089E-003;
2.411166666666667E+009;1.799548864364624E-001;1.270976103842259E-002;1.929310848936439E-003;1.548501197248697E-003;
2.411333333333334E+009;1.794892698526382E-001;1.022024638950825E-002;2.152237109839916E-003;1.661002170294523E-003;
2.411500000000000E+009;1.789127141237259E-001;7.664963137358427E-003;2.250296529382467E-003;1.568477251566947E-003;
2.411666666666667E+009;1.788006424903870E-001;5.535248201340437E-003;2.393313217908144E-003;1.519233337603509E-003;
2.411833333333334E+009;1.784746646881104E-001;3.086647484451532E-003;2.360999351367354E-003;1.549231586977840E-003;
2.412000000000000E+009;1.785601377487183E-001;3.538164310157299E-004;2.684049075469375E-003;1.433030702173710E-003;
2.412166666666667E+009;1.787415891885757E-001;-1.949171535670757E-003;2.801323076710105E-003;1.354417065158486E-003;
2.412333333333334E+009;1.788353174924851E-001;-4.480883944779635E-003;2.930287737399340E-003;1.330030965618789E-003;
2.412500000000000E+009;1.794210970401764E-001;-6.984116509556770E-003;3.030047286301851E-003;1.139625790528953E-003;
2.412666666666667E+009;1.799805909395218E-001;-9.453417733311653E-003;3.266518935561180E-003;1.005137222819030E-003;
2.412833333333334E+009;1.807436347007752E-001;-1.193325221538544E-002;3.539206925779581E-003;9.131409460678697E-004;
2.413000000000000E+009;1.814375072717667E-001;-1.425079349428415E-002;3.555286442860961E-003;7.305045146495104E-004;
2.413166666666667E+009;1.821981072425842E-001;-1.669318787753582E-002;3.572436748072505E-003;6.682260427623987E-004;
2.413333333333334E+009;1.833967864513397E-001;-1.898883655667305E-002;3.704150905832648E-003;3.683612158056349E-004;
2.413500000000000E+009;1.842443645000458E-001;-2.111232839524746E-002;3.742979373782873E-003;2.051079536613543E-005;
2.413666666666667E+009;1.854628473520279E-001;-2.325242012739182E-002;3.559982171282172E-003;-5.758279897349894E-008;
2.413833333333334E+009;1.867192238569260E-001;-2.543519809842110E-002;3.707254771143198E-003;2.508987927285489E-005;
2.414000000000000E+009;1.876716166734695E-001;-2.753434516489506E-002;3.524110885336995E-003;-4.405859799589962E-004;
2.414166666666667E+009;1.890312135219574E-001;-2.927975915372372E-002;3.622354241088033E-003;-6.615963648073375E-004;
2.414333333333334E+009;1.900429576635361E-001;-3.136407956480980E-002;3.424161113798618E-003;-7.463029469363391E-004;
2.414500000000000E+009;1.913219839334488E-001;-3.287255018949509E-002;3.444367786869407E-003;-8.792334701865912E-004;
2.414666666666667E+009;1.925856322050095E-001;-3.433421999216080E-002;3.415705403313041E-003;-1.092008198611438E-003;
2.414833333333334E+009;1.936472207307816E-001;-3.562898561358452E-002;3.137039719149470E-003;-1.054348191246390E-003;
2.415000000000000E+009;1.948069185018539E-001;-3.700139373540878E-002;3.180581377819181E-003;-1.197944395244122E-003;
2.415166666666667E+009;1.960555762052536E-001;-3.808071836829186E-002;3.235126379877329E-003;-1.469807466492057E-003;
2.415333333333334E+009;1.972734481096268E-001;-3.919637575745583E-002;3.076198510825634E-003;-1.593284425325692E-003;
2.415500000000000E+009;1.984541863203049E-001;-3.986141085624695E-002;2.899348968639970E-003;-1.573007437400520E-003;
2.415666666666667E+009;1.993891000747681E-001;-4.066777601838112E-002;2.786174183711410E-003;-1.657991320826113E-003;
2.415833333333334E+009;2.003178000450134E-001;-4.119161516427994E-002;2.724508056417108E-003;-1.762039493769407E-003;
2.416000000000000E+009;2.009561508893967E-001;-4.183246195316315E-002;2.599449595436454E-003;-1.875547575764358E-003;
2.416166666666667E+009;2.016138285398483E-001;-4.245283454656601E-002;2.497529843822122E-003;-2.003899775445461E-003;
2.416333333333334E+009;2.022545337677002E-001;-4.270753264427185E-002;2.337182173505426E-003;-2.035747282207012E-003;
2.416500000000000E+009;2.028259634971619E-001;-4.294522106647492E-002;2.139345975592732E-003;-1.982850022614002E-003;
2.416666666666667E+009;2.031428813934326E-001;-4.327303171157837E-002;2.013492630794644E-003;-2.075935481116176E-003;
2.416833333333334E+009;2.032026648521423E-001;-4.329080134630203E-002;1.982338260859251E-003;-2.148222643882036E-003;
2.417000000000000E+009;2.033254802227020E-001;-4.341592267155647E-002;1.934321364387870E-003;-1.985409995540977E-003;
2.417166666666667E+009;2.030596882104874E-001;-4.333547875285149E-002;1.753820921294391E-003;-1.924987300299108E-003;
2.417333333333334E+009;2.027594447135925E-001;-4.310388490557671E-002;1.613346976228058E-003;-2.053003059700131E-003;
2.417500000000000E+009;2.024291455745697E-001;-4.316177964210510E-002;1.671303762122989E-003;-2.014836994931102E-003;
2.417666666666667E+009;2.019028812646866E-001;-4.287392273545265E-002;1.646233606152237E-003;-2.002154942601919E-003;
2.417833333333334E+009;2.013460397720337E-001;-4.266774281859398E-002;1.697198371402919E-003;-2.015642821788788E-003;
2.418000000000000E+009;2.009036093950272E-001;-4.243580251932144E-002;1.488675363361836E-003;-1.965175382792950E-003;
2.418166666666667E+009;1.999976485967636E-001;-4.236480593681335E-002;1.416574697941542E-003;-1.846821745857596E-003;
2.418333333333334E+009;1.990209519863129E-001;-4.232778772711754E-002;1.461865147575736E-003;-2.108200686052442E-003;
2.418500000000000E+009;1.979348361492157E-001;-4.225236922502518E-002;1.302167074754834E-003;-2.135317074134946E-003;
2.418666666666667E+009;1.970316469669342E-001;-4.220703616738319E-002;1.228188746608794E-003;-2.016552491113544E-003;
2.418833333333334E+009;1.957338750362396E-001;-4.239489510655403E-002;1.239814562723041E-003;-2.033656463027000E-003;
2.419000000000000E+009;1.943659931421280E-001;-4.266113787889481E-002;1.023784745484591E-003;-2.011835342273116E-003;
2.419166666666667E+009;1.930747628211975E-001;-4.280808568000794E-002;1.037042704410851E-003;-1.934932079166174E-003;
2.419333333333334E+009;1.916537433862686E-001;-4.330228269100189E-002;9.016898693516851E-004;-1.942776725627482E-003;
2.419500000000000E+009;1.901912093162537E-001;-4.382840543985367E-002;7.756028790026903E-004;-1.812308793887496E-003;
2.419666666666667E+009;1.885865479707718E-001;-4.455249384045601E-002;7.605435675941408E-004;-1.767900073900819E-003;
2.419833333333334E+009;1.869527101516724E-001;-4.533515498042107E-002;7.504053646698594E-004;-1.864517107605934E-003;
2.420000000000000E+009;1.852870881557465E-001;-4.622106254100800E-002;5.776493344455957E-004;-1.766169094480574E-003;
2.420166666666667E+009;1.837057173252106E-001;-4.711342975497246E-002;6.570792756974697E-004;-1.757813617587090E-003;
2.420333333333334E+009;1.819729357957840E-001;-4.829476773738861E-002;6.963536725379527E-004;-1.616979134269059E-003;
2.420500000000000E+009;1.804202944040299E-001;-4.964315891265869E-002;6.915327394381166E-004;-1.617718604393303E-003;
2.420666666666667E+009;1.785992085933685E-001;-5.077895149588585E-002;6.229677237570286E-004;-1.462830579839647E-003;
2.420833333333334E+009;1.769945472478867E-001;-5.236763507127762E-002;7.066259277053177E-004;-1.537656760774553E-003;
2.421000000000000E+009;1.755653470754623E-001;-5.390572175383568E-002;8.397061028517783E-004;-1.239166129380465E-003;
2.421166666666667E+009;1.742232441902161E-001;-5.555834993720055E-002;7.596772629767656E-004;-1.308229169808328E-003;
2.421333333333334E+009;1.724149882793427E-001;-5.724454298615456E-002;8.796866168268025E-004;-1.437287894077599E-003;
2.421500000000000E+009;1.710505038499832E-001;-5.912685766816139E-002;6.485725753009319E-004;-1.279472024179995E-003;
2.421666666666667E+009;1.698813736438751E-001;-6.081901863217354E-002;8.824700489640236E-004;-1.278532668948174E-003;
2.421833333333334E+009;1.687704771757126E-001;-6.281213462352753E-002;9.418241679668427E-004;-1.197254052385688E-003;
2.422000000000000E+009;1.675584316253662E-001;-6.464073807001114E-002;1.070576603524387E-003;-1.362794428132474E-003;
2.422166666666667E+009;1.668081581592560E-001;-6.678929924964905E-002;8.754209848120809E-004;-1.245561637915671E-003;
2.422333333333334E+009;1.655810028314591E-001;-6.884314119815826E-002;1.139462925493717E-003;-1.247502979822457E-003;
2.422500000000000E+009;1.650224626064301E-001;-7.074341177940369E-002;1.126404735259712E-003;-1.446607755497098E-003;
2.422666666666667E+009;1.641807407140732E-001;-7.285743206739426E-002;1.229236950166524E-003;-1.428373157978058E-003;
2.422833333333334E+009;1.638174355030060E-001;-7.482165843248367E-002;1.373669132590294E-003;-1.475373399443924E-003;
2.423000000000000E+009;1.633208096027374E-001;-7.688818126916885E-002;1.163939246907830E-003;-1.529067521914840E-003;
2.423166666666667E+009;1.630869954824448E-001;-7.890985906124115E-002;1.326213008724153E-003;-1.514095929451287E-003;
2.423333333333334E+009;1.629115045070648E-001;-8.106569200754166E-002;1.297997543588281E-003;-1.686228089965880E-003;
2.423500000000000E+009;1.626403778791428E-001;-8.271982520818710E-002;1.317043206654489E-003;-1.640876755118370E-003;
2.423666666666667E+009;1.627577990293503E-001;-8.479294180870056E-002;1.279261079616845E-003;-1.834219670854509E-003;
2.423833333333334E+009;1.626577526330948E-001;-8.647951483726502E-002;1.246676663868129E-003;-1.854828209616244E-003;
2.424000000000000E+009;1.629160791635513E-001;-8.829730004072189E-002;1.211376511491835E-003;-2.050048438832164E-003;
2.424166666666667E+009;1.629346609115601E-001;-8.983141928911209E-002;1.061936141923070E-003;-1.928515615873039E-003;
2.424333333333334E+009;1.632947325706482E-001;-9.137097746133804E-002;1.073513762094080E-003;-2.093648072332144E-003;
2.424500000000000E+009;1.635443121194840E-001;-9.322582930326462E-002;1.090130885131657E-003;-2.136398106813431E-003;
2.424666666666667E+009;1.637485027313232E-001;-9.457867592573166E-002;1.123716589063406E-003;-2.077812096104026E-003;
2.424833333333334E+009;1.643955111503601E-001;-9.572248905897141E-002;9.376717498525977E-004;-2.276250626891851E-003;
2.425000000000000E+009;1.648314893245697E-001;-9.714481979608536E-002;8.986510219983757E-004;-2.363414503633976E-003;
2.425166666666667E+009;1.650606691837311E-001;-9.829268604516983E-002;9.767332812771201E-004;-2.437189221382141E-003;
2.425333333333334E+009;1.655037999153137E-001;-9.914900362491608E-002;7.545180269517005E-004;-2.507057040929794E-003;
2.425500000000000E+009;1.659013628959656E-001;-1.001797094941139E-001;8.255661814473569E-004;-2.508073579519987E-003;
2.425666666666667E+009;1.664127409458160E-001;-1.007777601480484E-001;6.775235524401069E-004;-2.456776332110167E-003;
2.425833333333334E+009;1.667100936174393E-001;-1.016081348061562E-001;7.268127519637346E-004;-2.672689966857433E-003;
2.426000000000000E+009;1.671613305807114E-001;-1.020268052816391E-001;6.915580015629530E-004;-2.633882220834494E-003;
2.426166666666667E+009;1.674563288688660E-001;-1.025608852505684E-001;5.066367448307574E-004;-2.629233757033944E-003;
2.426333333333334E+009;1.676998287439346E-001;-1.030356660485268E-001;4.803157935384661E-004;-2.926614368334413E-003;
2.426500000000000E+009;1.679213643074036E-001;-1.032883599400520E-001;2.800270449370146E-004;-2.814518287777901E-003;
2.426666666666667E+009;1.682487428188324E-001;-1.036405563354492E-001;1.905755925690755E-004;-2.918137470260263E-003;
2.426833333333334E+009;1.684228777885437E-001;-1.039180606603622E-001;2.242822665721178E-004;-2.900243969634175E-003;
2.427000000000000E+009;1.684631705284119E-001;-1.040694788098335E-001;-8.392171366722323E-006;-3.023665864020586E-003;
2.427166666666667E+009;1.684498935937882E-001;-1.041617989540100E-001;-7.908086263341829E-005;-2.959794830530882E-003;
2.427333333333334E+009;1.682842075824738E-001;-1.043543219566345E-001;-7.027357787592337E-005;-3.045798745006323E-003;
2.427500000000000E+009;1.680343300104141E-001;-1.045671477913857E-001;-2.482562267687172E-004;-2.906879177317023E-003;
2.427666666666667E+009;1.676789671182632E-001;-1.045752093195915E-001;-3.950085374526680E-004;-3.023138502612710E-003;
2.427833333333334E+009;1.674063950777054E-001;-1.047964468598366E-001;-3.616966714616865E-004;-3.014692571014166E-003;
