# Version 1.00
#
freq[Hz];re:Trc1_S11;im:Trc1_S11;re:Trc2_S21;im:Trc2_S21;
2.400000000000000E+009;1.566766202449799E-001;5.982914566993713E-002;5.979712004773319E-004;1.590570434927940E-003;
2.400166666666667E+009;1.569115966558456E-001;5.801025032997131E-002;5.285880761221051E-004;1.465464127250016E-003;
2.400333333333334E+009;1.570345908403397E-001;5.602559819817543E-002;6.288753356784582E-004;1.427184790372849E-003;
2.400500000000000E+009;1.571989208459854E-001;5.393726006150246E-002;7.898847688920796E-004;1.312021515332162E-003;
2.400666666666667E+009;1.574778705835342E-001;5.179513990879059E-002;7.490751449950039E-004;1.464914879761636E-003;
2.400833333333334E+009;1.579518169164658E-001;5.004920065402985E-002;7.425985531881452E-004;1.439196290448308E-003;
2.401000000000000E+009;1.582363396883011E-001;4.765871167182922E-002;7.157223299145699E-004;1.284309779293835E-003;
2.401166666666667E+009;1.586235761642456E-001;4.562496393918991E-002;7.580723031423986E-004;1.167429727502167E-003;
2.401333333333334E+009;1.589432060718536E-001;4.375219717621803E-002;8.253154228441417E-004;1.089683384634554E-003;
2.401500000000000E+009;1.597497463226318E-001;4.163286462426186E-002;8.145910105668008E-004;1.007202663458884E-003;
2.401666666666667E+009;1.601504832506180E-001;3.984655067324638E-002;8.709464455023408E-004;9.484766051173210E-004;
2.401833333333334E+009;1.608909517526627E-001;3.804889321327210E-002;8.667830261401832E-004;9.283497347496450E-004;
2.402000000000000E+009;1.613247841596603E-001;3.606218099594116E-002;8.617119747214019E-004;9.435719111934304E-004;
2.402166666666667E+009;1.621988564729691E-001;3.420949727296829E-002;7.431759731844068E-004;8.841591770760715E-004;
2.402333333333334E+009;1.628023833036423E-001;3.251457959413528E-002;7.285874453373253E-004;7.518653292208910E-004;
2.402500000000000E+009;1.638578027486801E-001;3.078408353030682E-002;7.143782568164170E-004;7.770619704388082E-004;
2.402666666666667E+009;1.645405739545822E-001;2.931852266192436E-002;7.432308630086482E-004;8.226292557083070E-004;
2.402833333333334E+009;1.654064059257507E-001;2.786011807620525E-002;5.846632411703467E-004;8.102468564175069E-004;
2.403000000000000E+009;1.662623435258865E-001;2.650561369955540E-002;6.632832228206098E-004;7.854238501749933E-004;
2.403166666666667E+009;1.673161685466766E-001;2.507734112441540E-002;7.146802381612361E-004;7.720148423686624E-004;
2.403333333333334E+009;1.680844128131867E-001;2.395939081907272E-002;5.457686493173242E-004;7.605339051224291E-004;
2.403500000000000E+009;1.689614951610565E-001;2.274119853973389E-002;5.616084672510624E-004;7.464520749635994E-004;
2.403666666666667E+009;1.700692176818848E-001;2.154383249580860E-002;5.923453718423843E-004;7.484409725293517E-004;
2.403833333333334E+009;1.709974110126495E-001;2.065030485391617E-002;4.532113089226186E-004;7.107712444849312E-004;
2.404000000000000E+009;1.719857901334763E-001;1.974883675575256E-002;4.947109846398234E-004;7.843896746635437E-004;
2.404166666666667E+009;1.728046238422394E-001;1.875361055135727E-002;5.459937383420765E-004;8.237614529207349E-004;
2.404333333333334E+009;1.735286116600037E-001;1.806193031370640E-002;5.358147318474948E-004;7.544354884885252E-004;
2.404500000000000E+009;1.743006259202957E-001;1.736721210181713E-002;4.413723072502762E-004;8.606688352301717E-004;
2.404666666666667E+009;1.750679910182953E-001;1.673773862421513E-002;4.879436455667019E-004;8.346097893081605E-004;
2.404833333333334E+009;1.759309470653534E-001;1.627553440630436E-002;5.174991674721241E-004;9.694423060864210E-004;
2.405000000000000E+009;1.765554845333099E-001;1.559876184910536E-002;7.313523092307150E-004;8.313900325447321E-004;
2.405166666666667E+009;1.771363317966461E-001;1.506665255874395E-002;7.692985236644745E-004;1.004757708869875E-003;
2.405333333333334E+009;1.777820587158203E-001;1.453283056616783E-002;7.557002245448530E-004;9.539104066789150E-004;
2.405500000000000E+009;1.781230419874191E-001;1.434358675032854E-002;6.182343349792063E-004;8.991573704406619E-004;
2.405666666666667E+009;1.786312311887741E-001;1.393876969814301E-002;6.597267347387970E-004;8.385888650082052E-004;
2.405833333333334E+009;1.787938922643662E-001;1.366572454571724E-002;7.331579108722508E-004;9.243048261851072E-004;
2.406000000000000E+009;1.791927665472031E-001;1.318226102739573E-002;8.282882627099752E-004;1.043946016579866E-003;
2.406166666666667E+009;1.792999505996704E-001;1.302074175328016E-002;7.663496071472764E-004;1.071088016033173E-003;
2.406333333333334E+009;1.794767826795578E-001;1.269174087792635E-002;7.764808251522481E-004;1.011635991744697E-003;
2.406500000000000E+009;1.794868409633637E-001;1.236226316541433E-002;1.055479049682617E-003;9.687002748250961E-004;
2.406666666666667E+009;1.792337149381638E-001;1.200407277792692E-002;1.095209736377001E-003;9.220802458003163E-004;
2.406833333333334E+009;1.792587637901306E-001;1.156360935419798E-002;1.038942718878388E-003;1.092314370907843E-003;
2.407000000000000E+009;1.790261566638947E-001;1.121479459106922E-002;1.213895971886814E-003;9.344471618533135E-004;
2.407166666666667E+009;1.788810044527054E-001;1.077705807983875E-002;1.376359257847071E-003;9.117148001678288E-004;
2.407333333333334E+009;1.784511059522629E-001;1.019262708723545E-002;1.319005270488560E-003;8.175005787052214E-004;
2.407500000000000E+009;1.780247837305069E-001;9.790913201868534E-003;1.418570172972977E-003;7.789826486259699E-004;
2.407666666666667E+009;1.776063144207001E-001;9.043306112289429E-003;1.552869798615575E-003;6.275556515902281E-004;
2.407833333333334E+009;1.769790351390839E-001;8.232104592025280E-003;1.543600228615105E-003;6.549137760885060E-004;
2.408000000000000E+009;1.764718592166901E-001;7.422849535942078E-003;1.565353712067008E-003;6.472020759247243E-004;
2.408166666666667E+009;1.759150624275208E-001;6.829634774476290E-003;1.452184282243252E-003;2.729441039264202E-004;
2.408333333333334E+009;1.756151765584946E-001;5.746365059167147E-003;1.656880369409919E-003;4.096836200915277E-004;
2.408500000000000E+009;1.747212707996368E-001;4.720970522612333E-003;1.566016580909491E-003;2.068973262794316E-004;
2.408666666666667E+009;1.740911900997162E-001;3.592115128412843E-003;1.738563994877040E-003;1.435524463886395E-004;
2.408833333333334E+009;1.733536124229431E-001;2.367641078308225E-003;1.727274502627552E-003;2.101775171468034E-004;
2.409000000000000E+009;1.726519763469696E-001;1.049642218276858E-003;1.752856071107090E-003;1.186765002785251E-004;
2.409166666666667E+009;1.721518486738205E-001;-3.568296087905765E-004;1.632945844903588E-003;3.912035026587546E-005;
2.409333333333334E+009;1.716210991144180E-001;-1.735892030410469E-003;1.661997055634856E-003;-1.273332891287282E-004;
2.409500000000000E+009;1.708757430315018E-001;-3.405114635825157E-003;1.651283353567123E-003;-1.289302890654653E-004;
2.409666666666667E+009;1.702135205268860E-001;-4.719004034996033E-003;1.583733828738332E-003;-2.485501172486693E-004;
2.409833333333334E+009;1.696685254573822E-001;-6.478607654571533E-003;1.567522413097322E-003;-3.714619961101562E-004;
2.410000000000000E+009;1.693457365036011E-001;-8.135883137583733E-003;1.501188613474369E-003;-3.778618702199310E-004;
2.410166666666667E+009;1.687990278005600E-001;-9.868733584880829E-003;1.544541562907398E-003;-4.599365347530693E-004;
2.410333333333334E+009;1.684341132640839E-001;-1.159127708524466E-002;1.429889001883566E-003;-5.389939178712666E-004;
2.410500000000000E+009;1.681372970342636E-001;-1.344661787152290E-002;1.552957459352911E-003;-5.675854044966400E-004;
2.410666666666667E+009;1.675836145877838E-001;-1.535762939602137E-002;1.524970633909106E-003;-6.630742573179305E-004;
2.410833333333334E+009;1.675970107316971E-001;-1.713842153549194E-002;1.301968703046441E-003;-8.809781284071505E-004;
2.411000000000000E+009;1.674549132585526E-001;-1.902485452592373E-002;1.183704938739538E-003;-9.968020021915436E-004;
2.411166666666667E+009;1.673493683338165E-001;-2.095030248165131E-002;1.276639057323337E-003;-1.059004105627537E-003;
2.411333333333334E+009;1.673841625452042E-001;-2.306929416954517E-002;1.213696319609880E-003;-1.109170028939843E-003;
2.411500000000000E+009;1.673609763383865E-001;-2.501279115676880E-002;1.113666687160730E-003;-9.705946431495249E-004;
2.411666666666667E+009;1.676487624645233E-001;-2.669871039688587E-002;9.525868808850646E-004;-9.099179296754301E-004;
2.411833333333334E+009;1.679485589265823E-001;-2.870759554207325E-002;8.476235670968890E-004;-9.614327573217452E-004;
2.412000000000000E+009;1.683446019887924E-001;-3.075652197003365E-002;8.631778764538467E-004;-1.028049038723111E-003;
2.412166666666667E+009;1.684707403182983E-001;-3.248888999223709E-002;8.297209278680384E-004;-1.063770847395062E-003;
2.412333333333334E+009;1.691246628761292E-001;-3.407052531838417E-002;6.821009446866810E-004;-1.196863129734993E-003;
2.412500000000000E+009;1.693998426198959E-001;-3.575618937611580E-002;6.211303407326341E-004;-1.040362520143390E-003;
2.412666666666667E+009;1.700533032417297E-001;-3.762477636337280E-002;6.869838689453900E-004;-9.357611997984350E-004;
2.412833333333334E+009;1.706074178218842E-001;-3.929002955555916E-002;6.541800685226917E-004;-9.670977015048266E-004;
2.413000000000000E+009;1.710505634546280E-001;-4.092473164200783E-002;5.760395433753729E-004;-9.312491165474057E-004;
2.413166666666667E+009;1.716850996017456E-001;-4.241100326180458E-002;4.465374804567546E-004;-1.012298744171858E-003;
2.413333333333334E+009;1.723406761884689E-001;-4.396409913897514E-002;4.046467074658722E-004;-9.461829904466867E-004;
2.413500000000000E+009;1.729858666658402E-001;-4.523542523384094E-002;1.839919568737969E-004;-9.154075523838401E-004;
2.413666666666667E+009;1.735558956861496E-001;-4.667881503701210E-002;2.944876614492387E-004;-9.509331430308521E-004;
2.413833333333334E+009;1.741307973861694E-001;-4.777463153004646E-002;3.619719645939767E-004;-8.601084118708968E-004;
2.414000000000000E+009;1.746629625558853E-001;-4.910507425665855E-002;2.487256424501538E-004;-8.879218949005008E-004;
2.414166666666667E+009;1.752659529447556E-001;-5.002422630786896E-002;2.426988212391734E-004;-8.459709351882339E-004;
2.414333333333334E+009;1.757908612489700E-001;-5.113318562507629E-002;2.980130957439542E-004;-8.845579577609897E-004;
2.414500000000000E+009;1.765282154083252E-001;-5.206637829542160E-002;1.620315888430923E-004;-8.673805859871209E-004;
2.414666666666667E+009;1.770089417695999E-001;-5.289904400706291E-002;1.470838469685987E-004;-9.416827233508229E-004;
2.414833333333334E+009;1.773081570863724E-001;-5.361469089984894E-002;4.364417327451520E-005;-7.261166465468705E-004;
2.415000000000000E+009;1.777600347995758E-001;-5.422658100724220E-002;1.481918734498322E-004;-9.556265431456268E-004;
2.415166666666667E+009;1.780194640159607E-001;-5.480719357728958E-002;7.009921682765707E-005;-8.285202784463763E-004;
2.415333333333334E+009;1.784911155700684E-001;-5.541497841477394E-002;5.795862671220675E-005;-7.321055163629353E-004;
2.415500000000000E+009;1.784853637218475E-001;-5.589570477604866E-002;-5.566067216022930E-007;-8.180292788892984E-004;
2.415666666666667E+009;1.787409484386444E-001;-5.633935332298279E-002;1.661615715420339E-005;-7.456904277205467E-004;
2.415833333333334E+009;1.787181198596954E-001;-5.676616728305817E-002;-1.660514681134373E-004;-8.430205052718520E-004;
2.416000000000000E+009;1.785596013069153E-001;-5.703894048929215E-002;4.706628169515170E-005;-7.411930710077286E-004;
2.416166666666667E+009;1.785207092761993E-001;-5.741636827588081E-002;2.104632585542277E-005;-7.525968248955905E-004;
2.416333333333334E+009;1.781963706016541E-001;-5.759858340024948E-002;-6.050192314432934E-005;-6.751433247700334E-004;
2.416500000000000E+009;1.778979450464249E-001;-5.789548531174660E-002;-2.475362853147090E-004;-8.077450329437852E-004;
2.416666666666667E+009;1.773959398269653E-001;-5.815017968416214E-002;-1.327061472693458E-004;-6.002090522088110E-004;
2.416833333333334E+009;1.770450174808502E-001;-5.855548754334450E-002;-2.109464694513008E-004;-7.303538732230663E-004;
2.417000000000000E+009;1.762906163930893E-001;-5.878301709890366E-002;-2.868075680453330E-004;-7.113706087693572E-004;
2.417166666666667E+009;1.756480932235718E-001;-5.896680429577828E-002;-3.279327356722206E-004;-6.204374949447811E-004;
2.417333333333334E+009;1.748997122049332E-001;-5.920723825693131E-002;-4.200410912744701E-004;-6.632943404838443E-004;
2.417500000000000E+009;1.739727109670639E-001;-5.969338864088059E-002;-4.376115975901485E-004;-4.560151137411594E-004;
2.417666666666667E+009;1.732971668243408E-001;-5.994083359837532E-002;-4.097887140233070E-004;-4.507233097683638E-004;
2.417833333333334E+009;1.721315234899521E-001;-6.031658500432968E-002;-3.748321614693850E-004;-4.113766772206873E-004;
2.418000000000000E+009;1.710778921842575E-001;-6.098511070013046E-002;-4.561629611998797E-004;-3.152893041260541E-004;
2.418166666666667E+009;1.699101477861404E-001;-6.132202968001366E-002;-4.401052719913423E-004;-1.766622153809294E-004;
2.418333333333334E+009;1.691105365753174E-001;-6.187979131937027E-002;-3.804615698754787E-004;-2.735203888732940E-004;
2.418500000000000E+009;1.677547097206116E-001;-6.259053945541382E-002;-4.191889602225274E-004;-2.394900511717424E-004;
2.418666666666667E+009;1.666166484355927E-001;-6.320620328187943E-002;-5.649726372212172E-004;-3.238731296733022E-004;
2.418833333333334E+009;1.652090400457382E-001;-6.388701498508453E-002;-4.334710247348994E-004;-2.780659124255180E-004;
2.419000000000000E+009;1.639585494995117E-001;-6.491898000240326E-002;-3.776771482080221E-004;-1.600744290044531E-004;
2.419166666666667E+009;1.628503501415253E-001;-6.573718041181564E-002;-4.149711166974157E-004;-1.439512561773881E-004;
2.419333333333334E+009;1.615189164876938E-001;-6.644658744335175E-002;-5.227611400187016E-004;3.147128882119432E-005;
2.419500000000000E+009;1.604377627372742E-001;-6.775494664907455E-002;-4.876489692833275E-004;6.975479482207447E-005;
2.419666666666667E+009;1.592551320791245E-001;-6.877035647630692E-002;-4.013613215647638E-004;2.216519351350144E-004;
2.419833333333334E+009;1.582090556621552E-001;-6.987407058477402E-002;-4.310028161853552E-004;9.975336433853954E-005;
2.420000000000000E+009;1.570829153060913E-001;-7.116968929767609E-002;-5.238375160843134E-004;2.846967836376280E-004;
2.420166666666667E+009;1.561043262481690E-001;-7.245308905839920E-002;-3.862143203150481E-004;2.540102868806571E-004;
2.420333333333334E+009;1.553028970956802E-001;-7.401020824909210E-002;-3.766600275412202E-004;3.411205834709108E-004;
2.420500000000000E+009;1.544859260320664E-001;-7.517752051353455E-002;-2.779568603727967E-004;4.251444479450584E-004;
2.420666666666667E+009;1.535040587186813E-001;-7.654160261154175E-002;-3.602592332754284E-004;6.169973639771342E-004;
2.420833333333334E+009;1.525621414184570E-001;-7.828378677368164E-002;-1.943289389600977E-004;6.732445326633751E-004;
2.421000000000000E+009;1.519043296575546E-001;-7.984463870525360E-002;-3.072764666285366E-004;6.227680132724345E-004;
2.421166666666667E+009;1.514620780944824E-001;-8.134350925683975E-002;-7.945644756546244E-005;6.907692295499146E-004;
2.421333333333334E+009;1.508940607309341E-001;-8.302145451307297E-002;-3.814741648966447E-005;7.288883789442480E-004;
2.421500000000000E+009;1.504324078559876E-001;-8.469601720571518E-002;8.349595736945048E-005;6.990351248532534E-004;
2.421666666666667E+009;1.502736657857895E-001;-8.636318147182465E-002;1.681009598542005E-004;7.949856226332486E-004;
2.421833333333334E+009;1.500840187072754E-001;-8.795180916786194E-002;2.591012453194708E-004;9.115730645135045E-004;
2.422000000000000E+009;1.498746126890183E-001;-8.961532264947891E-002;3.592228167690337E-004;9.312039474025369E-004;
2.422166666666667E+009;1.496777683496475E-001;-9.154622256755829E-002;4.316962440498173E-004;7.515732431784272E-004;
2.422333333333334E+009;1.498586982488632E-001;-9.306949377059937E-002;6.280548404902220E-004;9.649447747506201E-004;
2.422500000000000E+009;1.498819142580032E-001;-9.450619667768478E-002;7.131536840461195E-004;5.650349776260555E-004;
2.422666666666667E+009;1.499777734279633E-001;-9.633402526378632E-002;7.137157372198999E-004;8.328491239808500E-004;
2.422833333333334E+009;1.501759886741638E-001;-9.780923277139664E-002;8.745915256440640E-004;5.448296433314681E-004;
2.423000000000000E+009;1.504637748003006E-001;-9.933689981698990E-002;9.737015352584422E-004;6.899126456119120E-004;
2.423166666666667E+009;1.510191410779953E-001;-1.008322387933731E-001;1.098564942367375E-003;5.835933843627572E-004;
2.423333333333334E+009;1.512894630432129E-001;-1.022128984332085E-001;9.552625706419349E-004;5.985599127598107E-004;
2.423500000000000E+009;1.516684740781784E-001;-1.035954654216766E-001;1.181578962132335E-003;4.267440817784518E-004;
2.423666666666667E+009;1.520263254642487E-001;-1.049867793917656E-001;1.253635855391622E-003;5.859524244442582E-004;
2.423833333333334E+009;1.526208072900772E-001;-1.061167642474175E-001;1.271688961423934E-003;3.778006648644805E-004;
2.424000000000000E+009;1.530303210020065E-001;-1.071747839450836E-001;1.469020266085863E-003;1.816527219489217E-004;
2.424166666666667E+009;1.534087955951691E-001;-1.084229648113251E-001;1.489950926043093E-003;2.277216699440032E-004;
2.424333333333334E+009;1.540283113718033E-001;-1.093837320804596E-001;1.634759712032974E-003;1.711038639768958E-004;
2.424500000000000E+009;1.545172631740570E-001;-1.103297472000122E-001;1.519811572507024E-003;-4.187282684142701E-005;
2.424666666666667E+009;1.550748497247696E-001;-1.111414954066277E-001;1.593224122188985E-003;-9.951001993613318E-005;
2.424833333333334E+009;1.553621143102646E-001;-1.119271814823151E-001;1.569499960169196E-003;-3.086534561589360E-004;
2.425000000000000E+009;1.558177620172501E-001;-1.126975193619728E-001;1.696060062386096E-003;-3.614198649302125E-004;
2.425166666666667E+009;1.560148596763611E-001;-1.133905127644539E-001;1.504411105997860E-003;-5.114125669933856E-004;
2.425333333333334E+009;1.563101708889008E-001;-1.138559654355049E-001;1.637696288526058E-003;-5.066789453849196E-004;
2.425500000000000E+009;1.566421538591385E-001;-1.144150942564011E-001;1.762613188475370E-003;-5.399029469117522E-004;
2.425666666666667E+009;1.566428542137146E-001;-1.148583814501762E-001;1.726435148157179E-003;-8.417364442721009E-004;
2.425833333333334E+009;1.567782461643219E-001;-1.153624132275581E-001;1.486115739680827E-003;-8.477774681523442E-004;
2.426000000000000E+009;1.568336784839630E-001;-1.156532764434815E-001;1.592981396242976E-003;-1.054248074069619E-003;
2.426166666666667E+009;1.568988412618637E-001;-1.160735338926315E-001;1.608808990567923E-003;-1.160882995463908E-003;
2.426333333333334E+009;1.566120833158493E-001;-1.163465231657028E-001;1.520133693702519E-003;-1.197303761728108E-003;
2.426500000000000E+009;1.565268635749817E-001;-1.163740903139114E-001;1.496356446295977E-003;-1.382184447720647E-003;
2.426666666666667E+009;1.563187241554260E-001;-1.165367290377617E-001;1.375906518660486E-003;-1.359753659926355E-003;
2.426833333333334E+009;1.558946520090103E-001;-1.166794747114182E-001;1.399550354108214E-003;-1.520524849183857E-003;
2.427000000000000E+009;1.553532183170319E-001;-1.169199645519257E-001;1.245016115717590E-003;-1.517506083473563E-003;
2.427166666666667E+009;1.547749787569046E-001;-1.168939173221588E-001;1.145867398008704E-003;-1.568139297887683E-003;
2.427333333333334E+009;1.541175097227097E-001;-1.170401573181152E-001;1.214288524352014E-003;-1.642465242184699E-003;
2.427500000000000E+009;1.533948779106140E-001;-1.172768846154213E-001;9.289588197134435E-004;-1.775956596247852E-003;
2.427666666666667E+009;1.525211483240128E-001;-1.174357160925865E-001;8.247299119830132E-004;-1.877623493783176E-003;
2.427833333333334E+009;1.514716595411301E-001;-1.176519170403481E-001;9.136145818047226E-004;-1.928912475705147E-003;
