# Version 1.00
#
freq[Hz];re:Trc1_S11;im:Trc1_S11;re:Trc2_S21;im:Trc2_S21;
2.400000000000000E+009;1.580412536859512E-001;6.191606819629669E-002;-1.269222004339099E-003;-2.258534543216229E-003;
2.400166666666667E+009;1.579347997903824E-001;6.046248599886894E-002;-1.124401460401714E-003;-2.218017354607582E-003;
2.400333333333334E+009;1.578114628791809E-001;5.838376283645630E-002;-1.228429144248366E-003;-2.062326297163963E-003;
2.400500000000000E+009;1.578643918037415E-001;5.665752291679382E-002;-1.450369600206614E-003;-2.176139038056135E-003;
2.400666666666667E+009;1.576631069183350E-001;5.453879386186600E-002;-1.509233377873898E-003;-2.090307185426354E-003;
2.400833333333334E+009;1.578734070062637E-001;5.265728011727333E-002;-1.500269630923867E-003;-2.068686997517943E-003;
2.401000000000000E+009;1.579245328903198E-001;5.068489164113998E-002;-1.472363714128733E-003;-2.026906702667475E-003;
2.401166666666667E+009;1.581818610429764E-001;4.868192225694656E-002;-1.595545792952180E-003;-1.791580463759601E-003;
2.401333333333334E+009;1.582356691360474E-001;4.660866409540176E-002;-1.667305827140808E-003;-1.750805065967143E-003;
2.401500000000000E+009;1.587103158235550E-001;4.458769038319588E-002;-1.707835122942925E-003;-1.854952541179955E-003;
2.401666666666667E+009;1.590330004692078E-001;4.254001751542091E-002;-1.827583066187799E-003;-1.753790769726038E-003;
2.401833333333334E+009;1.594439297914505E-001;4.059167206287384E-002;-1.848868327215314E-003;-1.624727156013250E-003;
2.402000000000000E+009;1.597865521907806E-001;3.864374756813049E-002;-1.879867282696068E-003;-1.281759352423251E-003;
2.402166666666667E+009;1.604223251342773E-001;3.657979890704155E-002;-1.936053158715367E-003;-1.406225608661771E-003;
2.402333333333334E+009;1.610153615474701E-001;3.481521457433701E-002;-1.923302770592272E-003;-1.372591708786786E-003;
2.402500000000000E+009;1.616515219211578E-001;3.289023786783218E-002;-1.864308957010508E-003;-1.332531101070344E-003;
2.402666666666667E+009;1.623372435569763E-001;3.126054257154465E-002;-1.847602310590446E-003;-8.778664050623775E-004;
2.402833333333334E+009;1.632136255502701E-001;2.945845387876034E-002;-1.895362162031233E-003;-1.047631143592298E-003;
2.403000000000000E+009;1.639873236417770E-001;2.796273119747639E-002;-1.758172176778317E-003;-9.161038906313479E-004;
2.403166666666667E+009;1.646445095539093E-001;2.646050974726677E-002;-1.742622931487858E-003;-7.580774836242199E-004;
2.403333333333334E+009;1.657661646604538E-001;2.489878237247467E-002;-1.666080905124545E-003;-6.928610382601619E-004;
2.403500000000000E+009;1.666024923324585E-001;2.347043342888355E-002;-1.598226837813854E-003;-6.562711787410080E-004;
2.403666666666667E+009;1.675068140029907E-001;2.195385657250881E-002;-1.567216706462205E-003;-5.551315261982381E-004;
2.403833333333334E+009;1.686070114374161E-001;2.074291557073593E-002;-1.573016052134335E-003;-7.421139162033796E-004;
2.404000000000000E+009;1.694770008325577E-001;1.970092020928860E-002;-1.392831676639617E-003;-5.733686266466975E-004;
2.404166666666667E+009;1.705418229103088E-001;1.849645003676415E-002;-1.468337490223348E-003;-5.331159336492419E-004;
2.404333333333334E+009;1.712488979101181E-001;1.753350161015987E-002;-1.452890574000776E-003;-6.972229457460344E-004;
2.404500000000000E+009;1.722524166107178E-001;1.653383299708366E-002;-1.457956852391362E-003;-6.793552311137319E-004;
2.404666666666667E+009;1.731566041707993E-001;1.563947275280953E-002;-1.135283033363521E-003;-7.474046433344483E-004;
2.404833333333334E+009;1.740627288818359E-001;1.492569874972105E-002;-1.240134821273387E-003;-7.753132958896458E-004;
2.405000000000000E+009;1.749861538410187E-001;1.413458585739136E-002;-1.349373254925013E-003;-8.467418956570327E-004;
2.405166666666667E+009;1.757230460643768E-001;1.344229187816382E-002;-1.198452548123896E-003;-7.028242107480764E-004;
2.405333333333334E+009;1.765593141317368E-001;1.272981613874435E-002;-1.340206945315003E-003;-7.620425312779844E-004;
2.405500000000000E+009;1.772453039884567E-001;1.235811412334442E-002;-1.335459295660257E-003;-7.130621233955026E-004;
2.405666666666667E+009;1.779258251190186E-001;1.196519378572702E-002;-1.347129698842764E-003;-8.308750111609697E-004;
2.405833333333334E+009;1.783449500799179E-001;1.165843568742275E-002;-1.297441078349948E-003;-7.392906700260937E-004;
2.406000000000000E+009;1.789023280143738E-001;1.109368074685335E-002;-1.425652648322284E-003;-7.931737927719951E-004;
2.406166666666667E+009;1.793181747198105E-001;1.076294109225273E-002;-1.417839783243835E-003;-9.368184255436063E-004;
2.406333333333334E+009;1.798522323369980E-001;1.043666340410709E-002;-1.514348317869008E-003;-8.074930519796908E-004;
2.406500000000000E+009;1.801033467054367E-001;1.003471110016108E-002;-1.459288527257741E-003;-1.001788419671357E-003;
2.406666666666667E+009;1.801144927740097E-001;9.838075377047062E-003;-1.630970393307507E-003;-9.924187324941158E-004;
2.406833333333334E+009;1.802875101566315E-001;9.593112394213677E-003;-1.683502690866590E-003;-1.054293359629810E-003;
2.407000000000000E+009;1.804274618625641E-001;9.145259857177734E-003;-1.768628368154168E-003;-1.056984183378518E-003;
2.407166666666667E+009;1.805442720651627E-001;8.806411176919937E-003;-1.870258711278439E-003;-1.020223135128617E-003;
2.407333333333334E+009;1.802657246589661E-001;8.177937008440495E-003;-1.892447471618652E-003;-1.101938541978598E-003;
2.407500000000000E+009;1.801362633705139E-001;8.044450543820858E-003;-1.938509987667203E-003;-9.122905321419239E-004;
2.407666666666667E+009;1.798704564571381E-001;7.438934408128262E-003;-1.899748109281063E-003;-7.220790139399469E-004;
2.407833333333334E+009;1.794784367084503E-001;6.830088794231415E-003;-2.013208810240030E-003;-8.376781479455531E-004;
2.408000000000000E+009;1.790588498115540E-001;6.193981040269136E-003;-2.314411802217364E-003;-7.994134211912751E-004;
2.408166666666667E+009;1.787484288215637E-001;5.620334297418594E-003;-2.113615395501256E-003;-7.190266624093056E-004;
2.408333333333334E+009;1.784201711416245E-001;4.892372991889715E-003;-2.197972731664777E-003;-6.847609765827656E-004;
2.408500000000000E+009;1.777547597885132E-001;4.124581348150969E-003;-2.206040779128671E-003;-5.403914838097990E-004;
2.408666666666667E+009;1.771548092365265E-001;3.080328460782766E-003;-2.257295185700059E-003;-6.214044988155365E-004;
2.408833333333334E+009;1.764953434467316E-001;2.255168044939637E-003;-2.278704661875963E-003;-4.233255749568343E-004;
2.409000000000000E+009;1.757861524820328E-001;1.007739803753793E-003;-2.305004512891173E-003;-4.547914140857756E-004;
2.409166666666667E+009;1.751880794763565E-001;-6.497627327917144E-005;-2.294443780556321E-003;-3.561612102203071E-004;
2.409333333333334E+009;1.747165620326996E-001;-1.354414853267372E-003;-2.377490280196071E-003;-4.320542211644352E-004;
2.409500000000000E+009;1.739217787981033E-001;-2.810352249071002E-003;-2.546805189922452E-003;-8.889246964827180E-005;
2.409666666666667E+009;1.731630414724350E-001;-4.103347193449736E-003;-2.415522933006287E-003;-1.154422934632748E-004;
2.409833333333334E+009;1.725057512521744E-001;-5.348963662981987E-003;-2.486511599272490E-003;-1.681028807070106E-004;
2.410000000000000E+009;1.719325333833695E-001;-6.827921606600285E-003;-2.461697673425078E-003;-4.900686326436698E-005;
2.410166666666667E+009;1.712312996387482E-001;-8.479341864585877E-003;-2.506732009351254E-003;-1.993709156522527E-005;
2.410333333333334E+009;1.706953942775726E-001;-9.967366233468056E-003;-2.486035926267505E-003;-3.663485404103994E-005;
2.410500000000000E+009;1.702523231506348E-001;-1.183403469622135E-002;-2.606038004159927E-003;1.512226735940203E-004;
2.410666666666667E+009;1.696063280105591E-001;-1.369454059749842E-002;-2.538001164793968E-003;1.198488607769832E-004;
2.410833333333334E+009;1.691404581069946E-001;-1.543962582945824E-002;-2.654854906722903E-003;3.175423189532012E-004;
2.411000000000000E+009;1.689388006925583E-001;-1.710123755037785E-002;-2.681192010641098E-003;1.494620082667097E-004;
2.411166666666667E+009;1.684976667165756E-001;-1.900866255164146E-002;-2.575418679043651E-003;4.605834546964616E-004;
2.411333333333334E+009;1.682155430316925E-001;-2.109618298709393E-002;-2.610949100926518E-003;4.533742612693459E-004;
2.411500000000000E+009;1.681399643421173E-001;-2.289673872292042E-002;-2.899030921980739E-003;5.593178211711347E-004;
2.411666666666667E+009;1.682459414005280E-001;-2.495693042874336E-002;-2.681993413716555E-003;5.487549351528287E-004;
2.411833333333334E+009;1.679507344961166E-001;-2.667088061571121E-002;-2.988722408190370E-003;7.317741401493549E-004;
2.412000000000000E+009;1.681381613016129E-001;-2.865670435130596E-002;-2.919658087193966E-003;7.134082843549550E-004;
2.412166666666667E+009;1.682063490152359E-001;-3.056191094219685E-002;-2.862831344828010E-003;8.694939897395670E-004;
2.412333333333334E+009;1.686160266399384E-001;-3.245465084910393E-002;-2.955553121864796E-003;1.018696697428823E-003;
2.412500000000000E+009;1.686080396175385E-001;-3.421521559357643E-002;-2.933656331151724E-003;1.195874297991395E-003;
2.412666666666667E+009;1.687897890806198E-001;-3.638013079762459E-002;-3.036035457625985E-003;1.251599402166903E-003;
2.412833333333334E+009;1.693371236324310E-001;-3.810168802738190E-002;-2.991540823131800E-003;1.305795274674892E-003;
2.413000000000000E+009;1.697852015495300E-001;-3.967823460698128E-002;-2.973599359393120E-003;1.478873193264008E-003;
2.413166666666667E+009;1.699964404106140E-001;-4.140279069542885E-002;-3.084161318838596E-003;1.737364800646901E-003;
2.413333333333334E+009;1.704046875238419E-001;-4.313842579722405E-002;-3.055357141420245E-003;1.646561198867858E-003;
2.413500000000000E+009;1.710285693407059E-001;-4.489663243293762E-002;-2.883235225453973E-003;1.915023662149906E-003;
2.413666666666667E+009;1.715689599514008E-001;-4.626200720667839E-002;-2.869164571166039E-003;2.128931693732739E-003;
2.413833333333334E+009;1.720516234636307E-001;-4.758082702755928E-002;-2.971080364659429E-003;2.180222421884537E-003;
2.414000000000000E+009;1.724622994661331E-001;-4.904048517346382E-002;-2.811175072565675E-003;2.348801819607616E-003;
2.414166666666667E+009;1.731494814157486E-001;-5.038101598620415E-002;-2.866463037207723E-003;2.364749321714044E-003;
2.414333333333334E+009;1.736971586942673E-001;-5.164556205272675E-002;-2.585121430456638E-003;2.536594169214368E-003;
2.414500000000000E+009;1.742994785308838E-001;-5.282767862081528E-002;-2.559440908953548E-003;2.668892731890082E-003;
2.414666666666667E+009;1.746853739023209E-001;-5.373844504356384E-002;-2.648813650012016E-003;2.758363028988242E-003;
2.414833333333334E+009;1.750954836606979E-001;-5.470199882984161E-002;-2.338655525818467E-003;2.957637188956142E-003;
2.415000000000000E+009;1.755436658859253E-001;-5.549261718988419E-002;-2.435530535876751E-003;3.000857774168253E-003;
2.415166666666667E+009;1.758913248777390E-001;-5.625047162175179E-002;-2.258095657452941E-003;3.170742420479655E-003;
2.415333333333334E+009;1.764352917671204E-001;-5.715971440076828E-002;-2.192939631640911E-003;3.254290902987123E-003;
2.415500000000000E+009;1.767323464155197E-001;-5.752979591488838E-002;-2.038503997027874E-003;3.510133828967810E-003;
2.415666666666667E+009;1.770126521587372E-001;-5.812031030654907E-002;-2.101206453517079E-003;3.584530204534531E-003;
2.415833333333334E+009;1.772230118513107E-001;-5.872013047337532E-002;-1.717780716717243E-003;3.558444790542126E-003;
2.416000000000000E+009;1.771647930145264E-001;-5.922462418675423E-002;-1.649059355258942E-003;3.541600191965699E-003;
2.416166666666667E+009;1.774270236492157E-001;-5.939308181405067E-002;-1.544182538054884E-003;3.810001770034432E-003;
2.416333333333334E+009;1.772890239953995E-001;-5.989040434360504E-002;-1.445825328119099E-003;3.770334878936410E-003;
2.416500000000000E+009;1.772049665451050E-001;-6.018012762069702E-002;-1.255935989320278E-003;3.822315251454711E-003;
2.416666666666667E+009;1.769649237394333E-001;-6.044793874025345E-002;-1.032892847433686E-003;3.969611134380102E-003;
2.416833333333334E+009;1.767552196979523E-001;-6.082370132207871E-002;-9.738669614307582E-004;4.021716769784689E-003;
2.417000000000000E+009;1.761963069438934E-001;-6.097503378987312E-002;-7.022120989859104E-004;4.151680506765842E-003;
2.417166666666667E+009;1.758424192667007E-001;-6.120961904525757E-002;-6.094103446230292E-004;4.179211333394051E-003;
2.417333333333334E+009;1.752994954586029E-001;-6.134757772088051E-002;-4.489423299673945E-004;4.133843816816807E-003;
2.417500000000000E+009;1.745851039886475E-001;-6.179702654480934E-002;-1.998578227357939E-004;4.364144988358021E-003;
2.417666666666667E+009;1.739486455917358E-001;-6.184995174407959E-002;-7.760218431940302E-005;4.307173658162355E-003;
2.417833333333334E+009;1.732842773199081E-001;-6.224032491445541E-002;-8.013653132366017E-005;4.457026720046997E-003;
2.418000000000000E+009;1.723926961421967E-001;-6.265658140182495E-002;2.576247206889093E-004;4.213151521980763E-003;
2.418166666666667E+009;1.713469326496124E-001;-6.282789260149002E-002;3.732994082383812E-004;4.251073114573956E-003;
2.418333333333334E+009;1.706164330244064E-001;-6.335464119911194E-002;5.142745794728398E-004;4.239622037857771E-003;
2.418500000000000E+009;1.695082783699036E-001;-6.365386396646500E-002;7.295897812582552E-004;4.257422406226397E-003;
2.418666666666667E+009;1.684830188751221E-001;-6.427205353975296E-002;9.106264915317297E-004;4.294349811971188E-003;
2.418833333333334E+009;1.671024709939957E-001;-6.486265361309052E-002;1.033295993693173E-003;4.208147991448641E-003;
2.419000000000000E+009;1.660307496786118E-001;-6.542360782623291E-002;1.187587506137788E-003;4.189635161310434E-003;
2.419166666666667E+009;1.649862825870514E-001;-6.613216549158096E-002;1.440638792701066E-003;4.178562201559544E-003;
2.419333333333334E+009;1.636260300874710E-001;-6.673975288867950E-002;1.540018478408456E-003;4.105259664356709E-003;
2.419500000000000E+009;1.625368744134903E-001;-6.775978207588196E-002;1.752644195221365E-003;4.017740488052368E-003;
2.419666666666667E+009;1.614503562450409E-001;-6.868527084589005E-002;1.974579878151417E-003;3.987501375377178E-003;
2.419833333333334E+009;1.602373719215393E-001;-6.940368562936783E-002;1.984442118555307E-003;3.938116133213043E-003;
2.420000000000000E+009;1.592563241720200E-001;-7.055602222681046E-002;2.217997098341584E-003;3.904420183971524E-003;
2.420166666666667E+009;1.582185477018356E-001;-7.173831015825272E-002;2.379562938585877E-003;3.749076044186950E-003;
2.420333333333334E+009;1.571790575981140E-001;-7.303989678621292E-002;2.508794190362096E-003;3.776466939598322E-003;
2.420500000000000E+009;1.562927812337875E-001;-7.420623302459717E-002;2.549602184444666E-003;3.596658818423748E-003;
2.420666666666667E+009;1.552343070507050E-001;-7.539950311183929E-002;2.756668487563729E-003;3.438127692788839E-003;
2.420833333333334E+009;1.543529331684113E-001;-7.682274281978607E-002;2.982520032674074E-003;3.421167610213161E-003;
2.421000000000000E+009;1.534919738769531E-001;-7.850792258977890E-002;3.015404101461172E-003;3.353304928168654E-003;
2.421166666666667E+009;1.529189944267273E-001;-7.998590171337128E-002;3.169268369674683E-003;3.198221325874329E-003;
2.421333333333334E+009;1.520871520042419E-001;-8.160330355167389E-002;3.282597055658698E-003;3.096134169027209E-003;
2.421500000000000E+009;1.515100300312042E-001;-8.321535587310791E-002;3.403989598155022E-003;2.964624902233481E-003;
2.421666666666667E+009;1.510245651006699E-001;-8.473476767539978E-002;3.576438874006271E-003;2.640669699758291E-003;
2.421833333333334E+009;1.507596671581268E-001;-8.653143793344498E-002;3.627875586971641E-003;2.661186503246427E-003;
2.422000000000000E+009;1.503582745790482E-001;-8.827914297580719E-002;3.720071865245700E-003;2.390642184764147E-003;
2.422166666666667E+009;1.499570906162262E-001;-9.016574174165726E-002;3.799102036282420E-003;2.275012433528900E-003;
2.422333333333334E+009;1.496982425451279E-001;-9.160850942134857E-002;3.688817378133535E-003;2.087462926283479E-003;
2.422500000000000E+009;1.497664600610733E-001;-9.322965890169144E-002;3.899901872500777E-003;2.116121351718903E-003;
2.422666666666667E+009;1.496347486972809E-001;-9.492158144712448E-002;3.963024821132422E-003;1.906878780573607E-003;
2.422833333333334E+009;1.496374458074570E-001;-9.661260992288590E-002;4.126477055251598E-003;1.537423813715577E-003;
2.423000000000000E+009;1.496843993663788E-001;-9.826227277517319E-002;4.115671385079622E-003;1.467700232751668E-003;
2.423166666666667E+009;1.498766243457794E-001;-9.996846318244934E-002;4.221188370138407E-003;1.211664872244000E-003;
2.423333333333334E+009;1.501517593860626E-001;-1.013415753841400E-001;4.193354398012161E-003;1.132776262238622E-003;
2.423500000000000E+009;1.504436135292053E-001;-1.029588803648949E-001;4.222903400659561E-003;9.663561941124499E-004;
2.423666666666667E+009;1.505479663610458E-001;-1.045195311307907E-001;4.247501492500305E-003;9.536793804727495E-004;
2.423833333333334E+009;1.511568874120712E-001;-1.058161854743958E-001;4.334212746471167E-003;5.646271747536957E-004;
2.424000000000000E+009;1.513884514570236E-001;-1.071155071258545E-001;4.498969763517380E-003;3.142268978990614E-004;
2.424166666666667E+009;1.517860889434815E-001;-1.085153147578239E-001;4.370366688817740E-003;2.054629876511172E-004;
2.424333333333334E+009;1.523374170064926E-001;-1.094246953725815E-001;4.368888214230537E-003;1.846032973844558E-004;
2.424500000000000E+009;1.527046114206314E-001;-1.108286082744598E-001;4.332496318966150E-003;-6.662320083705708E-005;
2.424666666666667E+009;1.532579958438873E-001;-1.116494163870812E-001;4.359481856226921E-003;-8.841855742502958E-005;
2.424833333333334E+009;1.535054445266724E-001;-1.127265244722366E-001;4.439755808562040E-003;-4.732688248623163E-004;
2.425000000000000E+009;1.541438549757004E-001;-1.135303080081940E-001;4.157185088843107E-003;-5.023370031267405E-004;
2.425166666666667E+009;1.542753875255585E-001;-1.143645122647286E-001;4.174540285021067E-003;-7.507897680625320E-004;
2.425333333333334E+009;1.547641605138779E-001;-1.149699613451958E-001;4.040522500872612E-003;-9.383448050357401E-004;
2.425500000000000E+009;1.551001071929932E-001;-1.157074421644211E-001;4.109618254005909E-003;-1.017152681015432E-003;
2.425666666666667E+009;1.552437394857407E-001;-1.161825582385063E-001;4.001104738563299E-003;-1.182741601951420E-003;
2.425833333333334E+009;1.554427444934845E-001;-1.167584881186485E-001;3.848024643957615E-003;-1.534948940388858E-003;
2.426000000000000E+009;1.556846648454666E-001;-1.171492859721184E-001;3.847518702968955E-003;-1.529537723399699E-003;
2.426166666666667E+009;1.560608446598053E-001;-1.175648048520088E-001;3.697951091453433E-003;-1.685361145064235E-003;
2.426333333333334E+009;1.558753550052643E-001;-1.178194805979729E-001;3.676453838124871E-003;-1.920848852023482E-003;
2.426500000000000E+009;1.558838784694672E-001;-1.180161461234093E-001;3.573753638193011E-003;-1.889816834591329E-003;
2.426666666666667E+009;1.558569967746735E-001;-1.180865317583084E-001;3.518577432259917E-003;-2.005898626521230E-003;
2.426833333333334E+009;1.555673480033875E-001;-1.183653324842453E-001;3.377685789018869E-003;-2.181301824748516E-003;
2.427000000000000E+009;1.552567183971405E-001;-1.185761839151382E-001;3.172287251800299E-003;-2.150715095922351E-003;
2.427166666666667E+009;1.549412459135056E-001;-1.185083836317062E-001;3.109924262389541E-003;-2.358922036364675E-003;
2.427333333333334E+009;1.543923616409302E-001;-1.186668872833252E-001;2.998740877956152E-003;-2.338473685085774E-003;
2.427500000000000E+009;1.539061218500137E-001;-1.188642010092735E-001;2.854871097952128E-003;-2.461830154061317E-003;
2.427666666666667E+009;1.531229615211487E-001;-1.188894510269165E-001;2.664382336661220E-003;-2.574101788923144E-003;
