# Version 1.00
#
freq[Hz];re:Trc1_S11;im:Trc1_S11;re:Trc2_S21;im:Trc2_S21;
2.400000000000000E+009;1.579761505126953E-001;6.187383085489273E-002;-1.173362252302468E-003;-2.289411146193743E-003;
2.400166666666667E+009;1.579211801290512E-001;6.043672934174538E-002;-1.336513902060688E-003;-2.254111226648092E-003;
2.400333333333334E+009;1.577320396900177E-001;5.842808634042740E-002;-1.234761322848499E-003;-2.350162947550416E-003;
2.400500000000000E+009;1.577972620725632E-001;5.677887797355652E-002;-1.350664533674717E-003;-2.262727823108435E-003;
2.400666666666667E+009;1.578303575515747E-001;5.474509671330452E-002;-1.400076551362872E-003;-2.213571919128299E-003;
2.400833333333334E+009;1.578680127859116E-001;5.277510732412338E-002;-1.622485928237438E-003;-2.099171280860901E-003;
2.401000000000000E+009;1.579754948616028E-001;5.062870308756828E-002;-1.688490272499621E-003;-1.954611623659730E-003;
2.401166666666667E+009;1.582092493772507E-001;4.874902591109276E-002;-1.668395940214396E-003;-1.937305671162903E-003;
2.401333333333334E+009;1.581818163394928E-001;4.644574224948883E-002;-1.687439158558846E-003;-1.810122630558908E-003;
2.401500000000000E+009;1.588526219129562E-001;4.454586654901505E-002;-1.751710893586278E-003;-1.843512873165309E-003;
2.401666666666667E+009;1.590160131454468E-001;4.258879646658897E-002;-1.865101046860218E-003;-1.714241807349026E-003;
2.401833333333334E+009;1.593551784753799E-001;4.043389111757278E-002;-1.859595067799091E-003;-1.703107496723533E-003;
2.402000000000000E+009;1.598446220159531E-001;3.851742297410965E-002;-1.904419390484691E-003;-1.584683312103152E-003;
2.402166666666667E+009;1.603313237428665E-001;3.651830926537514E-002;-1.794600742869079E-003;-1.343064825050533E-003;
2.402333333333334E+009;1.609452962875366E-001;3.468102589249611E-002;-1.834344817325473E-003;-1.312150503508747E-003;
2.402500000000000E+009;1.618596762418747E-001;3.301646932959557E-002;-1.889746752567589E-003;-1.203992869704962E-003;
2.402666666666667E+009;1.624474376440048E-001;3.123488835990429E-002;-1.955238869413734E-003;-9.945946512743831E-004;
2.402833333333334E+009;1.633180379867554E-001;2.964435890316963E-002;-1.920181559398770E-003;-1.040030620060861E-003;
2.403000000000000E+009;1.639187783002853E-001;2.792144566774368E-002;-1.885159057565033E-003;-1.045993762090802E-003;
2.403166666666667E+009;1.647949963808060E-001;2.630126290023327E-002;-1.763637643307447E-003;-7.670940831303597E-004;
2.403333333333334E+009;1.657307595014572E-001;2.486327290534973E-002;-1.891905907541513E-003;-8.412351016886532E-004;
2.403500000000000E+009;1.666296422481537E-001;2.346456609666348E-002;-1.622424344532192E-003;-7.912511355243623E-004;
2.403666666666667E+009;1.675278544425964E-001;2.187037281692028E-002;-1.599849201738834E-003;-7.817308069206774E-004;
2.403833333333334E+009;1.684844195842743E-001;2.081258967518807E-002;-1.630087499506772E-003;-6.181946955621243E-004;
2.404000000000000E+009;1.696000844240189E-001;1.957774348556995E-002;-1.487009460106492E-003;-5.885136197321117E-004;
2.404166666666667E+009;1.703916490077972E-001;1.841891929507256E-002;-1.577816787175834E-003;-7.398541201837361E-004;
2.404333333333334E+009;1.713496595621109E-001;1.765628717839718E-002;-1.378419576212764E-003;-6.558702443726361E-004;
2.404500000000000E+009;1.720777153968811E-001;1.649261079728603E-002;-1.356146298348904E-003;-7.215540972538292E-004;
2.404666666666667E+009;1.730135083198547E-001;1.560688111931086E-002;-1.371421036310494E-003;-6.754937930963934E-004;
2.404833333333334E+009;1.738861799240112E-001;1.488166581839323E-002;-1.366206677630544E-003;-7.030242122709751E-004;
2.405000000000000E+009;1.749342530965805E-001;1.417366228997707E-002;-1.461066422052681E-003;-7.081712246872485E-004;
2.405166666666667E+009;1.756307333707809E-001;1.344835571944714E-002;-1.386893098242581E-003;-7.620888645760715E-004;
2.405333333333334E+009;1.764371246099472E-001;1.284947805106640E-002;-1.414055703207851E-003;-7.083462551236153E-004;
2.405500000000000E+009;1.771344989538193E-001;1.242769975215197E-002;-1.418930944055319E-003;-8.255493012256920E-004;
2.405666666666667E+009;1.778206825256348E-001;1.196623686701059E-002;-1.342617324553430E-003;-7.928094128146768E-004;
2.405833333333334E+009;1.782146543264389E-001;1.157548557966948E-002;-1.558147370815277E-003;-8.692583069205284E-004;
2.406000000000000E+009;1.788892298936844E-001;1.106212288141251E-002;-1.407368690706790E-003;-9.784752037376165E-004;
2.406166666666667E+009;1.792351901531220E-001;1.094182673841715E-002;-1.626099692657590E-003;-9.658051421865821E-004;
2.406333333333334E+009;1.796848475933075E-001;1.052178349345923E-002;-1.490331953391433E-003;-8.547774632461369E-004;
2.406500000000000E+009;1.799608319997788E-001;1.014820300042629E-002;-1.633852720260620E-003;-1.165259745903313E-003;
2.406666666666667E+009;1.799516379833221E-001;9.883082471787930E-003;-1.773196156136692E-003;-9.320850949734449E-004;
2.406833333333334E+009;1.802455931901932E-001;9.583056904375553E-003;-1.666774274781346E-003;-9.854339295998216E-004;
2.407000000000000E+009;1.803578585386276E-001;9.072615765035152E-003;-1.760685816407204E-003;-9.471669909544289E-004;
2.407166666666667E+009;1.804293990135193E-001;8.863899856805801E-003;-1.813168404623866E-003;-1.065483782440424E-003;
2.407333333333334E+009;1.802463829517365E-001;8.315267972648144E-003;-1.969614764675498E-003;-1.038781949318945E-003;
2.407500000000000E+009;1.801092624664307E-001;7.873287424445152E-003;-2.062322571873665E-003;-9.849776979535818E-004;
2.407666666666667E+009;1.799512356519699E-001;7.445299066603184E-003;-1.991825876757503E-003;-8.475008071400225E-004;
2.407833333333334E+009;1.794116944074631E-001;6.890932098031044E-003;-2.084459876641631E-003;-7.883710786700249E-004;
2.408000000000000E+009;1.791081577539444E-001;6.266407668590546E-003;-2.260454464703798E-003;-7.491651922464371E-004;
2.408166666666667E+009;1.786443144083023E-001;5.744136404246092E-003;-2.331521594896913E-003;-6.674370379187167E-004;
2.408333333333334E+009;1.783038079738617E-001;4.954789765179157E-003;-2.272553043439984E-003;-5.002883262932301E-004;
2.408500000000000E+009;1.777989864349365E-001;4.134768154472113E-003;-2.185859018936753E-003;-5.491002812050283E-004;
2.408666666666667E+009;1.772306710481644E-001;3.150662872940302E-003;-2.438446041196585E-003;-3.639822243712843E-004;
2.408833333333334E+009;1.763897836208344E-001;2.100369427353144E-003;-2.415038412436843E-003;-3.945009666495025E-004;
2.409000000000000E+009;1.757116913795471E-001;1.116064842790365E-003;-2.528643235564232E-003;-4.031100543215871E-004;
2.409166666666667E+009;1.751600503921509E-001;3.253428440075368E-005;-2.528038341552019E-003;-4.144399717915803E-004;
2.409333333333334E+009;1.745308786630631E-001;-1.185340690426529E-003;-2.535555046051741E-003;-2.654009149409831E-004;
2.409500000000000E+009;1.738323122262955E-001;-2.721833065152168E-003;-2.392372116446495E-003;-3.408146731089801E-004;
2.409666666666667E+009;1.730761677026749E-001;-3.987237811088562E-003;-2.466225298121572E-003;-2.301019121659920E-004;
2.409833333333334E+009;1.723771542310715E-001;-5.211586598306894E-003;-2.354967175051570E-003;-6.195891910465434E-005;
2.410000000000000E+009;1.719914227724075E-001;-6.884139962494373E-003;-2.553383819758892E-003;3.971365003963001E-005;
2.410166666666667E+009;1.712813079357147E-001;-8.503166958689690E-003;-2.604953479021788E-003;-1.018861876218580E-004;
2.410333333333334E+009;1.706673204898834E-001;-1.021137554198504E-002;-2.532078651711345E-003;2.486768353264779E-004;
2.410500000000000E+009;1.702278554439545E-001;-1.182046532630920E-002;-2.745755249634385E-003;1.532225433038548E-004;
2.410666666666667E+009;1.695270538330078E-001;-1.367080770432949E-002;-2.534863306209445E-003;4.674445153796114E-005;
2.410833333333334E+009;1.692824363708496E-001;-1.543864142149687E-002;-2.664210507646203E-003;5.788082853541710E-005;
2.411000000000000E+009;1.688442677259445E-001;-1.709117181599140E-002;-2.800012705847621E-003;2.535653766244650E-004;
2.411166666666667E+009;1.685338020324707E-001;-1.919671148061752E-002;-2.676295349374414E-003;3.099744208157063E-004;
2.411333333333334E+009;1.683158725500107E-001;-2.101420611143112E-002;-2.736056922003627E-003;3.741411783266813E-004;
2.411500000000000E+009;1.679650545120239E-001;-2.296854369342327E-002;-2.846383722499013E-003;4.324929323047400E-004;
2.411666666666667E+009;1.679577231407166E-001;-2.469581365585327E-002;-2.936284057796001E-003;5.243002669885755E-004;
2.411833333333334E+009;1.678537875413895E-001;-2.675247751176357E-002;-2.813639817759395E-003;5.871110479347408E-004;
2.412000000000000E+009;1.679322868585587E-001;-2.871824428439140E-002;-2.955104457214475E-003;6.980851758271456E-004;
2.412166666666667E+009;1.681271344423294E-001;-3.053217008709908E-002;-2.876367187127471E-003;8.434536866843700E-004;
2.412333333333334E+009;1.683826744556427E-001;-3.233115375041962E-002;-3.116532694548369E-003;9.931524982675910E-004;
2.412500000000000E+009;1.684138178825378E-001;-3.425899893045425E-002;-2.983595943078399E-003;1.098122680559754E-003;
2.412666666666667E+009;1.687603443861008E-001;-3.631147742271423E-002;-3.005579346790910E-003;1.235374948009849E-003;
2.412833333333334E+009;1.692301928997040E-001;-3.801653906702995E-002;-3.056766930967569E-003;1.458219834603369E-003;
2.413000000000000E+009;1.695017069578171E-001;-3.980043530464172E-002;-3.032475011423230E-003;1.559335505589843E-003;
2.413166666666667E+009;1.700951159000397E-001;-4.134023934602737E-002;-3.088645869866014E-003;1.568256993778050E-003;
2.413333333333334E+009;1.703829765319824E-001;-4.305839911103249E-002;-2.863444155082107E-003;1.872985623776913E-003;
2.413500000000000E+009;1.709305047988892E-001;-4.467555508017540E-002;-3.024337114766240E-003;1.982097979635000E-003;
2.413666666666667E+009;1.715417206287384E-001;-4.623391851782799E-002;-2.864951733499765E-003;2.018576487898827E-003;
2.413833333333334E+009;1.719996333122253E-001;-4.767820239067078E-002;-2.859207801520824E-003;2.183598000556231E-003;
2.414000000000000E+009;1.723662912845612E-001;-4.915316775441170E-002;-2.816689433529973E-003;2.292240038514137E-003;
2.414166666666667E+009;1.730435490608215E-001;-5.028706416487694E-002;-2.906817477196455E-003;2.486753277480602E-003;
2.414333333333334E+009;1.735586673021317E-001;-5.156635493040085E-002;-2.711940091103315E-003;2.687163883820176E-003;
2.414500000000000E+009;1.742620617151260E-001;-5.269744619727135E-002;-2.663671039044857E-003;2.747206250205636E-003;
2.414666666666667E+009;1.746198534965515E-001;-5.367387458682060E-002;-2.636040095239878E-003;2.740714931860566E-003;
2.414833333333334E+009;1.750345230102539E-001;-5.480243265628815E-002;-2.334612654522061E-003;2.930456073954701E-003;
2.415000000000000E+009;1.755815446376801E-001;-5.553124099969864E-002;-2.341651590541005E-003;3.142514964565635E-003;
2.415166666666667E+009;1.759514957666397E-001;-5.635873973369598E-002;-2.189727267250419E-003;3.188182367011905E-003;
2.415333333333334E+009;1.764603257179260E-001;-5.713600665330887E-002;-2.106698229908943E-003;3.286065766587853E-003;
2.415500000000000E+009;1.767390817403793E-001;-5.760641023516655E-002;-2.075725002214313E-003;3.580273827537894E-003;
2.415666666666667E+009;1.769248843193054E-001;-5.809410288929939E-002;-1.794081181287766E-003;3.504239255562425E-003;
2.415833333333334E+009;1.772530972957611E-001;-5.875115841627121E-002;-1.757009071297944E-003;3.621641080826521E-003;
2.416000000000000E+009;1.772229969501495E-001;-5.914565920829773E-002;-1.768303103744984E-003;3.737454069778323E-003;
2.416166666666667E+009;1.773762553930283E-001;-5.965457111597061E-002;-1.587429898791015E-003;3.831162815913558E-003;
2.416333333333334E+009;1.772075295448303E-001;-5.972777307033539E-002;-1.330310944467783E-003;3.865691367536783E-003;
2.416500000000000E+009;1.772325783967972E-001;-6.014243513345718E-002;-1.140457461588085E-003;4.021330270916224E-003;
2.416666666666667E+009;1.769054532051086E-001;-6.035859137773514E-002;-1.086682314053178E-003;4.065599758177996E-003;
2.416833333333334E+009;1.768120825290680E-001;-6.082698330283165E-002;-8.254575659520924E-004;4.042486194521189E-003;
2.417000000000000E+009;1.762095689773560E-001;-6.099258735775948E-002;-8.158394484780729E-004;4.137674346566200E-003;
2.417166666666667E+009;1.757354736328125E-001;-6.120791658759117E-002;-5.030832835473120E-004;4.247407428920269E-003;
2.417333333333334E+009;1.753095239400864E-001;-6.143834814429283E-002;-4.002873902209103E-004;4.343911539763212E-003;
2.417500000000000E+009;1.745694875717163E-001;-6.178529933094978E-002;-2.960308047477156E-004;4.254889674484730E-003;
2.417666666666667E+009;1.740095317363739E-001;-6.191807240247726E-002;-7.361100870184600E-005;4.229746293276548E-003;
2.417833333333334E+009;1.731959432363510E-001;-6.212959811091423E-002;1.055089815054089E-004;4.361869767308235E-003;
2.418000000000000E+009;1.723383218050003E-001;-6.264019757509232E-002;3.156885795760900E-004;4.292895086109638E-003;
2.418166666666667E+009;1.713860183954239E-001;-6.283446401357651E-002;4.044240049552172E-004;4.480920266360045E-003;
2.418333333333334E+009;1.706676334142685E-001;-6.333620846271515E-002;6.155613809823990E-004;4.351150710135698E-003;
2.418500000000000E+009;1.695429384708405E-001;-6.373140960931778E-002;7.480834028683603E-004;4.368950612843037E-003;
2.418666666666667E+009;1.685784757137299E-001;-6.421054154634476E-002;8.661394240334630E-004;4.353888332843781E-003;
2.418833333333334E+009;1.672523170709610E-001;-6.490887701511383E-002;1.173436525277793E-003;4.300807602703571E-003;
2.419000000000000E+009;1.660425662994385E-001;-6.539750844240189E-002;1.212368020787835E-003;4.296982195228338E-003;
2.419166666666667E+009;1.649960130453110E-001;-6.622623652219772E-002;1.341047929599881E-003;4.155026283115149E-003;
2.419333333333334E+009;1.636092364788055E-001;-6.681546568870544E-002;1.497961231507361E-003;4.113100003451109E-003;
2.419500000000000E+009;1.625270247459412E-001;-6.777656823396683E-002;1.814805902540684E-003;4.178407602012157E-003;
2.419666666666667E+009;1.613346189260483E-001;-6.882850825786591E-002;2.022675704210997E-003;4.146410152316093E-003;
2.419833333333334E+009;1.603156328201294E-001;-6.954590976238251E-002;1.964146271348000E-003;3.971313592046499E-003;
2.420000000000000E+009;1.593404412269592E-001;-7.067030668258667E-002;2.143099205568433E-003;3.866750048473477E-003;
2.420166666666667E+009;1.580954790115356E-001;-7.169163972139359E-002;2.330038696527481E-003;3.838199656456709E-003;
2.420333333333334E+009;1.571019738912582E-001;-7.305159419775009E-002;2.536437008529902E-003;3.663114272058010E-003;
2.420500000000000E+009;1.562187820672989E-001;-7.405766844749451E-002;2.677859971299768E-003;3.622831543907523E-003;
2.420666666666667E+009;1.551842540502548E-001;-7.546282559633255E-002;2.848264528438449E-003;3.474608529359102E-003;
2.420833333333334E+009;1.543827652931213E-001;-7.689009606838226E-002;2.993358066305518E-003;3.447600174695253E-003;
2.421000000000000E+009;1.533108502626419E-001;-7.852689921855927E-002;2.965851919725537E-003;3.371515311300755E-003;
2.421166666666667E+009;1.527996808290482E-001;-8.003669977188110E-002;3.215487813577056E-003;3.262405050918460E-003;
2.421333333333334E+009;1.521911621093750E-001;-8.163297921419144E-002;3.314854111522436E-003;3.035190748050809E-003;
2.421500000000000E+009;1.515870839357376E-001;-8.314687013626099E-002;3.447730792686343E-003;2.884718123823404E-003;
2.421666666666667E+009;1.509579718112946E-001;-8.475960791110992E-002;3.658781293779612E-003;2.824235940352082E-003;
2.421833333333334E+009;1.505851298570633E-001;-8.645009994506836E-002;3.771629417315126E-003;2.647995017468929E-003;
2.422000000000000E+009;1.503046452999115E-001;-8.823837339878082E-002;3.781987121328712E-003;2.439399017021060E-003;
2.422166666666667E+009;1.498960405588150E-001;-8.992515504360199E-002;3.884188830852509E-003;2.388264052569866E-003;
2.422333333333334E+009;1.497323364019394E-001;-9.140616655349731E-002;3.957516048103571E-003;2.127476735040546E-003;
2.422500000000000E+009;1.494477540254593E-001;-9.311164170503616E-002;4.142036661505699E-003;1.909680548124015E-003;
2.422666666666667E+009;1.495174169540405E-001;-9.483873099088669E-002;4.160378128290176E-003;1.951957819983363E-003;
2.422833333333334E+009;1.497188657522202E-001;-9.666878730058670E-002;4.064730834215879E-003;1.665384159423411E-003;
2.423000000000000E+009;1.496095508337021E-001;-9.834006428718567E-002;4.249064251780510E-003;1.562962541356683E-003;
2.423166666666667E+009;1.499247252941132E-001;-9.984882175922394E-002;4.223236348479986E-003;1.380918780341744E-003;
2.423333333333334E+009;1.502021700143814E-001;-1.012732163071632E-001;4.297714214771986E-003;1.142088091000915E-003;
2.423500000000000E+009;1.505150049924851E-001;-1.030137091875076E-001;4.428161773830652E-003;9.836147073656321E-004;
2.423666666666667E+009;1.506681293249130E-001;-1.044892743229866E-001;4.511330742388964E-003;6.575994775630534E-004;
2.423833333333334E+009;1.512356251478195E-001;-1.058392822742462E-001;4.338460974395275E-003;6.809318438172340E-004;
2.424000000000000E+009;1.513223052024841E-001;-1.070345193147659E-001;4.316048230975866E-003;4.229908809065819E-004;
2.424166666666667E+009;1.518063098192215E-001;-1.084347888827324E-001;4.413557238876820E-003;2.854007179848850E-004;
2.424333333333334E+009;1.523019075393677E-001;-1.095093041658402E-001;4.246012773364782E-003;1.711542281555012E-004;
2.424500000000000E+009;1.528130471706390E-001;-1.106701344251633E-001;4.282549954950810E-003;-2.229997189715505E-004;
2.424666666666667E+009;1.532981097698212E-001;-1.115850582718849E-001;4.291845019906759E-003;-2.892086631618440E-004;
2.424833333333334E+009;1.535751968622208E-001;-1.125393435359001E-001;4.258717410266399E-003;-4.155008064117283E-004;
2.425000000000000E+009;1.541958600282669E-001;-1.135171800851822E-001;4.249644465744495E-003;-6.680410006083548E-004;
2.425166666666667E+009;1.541820615530014E-001;-1.143180429935455E-001;4.194755572825670E-003;-7.511029834859073E-004;
2.425333333333334E+009;1.548015624284744E-001;-1.150238364934921E-001;4.119306802749634E-003;-9.931126842275262E-004;
2.425500000000000E+009;1.551389396190643E-001;-1.157811135053635E-001;4.104447551071644E-003;-1.083774259313941E-003;
2.425666666666667E+009;1.553092002868652E-001;-1.163515970110893E-001;4.009088035672903E-003;-1.309545827098191E-003;
2.425833333333334E+009;1.555929481983185E-001;-1.167919784784317E-001;3.843349171802402E-003;-1.358302775770426E-003;
2.426000000000000E+009;1.557967215776444E-001;-1.172382608056068E-001;3.858820069581270E-003;-1.469284528866410E-003;
2.426166666666667E+009;1.559825837612152E-001;-1.176483556628227E-001;3.731496166437864E-003;-1.748502138070762E-003;
2.426333333333334E+009;1.558742374181747E-001;-1.179685816168785E-001;3.648312762379646E-003;-1.794833922758699E-003;
2.426500000000000E+009;1.559059470891953E-001;-1.181365549564362E-001;3.508913097903132E-003;-1.909048529341817E-003;
2.426666666666667E+009;1.558096706867218E-001;-1.182130277156830E-001;3.341689938679338E-003;-1.996034989133477E-003;
2.426833333333334E+009;1.555688679218292E-001;-1.184219941496849E-001;3.254947485402226E-003;-2.215332584455609E-003;
2.427000000000000E+009;1.551721692085266E-001;-1.186741292476654E-001;3.270569024607539E-003;-2.109410706907511E-003;
2.427166666666667E+009;1.547736972570419E-001;-1.186197921633720E-001;3.116567619144917E-003;-2.233635168522596E-003;
2.427333333333334E+009;1.542765945196152E-001;-1.188484057784081E-001;3.019780619069934E-003;-2.321093110367656E-003;
2.427500000000000E+009;1.538044512271881E-001;-1.189078837633133E-001;2.941416343674064E-003;-2.332070609554648E-003;
2.427666666666667E+009;1.530036777257919E-001;-1.190837919712067E-001;2.700486686080694E-003;-2.521713962778449E-003;
