# Version 1.00
#
freq[Hz];re:Trc1_S11;im:Trc1_S11;re:Trc2_S21;im:Trc2_S21;
2.400000000000000E+009;1.551004201173782E-001;1.062793359160423E-001;-5.678751505911350E-003;-4.137543030083180E-003;
2.400166666666667E+009;1.547306478023529E-001;1.038085147738457E-001;-5.879836622625589E-003;-3.988088108599186E-003;
2.400333333333334E+009;1.547643095254898E-001;1.015072911977768E-001;-6.215643137693405E-003;-3.776182420551777E-003;
2.400500000000000E+009;1.547181308269501E-001;9.865844994783402E-002;-6.311207078397274E-003;-3.543263999745250E-003;
2.400666666666667E+009;1.547480076551437E-001;9.645693004131317E-002;-6.626282818615437E-003;-3.220892744138837E-003;
2.400833333333334E+009;1.545572727918625E-001;9.358882158994675E-002;-6.927643902599812E-003;-2.982531674206257E-003;
2.401000000000000E+009;1.548375189304352E-001;9.072650223970413E-002;-6.948072463274002E-003;-2.615870442241430E-003;
2.401166666666667E+009;1.547917425632477E-001;8.794553577899933E-002;-7.052269298583269E-003;-2.191293751820922E-003;
2.401333333333334E+009;1.552364379167557E-001;8.521231263875961E-002;-6.894462276250124E-003;-1.815681229345501E-003;
2.401500000000000E+009;1.555998325347900E-001;8.214835822582245E-002;-6.962320767343044E-003;-1.416934188455343E-003;
2.401666666666667E+009;1.559656560420990E-001;7.946135848760605E-002;-7.010481785982847E-003;-1.056222128681839E-003;
2.401833333333334E+009;1.564068049192429E-001;7.661741971969605E-002;-6.732163019478321E-003;-1.033338019624353E-003;
2.402000000000000E+009;1.574155241250992E-001;7.392171025276184E-002;-6.653551943600178E-003;-4.603324632626027E-004;
2.402166666666667E+009;1.581404209136963E-001;7.141578197479248E-002;-6.591054610908032E-003;-4.595867358148098E-004;
2.402333333333334E+009;1.590157598257065E-001;6.863654404878616E-002;-6.479792296886444E-003;-3.430391952861100E-004;
2.402500000000000E+009;1.603138595819473E-001;6.614682823419571E-002;-6.225306540727615E-003;1.388608779961942E-005;
2.402666666666667E+009;1.613402664661408E-001;6.385764479637146E-002;-6.250380072742701E-003;5.758082625106908E-005;
2.402833333333334E+009;1.625802963972092E-001;6.134860590100288E-002;-6.283397320657969E-003;-2.242247501271777E-005;
2.403000000000000E+009;1.641162931919098E-001;5.903981998562813E-002;-6.172902416437864E-003;2.232751648989506E-005;
2.403166666666667E+009;1.659228950738907E-001;5.691166222095490E-002;-6.060324609279633E-003;3.877002454828471E-004;
2.403333333333334E+009;1.672195941209793E-001;5.475457385182381E-002;-6.119218654930592E-003;3.829849010799080E-004;
2.403500000000000E+009;1.688584685325623E-001;5.276178196072578E-002;-6.192083470523357E-003;4.140491073485464E-004;
2.403666666666667E+009;1.705176532268524E-001;5.085930973291397E-002;-6.240959744900465E-003;6.215635221451521E-004;
2.403833333333334E+009;1.722415387630463E-001;4.888878390192986E-002;-6.222893483936787E-003;8.259995374828577E-004;
2.404000000000000E+009;1.737242043018341E-001;4.716628044843674E-002;-6.391283590346575E-003;9.181188070215285E-004;
2.404166666666667E+009;1.755568236112595E-001;4.577832669019699E-002;-6.261540576815605E-003;1.043019816279411E-003;
2.404333333333334E+009;1.772886812686920E-001;4.423397779464722E-002;-6.268881261348724E-003;1.440271851606667E-003;
2.404500000000000E+009;1.788679361343384E-001;4.281830042600632E-002;-6.352858617901802E-003;1.713659265078604E-003;
2.404666666666667E+009;1.806067973375320E-001;4.183581843972206E-002;-6.235348526388407E-003;2.033821539953351E-003;
2.404833333333334E+009;1.822028011083603E-001;4.073431715369225E-002;-6.289865821599960E-003;2.238482236862183E-003;
2.405000000000000E+009;1.835490465164185E-001;4.007672145962715E-002;-6.119824945926666E-003;2.443592064082623E-003;
2.405166666666667E+009;1.851217597723007E-001;3.946489840745926E-002;-5.987377837300301E-003;2.828712342306972E-003;
2.405333333333334E+009;1.864816546440125E-001;3.888790681958199E-002;-5.785087589174509E-003;2.965958556160331E-003;
2.405500000000000E+009;1.879689097404480E-001;3.851931169629097E-002;-5.519979167729616E-003;3.269030246883631E-003;
2.405666666666667E+009;1.893657296895981E-001;3.816571459174156E-002;-5.245052278041840E-003;3.428225871175528E-003;
2.405833333333334E+009;1.904570758342743E-001;3.779738396406174E-002;-5.281456280499697E-003;3.645054297521710E-003;
2.406000000000000E+009;1.914654225111008E-001;3.775180131196976E-002;-4.950298927724361E-003;3.660283517092466E-003;
2.406166666666667E+009;1.924981772899628E-001;3.762367367744446E-002;-4.773554857820272E-003;3.931668121367693E-003;
2.406333333333334E+009;1.935041546821594E-001;3.765954449772835E-002;-4.523164127022028E-003;3.898125840350986E-003;
2.406500000000000E+009;1.941696107387543E-001;3.763404861092567E-002;-4.200761206448078E-003;3.982390277087688E-003;
2.406666666666667E+009;1.948251426219940E-001;3.783103823661804E-002;-3.994725644588471E-003;4.085283260792494E-003;
2.406833333333334E+009;1.954914927482605E-001;3.775075450539589E-002;-3.810795256868005E-003;4.158802796155214E-003;
2.407000000000000E+009;1.957486569881439E-001;3.796704858541489E-002;-3.685899078845978E-003;3.978962544351816E-003;
2.407166666666667E+009;1.961409300565720E-001;3.777054324746132E-002;-3.542619058862329E-003;4.116135649383068E-003;
2.407333333333334E+009;1.961804330348969E-001;3.805049508810043E-002;-3.237756900489330E-003;3.936981782317162E-003;
2.407500000000000E+009;1.960311830043793E-001;3.810913488268852E-002;-3.119254717603326E-003;3.947179298847914E-003;
2.407666666666667E+009;1.960694640874863E-001;3.811824694275856E-002;-3.077412489801645E-003;3.836012445390225E-003;
2.407833333333334E+009;1.955429762601852E-001;3.806616738438606E-002;-2.980763092637062E-003;3.791149705648422E-003;
2.408000000000000E+009;1.956053227186203E-001;3.787309676408768E-002;-2.752750646322966E-003;3.912358079105616E-003;
2.408166666666667E+009;1.949375718832016E-001;3.768859431147575E-002;-2.643786370754242E-003;3.933966625481844E-003;
2.408333333333334E+009;1.945203840732575E-001;3.716902807354927E-002;-2.585078123956919E-003;3.716821083799005E-003;
2.408500000000000E+009;1.937151104211807E-001;3.691976144909859E-002;-2.648073714226484E-003;3.831450827419758E-003;
2.408666666666667E+009;1.932047158479691E-001;3.641286492347717E-002;-2.528627170249820E-003;3.597187111154199E-003;
2.408833333333334E+009;1.923996508121491E-001;3.569282218813896E-002;-2.505958313122392E-003;3.700992325320840E-003;
2.409000000000000E+009;1.915747970342636E-001;3.471848741173744E-002;-2.685257932171226E-003;3.615327645093203E-003;
2.409166666666667E+009;1.906610876321793E-001;3.387582302093506E-002;-2.612622687593103E-003;3.508459776639938E-003;
2.409333333333334E+009;1.898103058338165E-001;3.285055235028267E-002;-2.666377462446690E-003;3.572687506675720E-003;
2.409500000000000E+009;1.887799203395844E-001;3.146151453256607E-002;-2.742476528510451E-003;3.560878802090883E-003;
2.409666666666667E+009;1.877790242433548E-001;3.009081073105335E-002;-2.824953990057111E-003;3.621238982304931E-003;
2.409833333333334E+009;1.865794211626053E-001;2.845662273466587E-002;-2.806179458275437E-003;3.917216323316097E-003;
2.410000000000000E+009;1.857703179121018E-001;2.695219032466412E-002;-2.683862810954452E-003;4.020132590085268E-003;
2.410166666666667E+009;1.846656203269959E-001;2.485273405909538E-002;-2.708489540964365E-003;4.024569876492024E-003;
2.410333333333334E+009;1.837188154459000E-001;2.327141724526882E-002;-2.896690741181374E-003;4.232096485793591E-003;
2.410500000000000E+009;1.827701777219772E-001;2.128638513386250E-002;-2.790108323097229E-003;4.303259775042534E-003;
2.410666666666667E+009;1.818371266126633E-001;1.903182454407215E-002;-2.667477121576667E-003;4.623060580343008E-003;
2.410833333333334E+009;1.810564845800400E-001;1.676864176988602E-002;-2.625437453389168E-003;4.661186598241329E-003;
2.411000000000000E+009;1.802694797515869E-001;1.452449709177017E-002;-2.560746623203158E-003;4.879076965153217E-003;
2.411166666666667E+009;1.797561198472977E-001;1.226627919822931E-002;-2.393767470493913E-003;5.148201715201140E-003;
2.411333333333334E+009;1.792634129524231E-001;9.824168868362904E-003;-2.256655599921942E-003;5.070198327302933E-003;
2.411500000000000E+009;1.786872148513794E-001;7.530646864324808E-003;-2.042424865067005E-003;5.267035216093063E-003;
2.411666666666667E+009;1.787665039300919E-001;5.122014321386814E-003;-1.890655723400414E-003;5.391925573348999E-003;
2.411833333333334E+009;1.783008873462677E-001;2.641370519995689E-003;-1.656497945077717E-003;5.501803476363421E-003;
2.412000000000000E+009;1.784678250551224E-001;5.531098577193916E-005;-1.460794825106859E-003;5.762279499322176E-003;
2.412166666666667E+009;1.784999072551727E-001;-2.416886156424880E-003;-1.316902227699757E-003;5.749125499278307E-003;
2.412333333333334E+009;1.787627935409546E-001;-4.883520770817995E-003;-9.532209951430559E-004;5.632597953081131E-003;
2.412500000000000E+009;1.791447848081589E-001;-7.383693940937519E-003;-9.055533446371555E-004;5.860851611942053E-003;
2.412666666666667E+009;1.796818822622299E-001;-9.972124360501766E-003;-7.666475139558315E-004;5.657725501805544E-003;
2.412833333333334E+009;1.803643256425858E-001;-1.249090768396854E-002;-5.312793655321002E-004;5.817226134240627E-003;
2.413000000000000E+009;1.810565292835236E-001;-1.461592223495245E-002;-2.338034973945469E-004;5.699699278920889E-003;
2.413166666666667E+009;1.819520145654678E-001;-1.691219024360180E-002;-1.525904517620802E-004;5.713150370866060E-003;
2.413333333333334E+009;1.829015314579010E-001;-1.928450912237167E-002;-1.564530830364674E-004;5.661046132445335E-003;
2.413500000000000E+009;1.837928295135498E-001;-2.168492414057255E-002;7.218583050416783E-005;5.603010300546885E-003;
2.413666666666667E+009;1.850142478942871E-001;-2.382916584610939E-002;1.623006537556648E-004;5.630977917462587E-003;
2.413833333333334E+009;1.861252188682556E-001;-2.566217631101608E-002;1.696006511338055E-004;5.558818578720093E-003;
2.414000000000000E+009;1.871819496154785E-001;-2.774630300700665E-002;4.919639904983342E-004;5.461382679641247E-003;
2.414166666666667E+009;1.882894188165665E-001;-2.954963594675064E-002;6.509737577289343E-004;5.512379575520754E-003;
2.414333333333334E+009;1.894100457429886E-001;-3.152546659111977E-002;7.360426825471222E-004;5.640943534672260E-003;
2.414500000000000E+009;1.908329874277115E-001;-3.310014307498932E-002;8.084903238341212E-004;5.763896740972996E-003;
2.414666666666667E+009;1.920236647129059E-001;-3.444579988718033E-002;9.652004810050130E-004;5.694379564374685E-003;
2.414833333333334E+009;1.930916011333466E-001;-3.597070649266243E-002;1.178400707431138E-003;5.691553466022015E-003;
2.415000000000000E+009;1.942937970161438E-001;-3.723153099417687E-002;1.443851622752845E-003;5.734330508857966E-003;
2.415166666666667E+009;1.955336034297943E-001;-3.828705102205277E-002;1.665060175582767E-003;5.809430498629808E-003;
2.415333333333334E+009;1.967920660972595E-001;-3.921333700418472E-002;1.949918107129633E-003;5.744486581534147E-003;
2.415500000000000E+009;1.977469027042389E-001;-3.997108340263367E-002;2.057986101135612E-003;5.671886261552572E-003;
2.415666666666667E+009;1.986655592918396E-001;-4.072023183107376E-002;2.302642678841949E-003;5.609748885035515E-003;
2.415833333333334E+009;1.995568722486496E-001;-4.132923856377602E-002;2.598758321255446E-003;5.642497912049294E-003;
2.416000000000000E+009;2.003120929002762E-001;-4.192822426557541E-002;2.866219263523817E-003;5.356779787689447E-003;
2.416166666666667E+009;2.011083364486694E-001;-4.249689728021622E-002;3.109316108748317E-003;5.384379532188177E-003;
2.416333333333334E+009;2.016319334506989E-001;-4.282616078853607E-002;3.421296365559101E-003;5.226866342127323E-003;
2.416500000000000E+009;2.021195292472839E-001;-4.293053969740868E-002;3.580829128623009E-003;4.987100604921579E-003;
2.416666666666667E+009;2.025615274906158E-001;-4.335074871778488E-002;3.842538921162486E-003;4.910411778837442E-003;
2.416833333333334E+009;2.025739699602127E-001;-4.325866699218750E-002;3.942491952329874E-003;4.805504810065031E-003;
2.417000000000000E+009;2.026478350162506E-001;-4.331343248486519E-002;4.029650241136551E-003;4.428334534168243E-003;
2.417166666666667E+009;2.024454176425934E-001;-4.327723011374474E-002;4.187990911304951E-003;4.410296678543091E-003;
2.417333333333334E+009;2.021968662738800E-001;-4.311415553092957E-002;4.307481460273266E-003;4.158521071076393E-003;
2.417500000000000E+009;2.019404917955399E-001;-4.304287210106850E-002;4.468559753149748E-003;3.855592804029584E-003;
2.417666666666667E+009;2.013714313507080E-001;-4.278944805264473E-002;4.431253299117088E-003;3.690308192744851E-003;
2.417833333333334E+009;2.009491175413132E-001;-4.262065887451172E-002;4.474858753383160E-003;3.482821630313993E-003;
2.418000000000000E+009;2.002861797809601E-001;-4.229625687003136E-002;4.543002694845200E-003;3.182380227372050E-003;
2.418166666666667E+009;1.994830667972565E-001;-4.226031154394150E-002;4.463301971554756E-003;3.067278768867254E-003;
2.418333333333334E+009;1.983670741319656E-001;-4.213619604706764E-002;4.675405565649271E-003;3.013484179973602E-003;
2.418500000000000E+009;1.975266486406326E-001;-4.206438362598419E-002;4.659947473555803E-003;2.784658223390579E-003;
2.418666666666667E+009;1.965490579605103E-001;-4.196801036596298E-002;4.661183804273605E-003;2.637035679072142E-003;
2.418833333333334E+009;1.953214108943939E-001;-4.218482598662376E-002;4.735475871711969E-003;2.427673432976008E-003;
2.419000000000000E+009;1.939248442649841E-001;-4.220762476325035E-002;4.702483303844929E-003;2.222621347755194E-003;
2.419166666666667E+009;1.927061825990677E-001;-4.255361109972000E-002;4.701888188719750E-003;2.408040687441826E-003;
2.419333333333334E+009;1.912026405334473E-001;-4.311896860599518E-002;4.699271637946367E-003;2.189823891967535E-003;
2.419500000000000E+009;1.897398084402084E-001;-4.349369555711746E-002;4.736272152513266E-003;2.035461831837893E-003;
2.419666666666667E+009;1.881363838911057E-001;-4.423093795776367E-002;4.651162307709456E-003;2.035978715866804E-003;
2.419833333333334E+009;1.865892410278320E-001;-4.475254938006401E-002;4.805441945791245E-003;1.774954609572887E-003;
2.420000000000000E+009;1.849547028541565E-001;-4.572140425443649E-002;4.893045872449875E-003;1.664737821556628E-003;
2.420166666666667E+009;1.833370178937912E-001;-4.671549797058106E-002;4.869448486715555E-003;1.534908893518150E-003;
2.420333333333334E+009;1.816649585962296E-001;-4.793529957532883E-002;4.909275565296412E-003;1.533126109279692E-003;
2.420500000000000E+009;1.799796968698502E-001;-4.913413897156715E-002;5.033500492572784E-003;1.266755396500230E-003;
2.420666666666667E+009;1.783292293548584E-001;-5.014969781041145E-002;4.952504765242338E-003;1.101782079786062E-003;
2.420833333333334E+009;1.767015308141708E-001;-5.191850289702416E-002;4.894163459539414E-003;9.140942129306495E-004;
2.421000000000000E+009;1.752219498157501E-001;-5.332028120756149E-002;4.836963023990393E-003;7.396992878057063E-004;
2.421166666666667E+009;1.737978160381317E-001;-5.499522015452385E-002;4.808310884982348E-003;4.058239283040166E-004;
2.421333333333334E+009;1.721851676702499E-001;-5.651028454303742E-002;4.809612873941660E-003;4.034486773889512E-004;
2.421500000000000E+009;1.709338277578354E-001;-5.859490483999252E-002;4.603565204888582E-003;2.472302585374564E-004;
2.421666666666667E+009;1.696104556322098E-001;-6.016146019101143E-002;4.533141851425171E-003;1.599765964783728E-004;
2.421833333333334E+009;1.686237752437592E-001;-6.230801716446877E-002;4.481883719563484E-003;4.446702223503962E-005;
2.422000000000000E+009;1.673281490802765E-001;-6.403464823961258E-002;4.469824489206076E-003;1.183842541649938E-004;
2.422166666666667E+009;1.665381938219070E-001;-6.632415205240250E-002;4.219227936118841E-003;9.081496682483703E-005;
2.422333333333334E+009;1.655383259057999E-001;-6.833551824092865E-002;4.132730886340141E-003;1.151393589680083E-004;
2.422500000000000E+009;1.649634540081024E-001;-7.020676881074905E-002;4.187910817563534E-003;-3.379619738552719E-005;
2.422666666666667E+009;1.642743200063705E-001;-7.223660498857498E-002;4.189164843410254E-003;7.079201895976439E-005;
2.422833333333334E+009;1.636950373649597E-001;-7.435460388660431E-002;4.206262528896332E-003;2.901244261011016E-005;
2.423000000000000E+009;1.631071418523789E-001;-7.632648944854736E-002;4.243393894284964E-003;-2.164502802770585E-004;
2.423166666666667E+009;1.630047559738159E-001;-7.840526103973389E-002;4.251369275152683E-003;-1.451978459954262E-004;
2.423333333333334E+009;1.627299040555954E-001;-8.032830804586411E-002;4.230580292642117E-003;-2.099580015055835E-004;
2.423500000000000E+009;1.627470552921295E-001;-8.217931538820267E-002;4.264711868017912E-003;-3.169057308696210E-004;
2.423666666666667E+009;1.626136451959610E-001;-8.417721837759018E-002;4.248999524861574E-003;-3.676342021208257E-004;
2.423833333333334E+009;1.624960899353027E-001;-8.596451580524445E-002;4.302615765482187E-003;-5.168670322746038E-004;
2.424000000000000E+009;1.627597957849503E-001;-8.777230978012085E-002;4.145341459661722E-003;-4.924925160594285E-004;
2.424166666666667E+009;1.628093123435974E-001;-8.938483148813248E-002;4.339595790952444E-003;-7.320262957364321E-004;
2.424333333333334E+009;1.631066054105759E-001;-9.089294821023941E-002;4.219561815261841E-003;-8.263702038675547E-004;
2.424500000000000E+009;1.634107828140259E-001;-9.263273328542709E-002;4.098786972463131E-003;-8.584713796153665E-004;
2.424666666666667E+009;1.637031733989716E-001;-9.394174814224243E-002;4.083063453435898E-003;-1.051145023666322E-003;
2.424833333333334E+009;1.643669605255127E-001;-9.532767534255981E-002;3.975874278694391E-003;-1.119771972298622E-003;
2.425000000000000E+009;1.647476404905319E-001;-9.667391330003738E-002;3.936685156077147E-003;-1.240344252437353E-003;
2.425166666666667E+009;1.650764644145966E-001;-9.762160480022430E-002;3.935424610972405E-003;-1.269344473257661E-003;
2.425333333333334E+009;1.653980165719986E-001;-9.870052337646484E-002;3.991193138062954E-003;-1.215658965520561E-003;
2.425500000000000E+009;1.659035980701447E-001;-9.970470517873764E-002;3.921208903193474E-003;-1.325849443674088E-003;
2.425666666666667E+009;1.662737578153610E-001;-1.003243550658226E-001;3.934940788894892E-003;-1.536618336103857E-003;
2.425833333333334E+009;1.666361391544342E-001;-1.010591313242912E-001;3.861242905259132E-003;-1.520251738838852E-003;
2.426000000000000E+009;1.669998168945313E-001;-1.015590727329254E-001;3.824461949989200E-003;-1.641671056859195E-003;
2.426166666666667E+009;1.674846708774567E-001;-1.020101606845856E-001;3.928234335035086E-003;-1.763446256518364E-003;
2.426333333333334E+009;1.675534844398499E-001;-1.024872437119484E-001;3.646063152700663E-003;-1.972956582903862E-003;
2.426500000000000E+009;1.679581701755524E-001;-1.028378233313561E-001;3.713937010616064E-003;-1.801002188585699E-003;
2.426666666666667E+009;1.682259738445282E-001;-1.030683293938637E-001;3.677930915728211E-003;-2.045499626547098E-003;
2.426833333333334E+009;1.684247404336929E-001;-1.034160107374191E-001;3.564485814422369E-003;-2.070663031190634E-003;
2.427000000000000E+009;1.684573441743851E-001;-1.036362871527672E-001;3.628340549767017E-003;-2.231190679594874E-003;
2.427166666666667E+009;1.684507131576538E-001;-1.036669760942459E-001;3.526247572153807E-003;-2.268103184178472E-003;
2.427333333333334E+009;1.683812588453293E-001;-1.038492247462273E-001;3.389484016224742E-003;-2.172415610402823E-003;
2.427500000000000E+009;1.680476367473602E-001;-1.040013507008553E-001;3.501408966258168E-003;-2.344609936699271E-003;
2.427666666666667E+009;1.677639037370682E-001;-1.040801033377647E-001;3.374842461198568E-003;-2.410574350506067E-003;
2.427833333333334E+009;1.673214286565781E-001;-1.041749268770218E-001;3.438149346038699E-003;-2.464067656546831E-003;
