# Version 1.00
#
freq[Hz];re:Trc1_S11;im:Trc1_S11;re:Trc2_S21;im:Trc2_S21;
2.400000000000000E+009;1.553570926189423E-001;1.066341400146484E-001;-5.752773955464363E-003;-4.237186163663864E-003;
2.400166666666667E+009;1.550887078046799E-001;1.042751520872116E-001;-6.003170739859343E-003;-4.021214786916971E-003;
2.400333333333334E+009;1.551323533058167E-001;1.019153818488121E-001;-6.049181800335646E-003;-3.724043024703860E-003;
2.400500000000000E+009;1.550497263669968E-001;9.926846623420715E-002;-6.460519973188639E-003;-3.545540384948254E-003;
2.400666666666667E+009;1.550014764070511E-001;9.667969495058060E-002;-6.505608092993498E-003;-3.190700430423021E-003;
2.400833333333334E+009;1.550142467021942E-001;9.388345479965210E-002;-6.750422529876232E-003;-2.756733214482665E-003;
2.401000000000000E+009;1.552032977342606E-001;9.106949716806412E-002;-6.869027391076088E-003;-2.443064004182816E-003;
2.401166666666667E+009;1.550954282283783E-001;8.820355683565140E-002;-6.845546886324883E-003;-2.202115487307310E-003;
2.401333333333334E+009;1.554618924856186E-001;8.562172949314117E-002;-6.989642512053251E-003;-1.754305791109800E-003;
2.401500000000000E+009;1.558474898338318E-001;8.263624459505081E-002;-6.831085309386253E-003;-1.425778609700501E-003;
2.401666666666667E+009;1.561258584260941E-001;7.981504499912262E-002;-6.830238737165928E-003;-1.090070349164307E-003;
2.401833333333334E+009;1.568292528390884E-001;7.700426131486893E-002;-6.673208437860012E-003;-9.650856372900307E-004;
2.402000000000000E+009;1.575854718685150E-001;7.417850941419601E-002;-6.599024403840303E-003;-6.665231776423752E-004;
2.402166666666667E+009;1.582613438367844E-001;7.172938436269760E-002;-6.596959661692381E-003;-5.101718124933541E-004;
2.402333333333334E+009;1.591981798410416E-001;6.906450539827347E-002;-6.291146855801344E-003;-2.967752225231379E-004;
2.402500000000000E+009;1.605915427207947E-001;6.646807491779327E-002;-6.146648433059454E-003;-5.611723827314563E-005;
2.402666666666667E+009;1.616349965333939E-001;6.415975838899612E-002;-6.140733603388071E-003;-1.010210689855740E-004;
2.402833333333334E+009;1.631571203470230E-001;6.158950552344322E-002;-6.067336071282625E-003;9.395673259859905E-006;
2.403000000000000E+009;1.641659885644913E-001;5.928723514080048E-002;-6.012983154505491E-003;7.210995681816712E-005;
2.403166666666667E+009;1.661828011274338E-001;5.695783346891403E-002;-6.140696816146374E-003;4.890115087619051E-005;
2.403333333333334E+009;1.675559580326080E-001;5.482509359717369E-002;-5.976063199341297E-003;2.794112369883806E-004;
2.403500000000000E+009;1.691405624151230E-001;5.269229412078857E-002;-6.065228022634983E-003;4.193047643639147E-004;
2.403666666666667E+009;1.708981692790985E-001;5.082121863961220E-002;-6.095835939049721E-003;6.213611341081560E-004;
2.403833333333334E+009;1.726510971784592E-001;4.905827343463898E-002;-6.151216570287943E-003;7.700991700403392E-004;
2.404000000000000E+009;1.741054952144623E-001;4.717344790697098E-002;-6.276302505284548E-003;8.854852640070021E-004;
2.404166666666667E+009;1.759650856256485E-001;4.562933743000031E-002;-6.427376065403223E-003;1.051785540767014E-003;
2.404333333333334E+009;1.774860918521881E-001;4.419835284352303E-002;-6.216036621481180E-003;1.392429810948670E-003;
2.404500000000000E+009;1.793364286422730E-001;4.304678738117218E-002;-6.306677125394344E-003;1.621288363821805E-003;
2.404666666666667E+009;1.808386743068695E-001;4.171067103743553E-002;-6.277110893279314E-003;1.719108200632036E-003;
2.404833333333334E+009;1.826169490814209E-001;4.071219265460968E-002;-6.134326104074717E-003;2.056194469332695E-003;
2.405000000000000E+009;1.839271038770676E-001;4.015831276774406E-002;-5.996502470225096E-003;2.454352797940373E-003;
2.405166666666667E+009;1.854237318038940E-001;3.938110545277596E-002;-5.821455735713244E-003;2.715117763727903E-003;
2.405333333333334E+009;1.869993656873703E-001;3.885728120803833E-002;-5.722297821193934E-003;2.947171917185187E-003;
2.405500000000000E+009;1.883677542209625E-001;3.853775188326836E-002;-5.496606230735779E-003;3.231559880077839E-003;
2.405666666666667E+009;1.894928812980652E-001;3.814863413572311E-002;-5.225149914622307E-003;3.440853441134095E-003;
2.405833333333334E+009;1.908868402242661E-001;3.777953982353210E-002;-5.248445086181164E-003;3.524694824591279E-003;
2.406000000000000E+009;1.918633282184601E-001;3.763349726796150E-002;-4.897507838904858E-003;3.633931279182434E-003;
2.406166666666667E+009;1.929091066122055E-001;3.748758882284164E-002;-4.751409869641066E-003;3.791156224906445E-003;
2.406333333333334E+009;1.938747614622116E-001;3.755804523825645E-002;-4.603581503033638E-003;3.860299941152334E-003;
2.406500000000000E+009;1.945937424898148E-001;3.753130510449410E-002;-4.113774746656418E-003;4.142751451581717E-003;
2.406666666666667E+009;1.953184306621552E-001;3.754028677940369E-002;-3.979137167334557E-003;4.108082037419081E-003;
2.406833333333334E+009;1.957651674747467E-001;3.752079233527184E-002;-3.815159201622009E-003;3.988641314208508E-003;
2.407000000000000E+009;1.961365044116974E-001;3.790612518787384E-002;-3.571906359866262E-003;4.012209363281727E-003;
2.407166666666667E+009;1.964292526245117E-001;3.760118037462235E-002;-3.440850879997015E-003;4.192549269646406E-003;
2.407333333333334E+009;1.963832974433899E-001;3.782892599701881E-002;-3.288372652605176E-003;4.130853805691004E-003;
2.407500000000000E+009;1.964211165904999E-001;3.783851861953735E-002;-3.175147110596299E-003;3.980770707130432E-003;
2.407666666666667E+009;1.964605152606964E-001;3.782149404287338E-002;-3.034808440133929E-003;3.882428165525198E-003;
2.407833333333334E+009;1.959833651781082E-001;3.773010522127152E-002;-2.786335302516818E-003;3.804269712418318E-003;
2.408000000000000E+009;1.958085447549820E-001;3.757032006978989E-002;-2.692466601729393E-003;3.913662396371365E-003;
2.408166666666667E+009;1.953633427619934E-001;3.732109814882278E-002;-2.630594884976745E-003;3.845044644549489E-003;
2.408333333333334E+009;1.949697285890579E-001;3.685231506824493E-002;-2.675271593034267E-003;3.717981744557619E-003;
2.408500000000000E+009;1.940971165895462E-001;3.656704723834992E-002;-2.703809179365635E-003;3.616529749706388E-003;
2.408666666666667E+009;1.935266405344009E-001;3.604413568973541E-002;-2.597946673631668E-003;3.582147648558021E-003;
2.408833333333334E+009;1.928230673074722E-001;3.535123541951180E-002;-2.678412711247802E-003;3.638031659647822E-003;
2.409000000000000E+009;1.919616311788559E-001;3.442508354783058E-002;-2.551496028900147E-003;3.545947372913361E-003;
2.409166666666667E+009;1.908250749111176E-001;3.335560113191605E-002;-2.699943957850337E-003;3.544856794178486E-003;
2.409333333333334E+009;1.899990290403366E-001;3.247151151299477E-002;-2.729747910052538E-003;3.411295358091593E-003;
2.409500000000000E+009;1.888481825590134E-001;3.116111084818840E-002;-2.681993180885911E-003;3.539860015735030E-003;
2.409666666666667E+009;1.880497634410858E-001;2.956180274486542E-002;-2.699135802686214E-003;3.624630859121680E-003;
2.409833333333334E+009;1.869178563356400E-001;2.828370593488216E-002;-2.746655838564038E-003;3.818128723651171E-003;
2.410000000000000E+009;1.859139651060104E-001;2.660106308758259E-002;-2.806877018883824E-003;3.797459648922086E-003;
2.410166666666667E+009;1.849763840436935E-001;2.463128603994846E-002;-2.857258077710867E-003;3.970114979892969E-003;
2.410333333333334E+009;1.838525384664536E-001;2.284615300595760E-002;-2.720143413171172E-003;4.071759991347790E-003;
2.410500000000000E+009;1.829652190208435E-001;2.081828005611897E-002;-2.864502137526870E-003;4.163437057286501E-003;
2.410666666666667E+009;1.819707453250885E-001;1.861762814223766E-002;-2.841260284185410E-003;4.319648724049330E-003;
2.410833333333334E+009;1.814296543598175E-001;1.645822450518608E-002;-2.780197886750102E-003;4.515819251537323E-003;
2.411000000000000E+009;1.804154515266419E-001;1.412105094641447E-002;-2.575152786448598E-003;4.651440307497978E-003;
2.411166666666667E+009;1.797430664300919E-001;1.191367395222187E-002;-2.538752974942327E-003;4.901939537376165E-003;
2.411333333333334E+009;1.795178651809692E-001;9.506120346486569E-003;-2.387081505730748E-003;5.026093218475580E-003;
2.411500000000000E+009;1.789662092924118E-001;6.974601186811924E-003;-2.048879163339734E-003;5.172991659492254E-003;
2.411666666666667E+009;1.786833256483078E-001;4.663107451051474E-003;-2.064286032691598E-003;5.391027778387070E-003;
2.411833333333334E+009;1.783375591039658E-001;2.340571722015739E-003;-1.794965937733650E-003;5.452614743262529E-003;
2.412000000000000E+009;1.786758899688721E-001;-3.653901803772897E-004;-1.628813683055341E-003;5.477824248373509E-003;
2.412166666666667E+009;1.785723119974136E-001;-2.969805384054780E-003;-1.393191167153418E-003;5.635615438222885E-003;
2.412333333333334E+009;1.788154691457748E-001;-5.277356598526239E-003;-1.258228556253016E-003;5.672445520758629E-003;
2.412500000000000E+009;1.791720390319824E-001;-7.801351137459278E-003;-9.390612831339240E-004;5.549906287342310E-003;
2.412666666666667E+009;1.798593401908875E-001;-1.027061976492405E-002;-9.002068545669317E-004;5.646948702633381E-003;
2.412833333333334E+009;1.802702993154526E-001;-1.269554719328880E-002;-5.680926842615008E-004;5.572240334004164E-003;
2.413000000000000E+009;1.810746937990189E-001;-1.503022760152817E-002;-4.443262587301433E-004;5.828419700264931E-003;
2.413166666666667E+009;1.818404942750931E-001;-1.719588041305542E-002;-3.058064321521670E-004;5.622394382953644E-003;
2.413333333333334E+009;1.827439218759537E-001;-1.974148489534855E-002;-1.318685390288010E-004;5.621219053864479E-003;
2.413500000000000E+009;1.836778223514557E-001;-2.205238677561283E-002;-3.556484807631932E-005;5.607741419225931E-003;
2.413666666666667E+009;1.848264932632446E-001;-2.413247339427471E-002;2.509414334781468E-004;5.646354984492064E-003;
2.413833333333334E+009;1.858961135149002E-001;-2.612577751278877E-002;3.323609998915345E-004;5.655365064740181E-003;
2.414000000000000E+009;1.869817674160004E-001;-2.816283516585827E-002;5.081300041638315E-004;5.473881959915161E-003;
2.414166666666667E+009;1.881911009550095E-001;-2.998285554349423E-002;4.189521423541009E-004;5.658519919961691E-003;
2.414333333333334E+009;1.893291920423508E-001;-3.191442042589188E-002;6.134665454737842E-004;5.517628509551287E-003;
2.414500000000000E+009;1.906720846891403E-001;-3.339424356818199E-002;9.290132438763976E-004;5.612091161310673E-003;
2.414666666666667E+009;1.918425858020783E-001;-3.490860015153885E-002;9.640043717809022E-004;5.858231335878372E-003;
2.414833333333334E+009;1.929644793272018E-001;-3.625198453664780E-002;1.178157865069807E-003;5.670179147273302E-003;
2.415000000000000E+009;1.939895302057266E-001;-3.758494183421135E-002;1.538011012598872E-003;5.778458435088396E-003;
2.415166666666667E+009;1.951913237571716E-001;-3.869723901152611E-002;1.773200579918921E-003;5.846488289535046E-003;
2.415333333333334E+009;1.963837146759033E-001;-3.961878642439842E-002;1.902156043797731E-003;5.764699075371027E-003;
2.415500000000000E+009;1.975442767143250E-001;-4.036232456564903E-002;2.168247476220131E-003;5.801055580377579E-003;
2.415666666666667E+009;1.986069679260254E-001;-4.122709482908249E-002;2.421248937025666E-003;5.664295051246882E-003;
2.415833333333334E+009;1.993807852268219E-001;-4.180982336401939E-002;2.556000836193562E-003;5.750300828367472E-003;
2.416000000000000E+009;2.001423090696335E-001;-4.223219677805901E-002;2.997147152200341E-003;5.636518355458975E-003;
2.416166666666667E+009;2.008817344903946E-001;-4.277518391609192E-002;3.062105271965265E-003;5.407829768955708E-003;
2.416333333333334E+009;2.014090567827225E-001;-4.305881634354591E-002;3.298521041870117E-003;5.270509980618954E-003;
2.416500000000000E+009;2.019138485193253E-001;-4.319041967391968E-002;3.578327363356948E-003;5.064533557742834E-003;
2.416666666666667E+009;2.022725641727448E-001;-4.361830279231072E-002;3.692389465868473E-003;5.082855466753244E-003;
2.416833333333334E+009;2.023576349020004E-001;-4.359982907772064E-002;3.947003744542599E-003;4.671352449804544E-003;
2.417000000000000E+009;2.023538202047348E-001;-4.367034137248993E-002;4.072910640388727E-003;4.639535676687956E-003;
2.417166666666667E+009;2.021347731351852E-001;-4.344637319445610E-002;4.146202467381954E-003;4.427684005349875E-003;
2.417333333333334E+009;2.018490582704544E-001;-4.327176138758659E-002;4.303036723285914E-003;4.060681443661451E-003;
2.417500000000000E+009;2.016155570745468E-001;-4.328301176428795E-002;4.409827757626772E-003;4.006810486316681E-003;
2.417666666666667E+009;2.010190784931183E-001;-4.296892136335373E-002;4.408637061715126E-003;3.662841394543648E-003;
2.417833333333334E+009;2.005881071090698E-001;-4.282677918672562E-002;4.515763372182846E-003;3.447862342000008E-003;
2.418000000000000E+009;1.999280899763107E-001;-4.253019392490387E-002;4.608515184372664E-003;3.357090521603823E-003;
2.418166666666667E+009;1.990620940923691E-001;-4.236662760376930E-002;4.558961838483810E-003;3.100143047049642E-003;
2.418333333333334E+009;1.981668472290039E-001;-4.228476434946060E-002;4.595188423991203E-003;3.038778668269515E-003;
2.418500000000000E+009;1.971818655729294E-001;-4.230333119630814E-002;4.523143172264099E-003;2.846071496605873E-003;
2.418666666666667E+009;1.962889581918716E-001;-4.223798587918282E-002;4.639637190848589E-003;2.663464518263936E-003;
2.418833333333334E+009;1.948672235012054E-001;-4.224431887269020E-002;4.776836372911930E-003;2.539132954552770E-003;
2.419000000000000E+009;1.935574561357498E-001;-4.249648377299309E-002;4.635016433894634E-003;2.521567046642304E-003;
2.419166666666667E+009;1.924203783273697E-001;-4.264719039201737E-002;4.650712478905916E-003;2.317054197192192E-003;
2.419333333333334E+009;1.909389197826386E-001;-4.310564324259758E-002;4.713677335530520E-003;2.237917855381966E-003;
2.419500000000000E+009;1.894877851009369E-001;-4.359966143965721E-002;4.823942203074694E-003;2.205270808190107E-003;
2.419666666666667E+009;1.877619475126267E-001;-4.438465088605881E-002;4.721115808933973E-003;1.991847064346075E-003;
2.419833333333334E+009;1.861236840486527E-001;-4.507960006594658E-002;4.852209705859423E-003;1.909122918732464E-003;
2.420000000000000E+009;1.846826374530792E-001;-4.581120982766151E-002;4.914867691695690E-003;1.787344343028963E-003;
2.420166666666667E+009;1.829528361558914E-001;-4.671692848205566E-002;4.847578704357147E-003;1.582290162332356E-003;
2.420333333333334E+009;1.814001947641373E-001;-4.803143814206123E-002;4.902641754597426E-003;1.415775041095913E-003;
2.420500000000000E+009;1.796475946903229E-001;-4.925933107733727E-002;4.879101645201445E-003;1.240293146111071E-003;
2.420666666666667E+009;1.780973672866821E-001;-5.029565468430519E-002;4.964649211615324E-003;1.110002165660262E-003;
2.420833333333334E+009;1.764655858278275E-001;-5.186790600419045E-002;5.092360544949770E-003;9.817290119826794E-004;
2.421000000000000E+009;1.749902963638306E-001;-5.332867056131363E-002;4.987880587577820E-003;8.266377262771130E-004;
2.421166666666667E+009;1.734318584203720E-001;-5.510519817471504E-002;4.824696108698845E-003;5.855277995578945E-004;
2.421333333333334E+009;1.718997359275818E-001;-5.649923533201218E-002;4.606907721608877E-003;4.896252066828311E-004;
2.421500000000000E+009;1.706390082836151E-001;-5.848034471273422E-002;4.723852965980768E-003;3.903363249264658E-004;
2.421666666666667E+009;1.694555133581162E-001;-6.034177541732788E-002;4.536132328212261E-003;1.714989630272612E-004;
2.421833333333334E+009;1.681252419948578E-001;-6.218527257442474E-002;4.448347724974155E-003;8.645988418720663E-005;
2.422000000000000E+009;1.669327616691589E-001;-6.415653228759766E-002;4.369397647678852E-003;5.864606282557361E-005;
2.422166666666667E+009;1.661794483661652E-001;-6.624658405780792E-002;4.312090110033751E-003;-4.656267992686480E-005;
2.422333333333334E+009;1.651713699102402E-001;-6.836927682161331E-002;4.220793023705483E-003;-3.412320438656025E-005;
2.422500000000000E+009;1.645965129137039E-001;-7.018694281578064E-002;4.107216373085976E-003;-8.669305316288956E-006;
2.422666666666667E+009;1.637009531259537E-001;-7.226546853780747E-002;4.114019684493542E-003;-1.779690646799281E-004;
2.422833333333334E+009;1.634886115789414E-001;-7.437566667795181E-002;4.112576134502888E-003;-1.660438720136881E-004;
2.423000000000000E+009;1.626279950141907E-001;-7.634951174259186E-002;4.115102346986532E-003;-2.859654778148979E-004;
2.423166666666667E+009;1.626002937555313E-001;-7.822167128324509E-002;4.219757858663797E-003;-2.806619158945978E-004;
2.423333333333334E+009;1.623191982507706E-001;-8.039931952953339E-002;4.158378578722477E-003;-2.821212983690202E-004;
2.423500000000000E+009;1.623266190290451E-001;-8.211737871170044E-002;4.360772203654051E-003;-4.356435383670032E-004;
2.423666666666667E+009;1.622828543186188E-001;-8.400812000036240E-002;4.351119045168161E-003;-4.840593901462853E-004;
2.423833333333334E+009;1.623659431934357E-001;-8.585520088672638E-002;4.275576677173376E-003;-4.801432369276881E-004;
2.424000000000000E+009;1.623777747154236E-001;-8.764234185218811E-002;4.265986848622561E-003;-7.815865101292729E-004;
2.424166666666667E+009;1.625929772853851E-001;-8.922808617353439E-002;4.232341889292002E-003;-7.811478571966291E-004;
2.424333333333334E+009;1.628498733043671E-001;-9.076978266239166E-002;4.143051337450743E-003;-8.658283040858805E-004;
2.424500000000000E+009;1.632789522409439E-001;-9.248322248458862E-002;4.151792731136084E-003;-9.814648656174541E-004;
2.424666666666667E+009;1.636717170476914E-001;-9.384202212095261E-002;4.035936202853918E-003;-1.049288315698504E-003;
2.424833333333334E+009;1.641268134117127E-001;-9.519013017416000E-002;4.022331908345223E-003;-1.066103577613831E-003;
2.425000000000000E+009;1.645653843879700E-001;-9.636643528938294E-002;4.059708677232266E-003;-1.182973152026534E-003;
2.425166666666667E+009;1.648672819137573E-001;-9.744754433631897E-002;3.857972333207727E-003;-1.126030692830682E-003;
2.425333333333334E+009;1.652301549911499E-001;-9.845989197492600E-002;4.026893060654402E-003;-1.382183865644038E-003;
2.425500000000000E+009;1.656615138053894E-001;-9.938342124223709E-002;4.015764687210321E-003;-1.321115996688604E-003;
2.425666666666667E+009;1.661070287227631E-001;-1.000793352723122E-001;3.903846256434917E-003;-1.509711029939354E-003;
2.425833333333334E+009;1.665391772985458E-001;-1.008843854069710E-001;4.011104349046946E-003;-1.595301087945700E-003;
2.426000000000000E+009;1.669484376907349E-001;-1.013294532895088E-001;3.917721100151539E-003;-1.689956290647388E-003;
2.426166666666667E+009;1.672901362180710E-001;-1.017481312155724E-001;3.775711404159665E-003;-1.750478870235384E-003;
2.426333333333334E+009;1.674709171056747E-001;-1.023504659533501E-001;3.927187528461218E-003;-1.874705543741584E-003;
2.426500000000000E+009;1.678633540868759E-001;-1.025747954845429E-001;3.709856420755386E-003;-1.892461441457272E-003;
2.426666666666667E+009;1.680557727813721E-001;-1.029145196080208E-001;3.688073484227061E-003;-1.917310291901231E-003;
2.426833333333334E+009;1.683168411254883E-001;-1.031679734587669E-001;3.619861323386431E-003;-2.124920021742582E-003;
2.427000000000000E+009;1.683787554502487E-001;-1.033679544925690E-001;3.589147236198187E-003;-2.242310903966427E-003;
2.427166666666667E+009;1.683379709720612E-001;-1.034187376499176E-001;3.513560630381107E-003;-2.242378192022443E-003;
2.427333333333334E+009;1.682295054197311E-001;-1.036169305443764E-001;3.491529030725360E-003;-2.151926280930638E-003;
2.427500000000000E+009;1.681396961212158E-001;-1.038432940840721E-001;3.541645128279924E-003;-2.292003715410829E-003;
2.427666666666667E+009;1.677218973636627E-001;-1.038080155849457E-001;3.388496814295650E-003;-2.409568289294839E-003;
2.427833333333334E+009;1.673761308193207E-001;-1.038614660501480E-001;3.528852248564363E-003;-2.419021679088473E-003;
