# Version 1.00
#
freq[Hz];re:Trc1_S11;im:Trc1_S11;re:Trc2_S21;im:Trc2_S21;
2.400000000000000E+009;1.728594005107880E-001;4.780962318181992E-002;4.931008443236351E-003;7.172701298259199E-004;
2.400166666666667E+009;1.736048758029938E-001;4.734771698713303E-002;4.989988636225462E-003;5.325431120581925E-004;
2.400333333333334E+009;1.741885095834732E-001;4.662707820534706E-002;4.828351084142923E-003;2.497867681086063E-004;
2.400500000000000E+009;1.747905462980270E-001;4.588036239147186E-002;4.696587100625038E-003;3.636770998127759E-005;
2.400666666666667E+009;1.751937717199326E-001;4.514760896563530E-002;4.912014119327068E-003;-1.231265196111053E-004;
2.400833333333334E+009;1.757663041353226E-001;4.474544897675514E-002;4.733423702418804E-003;-4.923114902339876E-004;
2.401000000000000E+009;1.761190146207809E-001;4.408286139369011E-002;4.629903007298708E-003;-5.461986293084920E-004;
2.401166666666667E+009;1.765203326940537E-001;4.366456717252731E-002;4.428714048117399E-003;-5.840319790877402E-004;
2.401333333333334E+009;1.767900884151459E-001;4.313949123024941E-002;4.338909871876240E-003;-8.505732985213399E-004;
2.401500000000000E+009;1.769769936800003E-001;4.252541437745094E-002;4.414441064000130E-003;-9.619764750823379E-004;
2.401666666666667E+009;1.771246194839478E-001;4.193137958645821E-002;4.211978055536747E-003;-1.226697699166834E-003;
2.401833333333334E+009;1.772724390029907E-001;4.124681651592255E-002;4.163362551480532E-003;-1.324362121522427E-003;
2.402000000000000E+009;1.770198345184326E-001;4.066486656665802E-002;4.064067732542753E-003;-1.498898025602102E-003;
2.402166666666667E+009;1.769740432500839E-001;3.978203237056732E-002;3.800137666985393E-003;-1.726308953948319E-003;
2.402333333333334E+009;1.768820732831955E-001;3.901086375117302E-002;3.618600079789758E-003;-1.681221066974104E-003;
2.402500000000000E+009;1.768468469381332E-001;3.824187442660332E-002;3.498549340292811E-003;-1.966690411791205E-003;
2.402666666666667E+009;1.767462641000748E-001;3.737072646617889E-002;3.397996071726084E-003;-2.127010608091950E-003;
2.402833333333334E+009;1.763251274824143E-001;3.626501560211182E-002;3.162911627441645E-003;-2.023702720180154E-003;
2.403000000000000E+009;1.760034412145615E-001;3.519890084862709E-002;2.931918250396848E-003;-2.294400008395314E-003;
2.403166666666667E+009;1.758183836936951E-001;3.408106416463852E-002;2.772000618278980E-003;-1.961152302101255E-003;
2.403333333333334E+009;1.753807365894318E-001;3.272395208477974E-002;2.619657898321748E-003;-1.928429002873600E-003;
2.403500000000000E+009;1.748310774564743E-001;3.134473413228989E-002;2.355254720896483E-003;-1.934490748681128E-003;
2.403666666666667E+009;1.744662523269653E-001;2.978721447288990E-002;2.245302777737379E-003;-1.939104637131095E-003;
2.403833333333334E+009;1.740065366029739E-001;2.824538573622704E-002;2.104809507727623E-003;-1.729388022795320E-003;
2.404000000000000E+009;1.736339628696442E-001;2.663986571133137E-002;2.138607669621706E-003;-1.753118587657809E-003;
2.404166666666667E+009;1.729333847761154E-001;2.498014271259308E-002;2.143539488315582E-003;-1.602298929356039E-003;
2.404333333333334E+009;1.725198030471802E-001;2.319889143109322E-002;2.100448356941342E-003;-1.472991309128702E-003;
2.404500000000000E+009;1.721186041831970E-001;2.117100358009338E-002;2.107315929606557E-003;-1.397437765263021E-003;
2.404666666666667E+009;1.717541217803955E-001;1.942126266658306E-002;2.018714789301157E-003;-1.260854303836823E-003;
2.404833333333334E+009;1.713795661926270E-001;1.769051142036915E-002;2.249090000987053E-003;-1.038182293996215E-003;
2.405000000000000E+009;1.708964854478836E-001;1.554956566542387E-002;2.026019850745797E-003;-1.110559562221170E-003;
2.405166666666667E+009;1.706672310829163E-001;1.350866816937923E-002;2.305684844031930E-003;-1.015475019812584E-003;
2.405333333333334E+009;1.705274283885956E-001;1.136993337422609E-002;2.464881166815758E-003;-1.012855092994869E-003;
2.405500000000000E+009;1.703850775957108E-001;9.463158436119556E-003;2.501558046787977E-003;-1.112615573219955E-003;
2.405666666666667E+009;1.703502833843231E-001;7.344556041061878E-003;2.634767210111022E-003;-1.037485431879759E-003;
2.405833333333334E+009;1.701559424400330E-001;5.245489068329334E-003;2.717764815315604E-003;-1.042858464643359E-003;
2.406000000000000E+009;1.704052090644836E-001;3.076943103224039E-003;2.786116674542427E-003;-1.082325004972518E-003;
2.406166666666667E+009;1.704466938972473E-001;1.136907492764294E-003;2.845906652510166E-003;-9.769304888322949E-004;
2.406333333333334E+009;1.708021312952042E-001;-1.067676465027034E-003;2.900893101468682E-003;-1.152198412455618E-003;
2.406500000000000E+009;1.710690557956696E-001;-3.243495943024755E-003;3.011399181559682E-003;-1.238588942214847E-003;
2.406666666666667E+009;1.713289022445679E-001;-5.214338190853596E-003;3.182672895491123E-003;-1.436689402908087E-003;
2.406833333333334E+009;1.717077046632767E-001;-7.509482558816671E-003;3.331019077450037E-003;-1.471078605391085E-003;
2.407000000000000E+009;1.724659055471420E-001;-9.544026106595993E-003;3.362719435244799E-003;-1.448849099688232E-003;
2.407166666666667E+009;1.729510873556137E-001;-1.139644533395767E-002;3.634389257058501E-003;-1.631964463740587E-003;
2.407333333333334E+009;1.733777076005936E-001;-1.349135488271713E-002;3.528084838762879E-003;-2.057013567537069E-003;
2.407500000000000E+009;1.740010231733322E-001;-1.537263114005327E-002;3.657018998637795E-003;-2.181889722123742E-003;
2.407666666666667E+009;1.747906506061554E-001;-1.715568639338017E-002;3.802526276558638E-003;-2.455382840707898E-003;
2.407833333333334E+009;1.753140836954117E-001;-1.907168142497540E-002;3.763178363442421E-003;-2.588147763162851E-003;
2.408000000000000E+009;1.761541962623596E-001;-2.087265066802502E-002;3.758028615266085E-003;-2.863276517018676E-003;
2.408166666666667E+009;1.768922209739685E-001;-2.236115187406540E-002;3.744989866390824E-003;-3.096702508628368E-003;
2.408333333333334E+009;1.777457743883133E-001;-2.406300418078899E-002;3.766481997445226E-003;-3.344797296449542E-003;
2.408500000000000E+009;1.784126758575440E-001;-2.562223188579083E-002;3.776171011850238E-003;-3.652822226285934E-003;
2.408666666666667E+009;1.790287792682648E-001;-2.710489369928837E-002;3.596960101276636E-003;-3.864230355247855E-003;
2.408833333333334E+009;1.796216815710068E-001;-2.828731946647167E-002;3.537202486768365E-003;-4.209809005260468E-003;
2.409000000000000E+009;1.800510585308075E-001;-2.949878573417664E-002;3.359706839546561E-003;-4.380834754556418E-003;
2.409166666666667E+009;1.807642430067062E-001;-3.054728358983994E-002;3.167220624163747E-003;-4.570760298520327E-003;
2.409333333333334E+009;1.812638342380524E-001;-3.166274353861809E-002;3.012955654412508E-003;-4.818792454898357E-003;
2.409500000000000E+009;1.816939413547516E-001;-3.261645883321762E-002;2.757885726168752E-003;-5.045452620834112E-003;
2.409666666666667E+009;1.821412146091461E-001;-3.320496156811714E-002;2.664046594873071E-003;-5.258349701762199E-003;
2.409833333333334E+009;1.824786961078644E-001;-3.395992890000343E-002;2.209247788414359E-003;-5.254689138382673E-003;
2.410000000000000E+009;1.829493343830109E-001;-3.439870104193687E-002;2.175107831135392E-003;-5.462484434247017E-003;
2.410166666666667E+009;1.832281202077866E-001;-3.477953746914864E-002;1.983506605029106E-003;-5.463671404868364E-003;
2.410333333333334E+009;1.834292858839035E-001;-3.533140942454338E-002;1.657456043176353E-003;-5.589108448475599E-003;
2.410500000000000E+009;1.834863424301148E-001;-3.574857488274574E-002;1.433057128451765E-003;-5.846593528985977E-003;
2.410666666666667E+009;1.836558282375336E-001;-3.604658320546150E-002;1.306129968725145E-003;-5.868081934750080E-003;
2.410833333333334E+009;1.837737560272217E-001;-3.612820059061050E-002;1.006377045996487E-003;-5.931151099503040E-003;
2.411000000000000E+009;1.836753487586975E-001;-3.651477769017220E-002;7.957619964145124E-004;-6.192528177052736E-003;
2.411166666666667E+009;1.835521310567856E-001;-3.689906001091003E-002;4.209821345284581E-004;-6.102331448346376E-003;
2.411333333333334E+009;1.831664443016052E-001;-3.705058619379997E-002;1.858532923506573E-004;-6.193491164594889E-003;
2.411500000000000E+009;1.827546656131744E-001;-3.737900406122208E-002;-8.213794899347704E-006;-6.118774414062500E-003;
2.411666666666667E+009;1.825911700725555E-001;-3.752278909087181E-002;-3.061972674913704E-004;-6.355077493935823E-003;
2.411833333333334E+009;1.818461716175079E-001;-3.775843977928162E-002;-5.663303891196847E-004;-6.331803742796183E-003;
2.412000000000000E+009;1.812410205602646E-001;-3.830722719430924E-002;-8.029179880395532E-004;-6.269402801990509E-003;
2.412166666666667E+009;1.804478168487549E-001;-3.863799199461937E-002;-1.027423189952970E-003;-6.304204463958740E-003;
2.412333333333334E+009;1.797360032796860E-001;-3.890638053417206E-002;-1.407267525792122E-003;-6.308996584266424E-003;
2.412500000000000E+009;1.786947250366211E-001;-3.937079012393951E-002;-1.586945145390928E-003;-6.233766209334135E-003;
2.412666666666667E+009;1.777308434247971E-001;-3.995481878519058E-002;-1.808067085221410E-003;-6.285066716372967E-003;
2.412833333333334E+009;1.766043901443481E-001;-4.054432362318039E-002;-2.155122580006719E-003;-6.101881153881550E-003;
2.413000000000000E+009;1.753397434949875E-001;-4.100190103054047E-002;-2.446987433359027E-003;-6.128622684627771E-003;
2.413166666666667E+009;1.740485131740570E-001;-4.169704392552376E-002;-2.708861138671637E-003;-5.898965522646904E-003;
2.413333333333334E+009;1.728441864252091E-001;-4.239578545093536E-002;-2.894897013902664E-003;-5.865416489541531E-003;
2.413500000000000E+009;1.715633422136307E-001;-4.325187206268311E-002;-3.222501836717129E-003;-5.874217022210360E-003;
2.413666666666667E+009;1.702785044908524E-001;-4.409481957554817E-002;-3.332041436806321E-003;-5.694613792002201E-003;
2.413833333333334E+009;1.687903702259064E-001;-4.508902132511139E-002;-3.631993895396590E-003;-5.542201921343803E-003;
2.414000000000000E+009;1.673069000244141E-001;-4.626043885946274E-002;-3.809942398220301E-003;-5.513722542673349E-003;
2.414166666666667E+009;1.661971211433411E-001;-4.731918126344681E-002;-4.224921576678753E-003;-5.300662480294704E-003;
2.414333333333334E+009;1.647837609052658E-001;-4.856637120246887E-002;-4.412027075886726E-003;-5.231695715337992E-003;
2.414500000000000E+009;1.636597365140915E-001;-4.985757172107697E-002;-4.654605407267809E-003;-5.098979920148850E-003;
2.414666666666667E+009;1.623267829418182E-001;-5.126295611262322E-002;-4.894826095551252E-003;-4.839477594941855E-003;
2.414833333333334E+009;1.609641164541245E-001;-5.287539213895798E-002;-5.363859701901674E-003;-4.538984037935734E-003;
2.415000000000000E+009;1.597278565168381E-001;-5.436913669109345E-002;-5.422388203442097E-003;-4.293570760637522E-003;
2.415166666666667E+009;1.586829423904419E-001;-5.594434216618538E-002;-5.684867966920137E-003;-4.141713958233595E-003;
2.415333333333334E+009;1.578905582427979E-001;-5.771626904606819E-002;-5.622255615890026E-003;-3.737101564183831E-003;
2.415500000000000E+009;1.568283885717392E-001;-5.939841642975807E-002;-6.049588322639465E-003;-3.514477983117104E-003;
2.415666666666667E+009;1.557972431182861E-001;-6.120620667934418E-002;-6.183194462209940E-003;-3.175384365022183E-003;
2.415833333333334E+009;1.551895439624786E-001;-6.313496828079224E-002;-6.251458544284105E-003;-2.868816256523132E-003;
2.416000000000000E+009;1.541578173637390E-001;-6.510820239782333E-002;-6.192892324179411E-003;-2.647001994773746E-003;
2.416166666666667E+009;1.536802351474762E-001;-6.719087064266205E-002;-6.421554833650589E-003;-2.126063685864210E-003;
2.416333333333334E+009;1.530017703771591E-001;-6.904108077287674E-002;-6.507607176899910E-003;-1.883348915725946E-003;
2.416500000000000E+009;1.525251120328903E-001;-7.118995487689972E-002;-6.365450564771891E-003;-1.592046115547419E-003;
2.416666666666667E+009;1.519183069467545E-001;-7.319267839193344E-002;-6.372481584548950E-003;-1.134922495111823E-003;
2.416833333333334E+009;1.517149806022644E-001;-7.522718608379364E-002;-6.278698332607746E-003;-9.999838657677174E-004;
2.417000000000000E+009;1.512290537357330E-001;-7.723783701658249E-002;-6.297881249338388E-003;-4.706715990323573E-004;
2.417166666666667E+009;1.510884016752243E-001;-7.904917001724243E-002;-6.281283684074879E-003;-2.867861476261169E-004;
2.417333333333334E+009;1.508871763944626E-001;-8.105023205280304E-002;-5.933340173214674E-003;-1.553636866447050E-005;
2.417500000000000E+009;1.507019549608231E-001;-8.300478756427765E-002;-6.041234359145165E-003;2.064255968434736E-004;
2.417666666666667E+009;1.507983803749085E-001;-8.451892435550690E-002;-5.805495660752058E-003;3.437857085373253E-004;
2.417833333333334E+009;1.507362425327301E-001;-8.625164628028870E-002;-5.625569261610508E-003;6.941100582480431E-004;
2.418000000000000E+009;1.507156193256378E-001;-8.807955682277679E-002;-5.317755509167910E-003;7.251921342685819E-004;
2.418166666666667E+009;1.508468985557556E-001;-8.938965946435928E-002;-5.290166940540075E-003;9.174998849630356E-004;
2.418333333333334E+009;1.512070149183273E-001;-9.087178111076355E-002;-5.227602552622557E-003;1.032448373734951E-003;
2.418500000000000E+009;1.512466520071030E-001;-9.216193854808807E-002;-5.052709020674229E-003;1.052696024999023E-003;
2.418666666666667E+009;1.516189128160477E-001;-9.354259818792343E-002;-4.967334214597940E-003;1.176345394924283E-003;
2.418833333333334E+009;1.516837477684021E-001;-9.461223334074020E-002;-4.823763854801655E-003;1.372498460114002E-003;
2.419000000000000E+009;1.518768817186356E-001;-9.550468623638153E-002;-4.841094836592674E-003;1.444783410988748E-003;
2.419166666666667E+009;1.522943675518036E-001;-9.645003080368042E-002;-4.732341971248388E-003;1.455471501685679E-003;
2.419333333333334E+009;1.522565186023712E-001;-9.680218249559403E-002;-4.716734867542982E-003;1.515958341769874E-003;
2.419500000000000E+009;1.526287198066711E-001;-9.770910441875458E-002;-4.666911903768778E-003;1.682717236690223E-003;
2.419666666666667E+009;1.530644446611404E-001;-9.835538268089294E-002;-4.673181101679802E-003;1.532448921352625E-003;
2.419833333333334E+009;1.532221138477325E-001;-9.850500524044037E-002;-4.609981086105108E-003;1.819002791307867E-003;
2.420000000000000E+009;1.535917371511459E-001;-9.880039840936661E-002;-4.588956478983164E-003;2.035183832049370E-003;
2.420166666666667E+009;1.537499725818634E-001;-9.886413812637329E-002;-4.500340204685926E-003;2.052333904430270E-003;
2.420333333333334E+009;1.537461429834366E-001;-9.891131520271301E-002;-4.429302178323269E-003;2.209332073107362E-003;
2.420500000000000E+009;1.540513336658478E-001;-9.878943860530853E-002;-4.486455116420984E-003;2.419875003397465E-003;
2.420666666666667E+009;1.540103256702423E-001;-9.851524233818054E-002;-4.121431149542332E-003;2.367347944527865E-003;
2.420833333333334E+009;1.541440188884735E-001;-9.836336970329285E-002;-4.376163706183434E-003;2.489852951839566E-003;
2.421000000000000E+009;1.539590507745743E-001;-9.823730587959290E-002;-4.211314488202334E-003;2.726047532632947E-003;
2.421166666666667E+009;1.540423035621643E-001;-9.794285148382187E-002;-4.195377230644226E-003;2.842024900019169E-003;
2.421333333333334E+009;1.540226638317108E-001;-9.773604571819305E-002;-4.116519354283810E-003;3.028734587132931E-003;
2.421500000000000E+009;1.536457389593124E-001;-9.713274985551834E-002;-4.004480782896280E-003;3.089879406616092E-003;
2.421666666666667E+009;1.533475816249847E-001;-9.678921103477478E-002;-4.017618019133806E-003;3.202307270839810E-003;
2.421833333333334E+009;1.530175805091858E-001;-9.636256098747253E-002;-3.840747522190213E-003;3.335424466058612E-003;
2.422000000000000E+009;1.522902548313141E-001;-9.605941176414490E-002;-3.741529304534197E-003;3.636772977188230E-003;
2.422166666666667E+009;1.517742127180100E-001;-9.577327221632004E-002;-3.660681191831827E-003;3.736824728548527E-003;
2.422333333333334E+009;1.510262340307236E-001;-9.528621286153793E-002;-3.440531203523278E-003;3.812116803601384E-003;
2.422500000000000E+009;1.499311029911041E-001;-9.484408795833588E-002;-3.360283328220248E-003;4.036104772239924E-003;
2.422666666666667E+009;1.488946378231049E-001;-9.486115723848343E-002;-3.182948799803853E-003;4.074731841683388E-003;
2.422833333333334E+009;1.479343026876450E-001;-9.452622383832932E-002;-3.009861335158348E-003;4.339754115790129E-003;
2.423000000000000E+009;1.467216908931732E-001;-9.439100325107575E-002;-2.769383834674954E-003;4.512819461524487E-003;
2.423166666666667E+009;1.455263793468475E-001;-9.429635107517242E-002;-2.650124253705144E-003;4.476036410778761E-003;
2.423333333333334E+009;1.443394273519516E-001;-9.389266371726990E-002;-2.375996671617031E-003;4.590751137584448E-003;
2.423500000000000E+009;1.427626609802246E-001;-9.384394437074661E-002;-2.316659549251199E-003;4.599593114107847E-003;
2.423666666666667E+009;1.412921398878098E-001;-9.385156631469727E-002;-2.087382832542062E-003;4.690754693001509E-003;
2.423833333333334E+009;1.398167014122009E-001;-9.425440430641174E-002;-1.859814045019448E-003;4.698088858276606E-003;
2.424000000000000E+009;1.382672637701035E-001;-9.422773122787476E-002;-1.773238182067871E-003;4.702598322182894E-003;
2.424166666666667E+009;1.366352736949921E-001;-9.449250996112824E-002;-1.490572118200362E-003;4.826973658055067E-003;
2.424333333333334E+009;1.351579278707504E-001;-9.478660672903061E-002;-1.411533798091114E-003;4.788823425769806E-003;
2.424500000000000E+009;1.334662139415741E-001;-9.530708938837051E-002;-1.206548302434385E-003;4.785330034792423E-003;
2.424666666666667E+009;1.320524811744690E-001;-9.558404237031937E-002;-1.155621721409261E-003;4.935721866786480E-003;
2.424833333333334E+009;1.303660869598389E-001;-9.620674699544907E-002;-8.723022183403373E-004;4.959140904247761E-003;
2.425000000000000E+009;1.288837194442749E-001;-9.718729555606842E-002;-6.772986962459981E-004;4.855028819292784E-003;
2.425166666666667E+009;1.273380070924759E-001;-9.793253988027573E-002;-3.634193562902510E-004;4.927452653646469E-003;
2.425333333333334E+009;1.259226053953171E-001;-9.872515499591827E-002;-2.525841991882771E-004;4.764423239976168E-003;
2.425500000000000E+009;1.246127560734749E-001;-9.992386400699616E-002;1.333862928731833E-005;4.802451934665442E-003;
2.425666666666667E+009;1.231326237320900E-001;-1.009793952107430E-001;7.284336606971920E-005;4.662048071622849E-003;
2.425833333333334E+009;1.219235286116600E-001;-1.022447869181633E-001;4.244585579726845E-004;4.638293292373419E-003;
2.426000000000000E+009;1.208038926124573E-001;-1.036798581480980E-001;4.329133080318570E-004;4.502973053604364E-003;
2.426166666666667E+009;1.198747381567955E-001;-1.050830930471420E-001;5.698979366570711E-004;4.539835732430220E-003;
2.426333333333334E+009;1.188690513372421E-001;-1.065789833664894E-001;8.336733444593847E-004;4.409863147884607E-003;
2.426500000000000E+009;1.178886741399765E-001;-1.080984324216843E-001;8.943157154135406E-004;4.186931997537613E-003;
2.426666666666667E+009;1.172379031777382E-001;-1.096573173999786E-001;9.463662863709033E-004;4.268913995474577E-003;
2.426833333333334E+009;1.164616197347641E-001;-1.113185435533524E-001;1.044446951709688E-003;4.056796431541443E-003;
2.427000000000000E+009;1.157080754637718E-001;-1.131404191255570E-001;1.297437935136259E-003;3.996359184384346E-003;
2.427166666666667E+009;1.150882244110107E-001;-1.146479845046997E-001;1.253323745913804E-003;3.806992899626494E-003;
2.427333333333334E+009;1.145816519856453E-001;-1.164930835366249E-001;1.464466098695993E-003;3.760424442589283E-003;
2.427500000000000E+009;1.143066659569740E-001;-1.180639639496803E-001;1.437113503925502E-003;3.568180603906512E-003;
2.427666666666667E+009;1.139872297644615E-001;-1.198775768280029E-001;1.496374956332147E-003;3.525621024891734E-003;
