# Version 1.00
#
freq[Hz];re:Trc1_S11;im:Trc1_S11;re:Trc2_S21;im:Trc2_S21;
2.400000000000000E+009;1.635081470012665E-001;5.189030990004540E-002;1.348521327599883E-003;4.876029677689076E-003;
2.400166666666667E+009;1.636867523193359E-001;5.031063035130501E-002;1.375860418193042E-003;4.887692630290985E-003;
2.400333333333334E+009;1.634115725755692E-001;4.844680055975914E-002;1.656833803281188E-003;4.830981604754925E-003;
2.400500000000000E+009;1.633889377117157E-001;4.672784358263016E-002;1.804732368327677E-003;5.004306789487600E-003;
2.400666666666667E+009;1.634161025285721E-001;4.484739154577255E-002;1.974164973944426E-003;5.037655588239431E-003;
2.400833333333334E+009;1.634207069873810E-001;4.307282343506813E-002;2.063147723674774E-003;4.979458637535572E-003;
2.401000000000000E+009;1.635428816080093E-001;4.117048531770706E-002;2.446255879476667E-003;4.932988900691271E-003;
2.401166666666667E+009;1.635661423206329E-001;3.911730274558067E-002;2.513263374567032E-003;5.096977110952139E-003;
2.401333333333334E+009;1.635786741971970E-001;3.707875311374664E-002;2.757929731160402E-003;4.939684644341469E-003;
2.401500000000000E+009;1.637748628854752E-001;3.531196340918541E-002;3.036872018128634E-003;4.997141193598509E-003;
2.401666666666667E+009;1.639819443225861E-001;3.345938399434090E-002;3.212091512978077E-003;5.096126347780228E-003;
2.401833333333334E+009;1.642437279224396E-001;3.121823817491531E-002;3.379168221727014E-003;5.028285551816225E-003;
2.402000000000000E+009;1.643673479557037E-001;2.936751954257488E-002;3.488821676000953E-003;4.954282194375992E-003;
2.402166666666667E+009;1.647017151117325E-001;2.753612026572228E-002;3.900280687958002E-003;4.796225111931562E-003;
2.402333333333334E+009;1.650874167680740E-001;2.569465339183807E-002;4.099709447473288E-003;4.595895763486624E-003;
2.402500000000000E+009;1.657468825578690E-001;2.393599227070808E-002;4.576315172016621E-003;4.549586214125156E-003;
2.402666666666667E+009;1.661454290151596E-001;2.222952060401440E-002;4.487774800509214E-003;4.533422179520130E-003;
2.402833333333334E+009;1.666599214076996E-001;2.054303884506226E-002;5.010323598980904E-003;4.236494190990925E-003;
2.403000000000000E+009;1.671202182769775E-001;1.886295713484287E-002;5.330117419362068E-003;4.048634320497513E-003;
2.403166666666667E+009;1.678062826395035E-001;1.726121269166470E-002;5.546820815652609E-003;3.832316026091576E-003;
2.403333333333334E+009;1.687510907649994E-001;1.582173444330692E-002;5.736902821809053E-003;3.647559089586139E-003;
2.403500000000000E+009;1.692568957805634E-001;1.427596714347601E-002;5.868253298103809E-003;3.512145252898336E-003;
2.403666666666667E+009;1.698586791753769E-001;1.294759847223759E-002;5.956657230854034E-003;3.182286629453301E-003;
2.403833333333334E+009;1.708407104015350E-001;1.142255309969187E-002;6.169224157929421E-003;2.884665504097939E-003;
2.404000000000000E+009;1.714731603860855E-001;1.024679001420736E-002;6.462362129241228E-003;2.475758781656623E-003;
2.404166666666667E+009;1.722946465015411E-001;9.010585024952889E-003;6.572437472641468E-003;2.330014016479254E-003;
2.404333333333334E+009;1.728915125131607E-001;7.938059046864510E-003;6.825360003858805E-003;2.054638462141156E-003;
2.404500000000000E+009;1.734502017498016E-001;6.832486949861050E-003;6.684280931949616E-003;1.634484389796853E-003;
2.404666666666667E+009;1.742669194936752E-001;5.969684571027756E-003;6.865650415420532E-003;1.302118995226920E-003;
2.404833333333334E+009;1.749524027109146E-001;5.122892092913389E-003;6.907199043780565E-003;9.444996831007302E-004;
2.405000000000000E+009;1.756907701492310E-001;4.209468606859446E-003;6.788206752389669E-003;5.823838291689754E-004;
2.405166666666667E+009;1.762773543596268E-001;3.491796320304275E-003;6.952925119549036E-003;4.939795471727848E-004;
2.405333333333334E+009;1.771362721920013E-001;2.835342194885016E-003;6.829571910202503E-003;-6.848715565865859E-005;
2.405500000000000E+009;1.775935739278793E-001;2.380487276241183E-003;6.821237038820982E-003;-1.549832668388262E-004;
2.405666666666667E+009;1.781795769929886E-001;1.737040234729648E-003;6.737439893186092E-003;-5.066656158305705E-004;
2.405833333333334E+009;1.785515248775482E-001;1.306644757278264E-003;6.814157124608755E-003;-7.466711103916168E-004;
2.406000000000000E+009;1.791117936372757E-001;7.192178163677454E-004;6.647369824349880E-003;-1.042206771671772E-003;
2.406166666666667E+009;1.791839599609375E-001;5.599122960120440E-004;6.501458585262299E-003;-1.249729073606432E-003;
2.406333333333334E+009;1.795830577611923E-001;5.652504114550538E-005;6.484352983534336E-003;-1.424175919964910E-003;
2.406500000000000E+009;1.797935813665390E-001;-2.987757907249034E-004;6.423713173717260E-003;-1.688160584308207E-003;
2.406666666666667E+009;1.798918098211289E-001;-4.787498619407415E-004;6.371184252202511E-003;-1.944070565514267E-003;
2.406833333333334E+009;1.801173239946365E-001;-1.003790646791458E-003;6.055475212633610E-003;-2.037788042798638E-003;
2.407000000000000E+009;1.801769882440567E-001;-1.406214898452163E-003;5.987697280943394E-003;-2.412116155028343E-003;
2.407166666666667E+009;1.803480386734009E-001;-1.655137399211526E-003;5.827748216688633E-003;-2.563210204243660E-003;
2.407333333333334E+009;1.801217198371887E-001;-2.125790109857917E-003;5.949206184595823E-003;-2.733556553721428E-003;
2.407500000000000E+009;1.798937469720841E-001;-2.446100348606706E-003;5.676977336406708E-003;-3.087761113420129E-003;
2.407666666666667E+009;1.797754317522049E-001;-3.013625275343657E-003;5.540168844163418E-003;-3.037598682567477E-003;
2.407833333333334E+009;1.792653948068619E-001;-3.469119314104319E-003;5.396453663706780E-003;-3.308546729385853E-003;
2.408000000000000E+009;1.789724677801132E-001;-4.129887558519840E-003;5.249112378805876E-003;-3.459306433796883E-003;
2.408166666666667E+009;1.785261780023575E-001;-4.477506969124079E-003;5.069096107035875E-003;-3.658845322206616E-003;
2.408333333333334E+009;1.782205998897553E-001;-5.305914208292961E-003;4.910792224109173E-003;-3.904144978150725E-003;
2.408500000000000E+009;1.775086373090744E-001;-6.040734238922596E-003;4.832164850085974E-003;-4.041898995637894E-003;
2.408666666666667E+009;1.771046668291092E-001;-6.854436825960875E-003;4.511229693889618E-003;-4.156752023845911E-003;
2.408833333333334E+009;1.764387786388397E-001;-7.624234072864056E-003;4.431206732988358E-003;-4.116289317607880E-003;
2.409000000000000E+009;1.757232546806335E-001;-8.532301522791386E-003;4.253897350281477E-003;-4.413218703120947E-003;
2.409166666666667E+009;1.751474291086197E-001;-9.664419107139111E-003;4.133590962737799E-003;-4.470754414796829E-003;
2.409333333333334E+009;1.744969934225082E-001;-1.075198687613010E-002;3.903950797393918E-003;-4.635167773813009E-003;
2.409500000000000E+009;1.737585216760635E-001;-1.212064269930124E-002;3.742633387446404E-003;-4.716504830867052E-003;
2.409666666666667E+009;1.729272603988648E-001;-1.324133109301329E-002;3.536952892318368E-003;-4.734825342893601E-003;
2.409833333333334E+009;1.724213063716888E-001;-1.447732467204332E-002;3.409159369766712E-003;-4.972449503839016E-003;
2.410000000000000E+009;1.717010885477066E-001;-1.592221111059189E-002;3.167255083099008E-003;-4.931695759296417E-003;
2.410166666666667E+009;1.710048466920853E-001;-1.726489700376988E-002;3.116789041087031E-003;-4.798528272658587E-003;
2.410333333333334E+009;1.703217178583145E-001;-1.882994361221790E-002;2.803665120154619E-003;-4.968940280377865E-003;
2.410500000000000E+009;1.698543280363083E-001;-2.058639191091061E-002;2.797343535348773E-003;-5.123324226588011E-003;
2.410666666666667E+009;1.692220717668533E-001;-2.228123135864735E-002;2.574673155322671E-003;-5.116289481520653E-003;
2.410833333333334E+009;1.687356382608414E-001;-2.371937222778797E-002;2.490915823727846E-003;-5.231455434113741E-003;
2.411000000000000E+009;1.681242883205414E-001;-2.566025592386723E-002;2.351657953113318E-003;-5.213609896600246E-003;
2.411166666666667E+009;1.679445058107376E-001;-2.734194882214069E-002;2.331094350665808E-003;-5.348358303308487E-003;
2.411333333333334E+009;1.672797650098801E-001;-2.918180078268051E-002;2.146094338968396E-003;-5.301106255501509E-003;
2.411500000000000E+009;1.669438630342484E-001;-3.117094375193119E-002;1.969291130080819E-003;-5.489654839038849E-003;
2.411666666666667E+009;1.669075787067413E-001;-3.316015377640724E-002;1.858962234109640E-003;-5.472660996019840E-003;
2.411833333333334E+009;1.667916923761368E-001;-3.488893061876297E-002;1.664681476540864E-003;-5.472229328006506E-003;
2.412000000000000E+009;1.664631813764572E-001;-3.695172443985939E-002;1.552016357891262E-003;-5.632574670016766E-003;
2.412166666666667E+009;1.664361208677292E-001;-3.899642825126648E-002;1.357481931336224E-003;-5.728004034608603E-003;
2.412333333333334E+009;1.665877699851990E-001;-4.060830920934677E-002;1.192893716506660E-003;-5.702720955014229E-003;
2.412500000000000E+009;1.664822846651077E-001;-4.249963909387589E-002;9.271022863686085E-004;-5.829062778502703E-003;
2.412666666666667E+009;1.664976179599762E-001;-4.467313736677170E-002;8.188041974790394E-004;-5.754650104790926E-003;
2.412833333333334E+009;1.669798791408539E-001;-4.636751115322113E-002;5.758408806286752E-004;-5.965521093457937E-003;
2.413000000000000E+009;1.669981181621552E-001;-4.814790934324265E-002;5.758538027293980E-004;-5.972847342491150E-003;
2.413166666666667E+009;1.672960221767426E-001;-4.984440654516220E-002;2.138640993507579E-004;-6.053707562386990E-003;
2.413333333333334E+009;1.673844605684280E-001;-5.148003250360489E-002;-9.902863530442119E-005;-6.046544760465622E-003;
2.413500000000000E+009;1.677988618612289E-001;-5.323977768421173E-002;-3.402219736017287E-004;-6.062668282538652E-003;
2.413666666666667E+009;1.682957112789154E-001;-5.482644215226173E-002;-4.513542226050049E-004;-6.145593244582415E-003;
2.413833333333334E+009;1.687367558479309E-001;-5.631289258599281E-002;-7.985406555235386E-004;-6.020752247422934E-003;
2.414000000000000E+009;1.688922941684723E-001;-5.780920386314392E-002;-1.130092656239867E-003;-6.158911623060703E-003;
2.414166666666667E+009;1.694953739643097E-001;-5.909124389290810E-002;-1.293623121455312E-003;-6.045242771506310E-003;
2.414333333333334E+009;1.698925197124481E-001;-6.048430874943733E-002;-1.453067292459309E-003;-5.930982995778322E-003;
2.414500000000000E+009;1.705345660448074E-001;-6.154340505599976E-002;-1.610486186109483E-003;-5.914168432354927E-003;
2.414666666666667E+009;1.706461012363434E-001;-6.265442073345184E-002;-2.087885513901711E-003;-5.717652849853039E-003;
2.414833333333334E+009;1.710358858108521E-001;-6.376776099205017E-002;-2.067730762064457E-003;-5.651465617120266E-003;
2.415000000000000E+009;1.715489774942398E-001;-6.461461633443832E-002;-2.486960263922811E-003;-5.741390399634838E-003;
2.415166666666667E+009;1.719517409801483E-001;-6.541780382394791E-002;-2.532163402065635E-003;-5.530642345547676E-003;
2.415333333333334E+009;1.723535060882568E-001;-6.647661328315735E-002;-2.946965629234910E-003;-5.400284659117460E-003;
2.415500000000000E+009;1.726005822420120E-001;-6.705029308795929E-002;-2.937897806987166E-003;-5.289171356707811E-003;
2.415666666666667E+009;1.727404296398163E-001;-6.751687079668045E-002;-3.149872645735741E-003;-5.120425019413233E-003;
2.415833333333334E+009;1.730543226003647E-001;-6.816337257623673E-002;-3.457067999988794E-003;-5.091266240924597E-003;
2.416000000000000E+009;1.729660183191299E-001;-6.865974515676498E-002;-3.614010522142053E-003;-4.923407454043627E-003;
2.416166666666667E+009;1.732459366321564E-001;-6.911777704954147E-002;-3.822298953309655E-003;-4.610276315361261E-003;
2.416333333333334E+009;1.731928288936615E-001;-6.935588270425797E-002;-4.002224188297987E-003;-4.479177761822939E-003;
2.416500000000000E+009;1.730667054653168E-001;-6.978449970483780E-002;-4.177933558821678E-003;-4.296894650906324E-003;
2.416666666666667E+009;1.728544235229492E-001;-6.996098160743713E-002;-4.366610199213028E-003;-4.144486971199513E-003;
2.416833333333334E+009;1.728919595479965E-001;-7.031941413879395E-002;-4.516921937465668E-003;-3.995630424469709E-003;
2.417000000000000E+009;1.723708510398865E-001;-7.058563083410263E-002;-4.557107575237751E-003;-3.793759969994426E-003;
2.417166666666667E+009;1.720003336668015E-001;-7.062156498432159E-002;-4.612202290445566E-003;-3.594888374209404E-003;
2.417333333333334E+009;1.714916229248047E-001;-7.088361680507660E-002;-4.789255559444428E-003;-3.309129271656275E-003;
2.417500000000000E+009;1.708433032035828E-001;-7.127394527196884E-002;-4.945699591189623E-003;-3.095739055424929E-003;
2.417666666666667E+009;1.704242080450058E-001;-7.130288332700729E-002;-4.861509893089533E-003;-2.931229304522276E-003;
2.417833333333334E+009;1.695566624403000E-001;-7.160853594541550E-002;-5.017310380935669E-003;-2.620295621454716E-003;
2.418000000000000E+009;1.686949431896210E-001;-7.199070602655411E-002;-5.143187008798122E-003;-2.399251796305180E-003;
2.418166666666667E+009;1.677678078413010E-001;-7.204487174749374E-002;-5.213801749050617E-003;-2.285541733726859E-003;
2.418333333333334E+009;1.671526134014130E-001;-7.235508412122726E-002;-5.271701607853174E-003;-2.130943117663264E-003;
2.418500000000000E+009;1.659387648105621E-001;-7.274612039327622E-002;-5.195312201976776E-003;-1.695930724963546E-003;
2.418666666666667E+009;1.650377511978149E-001;-7.316485792398453E-002;-5.268306937068701E-003;-1.480811624787748E-003;
2.418833333333334E+009;1.636141091585159E-001;-7.364629954099655E-002;-5.184873938560486E-003;-1.508131506852806E-003;
2.419000000000000E+009;1.624526977539063E-001;-7.409324496984482E-002;-5.190329160541296E-003;-1.181018422357738E-003;
2.419166666666667E+009;1.613981276750565E-001;-7.472479343414307E-002;-5.215699784457684E-003;-1.023245858959854E-003;
2.419333333333334E+009;1.600091308355331E-001;-7.523705065250397E-002;-5.139851476997137E-003;-1.017697504721582E-003;
2.419500000000000E+009;1.589275598526001E-001;-7.602833956480026E-002;-5.275305360555649E-003;-5.949452170170844E-004;
2.419666666666667E+009;1.578225940465927E-001;-7.665568590164185E-002;-5.254552233964205E-003;-5.884564016014338E-004;
2.419833333333334E+009;1.564719676971436E-001;-7.757537066936493E-002;-5.214005243033171E-003;-2.980805584229529E-004;
2.420000000000000E+009;1.553503274917603E-001;-7.848367094993591E-002;-5.095491185784340E-003;-1.260713615920395E-004;
2.420166666666667E+009;1.541945338249207E-001;-7.942013442516327E-002;-5.137511994689703E-003;1.891573338070884E-004;
2.420333333333334E+009;1.530077308416367E-001;-8.063874393701553E-002;-5.100956652313471E-003;2.947801840491593E-004;
2.420500000000000E+009;1.519361734390259E-001;-8.159658312797546E-002;-5.058002658188343E-003;4.705799510702491E-004;
2.420666666666667E+009;1.507427245378494E-001;-8.281168341636658E-002;-4.918857943266630E-003;6.111859693191946E-004;
2.420833333333334E+009;1.498657912015915E-001;-8.410342037677765E-002;-4.846502095460892E-003;7.701411377638578E-004;
2.421000000000000E+009;1.487766206264496E-001;-8.555657416582108E-002;-4.751540720462799E-003;9.713283507153392E-004;
2.421166666666667E+009;1.480825096368790E-001;-8.687183260917664E-002;-4.774643108248711E-003;1.239435165189207E-003;
2.421333333333334E+009;1.470968872308731E-001;-8.847174048423767E-002;-4.508993122726679E-003;1.318627037107945E-003;
2.421500000000000E+009;1.462419033050537E-001;-8.981342613697052E-002;-4.434117116034031E-003;1.450732117518783E-003;
2.421666666666667E+009;1.456354409456253E-001;-9.141612797975540E-002;-4.314622841775417E-003;1.586144091561437E-003;
2.421833333333334E+009;1.451355069875717E-001;-9.311199933290482E-002;-4.141386132687330E-003;1.701982691884041E-003;
2.422000000000000E+009;1.443815082311630E-001;-9.461323916912079E-002;-4.048627335578203E-003;2.017755759879947E-003;
2.422166666666667E+009;1.439101397991180E-001;-9.659001976251602E-002;-4.012712277472019E-003;2.000844804570079E-003;
2.422333333333334E+009;1.435555368661881E-001;-9.811624139547348E-002;-3.727249801158905E-003;2.041866537183523E-003;
2.422500000000000E+009;1.433793902397156E-001;-9.969951212406158E-002;-3.500320017337799E-003;2.230287296697497E-003;
2.422666666666667E+009;1.430396586656570E-001;-1.015625149011612E-001;-3.345461795106530E-003;2.340100938454270E-003;
2.422833333333334E+009;1.430389136075974E-001;-1.034222170710564E-001;-3.256492549553514E-003;2.461319556459785E-003;
2.423000000000000E+009;1.429161131381989E-001;-1.048929244279862E-001;-3.051891690120101E-003;2.508338307961822E-003;
2.423166666666667E+009;1.431121230125427E-001;-1.065780222415924E-001;-2.939433325082064E-003;2.521415706723929E-003;
2.423333333333334E+009;1.431400328874588E-001;-1.081694960594177E-001;-2.836549421772361E-003;2.530378056690097E-003;
2.423500000000000E+009;1.433041989803314E-001;-1.097619608044624E-001;-2.675294643267989E-003;2.413593931123614E-003;
2.423666666666667E+009;1.435677409172058E-001;-1.114504039287567E-001;-2.500274451449513E-003;2.443687990307808E-003;
2.423833333333334E+009;1.437877267599106E-001;-1.129479855298996E-001;-2.304558176547289E-003;2.658748533576727E-003;
2.424000000000000E+009;1.438642144203186E-001;-1.142406985163689E-001;-2.299516694620252E-003;2.616254612803459E-003;
2.424166666666667E+009;1.442029923200607E-001;-1.157116517424583E-001;-2.330074319615960E-003;2.492258558049798E-003;
2.424333333333334E+009;1.447567492723465E-001;-1.169938594102860E-001;-2.109072403982282E-003;2.603697823360562E-003;
2.424500000000000E+009;1.450924873352051E-001;-1.182263270020485E-001;-2.025048248469830E-003;2.500807633623481E-003;
2.424666666666667E+009;1.456139534711838E-001;-1.193718984723091E-001;-2.051169751212001E-003;2.367811044678092E-003;
2.424833333333334E+009;1.456987410783768E-001;-1.203806251287460E-001;-1.937693567015231E-003;2.601383021101356E-003;
2.425000000000000E+009;1.462913751602173E-001;-1.214027255773544E-001;-1.754474476911128E-003;2.578185172751546E-003;
2.425166666666667E+009;1.464712321758270E-001;-1.223912164568901E-001;-1.755499164573848E-003;2.557557309046388E-003;
2.425333333333334E+009;1.468353122472763E-001;-1.232115924358368E-001;-1.606624573469162E-003;2.481023315340281E-003;
2.425500000000000E+009;1.472348123788834E-001;-1.239323839545250E-001;-1.501699560321868E-003;2.464289544150233E-003;
2.425666666666667E+009;1.473064273595810E-001;-1.246235594153404E-001;-1.516388612799346E-003;2.479040995240212E-003;
2.425833333333334E+009;1.475883871316910E-001;-1.251511126756668E-001;-1.451524090953171E-003;2.556999213993549E-003;
2.426000000000000E+009;1.477219611406326E-001;-1.257460564374924E-001;-1.267279381863773E-003;2.458534436300397E-003;
2.426166666666667E+009;1.481037586927414E-001;-1.261311769485474E-001;-1.252995221875608E-003;2.466111676767469E-003;
2.426333333333334E+009;1.481744945049286E-001;-1.265275776386261E-001;-1.022274722345173E-003;2.620964543893933E-003;
2.426500000000000E+009;1.482125520706177E-001;-1.266815662384033E-001;-1.070388127118349E-003;2.473389497026801E-003;
2.426666666666667E+009;1.481460630893707E-001;-1.268045753240585E-001;-9.570023976266384E-004;2.611163770779967E-003;
2.426833333333334E+009;1.479525864124298E-001;-1.269685178995132E-001;-9.018718264997006E-004;2.588849049061537E-003;
2.427000000000000E+009;1.477789729833603E-001;-1.272213310003281E-001;-9.060694137588143E-004;2.422957681119442E-003;
2.427166666666667E+009;1.474495828151703E-001;-1.271288841962814E-001;-7.886272505857050E-004;2.562478417530656E-003;
2.427333333333334E+009;1.469896435737610E-001;-1.272600293159485E-001;-8.663700427860022E-004;2.465686993673444E-003;
2.427500000000000E+009;1.465855985879898E-001;-1.272769272327423E-001;-7.070062565617263E-004;2.592821605503559E-003;
2.427666666666667E+009;1.458866596221924E-001;-1.272692829370499E-001;-6.981848273426294E-004;2.497750567272306E-003;
