# Version 1.00
#
freq[Hz];re:Trc1_S11;im:Trc1_S11;re:Trc2_S21;im:Trc2_S21;
2.400000000000000E+009;1.630429476499558E-001;5.626165866851807E-002;2.386051201028749E-004;-6.377267418429256E-004;
2.400166666666667E+009;1.630958467721939E-001;5.508147552609444E-002;3.937717701774091E-004;-6.936517311260104E-004;
2.400333333333334E+009;1.630621999502182E-001;5.342700332403183E-002;3.369852202013135E-004;-4.738100105896592E-004;
2.400500000000000E+009;1.631842553615570E-001;5.171833932399750E-002;2.989979402627796E-004;-4.858780885115266E-004;
2.400666666666667E+009;1.633000969886780E-001;5.021574348211289E-002;3.486129862722009E-004;-4.346311616245657E-004;
2.400833333333334E+009;1.634439826011658E-001;4.856413975358009E-002;4.504978423938155E-004;-3.246787237003446E-004;
2.401000000000000E+009;1.635167747735977E-001;4.679474979639053E-002;5.606370978057385E-004;-2.493686333764345E-004;
2.401166666666667E+009;1.636372655630112E-001;4.507943987846375E-002;5.457371589727700E-004;-1.703224406810477E-004;
2.401333333333334E+009;1.637239307165146E-001;4.322572797536850E-002;5.449133459478617E-004;-2.548109041526914E-004;
2.401500000000000E+009;1.640778034925461E-001;4.135939478874207E-002;6.941457977518439E-004;-2.562641748227179E-004;
2.401666666666667E+009;1.641768068075180E-001;3.999617323279381E-002;8.416360360570252E-004;-2.090330526698381E-004;
2.401833333333334E+009;1.640650182962418E-001;3.814677894115448E-002;6.734767230227590E-004;-2.149873762391508E-004;
2.402000000000000E+009;1.644316613674164E-001;3.658020868897438E-002;8.884422131814063E-004;-2.482426352798939E-004;
2.402166666666667E+009;1.646995544433594E-001;3.473355248570442E-002;1.021851203404367E-003;-2.797486959025264E-004;
2.402333333333334E+009;1.649249643087387E-001;3.320321068167687E-002;8.781977812759578E-004;-2.099385019391775E-004;
2.402500000000000E+009;1.653400808572769E-001;3.159211948513985E-002;1.250577508471906E-003;-4.609053430613130E-004;
2.402666666666667E+009;1.658758968114853E-001;3.009665198624134E-002;1.185421482659876E-003;-4.241674032527953E-004;
2.402833333333334E+009;1.662770807743073E-001;2.864366956055164E-002;1.257184660062194E-003;-3.639624919742346E-004;
2.403000000000000E+009;1.668151617050171E-001;2.709546498954296E-002;1.427212962880731E-003;-5.638815928250551E-004;
2.403166666666667E+009;1.673854142427445E-001;2.557546645402908E-002;1.358371460810304E-003;-6.332893390208483E-004;
2.403333333333334E+009;1.678474396467209E-001;2.438695915043354E-002;1.595728797838092E-003;-7.286256295628846E-004;
2.403500000000000E+009;1.683457940816879E-001;2.294748462736607E-002;1.559803378768265E-003;-7.410039543174207E-004;
2.403666666666667E+009;1.689568608999252E-001;2.153346128761768E-002;1.599979354068637E-003;-8.973390795290470E-004;
2.403833333333334E+009;1.695425659418106E-001;2.031511627137661E-002;1.527282642200589E-003;-9.659235947765410E-004;
2.404000000000000E+009;1.700960695743561E-001;1.909656077623367E-002;1.714442623779178E-003;-1.124005881138146E-003;
2.404166666666667E+009;1.706208437681198E-001;1.793865300714970E-002;1.461495412513614E-003;-1.162708038464189E-003;
2.404333333333334E+009;1.711179316043854E-001;1.693973504006863E-002;1.500491984188557E-003;-1.437470666132867E-003;
2.404500000000000E+009;1.716428548097611E-001;1.599931344389916E-002;1.309821382164955E-003;-1.447600428946316E-003;
2.404666666666667E+009;1.723770797252655E-001;1.490740105509758E-002;1.420100918039680E-003;-1.621929579414427E-003;
2.404833333333334E+009;1.730767339468002E-001;1.399795059114695E-002;1.383145106956363E-003;-1.827752450481057E-003;
2.405000000000000E+009;1.734454482793808E-001;1.304880809038878E-002;1.384099246934056E-003;-1.933751045726240E-003;
2.405166666666667E+009;1.740030944347382E-001;1.215111836791039E-002;1.080228714272380E-003;-1.966295298188925E-003;
2.405333333333334E+009;1.745764315128326E-001;1.136080455034971E-002;1.171691110357642E-003;-2.048386028036475E-003;
2.405500000000000E+009;1.749297976493835E-001;1.068530324846506E-002;8.826001430861652E-004;-2.000876702368259E-003;
2.405666666666667E+009;1.754485666751862E-001;9.979779832065105E-003;8.037560037337244E-004;-2.185903256759048E-003;
2.405833333333334E+009;1.758405566215515E-001;9.461247362196446E-003;7.300390279851854E-004;-2.104988787323237E-003;
2.406000000000000E+009;1.762142628431320E-001;8.778321556746960E-003;7.195352809503675E-004;-2.317717764526606E-003;
2.406166666666667E+009;1.764337867498398E-001;8.308042772114277E-003;5.003979313187301E-004;-2.240483416244388E-003;
2.406333333333334E+009;1.769136488437653E-001;7.561604958027601E-003;4.653541254810989E-004;-2.397556090727449E-003;
2.406500000000000E+009;1.770623028278351E-001;7.143983617424965E-003;4.598415689542890E-004;-2.281945198774338E-003;
2.406666666666667E+009;1.772457510232925E-001;6.537169218063355E-003;4.341151507105678E-004;-2.294808160513640E-003;
2.406833333333334E+009;1.775151491165161E-001;5.921991076320410E-003;1.454642188036814E-004;-2.373207826167345E-003;
2.407000000000000E+009;1.775000989437103E-001;5.319151561707258E-003;3.826231404673308E-004;-2.423379803076387E-003;
2.407166666666667E+009;1.777244955301285E-001;4.695777315646410E-003;8.266440272564068E-005;-2.197025110945106E-003;
2.407333333333334E+009;1.775987297296524E-001;4.009111784398556E-003;-5.573655289481394E-005;-2.273657824844122E-003;
2.407500000000000E+009;1.776174753904343E-001;3.488415619358420E-003;4.723296660813503E-005;-2.247567987069488E-003;
2.407666666666667E+009;1.775710880756378E-001;2.819828689098358E-003;-2.500430273357779E-004;-2.184247365221381E-003;
2.407833333333334E+009;1.772647649049759E-001;2.011905889958143E-003;-1.931326987687498E-004;-2.257409272715449E-003;
2.408000000000000E+009;1.770299673080444E-001;1.200032536871731E-003;-2.821252855937928E-004;-2.172791864722967E-003;
2.408166666666667E+009;1.767799407243729E-001;6.080701714381576E-004;-3.586213279049844E-004;-2.357459161430597E-003;
2.408333333333334E+009;1.767162978649139E-001;-2.638255245983601E-004;-3.589827974792570E-004;-2.136440947651863E-003;
2.408500000000000E+009;1.761505901813507E-001;-1.261213561519980E-003;-7.062623044475913E-004;-2.167442813515663E-003;
2.408666666666667E+009;1.758070886135101E-001;-2.295053564012051E-003;-6.639125058427453E-004;-2.186188474297524E-003;
2.408833333333334E+009;1.753657311201096E-001;-3.287943778559566E-003;-5.908929160796106E-004;-2.003309316933155E-003;
2.409000000000000E+009;1.749954670667648E-001;-4.176382441073656E-003;-6.450530490837991E-004;-1.987779047340155E-003;
2.409166666666667E+009;1.745446622371674E-001;-5.330356769263744E-003;-8.644330082461238E-004;-1.951802638359368E-003;
2.409333333333334E+009;1.742655932903290E-001;-6.590470671653748E-003;-8.570484351366758E-004;-1.839571865275502E-003;
2.409500000000000E+009;1.736482977867127E-001;-7.856550626456738E-003;-8.951086783781648E-004;-1.779176993295550E-003;
2.409666666666667E+009;1.731468439102173E-001;-9.141170419752598E-003;-9.007377666421235E-004;-1.815708237700164E-003;
2.409833333333334E+009;1.726388484239578E-001;-1.036083977669478E-002;-1.012722146697342E-003;-1.827931264415383E-003;
2.410000000000000E+009;1.722799837589264E-001;-1.168263703584671E-002;-9.979247115552425E-004;-1.803650753572583E-003;
2.410166666666667E+009;1.720019876956940E-001;-1.310743484646082E-002;-1.025933073833585E-003;-1.701357541605830E-003;
2.410333333333334E+009;1.714469045400620E-001;-1.475109253078699E-002;-1.089575700461865E-003;-1.612222404219210E-003;
2.410500000000000E+009;1.710443198680878E-001;-1.613437570631504E-002;-1.025980687700212E-003;-1.586461556144059E-003;
2.410666666666667E+009;1.706743389368057E-001;-1.786947064101696E-002;-9.717770735733211E-004;-1.740995794534683E-003;
2.410833333333334E+009;1.704201698303223E-001;-1.930938288569450E-002;-9.786097798496485E-004;-1.451488584280014E-003;
2.411000000000000E+009;1.699903458356857E-001;-2.099399268627167E-002;-1.103700953535736E-003;-1.562059973366559E-003;
2.411166666666667E+009;1.698168963193893E-001;-2.281115576624870E-002;-9.923914913088083E-004;-1.555657363496721E-003;
2.411333333333334E+009;1.695168465375900E-001;-2.419538423418999E-002;-1.058668596670032E-003;-1.629077014513314E-003;
2.411500000000000E+009;1.692385375499725E-001;-2.607604116201401E-002;-9.480031440034509E-004;-1.725907437503338E-003;
2.411666666666667E+009;1.694644391536713E-001;-2.783212997019291E-002;-1.026873476803303E-003;-1.539300312288106E-003;
2.411833333333334E+009;1.691603958606720E-001;-2.962562069296837E-002;-1.051615690812469E-003;-1.680770888924599E-003;
2.412000000000000E+009;1.693905293941498E-001;-3.125242516398430E-002;-1.228742301464081E-003;-1.567793427966535E-003;
2.412166666666667E+009;1.689965128898621E-001;-3.304075449705124E-002;-1.223399420268834E-003;-1.727232709527016E-003;
2.412333333333334E+009;1.694878488779068E-001;-3.459507972002029E-002;-1.098877284675837E-003;-1.722194254398346E-003;
2.412500000000000E+009;1.693869382143021E-001;-3.626474738121033E-002;-1.270346110686660E-003;-1.739514875225723E-003;
2.412666666666667E+009;1.695410758256912E-001;-3.812530636787415E-002;-1.447625691071153E-003;-1.786296372301877E-003;
2.412833333333334E+009;1.698106974363327E-001;-3.977841511368752E-002;-1.533289207145572E-003;-1.743182772770524E-003;
2.413000000000000E+009;1.700206696987152E-001;-4.136735945940018E-002;-1.630772370845079E-003;-1.772649120539427E-003;
2.413166666666667E+009;1.701534837484360E-001;-4.289891943335533E-002;-1.476965495385230E-003;-1.837027375586331E-003;
2.413333333333334E+009;1.704764813184738E-001;-4.450832307338715E-002;-1.741002663038671E-003;-1.743098604492843E-003;
2.413500000000000E+009;1.706771701574326E-001;-4.620670154690743E-002;-1.971301622688770E-003;-1.696767634712160E-003;
2.413666666666667E+009;1.712105423212051E-001;-4.739010334014893E-002;-2.026992384344339E-003;-1.722302171401680E-003;
2.413833333333334E+009;1.714512705802918E-001;-4.897213354706764E-002;-2.110292203724384E-003;-1.626068027690053E-003;
2.414000000000000E+009;1.715959459543228E-001;-5.034808441996574E-002;-2.059884369373322E-003;-1.650531892664731E-003;
2.414166666666667E+009;1.721323132514954E-001;-5.141036957502365E-002;-2.334985416382551E-003;-1.616598106920719E-003;
2.414333333333334E+009;1.723293513059616E-001;-5.264460667967796E-002;-2.329116687178612E-003;-1.556660863570869E-003;
2.414500000000000E+009;1.730350852012634E-001;-5.369487404823303E-002;-2.498732646927238E-003;-1.383438822813332E-003;
2.414666666666667E+009;1.731927096843720E-001;-5.481154099106789E-002;-2.694419585168362E-003;-1.241691526956856E-003;
2.414833333333334E+009;1.732985079288483E-001;-5.594367906451225E-002;-2.780721290037036E-003;-1.168268383480609E-003;
2.415000000000000E+009;1.736451834440231E-001;-5.661765113472939E-002;-2.919225255027413E-003;-1.006558071821928E-003;
2.415166666666667E+009;1.738435328006744E-001;-5.759762972593308E-002;-2.995483577251434E-003;-9.138130117207766E-004;
2.415333333333334E+009;1.741919517517090E-001;-5.827213451266289E-002;-2.870338037610054E-003;-7.133708568289876E-004;
2.415500000000000E+009;1.742755770683289E-001;-5.912297964096069E-002;-3.141193650662899E-003;-7.270282367244363E-004;
2.415666666666667E+009;1.744219660758972E-001;-5.955976992845535E-002;-2.886886242777109E-003;-5.200832383707166E-004;
2.415833333333334E+009;1.746416538953781E-001;-6.033582240343094E-002;-3.037285525351763E-003;-4.826435470022261E-004;
2.416000000000000E+009;1.745474934577942E-001;-6.077604740858078E-002;-3.163176588714123E-003;-1.185528162750416E-004;
2.416166666666667E+009;1.747749298810959E-001;-6.120728701353073E-002;-3.160761436447501E-003;1.225666492246091E-004;
2.416333333333334E+009;1.746352016925812E-001;-6.188832223415375E-002;-3.208223497495055E-003;1.812778355088085E-004;
2.416500000000000E+009;1.744163781404495E-001;-6.226941570639610E-002;-3.188073402270675E-003;3.311912005301565E-004;
2.416666666666667E+009;1.742020398378372E-001;-6.265503913164139E-002;-3.030544845387340E-003;4.552321042865515E-004;
2.416833333333334E+009;1.739822477102280E-001;-6.301964074373245E-002;-3.001516452059150E-003;6.425459287129343E-004;
2.417000000000000E+009;1.734637469053268E-001;-6.345240771770477E-002;-2.953636227175593E-003;8.003316470421851E-004;
2.417166666666667E+009;1.731384992599487E-001;-6.374552100896835E-002;-2.851437078788877E-003;8.709179819561541E-004;
2.417333333333334E+009;1.726695895195007E-001;-6.399166584014893E-002;-2.752238186076284E-003;1.088451128453016E-003;
2.417500000000000E+009;1.720178872346878E-001;-6.449730694293976E-002;-2.624260494485498E-003;1.258330070413649E-003;
2.417666666666667E+009;1.715710908174515E-001;-6.465759873390198E-002;-2.538535511121154E-003;1.267270068638027E-003;
2.417833333333334E+009;1.707657873630524E-001;-6.504122912883759E-002;-2.339455531910062E-003;1.546671264804900E-003;
2.418000000000000E+009;1.700184792280197E-001;-6.563270092010498E-002;-2.378467004746199E-003;1.569499494507909E-003;
2.418166666666667E+009;1.692375987768173E-001;-6.577005237340927E-002;-2.255565254017711E-003;1.647956436499953E-003;
2.418333333333334E+009;1.686122715473175E-001;-6.643317639827728E-002;-2.220205729827285E-003;1.654199324548245E-003;
2.418500000000000E+009;1.675852686166763E-001;-6.678076833486557E-002;-1.983510795980692E-003;1.838832977227867E-003;
2.418666666666667E+009;1.668234169483185E-001;-6.722538173198700E-002;-1.822668360546231E-003;1.698053209111095E-003;
2.418833333333334E+009;1.655594706535339E-001;-6.788809597492218E-002;-1.580506213940680E-003;1.786644919775426E-003;
2.419000000000000E+009;1.644851267337799E-001;-6.850045174360275E-002;-1.566090504638851E-003;1.906133489683271E-003;
2.419166666666667E+009;1.635637283325195E-001;-6.912113726139069E-002;-1.266003353521228E-003;1.862506149336696E-003;
2.419333333333334E+009;1.624085456132889E-001;-6.947975605726242E-002;-1.287150778807700E-003;1.783892395906150E-003;
2.419500000000000E+009;1.613362282514572E-001;-7.062301039695740E-002;-1.132831443101168E-003;1.928624697029591E-003;
2.419666666666667E+009;1.603659987449646E-001;-7.140657305717468E-002;-9.930480737239122E-004;1.859806827269495E-003;
2.419833333333334E+009;1.592954397201538E-001;-7.219026982784271E-002;-1.096378895454109E-003;2.026201225817204E-003;
2.420000000000000E+009;1.582703888416290E-001;-7.304633408784866E-002;-7.985307602211833E-004;1.871319836936891E-003;
2.420166666666667E+009;1.570732146501541E-001;-7.412599772214890E-002;-7.310907822102308E-004;1.916407141834498E-003;
2.420333333333334E+009;1.563224196434021E-001;-7.521224766969681E-002;-6.492413231171668E-004;1.936748856678605E-003;
2.420500000000000E+009;1.555075943470001E-001;-7.627329975366592E-002;-5.584013415500522E-004;1.782187027856708E-003;
2.420666666666667E+009;1.542910635471344E-001;-7.729828357696533E-002;-4.924623062834144E-004;1.699402113445103E-003;
2.420833333333334E+009;1.534984707832336E-001;-7.856934517621994E-002;-4.031462303828448E-004;1.602180884219706E-003;
2.421000000000000E+009;1.525911539793015E-001;-7.998236268758774E-002;-1.918895140988752E-004;1.627448131330311E-003;
2.421166666666667E+009;1.519705504179001E-001;-8.140520751476288E-002;-8.582368172938004E-005;1.659762230701745E-003;
2.421333333333334E+009;1.511940062046051E-001;-8.280742913484573E-002;-1.423980284016579E-004;1.464088098146021E-003;
2.421500000000000E+009;1.504434049129486E-001;-8.421139419078827E-002;-4.126367457502056E-006;1.447920221835375E-003;
2.421666666666667E+009;1.499371379613876E-001;-8.573007583618164E-002;2.205559721915051E-004;1.504008658230305E-003;
2.421833333333334E+009;1.493354141712189E-001;-8.729363232851028E-002;7.956076296977699E-005;1.410837634466589E-003;
2.422000000000000E+009;1.488553434610367E-001;-8.882391452789307E-002;1.802011101972312E-004;1.247970853000879E-003;
2.422166666666667E+009;1.483925879001617E-001;-9.055280685424805E-002;3.180631611030549E-004;1.223724684678018E-003;
2.422333333333334E+009;1.480755507946014E-001;-9.193325787782669E-002;3.256550699006766E-004;1.131486729718745E-003;
2.422500000000000E+009;1.477735042572022E-001;-9.348616003990173E-002;1.872720313258469E-004;1.093712518922985E-003;
2.422666666666667E+009;1.475395709276199E-001;-9.524261206388474E-002;3.256454365327954E-004;8.483031997457147E-004;
2.422833333333334E+009;1.473462879657745E-001;-9.690724313259125E-002;3.721612447407097E-004;9.035572875291109E-004;
2.423000000000000E+009;1.472233980894089E-001;-9.849014133214951E-002;5.117684486322105E-004;7.559082587249577E-004;
2.423166666666667E+009;1.472733169794083E-001;-1.002767458558083E-001;3.199565107934177E-004;4.779890878126025E-004;
2.423333333333334E+009;1.473165005445480E-001;-1.014779955148697E-001;3.906021302100271E-004;6.048748618923128E-004;
2.423500000000000E+009;1.473008394241333E-001;-1.031188219785690E-001;2.972317743115127E-004;3.672245948109776E-004;
2.423666666666667E+009;1.472127884626389E-001;-1.046026200056076E-001;2.441096439724788E-004;2.572296070866287E-004;
2.423833333333334E+009;1.475971192121506E-001;-1.061354652047157E-001;1.971447054529563E-004;2.588699862826616E-004;
2.424000000000000E+009;1.474882215261459E-001;-1.074282377958298E-001;1.156119251390919E-004;1.546728308312595E-004;
2.424166666666667E+009;1.478070765733719E-001;-1.088599935173988E-001;2.574710379121825E-005;2.083654835587367E-004;
2.424333333333334E+009;1.480668038129807E-001;-1.100357323884964E-001;-1.065712058334611E-004;-1.102676105801947E-005;
2.424500000000000E+009;1.482596844434738E-001;-1.112676709890366E-001;-6.935725104995072E-005;8.726092346478254E-005;
2.424666666666667E+009;1.487074494361877E-001;-1.124065667390823E-001;-5.272634371067397E-005;-2.898270759033039E-005;
2.424833333333334E+009;1.488034576177597E-001;-1.135390847921372E-001;-3.173681034240872E-004;-2.420039891148917E-005;
2.425000000000000E+009;1.491067856550217E-001;-1.145820394158363E-001;-4.279897257220000E-004;-1.763368054525927E-004;
2.425166666666667E+009;1.492951512336731E-001;-1.155234202742577E-001;-3.235918411519378E-004;8.875419553078245E-006;
2.425333333333334E+009;1.494897454977036E-001;-1.164567470550537E-001;-6.469360669143498E-004;-9.743913687998429E-005;
2.425500000000000E+009;1.498596966266632E-001;-1.172813400626183E-001;-5.347123369574547E-004;5.943500218563713E-005;
2.425666666666667E+009;1.499012410640717E-001;-1.181545779109001E-001;-6.010902579873800E-004;2.087311986542773E-005;
2.425833333333334E+009;1.500110626220703E-001;-1.187405213713646E-001;-8.977818069979549E-004;1.080622241715901E-004;
2.426000000000000E+009;1.501031070947647E-001;-1.194308027625084E-001;-8.919922984205186E-004;5.144739043316804E-005;
2.426166666666667E+009;1.502946615219116E-001;-1.200649291276932E-001;-8.672543917782605E-004;-1.225184405484470E-005;
2.426333333333334E+009;1.502462029457092E-001;-1.205095648765564E-001;-8.950410992838442E-004;7.442467176588252E-005;
2.426500000000000E+009;1.502704322338104E-001;-1.209443509578705E-001;-8.840411319397390E-004;1.367037184536457E-004;
2.426666666666667E+009;1.503693461418152E-001;-1.212292537093163E-001;-9.929238585755229E-004;1.589990424690768E-004;
2.426833333333334E+009;1.500729024410248E-001;-1.215628758072853E-001;-1.079944195225835E-003;1.906153629533947E-004;
2.427000000000000E+009;1.497630774974823E-001;-1.220337301492691E-001;-1.081469352357090E-003;1.986086426768452E-004;
2.427166666666667E+009;1.495623588562012E-001;-1.221402958035469E-001;-1.144766574725509E-003;2.526740136090666E-004;
2.427333333333334E+009;1.490862965583801E-001;-1.224574968218803E-001;-1.293791690841317E-003;2.029695315286517E-004;
2.427500000000000E+009;1.487836837768555E-001;-1.226044073700905E-001;-1.247475738637149E-003;4.616104997694492E-004;
2.427666666666667E+009;1.481751203536987E-001;-1.228772327303886E-001;-1.380790374241769E-003;2.837594074662775E-004;
