# Version 1.00
#
freq[Hz];re:Trc1_S11;im:Trc1_S11;re:Trc2_S21;im:Trc2_S21;
2.400000000000000E+009;1.589280068874359E-001;6.292302161455154E-002;-2.879335312172771E-003;-3.837739350274205E-003;
2.400166666666667E+009;1.588404923677445E-001;6.135330721735954E-002;-2.918652025982738E-003;-3.698743646964431E-003;
2.400333333333334E+009;1.585767418146133E-001;5.943049117922783E-002;-2.793312538415194E-003;-3.721800632774830E-003;
2.400500000000000E+009;1.584491729736328E-001;5.754339322447777E-002;-3.028027480468154E-003;-3.520291764289141E-003;
2.400666666666667E+009;1.584734618663788E-001;5.560103058815002E-002;-3.156127640977502E-003;-3.560381941497326E-003;
2.400833333333334E+009;1.585927009582520E-001;5.377212911844254E-002;-3.227826906368136E-003;-3.564311191439629E-003;
2.401000000000000E+009;1.584383398294449E-001;5.167102068662643E-002;-3.147908020764589E-003;-3.540749428793788E-003;
2.401166666666667E+009;1.585594713687897E-001;4.979238659143448E-002;-3.369409590959549E-003;-3.408182412385941E-003;
2.401333333333334E+009;1.586357802152634E-001;4.750822111964226E-002;-3.430206561461091E-003;-3.288827370852232E-003;
2.401500000000000E+009;1.590771377086639E-001;4.564931616187096E-002;-3.372090170159936E-003;-3.278083633631468E-003;
2.401666666666667E+009;1.593565642833710E-001;4.357355460524559E-002;-3.514351556077600E-003;-3.170003648847342E-003;
2.401833333333334E+009;1.595683693885803E-001;4.154277592897415E-002;-3.645820310339332E-003;-3.185684792697430E-003;
2.402000000000000E+009;1.596897691488266E-001;3.963372111320496E-002;-3.565517254173756E-003;-3.205625340342522E-003;
2.402166666666667E+009;1.603948175907135E-001;3.749151155352593E-002;-3.815800184383988E-003;-2.944218227639794E-003;
2.402333333333334E+009;1.607585251331329E-001;3.556331247091293E-002;-4.056389443576336E-003;-3.012560307979584E-003;
2.402500000000000E+009;1.614143103361130E-001;3.379566222429276E-002;-3.936661407351494E-003;-2.954105148091912E-003;
2.402666666666667E+009;1.621363461017609E-001;3.200854733586311E-002;-4.226873163133860E-003;-2.809691242873669E-003;
2.402833333333334E+009;1.628146916627884E-001;3.034987114369869E-002;-4.190098494291306E-003;-2.657169476151466E-003;
2.403000000000000E+009;1.635875105857849E-001;2.855611592531204E-002;-4.265599884092808E-003;-2.672273898497224E-003;
2.403166666666667E+009;1.643228679895401E-001;2.690519019961357E-002;-4.603702109307051E-003;-2.558289328590035E-003;
2.403333333333334E+009;1.652379781007767E-001;2.557756565511227E-002;-4.769194871187210E-003;-2.378985751420260E-003;
2.403500000000000E+009;1.660929471254349E-001;2.391325868666172E-002;-4.711173940449953E-003;-2.372108399868012E-003;
2.403666666666667E+009;1.670034080743790E-001;2.243153937160969E-002;-4.688079003244638E-003;-2.093677176162601E-003;
2.403833333333334E+009;1.680445224046707E-001;2.119771577417851E-002;-4.765114281326532E-003;-1.932423445396125E-003;
2.404000000000000E+009;1.688691079616547E-001;1.990976557135582E-002;-5.066101439297199E-003;-1.749901915900409E-003;
2.404166666666667E+009;1.701232194900513E-001;1.869473606348038E-002;-5.196019075810909E-003;-1.580630079843104E-003;
2.404333333333334E+009;1.708232611417770E-001;1.764303445816040E-002;-5.149248987436295E-003;-1.364858122542501E-003;
2.404500000000000E+009;1.716922819614410E-001;1.657562702894211E-002;-5.230891983956099E-003;-1.158109516836703E-003;
2.404666666666667E+009;1.728284657001495E-001;1.558811683207750E-002;-5.388662219047546E-003;-1.061280956491828E-003;
2.404833333333334E+009;1.735643595457077E-001;1.481645461171866E-002;-5.403134040534496E-003;-9.410936036147177E-004;
2.405000000000000E+009;1.745444238185883E-001;1.407406758517027E-002;-5.416094325482845E-003;-5.488248425535858E-004;
2.405166666666667E+009;1.754844933748245E-001;1.332960277795792E-002;-5.377599969506264E-003;-2.146577171515673E-004;
2.405333333333334E+009;1.763162761926651E-001;1.250705961138010E-002;-5.383660085499287E-003;-1.651703205425292E-004;
2.405500000000000E+009;1.770722121000290E-001;1.204503513872623E-002;-5.544342100620270E-003;-1.721496460049821E-006;
2.405666666666667E+009;1.777945160865784E-001;1.166042499244213E-002;-5.361592862755060E-003;3.144014335703105E-004;
2.405833333333334E+009;1.783420890569687E-001;1.118076778948307E-002;-5.289133172482252E-003;1.309830258833244E-004;
2.406000000000000E+009;1.790116429328919E-001;1.069030258804560E-002;-5.284877028316259E-003;5.900603719055653E-004;
2.406166666666667E+009;1.793447881937027E-001;1.032220851629973E-002;-5.229000933468342E-003;8.423426770605147E-004;
2.406333333333334E+009;1.798736304044724E-001;1.017513126134872E-002;-5.238356534391642E-003;9.026653133332729E-004;
2.406500000000000E+009;1.802828609943390E-001;9.560598991811276E-003;-4.949885886162520E-003;1.199745340272784E-003;
2.406666666666667E+009;1.803827881813049E-001;9.411408565938473E-003;-5.143101792782545E-003;1.175874378532171E-003;
2.406833333333334E+009;1.808462738990784E-001;8.989509195089340E-003;-4.859982989728451E-003;1.379121211357415E-003;
2.407000000000000E+009;1.809323579072952E-001;8.629280142486095E-003;-4.901379812508822E-003;1.531348680146039E-003;
2.407166666666667E+009;1.811286956071854E-001;8.454743772745132E-003;-4.918294027447701E-003;1.716783852316439E-003;
2.407333333333334E+009;1.808804124593735E-001;7.889147847890854E-003;-4.791707731783390E-003;1.778963371179998E-003;
2.407500000000000E+009;1.807324588298798E-001;7.549681235104799E-003;-4.663302563130856E-003;1.857843832112849E-003;
2.407666666666667E+009;1.807100176811218E-001;7.244008593261242E-003;-4.639811348170042E-003;1.927024801261723E-003;
2.407833333333334E+009;1.803151220083237E-001;6.603240035474300E-003;-4.611396230757237E-003;2.040184801444411E-003;
2.408000000000000E+009;1.800776571035385E-001;5.880570504814386E-003;-4.534266423434019E-003;2.347955480217934E-003;
2.408166666666667E+009;1.796124577522278E-001;5.340575706213713E-003;-4.476835019886494E-003;2.463408047333360E-003;
2.408333333333334E+009;1.793642342090607E-001;4.644226282835007E-003;-4.213015548884869E-003;2.671824069693685E-003;
2.408500000000000E+009;1.786951273679733E-001;3.865040838718414E-003;-4.051626194268465E-003;2.555050654336810E-003;
2.408666666666667E+009;1.781783401966095E-001;3.055268898606300E-003;-4.049601498991251E-003;2.667574677616358E-003;
2.408833333333334E+009;1.774915158748627E-001;2.073795767500997E-003;-3.864604514092207E-003;2.710281638428569E-003;
2.409000000000000E+009;1.769273877143860E-001;1.144454581663013E-003;-3.865186590701342E-003;2.815097803249955E-003;
2.409166666666667E+009;1.760841161012650E-001;5.064566357759759E-005;-3.715788945555687E-003;3.036729758605361E-003;
2.409333333333334E+009;1.755597144365311E-001;-1.199305756017566E-003;-3.666174132376909E-003;3.097163047641516E-003;
2.409500000000000E+009;1.749052405357361E-001;-2.547297626733780E-003;-3.608613042160869E-003;3.133796388283372E-003;
2.409666666666667E+009;1.740215867757797E-001;-3.886922262609005E-003;-3.456455422565341E-003;3.327084239572287E-003;
2.409833333333334E+009;1.731996089220047E-001;-4.949691705405712E-003;-3.345998236909509E-003;3.344207303598523E-003;
2.410000000000000E+009;1.726701259613037E-001;-6.661052815616131E-003;-3.204197390004993E-003;3.373731393367052E-003;
2.410166666666667E+009;1.719989031553268E-001;-8.044300600886345E-003;-3.318757517263293E-003;3.369433805346489E-003;
2.410333333333334E+009;1.715052276849747E-001;-9.436566382646561E-003;-3.005060134455562E-003;3.445956856012344E-003;
2.410500000000000E+009;1.709046214818955E-001;-1.128857489675283E-002;-2.847348107025027E-003;3.518787911161780E-003;
2.410666666666667E+009;1.702404171228409E-001;-1.302378624677658E-002;-2.895620651543140E-003;3.596997354179621E-003;
2.410833333333334E+009;1.699617356061935E-001;-1.474187988787890E-002;-2.832311671227217E-003;3.657764056697488E-003;
2.411000000000000E+009;1.694530099630356E-001;-1.649370230734348E-002;-2.769636455923319E-003;3.688127268105745E-003;
2.411166666666667E+009;1.690166592597961E-001;-1.852058060467243E-002;-2.700688550248742E-003;3.712083213031292E-003;
2.411333333333334E+009;1.687657982110977E-001;-2.019887417554855E-002;-2.661746693775058E-003;3.859499469399452E-003;
2.411500000000000E+009;1.684501469135284E-001;-2.204963751137257E-002;-2.432684879750013E-003;3.777543781325221E-003;
2.411666666666667E+009;1.683548837900162E-001;-2.393209747970104E-002;-2.535230945795775E-003;3.933931235224009E-003;
2.411833333333334E+009;1.681638360023499E-001;-2.582733705639839E-002;-2.291563432663679E-003;4.022240638732910E-003;
2.412000000000000E+009;1.684507876634598E-001;-2.785625122487545E-002;-2.423885045573115E-003;3.965864889323711E-003;
2.412166666666667E+009;1.682072281837463E-001;-2.988518029451370E-002;-2.365014050155878E-003;4.001788329333067E-003;
2.412333333333334E+009;1.684021055698395E-001;-3.154313564300537E-002;-2.146435668691993E-003;4.351712297648192E-003;
2.412500000000000E+009;1.686353832483292E-001;-3.341943025588989E-002;-2.126964041963220E-003;4.366098437458277E-003;
2.412666666666667E+009;1.688235849142075E-001;-3.548486158251762E-002;-1.817802316509187E-003;4.493210464715958E-003;
2.412833333333334E+009;1.691881567239761E-001;-3.736101463437080E-002;-1.666219206526876E-003;4.404017236083746E-003;
2.413000000000000E+009;1.695560961961746E-001;-3.911416977643967E-002;-1.638985238969326E-003;4.644122906029224E-003;
2.413166666666667E+009;1.698205173015595E-001;-4.091566428542137E-002;-1.661513815633953E-003;4.589800722897053E-003;
2.413333333333334E+009;1.702162176370621E-001;-4.261836409568787E-002;-1.438504667021334E-003;4.810154903680086E-003;
2.413500000000000E+009;1.708384901285172E-001;-4.429010301828384E-002;-1.322804251685739E-003;4.810009151697159E-003;
2.413666666666667E+009;1.713283658027649E-001;-4.583747312426567E-002;-1.148955896496773E-003;4.828763660043478E-003;
2.413833333333334E+009;1.717807352542877E-001;-4.717399552464485E-002;-9.688680875115097E-004;4.997067619115114E-003;
2.414000000000000E+009;1.721621155738831E-001;-4.871758446097374E-002;-8.513467619195581E-004;5.006058607250452E-003;
2.414166666666667E+009;1.727129220962524E-001;-5.001641064882278E-002;-4.648639296647161E-004;5.024961195886135E-003;
2.414333333333334E+009;1.734348088502884E-001;-5.131091922521591E-002;-4.610053147189319E-004;5.126819945871830E-003;
2.414500000000000E+009;1.739774197340012E-001;-5.244523286819458E-002;-7.049219129839912E-005;5.164876580238342E-003;
2.414666666666667E+009;1.744507849216461E-001;-5.360986664891243E-002;-1.768691436154768E-005;5.124717019498348E-003;
2.414833333333334E+009;1.748989224433899E-001;-5.467277020215988E-002;2.742037177085877E-004;5.090294405817986E-003;
2.415000000000000E+009;1.753992289304733E-001;-5.547204613685608E-002;3.464555193204433E-004;5.091018974781036E-003;
2.415166666666667E+009;1.758946031332016E-001;-5.626964196562767E-002;5.908087478019297E-004;5.010751541703939E-003;
2.415333333333334E+009;1.764202713966370E-001;-5.723369121551514E-002;7.789527880959213E-004;5.221492145210505E-003;
2.415500000000000E+009;1.766884177923203E-001;-5.776851251721382E-002;9.876046096906066E-004;5.110193509608507E-003;
2.415666666666667E+009;1.770344674587250E-001;-5.825514718890190E-002;1.214189687743783E-003;4.995241761207581E-003;
2.415833333333334E+009;1.773546189069748E-001;-5.885892361402512E-002;1.452761469408870E-003;4.996224306523800E-003;
2.416000000000000E+009;1.773167997598648E-001;-5.942707136273384E-002;1.471397350542247E-003;4.656851291656494E-003;
2.416166666666667E+009;1.775624901056290E-001;-5.978624522686005E-002;1.715145306661725E-003;4.858286585658789E-003;
2.416333333333334E+009;1.775209456682205E-001;-6.025233864784241E-002;1.848652143962681E-003;4.547579213976860E-003;
2.416500000000000E+009;1.775843650102615E-001;-6.050133705139160E-002;2.069089561700821E-003;4.593744408339262E-003;
2.416666666666667E+009;1.773049831390381E-001;-6.070922315120697E-002;2.241086680442095E-003;4.478903952986002E-003;
2.416833333333334E+009;1.772078722715378E-001;-6.109540536999703E-002;2.335579134523869E-003;4.478211980313063E-003;
2.417000000000000E+009;1.768501251935959E-001;-6.143683195114136E-002;2.385478233918548E-003;4.298149608075619E-003;
2.417166666666667E+009;1.764088571071625E-001;-6.146290898323059E-002;2.537923166528344E-003;4.205380100756884E-003;
2.417333333333334E+009;1.759712398052216E-001;-6.182684749364853E-002;2.665688982233405E-003;4.015458747744560E-003;
2.417500000000000E+009;1.754088401794434E-001;-6.226881220936775E-002;2.774664899334312E-003;3.982976544648409E-003;
2.417666666666667E+009;1.748772412538528E-001;-6.234763935208321E-002;2.843983238562942E-003;3.848137101158500E-003;
2.417833333333334E+009;1.740721166133881E-001;-6.259524822235107E-002;2.969844499602914E-003;3.695542458444834E-003;
2.418000000000000E+009;1.731607317924500E-001;-6.290811300277710E-002;3.093325532972813E-003;3.597239498049021E-003;
2.418166666666667E+009;1.722862273454666E-001;-6.311658769845963E-002;3.191197058185935E-003;3.485215362161398E-003;
2.418333333333334E+009;1.716101318597794E-001;-6.357253342866898E-002;3.351531457155943E-003;3.337241243571043E-003;
2.418500000000000E+009;1.705155372619629E-001;-6.394150853157044E-002;3.426762996241450E-003;3.291656496003270E-003;
2.418666666666667E+009;1.695347130298615E-001;-6.449788808822632E-002;3.356408793479204E-003;3.116047941148281E-003;
2.418833333333334E+009;1.683206707239151E-001;-6.502148509025574E-002;3.614420536905527E-003;2.898196224123240E-003;
2.419000000000000E+009;1.670186817646027E-001;-6.557463109493256E-002;3.573412774130702E-003;3.004643134772778E-003;
2.419166666666667E+009;1.660561561584473E-001;-6.626822799444199E-002;3.651608480140567E-003;2.846318995580077E-003;
2.419333333333334E+009;1.647702306509018E-001;-6.676159799098969E-002;3.665520343929529E-003;2.616036450490356E-003;
2.419500000000000E+009;1.636678874492645E-001;-6.776903569698334E-002;3.731726901605725E-003;2.565909875556827E-003;
2.419666666666667E+009;1.625570952892304E-001;-6.866836547851563E-002;3.770760260522366E-003;2.449443330988288E-003;
2.419833333333334E+009;1.613050103187561E-001;-6.955802440643311E-002;3.916153218597174E-003;2.354193478822708E-003;
2.420000000000000E+009;1.602266281843185E-001;-7.068144530057907E-002;4.015366081148386E-003;2.174304565414786E-003;
2.420166666666667E+009;1.591298729181290E-001;-7.168671488761902E-002;3.844236955046654E-003;2.005915855988860E-003;
2.420333333333334E+009;1.579613834619522E-001;-7.281702011823654E-002;4.146845079958439E-003;1.943085459060967E-003;
2.420500000000000E+009;1.569819152355194E-001;-7.397056370973587E-002;4.067334812134504E-003;1.725122332572937E-003;
2.420666666666667E+009;1.559442579746246E-001;-7.523662596940994E-002;4.175422247499228E-003;1.402632449753583E-003;
2.420833333333334E+009;1.549500823020935E-001;-7.659757137298584E-002;4.155785311013460E-003;1.573457382619381E-003;
2.421000000000000E+009;1.539662629365921E-001;-7.807474583387375E-002;4.041676409542561E-003;1.344679156318307E-003;
2.421166666666667E+009;1.530800014734268E-001;-7.958813756704330E-002;3.914654720574617E-003;1.193436561152339E-003;
2.421333333333334E+009;1.526471674442291E-001;-8.099645376205444E-002;4.136352334171534E-003;9.313517366535962E-004;
2.421500000000000E+009;1.518984586000443E-001;-8.249494433403015E-002;4.218101035803556E-003;1.007031300105155E-003;
2.421666666666667E+009;1.513655930757523E-001;-8.415082097053528E-002;4.157401155680418E-003;6.534421700052917E-004;
2.421833333333334E+009;1.509702950716019E-001;-8.578474074602127E-002;3.973057493567467E-003;5.867508007213473E-004;
2.422000000000000E+009;1.504981219768524E-001;-8.744670450687408E-002;4.049382638186216E-003;5.039445823058486E-004;
2.422166666666667E+009;1.501175016164780E-001;-8.926127105951309E-002;3.902555676177144E-003;3.737261577043682E-004;
2.422333333333334E+009;1.499498337507248E-001;-9.097763895988464E-002;4.031466320157051E-003;2.574035024736077E-004;
2.422500000000000E+009;1.495941728353500E-001;-9.250663965940476E-002;3.887357423081994E-003;1.000138727249578E-004;
2.422666666666667E+009;1.494024842977524E-001;-9.424765408039093E-002;3.888201899826527E-003;-7.635277870576829E-005;
2.422833333333334E+009;1.496738493442535E-001;-9.597636759281158E-002;3.823164151981473E-003;-9.464684990234673E-005;
2.423000000000000E+009;1.496791243553162E-001;-9.775133430957794E-002;3.781704232096672E-003;-2.369400026509538E-004;
2.423166666666667E+009;1.497000008821487E-001;-9.934180229902268E-002;3.762682899832726E-003;-3.584965888876468E-004;
2.423333333333334E+009;1.500736922025681E-001;-1.007629483938217E-001;3.652075538411737E-003;-3.360809059813619E-004;
2.423500000000000E+009;1.502860039472580E-001;-1.025005951523781E-001;3.605639329180121E-003;-3.515937423799187E-004;
2.423666666666667E+009;1.505518555641174E-001;-1.039485782384872E-001;3.562951926141977E-003;-6.024832255207002E-004;
2.423833333333334E+009;1.510444879531860E-001;-1.055658459663391E-001;3.470293246209621E-003;-7.108871359378099E-004;
2.424000000000000E+009;1.512787342071533E-001;-1.068355515599251E-001;3.520425176247954E-003;-7.782900356687605E-004;
2.424166666666667E+009;1.516459733247757E-001;-1.081691011786461E-001;3.533259034156799E-003;-8.984917658381164E-004;
2.424333333333334E+009;1.521358042955399E-001;-1.093405187129974E-001;3.396092914044857E-003;-8.763092337176204E-004;
2.424500000000000E+009;1.527249217033386E-001;-1.105955466628075E-001;3.409652039408684E-003;-8.378167403861880E-004;
2.424666666666667E+009;1.532292515039444E-001;-1.115492805838585E-001;3.237005788832903E-003;-9.515351848676801E-004;
2.424833333333334E+009;1.534735262393951E-001;-1.125670075416565E-001;3.327643731608987E-003;-9.087105281651020E-004;
2.425000000000000E+009;1.539604216814041E-001;-1.136661097407341E-001;3.150090342387557E-003;-9.415904642082751E-004;
2.425166666666667E+009;1.542939245700836E-001;-1.144983917474747E-001;3.237088443711400E-003;-1.076131011359394E-003;
2.425333333333334E+009;1.546917557716370E-001;-1.153017133474350E-001;3.214661730453372E-003;-1.102904323488474E-003;
2.425500000000000E+009;1.551181375980377E-001;-1.160492002964020E-001;3.220105543732643E-003;-1.202266081236303E-003;
2.425666666666667E+009;1.552613824605942E-001;-1.165913939476013E-001;3.153116209432483E-003;-1.283362507820129E-003;
2.425833333333334E+009;1.555487066507340E-001;-1.171943396329880E-001;3.015363356098533E-003;-1.192393014207482E-003;
2.426000000000000E+009;1.557687819004059E-001;-1.177166476845741E-001;3.039727453142405E-003;-1.224784413352609E-003;
2.426166666666667E+009;1.560810953378677E-001;-1.181040555238724E-001;3.065166529268026E-003;-1.359791844151914E-003;
2.426333333333334E+009;1.560465842485428E-001;-1.183439716696739E-001;2.918425714597106E-003;-1.466818852350116E-003;
2.426500000000000E+009;1.560572385787964E-001;-1.187245473265648E-001;2.781160175800324E-003;-1.529443194158375E-003;
2.426666666666667E+009;1.561947315931320E-001;-1.188560873270035E-001;2.934580901637673E-003;-1.584727666340768E-003;
2.426833333333334E+009;1.558590382337570E-001;-1.191051825881004E-001;2.873056335374713E-003;-1.614494482055306E-003;
2.427000000000000E+009;1.556994020938873E-001;-1.192958727478981E-001;2.736328402534127E-003;-1.717014471068978E-003;
2.427166666666667E+009;1.553542017936707E-001;-1.193406134843826E-001;2.808864694088697E-003;-1.790079637430608E-003;
2.427333333333334E+009;1.549331545829773E-001;-1.194240301847458E-001;2.857561921700835E-003;-1.902577932924032E-003;
2.427500000000000E+009;1.545219123363495E-001;-1.195202767848969E-001;2.709082327783108E-003;-1.834525377489626E-003;
2.427666666666667E+009;1.537271589040756E-001;-1.196554005146027E-001;2.723960671573877E-003;-1.969785429537296E-003;
