# Version 1.00
#
freq[Hz];re:Trc1_S11;im:Trc1_S11;re:Trc2_S21;im:Trc2_S21;
2.400000000000000E+009;1.554199010133743E-001;1.063665077090263E-001;1.239956822246313E-003;2.452936314512044E-004;
2.400166666666667E+009;1.550619900226593E-001;1.040633022785187E-001;1.213877229020000E-003;1.808954839361832E-004;
2.400333333333334E+009;1.552072465419769E-001;1.016840264201164E-001;9.214360616169870E-004;3.293182817287743E-005;
2.400500000000000E+009;1.550608426332474E-001;9.896419942378998E-002;9.546890505589545E-004;-1.637711538933218E-004;
2.400666666666667E+009;1.550480872392654E-001;9.647646546363831E-002;7.979559013620019E-004;-1.665255840634927E-004;
2.400833333333334E+009;1.552151441574097E-001;9.362395107746124E-002;6.903800531290472E-004;-3.086926881223917E-004;
2.401000000000000E+009;1.554776579141617E-001;9.085511416196823E-002;6.940475432202220E-004;-2.031443727901205E-004;
2.401166666666667E+009;1.554768532514572E-001;8.799371868371964E-002;6.174881127662957E-004;-3.127328527625650E-004;
2.401333333333334E+009;1.559571921825409E-001;8.529860526323319E-002;3.805507149081677E-004;-3.488882794044912E-004;
2.401500000000000E+009;1.563680469989777E-001;8.238394558429718E-002;2.075501397484914E-004;-3.160732740070671E-004;
2.401666666666667E+009;1.566133052110672E-001;7.961554080247879E-002;1.904407508845907E-005;-3.917049325536937E-004;
2.401833333333334E+009;1.571389585733414E-001;7.677759230136871E-002;1.131273820647039E-004;-2.594083198346198E-004;
2.402000000000000E+009;1.580720096826553E-001;7.418935000896454E-002;-3.365017619216815E-005;-3.196040634065867E-004;
2.402166666666667E+009;1.588713973760605E-001;7.195863872766495E-002;-4.052030635648407E-005;-2.367346751270816E-004;
2.402333333333334E+009;1.597831398248673E-001;6.908531486988068E-002;-3.524490457493812E-004;-1.251923531526700E-004;
2.402500000000000E+009;1.609856486320496E-001;6.660684198141098E-002;-1.460282946936786E-004;1.080285983334761E-005;
2.402666666666667E+009;1.623076498508453E-001;6.435002386569977E-002;-2.999305725097656E-004;-9.096814756048843E-005;
2.402833333333334E+009;1.635552495718002E-001;6.197552755475044E-002;-4.540956579148769E-004;1.935405598487705E-004;
2.403000000000000E+009;1.648704558610916E-001;5.955903604626656E-002;-2.446452272124589E-004;2.568810305092484E-004;
2.403166666666667E+009;1.665747463703156E-001;5.743660032749176E-002;-5.453582853078842E-004;3.283714759163559E-004;
2.403333333333334E+009;1.678810417652130E-001;5.517029017210007E-002;-3.584985388442874E-004;2.716463350225240E-004;
2.403500000000000E+009;1.698027998209000E-001;5.326684936881065E-002;-2.504588046576828E-004;3.761535917874426E-004;
2.403666666666667E+009;1.714879870414734E-001;5.132029578089714E-002;-2.492243074811995E-004;5.655079730786383E-004;
2.403833333333334E+009;1.732173562049866E-001;4.952054843306541E-002;7.426392585330177E-007;6.119442987255752E-004;
2.404000000000000E+009;1.747612506151199E-001;4.774461314082146E-002;-1.932705636136234E-004;6.242609815672040E-004;
2.404166666666667E+009;1.764862537384033E-001;4.624423012137413E-002;-9.154663712251931E-005;7.373594562523067E-004;
2.404333333333334E+009;1.781019270420075E-001;4.469912871718407E-002;1.188800160889514E-004;4.799880844075233E-004;
2.404500000000000E+009;1.795820295810700E-001;4.342895373702049E-002;1.701693108770996E-004;6.396250100806356E-004;
2.404666666666667E+009;1.813722550868988E-001;4.233254119753838E-002;2.259944012621418E-004;5.720188491977751E-004;
2.404833333333334E+009;1.828173846006393E-001;4.131262004375458E-002;2.068881003651768E-004;6.361636915244162E-004;
2.405000000000000E+009;1.843782514333725E-001;4.061471670866013E-002;3.173362638335675E-004;4.875180020462722E-004;
2.405166666666667E+009;1.856649070978165E-001;3.985905647277832E-002;1.645869633648545E-004;3.268303989898413E-004;
2.405333333333334E+009;1.870153248310089E-001;3.918924182653427E-002;3.186289104633033E-004;3.431279328651726E-004;
2.405500000000000E+009;1.883629113435745E-001;3.888416290283203E-002;7.057512993924320E-005;5.517734680324793E-004;
2.405666666666667E+009;1.896580457687378E-001;3.841591998934746E-002;1.462117943447083E-004;4.725238250102848E-004;
2.405833333333334E+009;1.908514499664307E-001;3.826148435473442E-002;2.295198210049421E-004;1.609940081834793E-004;
2.406000000000000E+009;1.917341649532318E-001;3.793855011463165E-002;8.126594912027940E-005;4.873952129855752E-004;
2.406166666666667E+009;1.928148716688156E-001;3.774232417345047E-002;9.580291953170672E-005;2.852086909115315E-004;
2.406333333333334E+009;1.937578171491623E-001;3.786970302462578E-002;5.911303742323071E-005;5.638794391416013E-004;
2.406500000000000E+009;1.944312006235123E-001;3.789590299129486E-002;3.356997331138700E-004;5.406399723142386E-004;
2.406666666666667E+009;1.949888318777084E-001;3.782740235328674E-002;1.507471897639334E-004;5.149067146703601E-004;
2.406833333333334E+009;1.954213380813599E-001;3.777929767966270E-002;2.898988313972950E-004;5.980911664664745E-004;
2.407000000000000E+009;1.957790851593018E-001;3.798282891511917E-002;4.139429365750402E-004;5.347984260879457E-004;
2.407166666666667E+009;1.960947066545487E-001;3.772339224815369E-002;3.975144645664841E-004;5.730650736950338E-004;
2.407333333333334E+009;1.959719061851502E-001;3.787057101726532E-002;6.305185379460454E-004;5.525276646949351E-004;
2.407500000000000E+009;1.959189325571060E-001;3.796063363552094E-002;5.188431241549552E-004;5.654906854033470E-004;
2.407666666666667E+009;1.960436403751373E-001;3.784725442528725E-002;6.283246329985559E-004;4.962647799402475E-004;
2.407833333333334E+009;1.954225152730942E-001;3.767227381467819E-002;6.598462350666523E-004;4.891511634923518E-004;
2.408000000000000E+009;1.953453123569489E-001;3.744674846529961E-002;7.170671015046537E-004;4.151231551077217E-004;
2.408166666666667E+009;1.947222203016281E-001;3.703027963638306E-002;6.923449691385031E-004;3.621743817348033E-004;
2.408333333333334E+009;1.943273544311523E-001;3.657816722989082E-002;6.016818224452436E-004;3.428837517276406E-004;
2.408500000000000E+009;1.936504095792770E-001;3.624195978045464E-002;8.275616564787924E-004;2.741082571446896E-004;
2.408666666666667E+009;1.931200027465820E-001;3.557812422513962E-002;6.496352143585682E-004;3.130519180558622E-004;
2.408833333333334E+009;1.923509389162064E-001;3.497578948736191E-002;8.819562499411404E-004;2.887297014240176E-004;
2.409000000000000E+009;1.914112418889999E-001;3.393878787755966E-002;7.425254443660379E-004;1.033452281262726E-004;
2.409166666666667E+009;1.904100030660629E-001;3.281277045607567E-002;8.195812697522342E-004;1.383643975714222E-004;
2.409333333333334E+009;1.895137727260590E-001;3.206289187073708E-002;7.947257836349309E-004;2.492345520295203E-004;
2.409500000000000E+009;1.885358095169067E-001;3.053838759660721E-002;7.724988390691578E-004;1.440797932446003E-004;
2.409666666666667E+009;1.875144541263580E-001;2.914746105670929E-002;7.200720137916505E-004;7.854346767999232E-005;
2.409833333333334E+009;1.864912360906601E-001;2.754252962768078E-002;8.743884973227978E-004;6.298491825873498E-006;
2.410000000000000E+009;1.854430586099625E-001;2.607539668679237E-002;8.367876289412379E-004;-2.573249548731837E-005;
2.410166666666667E+009;1.845949292182922E-001;2.420987188816071E-002;8.608212810941041E-004;5.711974517907947E-005;
2.410333333333334E+009;1.836422979831696E-001;2.253920771181583E-002;9.575790027156472E-004;-1.461910578655079E-004;
2.410500000000000E+009;1.825788170099258E-001;2.049334533512592E-002;8.344576344825327E-004;-1.128978910855949E-004;
2.410666666666667E+009;1.817642152309418E-001;1.836501806974411E-002;7.958484929986298E-004;-3.015397523995489E-004;
2.410833333333334E+009;1.812281906604767E-001;1.607071608304977E-002;8.130240021273494E-004;-1.504224492236972E-004;
2.411000000000000E+009;1.804606169462204E-001;1.382469013333321E-002;9.640081552788615E-004;-3.588076797313988E-004;
2.411166666666667E+009;1.797709316015244E-001;1.167135778814554E-002;7.448454853147268E-004;-4.528947465587407E-004;
2.411333333333334E+009;1.792792975902557E-001;9.091775864362717E-003;8.098837570287287E-004;-4.773216205649078E-004;
2.411500000000000E+009;1.789895743131638E-001;6.787196733057499E-003;7.306357147172093E-004;-6.494340486824513E-004;
2.411666666666667E+009;1.788035929203033E-001;4.414939787238836E-003;6.741198594681919E-004;-6.695644115097821E-004;
2.411833333333334E+009;1.785045266151428E-001;2.012699842453003E-003;5.632778629660606E-004;-8.223368204198778E-004;
2.412000000000000E+009;1.787366867065430E-001;-5.024248966947198E-004;4.387510998640209E-004;-8.886277792043984E-004;
2.412166666666667E+009;1.787010729312897E-001;-2.776806708425283E-003;5.886799772270024E-004;-9.635650203563273E-004;
2.412333333333334E+009;1.790304034948349E-001;-5.160197615623474E-003;2.420889359200373E-004;-9.878980927169323E-004;
2.412500000000000E+009;1.793911308050156E-001;-7.760496344417334E-003;2.518948749639094E-004;-9.392145439051092E-004;
2.412666666666667E+009;1.799027323722839E-001;-1.015642099082470E-002;1.640413538552821E-004;-1.045117620378733E-003;
2.412833333333334E+009;1.805606484413147E-001;-1.255288999527693E-002;-4.409562825458124E-005;-9.370783809572458E-004;
2.413000000000000E+009;1.812566518783569E-001;-1.479517854750156E-002;-9.453307575313374E-005;-9.524890338070691E-004;
2.413166666666667E+009;1.820911467075348E-001;-1.712392270565033E-002;-9.847662295214832E-005;-1.040452742017806E-003;
2.413333333333334E+009;1.832126677036285E-001;-1.951893977820873E-002;-2.673901035450399E-004;-8.641832391731441E-004;
2.413500000000000E+009;1.838711351156235E-001;-2.164837345480919E-002;-4.341127933003008E-004;-8.282930357381702E-004;
2.413666666666667E+009;1.850277036428452E-001;-2.380225807428360E-002;-5.148915806785226E-004;-6.790873594582081E-004;
2.413833333333334E+009;1.860214769840241E-001;-2.571520954370499E-002;-6.440525758080185E-004;-6.460128352046013E-004;
2.414000000000000E+009;1.871528029441834E-001;-2.768619731068611E-002;-7.234257063828409E-004;-5.228693480603397E-004;
2.414166666666667E+009;1.885076612234116E-001;-2.940759062767029E-002;-5.765006644651294E-004;-3.953716659452766E-004;
2.414333333333334E+009;1.894499361515045E-001;-3.128559142351151E-002;-7.152362377382815E-004;-4.733228997793049E-004;
2.414500000000000E+009;1.907184123992920E-001;-3.271179273724556E-002;-5.285940715111792E-004;-4.181301337666810E-004;
2.414666666666667E+009;1.918902695178986E-001;-3.420467674732208E-002;-7.278401753865182E-004;-2.911809715442359E-004;
2.414833333333334E+009;1.928101778030396E-001;-3.546119108796120E-002;-8.178859716281295E-004;-3.675875486806035E-004;
2.415000000000000E+009;1.940661221742630E-001;-3.677196800708771E-002;-7.296926924027503E-004;-2.158035640604794E-004;
2.415166666666667E+009;1.951799988746643E-001;-3.788035735487938E-002;-7.109791040420532E-004;-1.273790840059519E-004;
2.415333333333334E+009;1.961397677659988E-001;-3.877713531255722E-002;-8.165788021869957E-004;7.194771001195477E-007;
2.415500000000000E+009;1.973512023687363E-001;-3.938898444175720E-002;-8.497929666191340E-004;-4.347899084677920E-005;
2.415666666666667E+009;1.982288211584091E-001;-4.027205333113670E-002;-9.801579872146249E-004;-4.507039193413220E-006;
2.415833333333334E+009;1.989512741565704E-001;-4.083715006709099E-002;-9.685319382697344E-004;2.358408164582215E-005;
2.416000000000000E+009;1.998049318790436E-001;-4.142758622765541E-002;-9.666113764978945E-004;1.506766566308215E-004;
2.416166666666667E+009;2.003772109746933E-001;-4.185597971081734E-002;-1.017574686557055E-003;5.767943803220987E-004;
2.416333333333334E+009;2.010978758335114E-001;-4.214295744895935E-002;-7.546013221144676E-004;5.665954668074846E-004;
2.416500000000000E+009;2.015535980463028E-001;-4.245872423052788E-002;-8.319809567183256E-004;8.390751318074763E-004;
2.416666666666667E+009;2.017994672060013E-001;-4.283140599727631E-002;-6.668453570455313E-004;8.038928499445319E-004;
2.416833333333334E+009;2.018495500087738E-001;-4.273772239685059E-002;-4.812552360817790E-004;9.299024823121727E-004;
2.417000000000000E+009;2.020672559738159E-001;-4.280677065253258E-002;-3.655267064459622E-004;9.309921297244728E-004;
2.417166666666667E+009;2.017350345849991E-001;-4.275646433234215E-002;-3.219518112018704E-004;8.849860751070082E-004;
2.417333333333334E+009;2.013748735189438E-001;-4.263387247920036E-002;-1.556728966534138E-004;1.015271292999387E-003;
2.417500000000000E+009;2.012699395418167E-001;-4.271557554602623E-002;8.368628186872229E-006;1.136819017119706E-003;
2.417666666666667E+009;2.006252408027649E-001;-4.247652366757393E-002;2.188220787502360E-005;9.787043090909720E-004;
2.417833333333334E+009;2.001886814832687E-001;-4.228795319795609E-002;2.749579434748739E-004;1.062168972566724E-003;
2.418000000000000E+009;1.994598954916000E-001;-4.206115379929543E-002;2.155807451345027E-004;1.137171057052910E-003;
2.418166666666667E+009;1.987243145704269E-001;-4.196196421980858E-002;3.616049361880869E-004;8.986351895146072E-004;
2.418333333333334E+009;1.976586133241653E-001;-4.189095646142960E-002;4.410455003380776E-004;9.724487317726016E-004;
2.418500000000000E+009;1.967660933732987E-001;-4.200013354420662E-002;4.208885657135397E-004;7.977097993716598E-004;
2.418666666666667E+009;1.958694756031036E-001;-4.181611910462380E-002;5.207950016483665E-004;8.758986368775368E-004;
2.418833333333334E+009;1.945739388465881E-001;-4.199742153286934E-002;6.413769442588091E-004;7.731117075309157E-004;
2.419000000000000E+009;1.932114511728287E-001;-4.225182905793190E-002;7.356076384894550E-004;6.039043655619025E-004;
2.419166666666667E+009;1.919714510440826E-001;-4.243921488523483E-002;6.315056816674769E-004;6.659069331362844E-004;
2.419333333333334E+009;1.906384676694870E-001;-4.306146129965782E-002;7.178899832069874E-004;6.604372174479067E-004;
2.419500000000000E+009;1.891353130340576E-001;-4.345098882913590E-002;8.058745879679918E-004;5.182395689189434E-004;
2.419666666666667E+009;1.875643879175186E-001;-4.425558075308800E-002;8.392312447540462E-004;5.399626679718494E-004;
2.419833333333334E+009;1.861217021942139E-001;-4.493312537670136E-002;9.445874602533877E-004;4.629960749298334E-004;
2.420000000000000E+009;1.844881922006607E-001;-4.581005126237869E-002;8.028396405279636E-004;6.088925292715430E-004;
2.420166666666667E+009;1.829435527324677E-001;-4.671436548233032E-002;9.346750448457897E-004;3.905572521034628E-004;
2.420333333333334E+009;1.813371628522873E-001;-4.792414978146553E-002;1.030526356771588E-003;3.390619531273842E-004;
2.420500000000000E+009;1.797059923410416E-001;-4.917568340897560E-002;1.238678349182010E-003;2.718709583859891E-004;
2.420666666666667E+009;1.781438440084457E-001;-5.023712664842606E-002;1.091654878109694E-003;2.038748643826693E-004;
2.420833333333334E+009;1.766238063573837E-001;-5.185112729668617E-002;1.205878332257271E-003;4.800724491360597E-005;
2.421000000000000E+009;1.751288622617722E-001;-5.332482233643532E-002;1.234979485161603E-003;8.876078027242329E-006;
2.421166666666667E+009;1.738635599613190E-001;-5.488312244415283E-002;1.300235511735082E-003;-1.157552324002609E-004;
2.421333333333334E+009;1.721657514572144E-001;-5.671088397502899E-002;1.265885890461505E-003;-1.916344626806676E-004;
2.421500000000000E+009;1.709075272083283E-001;-5.857242643833160E-002;1.249039079993963E-003;-3.672022430691868E-004;
2.421666666666667E+009;1.698203533887863E-001;-6.042316183447838E-002;1.254032133147121E-003;-4.563009424600750E-004;
2.421833333333334E+009;1.687444746494293E-001;-6.208875775337219E-002;1.270578941330314E-003;-6.497555878013372E-004;
2.422000000000000E+009;1.675681620836258E-001;-6.411872804164887E-002;1.181244617328048E-003;-9.535502176731825E-004;
2.422166666666667E+009;1.668813228607178E-001;-6.607257574796677E-002;1.134439022280276E-003;-9.673656895756722E-004;
2.422333333333334E+009;1.657316833734512E-001;-6.800305098295212E-002;1.106079202145338E-003;-1.066034426912665E-003;
2.422500000000000E+009;1.651309430599213E-001;-7.002128660678864E-002;8.301350753754377E-004;-1.173419412225485E-003;
2.422666666666667E+009;1.643624156713486E-001;-7.204349339008331E-002;6.695134215988219E-004;-1.318220165558159E-003;
2.422833333333334E+009;1.639236509799957E-001;-7.388030737638474E-002;6.724774139001966E-004;-1.350140431895852E-003;
2.423000000000000E+009;1.634472757577896E-001;-7.615648210048676E-002;4.960455116815865E-004;-1.485537039116025E-003;
2.423166666666667E+009;1.632353067398071E-001;-7.795725762844086E-002;2.107693871948868E-004;-1.411723787896335E-003;
2.423333333333334E+009;1.629222631454468E-001;-7.990963757038117E-002;6.529544771183282E-005;-1.428282237611711E-003;
2.423500000000000E+009;1.628704220056534E-001;-8.156102895736694E-002;-5.622536991722882E-005;-1.470412593334913E-003;
2.423666666666667E+009;1.628202199935913E-001;-8.356717973947525E-002;-1.849268592195585E-004;-1.376183121465147E-003;
2.423833333333334E+009;1.627598851919174E-001;-8.508197218179703E-002;-2.682971535250545E-004;-1.347193145193160E-003;
2.424000000000000E+009;1.627926528453827E-001;-8.706172555685043E-002;-5.176624981686473E-004;-1.129285199567676E-003;
2.424166666666667E+009;1.630927771329880E-001;-8.847130089998245E-002;-5.924716824665666E-004;-1.051905332133174E-003;
2.424333333333334E+009;1.632620841264725E-001;-9.013900905847549E-002;-8.042918634600937E-004;-9.881621226668358E-004;
2.424500000000000E+009;1.635942459106445E-001;-9.168132394552231E-002;-7.813166012056172E-004;-8.411360904574394E-004;
2.424666666666667E+009;1.637778878211975E-001;-9.297532588243485E-002;-8.845287375152111E-004;-8.557047694921494E-004;
2.424833333333334E+009;1.643251180648804E-001;-9.413319081068039E-002;-8.089254260994494E-004;-7.213341887108982E-004;
2.425000000000000E+009;1.647725403308868E-001;-9.544733166694641E-002;-9.598066098988056E-004;-5.807476118206978E-004;
2.425166666666667E+009;1.650675982236862E-001;-9.637431055307388E-002;-1.015606685541570E-003;-6.873979582451284E-004;
2.425333333333334E+009;1.654557734727860E-001;-9.739831089973450E-002;-1.112510799430311E-003;-5.567647749558091E-004;
2.425500000000000E+009;1.659030020236969E-001;-9.837707132101059E-002;-1.062165829353035E-003;-2.077187091344968E-004;
2.425666666666667E+009;1.663356870412827E-001;-9.892193228006363E-002;-1.121444744057953E-003;-3.915193665307015E-004;
2.425833333333334E+009;1.666722297668457E-001;-9.983137995004654E-002;-9.488807409070432E-004;-2.292936987942085E-004;
2.426000000000000E+009;1.670264899730682E-001;-1.002667769789696E-001;-1.027684076689184E-003;1.184218035632512E-005;
2.426166666666667E+009;1.673566848039627E-001;-1.006845682859421E-001;-1.042593736201525E-003;1.538119104225189E-004;
2.426333333333334E+009;1.674749255180359E-001;-1.011936068534851E-001;-9.772486519068480E-004;1.358615554636344E-004;
2.426500000000000E+009;1.678826361894608E-001;-1.015966162085533E-001;-8.942419663071632E-004;2.260683686472476E-004;
2.426666666666667E+009;1.680725961923599E-001;-1.017866209149361E-001;-1.028827275149524E-003;3.718072839546949E-004;
2.426833333333334E+009;1.683673113584518E-001;-1.020347326993942E-001;-9.655230678617954E-004;3.521109174471349E-004;
2.427000000000000E+009;1.682185083627701E-001;-1.022782921791077E-001;-8.845264092087746E-004;4.879501357208937E-004;
2.427166666666667E+009;1.683669835329056E-001;-1.024738177657127E-001;-8.625319460406900E-004;4.775625420734286E-004;
2.427333333333334E+009;1.681688427925110E-001;-1.026664376258850E-001;-6.434065871872008E-004;7.155016646720469E-004;
2.427500000000000E+009;1.679559648036957E-001;-1.029066443443298E-001;-6.268471479415894E-004;5.969435442239046E-004;
2.427666666666667E+009;1.676332056522369E-001;-1.029253304004669E-001;-5.303852376528084E-004;6.856800173409283E-004;
2.427833333333334E+009;1.672704368829727E-001;-1.031643822789192E-001;-5.691669066436589E-004;6.847213371656835E-004;
