# Version 1.00
#
freq[Hz];re:Trc1_S11;im:Trc1_S11;re:Trc2_S21;im:Trc2_S21;
2.400000000000000E+009;1.551675051450729E-001;1.065070852637291E-001;1.298203249461949E-003;2.136827970389277E-004;
2.400166666666667E+009;1.550548970699310E-001;1.040472686290741E-001;1.075051259249449E-003;2.207860416092444E-005;
2.400333333333334E+009;1.551821827888489E-001;1.015365868806839E-001;1.011102460324764E-003;3.579614030968514E-006;
2.400500000000000E+009;1.550671756267548E-001;9.885498881340027E-002;9.271429153159261E-004;-3.122007765341550E-004;
2.400666666666667E+009;1.552503556013107E-001;9.644148498773575E-002;8.877736399881542E-004;-2.584297035355121E-004;
2.400833333333334E+009;1.552728563547134E-001;9.376611560583115E-002;5.884206038899720E-004;-2.819678338710219E-004;
2.401000000000000E+009;1.553738266229630E-001;9.083096683025360E-002;5.546665051952004E-004;-3.617877955548465E-004;
2.401166666666667E+009;1.555536687374115E-001;8.810402452945709E-002;4.390806134324521E-004;-3.813434450421482E-004;
2.401333333333334E+009;1.559310555458069E-001;8.520185947418213E-002;3.455420664977282E-004;-2.744241210166365E-004;
2.401500000000000E+009;1.564524918794632E-001;8.245466649532318E-002;1.994490739889443E-004;-3.561014309525490E-004;
2.401666666666667E+009;1.566070765256882E-001;7.973690330982208E-002;9.305783896706998E-005;-2.705043007154018E-004;
2.401833333333334E+009;1.573229879140854E-001;7.717408984899521E-002;2.682826379896142E-005;-2.908423193730414E-004;
2.402000000000000E+009;1.581570506095886E-001;7.438351213932037E-002;-5.053739369031973E-005;-1.829835382523015E-004;
2.402166666666667E+009;1.589150875806809E-001;7.180708646774292E-002;-1.286349579459056E-004;-1.378765446133912E-004;
2.402333333333334E+009;1.598306596279144E-001;6.927402317523956E-002;-2.451018954161555E-004;-7.082211959641427E-005;
2.402500000000000E+009;1.611270010471344E-001;6.674177944660187E-002;-2.340677165193483E-004;-1.013886067084968E-004;
2.402666666666667E+009;1.621341854333878E-001;6.442695856094360E-002;-1.895804598461837E-004;9.419442358193919E-005;
2.402833333333334E+009;1.635570079088211E-001;6.175516545772553E-002;-3.977451706305146E-004;9.526044777885545E-006;
2.403000000000000E+009;1.649238616228104E-001;5.974623933434486E-002;-2.665588690433651E-004;3.008499625138938E-004;
2.403166666666667E+009;1.666915267705917E-001;5.747820436954498E-002;-4.780557646881789E-004;2.638676087372005E-004;
2.403333333333334E+009;1.680812239646912E-001;5.524782463908196E-002;-4.219604306854308E-004;4.440993070602417E-004;
2.403500000000000E+009;1.697628945112228E-001;5.344003811478615E-002;-3.718237858265638E-004;3.631924628280103E-004;
2.403666666666667E+009;1.714736074209213E-001;5.134497955441475E-002;-2.571330114733428E-004;6.194274174049497E-004;
2.403833333333334E+009;1.731528639793396E-001;4.967807978391647E-002;-2.310720446985215E-004;6.172453286126256E-004;
2.404000000000000E+009;1.747932881116867E-001;4.786101356148720E-002;1.357227847620379E-005;5.630355444736779E-004;
2.404166666666667E+009;1.763906180858612E-001;4.641075432300568E-002;-9.528446389595047E-005;5.843369290232658E-004;
2.404333333333334E+009;1.781004220247269E-001;4.480126500129700E-002;7.696687680436298E-005;6.161787896417081E-004;
2.404500000000000E+009;1.797270327806473E-001;4.322696477174759E-002;1.633083447813988E-004;5.571322399191558E-004;
2.404666666666667E+009;1.813244819641113E-001;4.232879355549812E-002;1.794006093405187E-004;7.098123896867037E-004;
2.404833333333334E+009;1.830099374055862E-001;4.121021926403046E-002;1.320621959166601E-004;4.568637523334473E-004;
2.405000000000000E+009;1.843016892671585E-001;4.050471261143684E-002;1.951771409949288E-004;4.069023416377604E-004;
2.405166666666667E+009;1.858022660017014E-001;3.983089327812195E-002;2.259068787680008E-005;3.519937454257160E-004;
2.405333333333334E+009;1.870356053113937E-001;3.932678699493408E-002;2.591589000076056E-004;4.883747315034270E-004;
2.405500000000000E+009;1.884435415267944E-001;3.885811939835548E-002;8.039653766900301E-005;3.684079856611788E-004;
2.405666666666667E+009;1.896249055862427E-001;3.850447759032250E-002;9.547746594762430E-005;4.725199542008340E-004;
2.405833333333334E+009;1.907958537340164E-001;3.821958601474762E-002;7.041609933366999E-005;4.616395744960755E-004;
2.406000000000000E+009;1.917876750230789E-001;3.809291869401932E-002;9.149520337814465E-005;4.727111372631043E-004;
2.406166666666667E+009;1.927907317876816E-001;3.788304701447487E-002;1.702724694041535E-004;6.327955634333193E-004;
2.406333333333334E+009;1.936544626951218E-001;3.794031217694283E-002;2.175414992962033E-004;5.620925803668797E-004;
2.406500000000000E+009;1.943222284317017E-001;3.788467496633530E-002;2.438997034914792E-004;4.914164310321212E-004;
2.406666666666667E+009;1.949649006128311E-001;3.790918365120888E-002;9.606209641788155E-005;5.683375056833029E-004;
2.406833333333334E+009;1.955516636371613E-001;3.783406689763069E-002;2.958457043860108E-004;5.523501895368099E-004;
2.407000000000000E+009;1.956798434257507E-001;3.807904943823814E-002;3.768790920730680E-004;7.544924737885594E-004;
2.407166666666667E+009;1.960095763206482E-001;3.772596269845963E-002;2.426156861474738E-004;6.964690983295441E-004;
2.407333333333334E+009;1.961042433977127E-001;3.807243332266808E-002;5.104416050016880E-004;6.177420727908611E-004;
2.407500000000000E+009;1.959857642650604E-001;3.797599673271179E-002;5.491192569024861E-004;5.819494253955782E-004;
2.407666666666667E+009;1.959267109632492E-001;3.785999864339829E-002;5.936350207775831E-004;6.290899473242462E-004;
2.407833333333334E+009;1.954563707113266E-001;3.766410052776337E-002;5.727897514589131E-004;5.162099259905517E-004;
2.408000000000000E+009;1.955119371414185E-001;3.749620914459229E-002;8.581816800870001E-004;4.296430270187557E-004;
2.408166666666667E+009;1.947989612817764E-001;3.724384680390358E-002;6.145973457023501E-004;3.890277876053006E-004;
2.408333333333334E+009;1.944630891084671E-001;3.671496361494064E-002;7.630887557752430E-004;3.585057856980711E-004;
2.408500000000000E+009;1.937332004308701E-001;3.618043288588524E-002;6.884809117764235E-004;3.743212146218866E-004;
2.408666666666667E+009;1.930480003356934E-001;3.566092252731323E-002;6.458249408751726E-004;3.128914104308933E-004;
2.408833333333334E+009;1.923885345458984E-001;3.476576507091522E-002;8.021750836633146E-004;1.897322508739308E-004;
2.409000000000000E+009;1.912613660097122E-001;3.393327444791794E-002;8.148333872668445E-004;2.943628060165793E-004;
2.409166666666667E+009;1.904504001140595E-001;3.284751996397972E-002;8.029124583117664E-004;1.351512182736769E-004;
2.409333333333334E+009;1.896536797285080E-001;3.199804201722145E-002;8.780570351518691E-004;1.287289633182809E-004;
2.409500000000000E+009;1.885587275028229E-001;3.057375364005566E-002;7.284450693987310E-004;5.050273466622457E-005;
2.409666666666667E+009;1.876279115676880E-001;2.904865890741348E-002;8.419246296398342E-004;1.364187919534743E-004;
2.409833333333334E+009;1.864435225725174E-001;2.771615982055664E-002;8.009756566025317E-004;1.364836789434776E-004;
2.410000000000000E+009;1.856162101030350E-001;2.589304186403751E-002;8.259387686848640E-004;-4.770527084474452E-005;
2.410166666666667E+009;1.845875978469849E-001;2.421893924474716E-002;7.919943891465664E-004;-5.844344559591264E-005;
2.410333333333334E+009;1.837026923894882E-001;2.230879105627537E-002;9.339546668343246E-004;-7.866701344028115E-005;
2.410500000000000E+009;1.827043145895004E-001;2.047957479953766E-002;8.793639135546982E-004;-2.150128275388852E-004;
2.410666666666667E+009;1.818727403879166E-001;1.819256320595741E-002;8.498213719576597E-004;-2.179042203351855E-004;
2.410833333333334E+009;1.812467575073242E-001;1.597737334668636E-002;8.937956881709397E-004;-3.191872383467853E-004;
2.411000000000000E+009;1.804674714803696E-001;1.394330710172653E-002;9.100212482735515E-004;-3.351860214024782E-004;
2.411166666666667E+009;1.800532788038254E-001;1.158094964921475E-002;8.976991521194577E-004;-2.946463355328888E-004;
2.411333333333334E+009;1.794033050537109E-001;9.192324243485928E-003;6.399903795681894E-004;-4.655056982301176E-004;
2.411500000000000E+009;1.790179163217545E-001;6.630717776715756E-003;7.139517692849040E-004;-5.809207796119154E-004;
2.411666666666667E+009;1.787754297256470E-001;4.375816788524389E-003;5.997727857902646E-004;-5.744819645769894E-004;
2.411833333333334E+009;1.785135716199875E-001;2.081110840663314E-003;7.116636843420565E-004;-7.340044830925763E-004;
2.412000000000000E+009;1.786798685789108E-001;-6.287083961069584E-004;5.496360245160759E-004;-7.662382558919489E-004;
2.412166666666667E+009;1.787074506282806E-001;-2.968378132209182E-003;5.146696930751205E-004;-8.290350087918341E-004;
2.412333333333334E+009;1.789180487394333E-001;-5.303466692566872E-003;2.420502714812756E-004;-7.723773014731705E-004;
2.412500000000000E+009;1.794488728046417E-001;-7.816487923264504E-003;2.725979720707983E-004;-9.475351544097066E-004;
2.412666666666667E+009;1.799956113100052E-001;-1.028151903301477E-002;2.289230906171724E-004;-9.032307425513864E-004;
2.412833333333334E+009;1.805938482284546E-001;-1.261676568537951E-002;8.921066182665527E-005;-9.323839331045747E-004;
2.413000000000000E+009;1.812224686145783E-001;-1.499684061855078E-002;-2.954879309982061E-004;-9.416810935363174E-004;
2.413166666666667E+009;1.821815073490143E-001;-1.697818003594875E-002;-2.583851164672524E-004;-1.019868534058332E-003;
2.413333333333334E+009;1.830785721540451E-001;-1.946141757071018E-002;-3.071419487241656E-004;-8.771377033554018E-004;
2.413500000000000E+009;1.838597357273102E-001;-2.170230634510517E-002;-4.595943319145590E-004;-8.262562914751470E-004;
2.413666666666667E+009;1.851128488779068E-001;-2.376817353069782E-002;-5.157463019713759E-004;-5.279111792333424E-004;
2.413833333333334E+009;1.861851215362549E-001;-2.575781941413879E-002;-5.884792190045118E-004;-5.858772201463580E-004;
2.414000000000000E+009;1.872754395008087E-001;-2.771122194826603E-002;-6.239779177121818E-004;-3.913701511919498E-004;
2.414166666666667E+009;1.884065866470337E-001;-2.933537401258946E-002;-5.116853280924261E-004;-4.009424883406609E-004;
2.414333333333334E+009;1.895609498023987E-001;-3.137131035327911E-002;-7.356308633461595E-004;-4.195408546365798E-004;
2.414500000000000E+009;1.907847672700882E-001;-3.274526447057724E-002;-7.536240154877305E-004;-3.425269678700715E-004;
2.414666666666667E+009;1.917881220579147E-001;-3.418243303894997E-002;-6.229675491340458E-004;-4.345873021520674E-004;
2.414833333333334E+009;1.928106099367142E-001;-3.562671691179276E-002;-7.531565497629345E-004;-3.299762320239097E-004;
2.415000000000000E+009;1.940244883298874E-001;-3.684793412685394E-002;-6.907390779815614E-004;-2.805699186865240E-004;
2.415166666666667E+009;1.949654221534729E-001;-3.787148371338844E-002;-7.633529021404684E-004;-1.060390713973902E-004;
2.415333333333334E+009;1.962558925151825E-001;-3.892873972654343E-002;-8.415048941969872E-004;-3.162068605888635E-005;
2.415500000000000E+009;1.972705870866776E-001;-3.944940492510796E-002;-9.425694006495178E-004;-1.175423240056261E-004;
2.415666666666667E+009;1.983229815959930E-001;-4.028903320431709E-002;-1.006419770419598E-003;2.010235621128231E-004;
2.415833333333334E+009;1.991000622510910E-001;-4.081331565976143E-002;-1.047997386194766E-003;2.554855600465089E-004;
2.416000000000000E+009;1.998042911291122E-001;-4.145437479019165E-002;-8.764738449826837E-004;4.139112133998424E-004;
2.416166666666667E+009;2.004609107971191E-001;-4.199871793389320E-002;-9.414883097633719E-004;5.337395123206079E-004;
2.416333333333334E+009;2.010106295347214E-001;-4.219305887818337E-002;-8.293455466628075E-004;6.107560475356877E-004;
2.416500000000000E+009;2.014563232660294E-001;-4.240348190069199E-002;-6.789470207877457E-004;7.913836743682623E-004;
2.416666666666667E+009;2.017208039760590E-001;-4.280227050185204E-002;-6.618374027311802E-004;8.084348519332707E-004;
2.416833333333334E+009;2.018885165452957E-001;-4.280058667063713E-002;-6.324267014861107E-004;1.025221077725291E-003;
2.417000000000000E+009;2.020465880632401E-001;-4.294008761644363E-002;-3.808249311987311E-004;9.202921646647155E-004;
2.417166666666667E+009;2.017540633678436E-001;-4.278164729475975E-002;-3.236464981455356E-004;1.127418130636215E-003;
2.417333333333334E+009;2.015147060155869E-001;-4.260669648647308E-002;-2.143364108633250E-004;1.027361140586436E-003;
2.417500000000000E+009;2.011317461729050E-001;-4.262669384479523E-002;5.266524749458768E-005;1.043567666783929E-003;
2.417666666666667E+009;2.006502151489258E-001;-4.246880486607552E-002;7.803554763086140E-005;1.095243613235652E-003;
2.417833333333334E+009;2.000959962606430E-001;-4.234631359577179E-002;1.644365402171388E-004;1.103928079828620E-003;
2.418000000000000E+009;1.995849311351776E-001;-4.206984862685204E-002;3.412551595829427E-004;8.858679211698473E-004;
2.418166666666667E+009;1.985992789268494E-001;-4.203263670206070E-002;3.073615371249616E-004;9.554949938319624E-004;
2.418333333333334E+009;1.978679001331329E-001;-4.184518754482269E-002;4.430949338711798E-004;9.486324270255864E-004;
2.418500000000000E+009;1.967152953147888E-001;-4.194128513336182E-002;5.179564468562603E-004;8.520920528098941E-004;
2.418666666666667E+009;1.957698613405228E-001;-4.186364263296127E-002;4.966686828993261E-004;8.962731808423996E-004;
2.418833333333334E+009;1.945905983448029E-001;-4.205669090151787E-002;6.049626972526312E-004;7.673404761590064E-004;
2.419000000000000E+009;1.932953745126724E-001;-4.223558306694031E-002;5.473298951983452E-004;6.343375425785780E-004;
2.419166666666667E+009;1.920626014471054E-001;-4.257398098707199E-002;7.550220470875502E-004;7.481771172024310E-004;
2.419333333333334E+009;1.906053274869919E-001;-4.305299744009972E-002;7.723607122898102E-004;7.332206587307155E-004;
2.419500000000000E+009;1.892270594835281E-001;-4.354225844144821E-002;8.102867286652327E-004;6.496819551102817E-004;
2.419666666666667E+009;1.877526342868805E-001;-4.433568194508553E-002;8.123513543978334E-004;5.407616263255477E-004;
2.419833333333334E+009;1.861060112714768E-001;-4.490729793906212E-002;9.582445491105318E-004;4.586542490869761E-004;
2.420000000000000E+009;1.845932453870773E-001;-4.575320333242416E-002;9.316614596173167E-004;3.761377884075046E-004;
2.420166666666667E+009;1.828900277614594E-001;-4.672291874885559E-002;1.055148546583951E-003;4.310525546316057E-004;
2.420333333333334E+009;1.813315898180008E-001;-4.788844287395477E-002;1.137415645644069E-003;3.025865589734167E-004;
2.420500000000000E+009;1.796764880418778E-001;-4.929367825388908E-002;1.185275148600340E-003;2.624308108352125E-004;
2.420666666666667E+009;1.781417578458786E-001;-5.026964843273163E-002;1.230429159477353E-003;3.161588101647794E-004;
2.420833333333334E+009;1.767169386148453E-001;-5.186781287193298E-002;1.259784097783268E-003;1.844350190367550E-004;
2.421000000000000E+009;1.751922070980072E-001;-5.332174897193909E-002;1.248900196515024E-003;2.445424252073281E-005;
2.421166666666667E+009;1.738871932029724E-001;-5.507495254278183E-002;1.296619535423815E-003;-2.773117448668927E-004;
2.421333333333334E+009;1.722346842288971E-001;-5.659997090697289E-002;1.347197336144745E-003;-3.021695010829717E-004;
2.421500000000000E+009;1.708471775054932E-001;-5.840270966291428E-002;1.356336870230734E-003;-4.121804959140718E-004;
2.421666666666667E+009;1.697660237550736E-001;-6.022642180323601E-002;1.441754284314811E-003;-5.944673903286457E-004;
2.421833333333334E+009;1.686724424362183E-001;-6.218704581260681E-002;1.299979980103672E-003;-7.227154565043747E-004;
2.422000000000000E+009;1.675448417663574E-001;-6.391887366771698E-002;1.227465341798961E-003;-8.305137744173408E-004;
2.422166666666667E+009;1.666314303874970E-001;-6.608742475509644E-002;1.150934491306543E-003;-9.914438705891371E-004;
2.422333333333334E+009;1.658611446619034E-001;-6.806974112987518E-002;1.055292203091085E-003;-1.148903975263238E-003;
2.422500000000000E+009;1.651269197463989E-001;-7.000395655632019E-002;9.645135723985732E-004;-1.131701981648803E-003;
2.422666666666667E+009;1.642707139253616E-001;-7.206007838249207E-002;7.791381794959307E-004;-1.262722071260214E-003;
2.422833333333334E+009;1.639396101236343E-001;-7.389206439256668E-002;6.140816840343177E-004;-1.393504790030420E-003;
2.423000000000000E+009;1.635255664587021E-001;-7.599422335624695E-002;5.195605917833746E-004;-1.502501778304577E-003;
2.423166666666667E+009;1.631172448396683E-001;-7.797048985958099E-002;3.140652261208743E-004;-1.430097734555602E-003;
2.423333333333334E+009;1.629928350448608E-001;-8.007314056158066E-002;7.403609924949706E-005;-1.588958315551281E-003;
2.423500000000000E+009;1.627512872219086E-001;-8.159223198890686E-002;7.714439561823383E-006;-1.383603201247752E-003;
2.423666666666667E+009;1.628785431385040E-001;-8.361022174358368E-002;-2.446251746732742E-004;-1.352538121864200E-003;
2.423833333333334E+009;1.627645641565323E-001;-8.512397855520248E-002;-4.012160352431238E-004;-1.406296389177442E-003;
2.424000000000000E+009;1.628906577825546E-001;-8.705598115921021E-002;-5.024693091399968E-004;-1.289333449676633E-003;
2.424166666666667E+009;1.629837602376938E-001;-8.857472240924835E-002;-5.520230624824762E-004;-1.131431781686842E-003;
2.424333333333334E+009;1.633149683475494E-001;-8.996313810348511E-002;-7.027243264019489E-004;-1.021647593006492E-003;
2.424500000000000E+009;1.637012809514999E-001;-9.170842915773392E-002;-7.929021958261728E-004;-9.623250225558877E-004;
2.424666666666667E+009;1.638730317354202E-001;-9.294275939464569E-002;-8.134403033182025E-004;-8.865618146955967E-004;
2.424833333333334E+009;1.644816845655441E-001;-9.429948776960373E-002;-9.300816454924643E-004;-7.968452991917729E-004;
2.425000000000000E+009;1.647676825523377E-001;-9.540417045354843E-002;-9.638476185500622E-004;-7.047720137052238E-004;
2.425166666666667E+009;1.651286333799362E-001;-9.635584056377411E-002;-8.852098835632205E-004;-6.325164576992393E-004;
2.425333333333334E+009;1.654117256402969E-001;-9.736723452806473E-002;-1.047456171363592E-003;-4.997029900550842E-004;
2.425500000000000E+009;1.659690141677856E-001;-9.822955727577210E-002;-1.149747171439230E-003;-4.206119047012180E-004;
2.425666666666667E+009;1.662582159042358E-001;-9.903680533170700E-002;-1.108738011680543E-003;-3.291380417067558E-004;
2.425833333333334E+009;1.664897352457047E-001;-9.978955984115601E-002;-1.029308652505279E-003;-1.726597110973671E-004;
2.426000000000000E+009;1.669470816850662E-001;-1.002026721835136E-001;-1.025687204673886E-003;-6.588037649635226E-005;
2.426166666666667E+009;1.674750447273254E-001;-1.007092371582985E-001;-9.848015615716577E-004;-1.185174733109307E-005;
2.426333333333334E+009;1.675387024879456E-001;-1.013087332248688E-001;-1.031370484270155E-003;2.411113382549956E-005;
2.426500000000000E+009;1.678970307111740E-001;-1.015117913484573E-001;-9.896570118144155E-004;1.586853613844141E-004;
2.426666666666667E+009;1.680498272180557E-001;-1.017949953675270E-001;-8.740184130147100E-004;1.537173666292802E-004;
2.426833333333334E+009;1.683114767074585E-001;-1.022324487566948E-001;-9.171882411465049E-004;3.366186574567109E-004;
2.427000000000000E+009;1.682800948619843E-001;-1.023250296711922E-001;-6.813870277255774E-004;2.962085127364844E-004;
2.427166666666667E+009;1.682673096656799E-001;-1.024331748485565E-001;-8.008271106518805E-004;5.240186583250761E-004;
2.427333333333334E+009;1.681880354881287E-001;-1.027880981564522E-001;-5.714881117455661E-004;6.901861634105444E-004;
2.427500000000000E+009;1.679685711860657E-001;-1.028813421726227E-001;-5.734207225032151E-004;6.885576294735074E-004;
2.427666666666667E+009;1.676632463932037E-001;-1.030740961432457E-001;-6.966631626710296E-004;5.808185669593513E-004;
2.427833333333334E+009;1.672566682100296E-001;-1.031303703784943E-001;-5.933121428824961E-004;6.938480655662715E-004;
