# Version 1.00
#
freq[Hz];re:Trc1_S11;im:Trc1_S11;re:Trc2_S21;im:Trc2_S21;
2.400000000000000E+009;1.552158594131470E-001;1.062953323125839E-001;1.451865537092090E-003;2.791339065879583E-004;
2.400166666666667E+009;1.550772935152054E-001;1.039660871028900E-001;1.141441287472844E-003;2.461914264131337E-004;
2.400333333333334E+009;1.551611423492432E-001;1.017549857497215E-001;1.019183895550668E-003;-7.642648415639997E-005;
2.400500000000000E+009;1.550069451332092E-001;9.889613091945648E-002;9.882623562589288E-004;-2.381163212703541E-004;
2.400666666666667E+009;1.551484912633896E-001;9.632068127393723E-002;9.127163793891668E-004;-1.561136741656810E-004;
2.400833333333334E+009;1.552938520908356E-001;9.373622387647629E-002;6.626658723689616E-004;-2.321024512639269E-004;
2.401000000000000E+009;1.554377973079681E-001;9.075336903333664E-002;6.734785274602473E-004;-3.345863660797477E-004;
2.401166666666667E+009;1.555001735687256E-001;8.803972601890564E-002;4.631164483726025E-004;-3.143316716887057E-004;
2.401333333333334E+009;1.559246778488159E-001;8.534507453441620E-002;4.021269851364195E-004;-3.388888726476580E-004;
2.401500000000000E+009;1.563752442598343E-001;8.235481381416321E-002;1.761762105161324E-004;-2.823377435561270E-004;
2.401666666666667E+009;1.565897464752197E-001;7.951569557189941E-002;1.160829488071613E-004;-3.098577726632357E-004;
2.401833333333334E+009;1.572183221578598E-001;7.686924934387207E-002;-1.386987860314548E-004;-3.819838457275182E-004;
2.402000000000000E+009;1.580361425876617E-001;7.425846159458160E-002;-2.052172785624862E-004;-2.680829202290624E-004;
2.402166666666667E+009;1.589071601629257E-001;7.186221331357956E-002;-3.002224257215858E-004;-1.560168457217515E-004;
2.402333333333334E+009;1.598394662141800E-001;6.908041238784790E-002;-1.263543381355703E-004;-8.043223351705819E-005;
2.402500000000000E+009;1.612173914909363E-001;6.656616181135178E-002;-2.503455034457147E-004;-6.417503027478233E-005;
2.402666666666667E+009;1.622765064239502E-001;6.436149775981903E-002;-3.157780738547444E-004;-2.336344732611906E-005;
2.402833333333334E+009;1.635227352380753E-001;6.197013705968857E-002;-2.222722832811996E-004;5.639428127324209E-005;
2.403000000000000E+009;1.651208996772766E-001;5.953510105609894E-002;-4.135368217248470E-004;3.293455811217427E-004;
2.403166666666667E+009;1.667029410600662E-001;5.747023224830627E-002;-2.927846217062324E-004;2.384653489571065E-004;
2.403333333333334E+009;1.682541519403458E-001;5.529678240418434E-002;-2.165408368455246E-004;3.689391596708447E-004;
2.403500000000000E+009;1.698944270610809E-001;5.315086990594864E-002;-2.460131654515863E-004;4.636505618691444E-004;
2.403666666666667E+009;1.716891080141068E-001;5.143555253744125E-002;-3.349561011418700E-004;6.079694139771164E-004;
2.403833333333334E+009;1.732691228389740E-001;4.932583495974541E-002;-1.303843600908294E-004;5.843364051543176E-004;
2.404000000000000E+009;1.747737675905228E-001;4.760155454277992E-002;-4.976071431883611E-005;5.926550948061049E-004;
2.404166666666667E+009;1.764448285102844E-001;4.629677906632423E-002;9.036097617354244E-005;5.620693555101752E-004;
2.404333333333334E+009;1.781514137983322E-001;4.493875056505203E-002;1.422850036760792E-004;6.034171092323959E-004;
2.404500000000000E+009;1.796875447034836E-001;4.332249611616135E-002;2.978240954689682E-004;6.406982429325581E-004;
2.404666666666667E+009;1.812415868043900E-001;4.235552251338959E-002;1.216592427226715E-004;5.681243492290378E-004;
2.404833333333334E+009;1.829185336828232E-001;4.112143069505692E-002;2.971187932416797E-004;4.688366316258907E-004;
2.405000000000000E+009;1.842176914215088E-001;4.054580256342888E-002;1.689779019216076E-004;4.514620814006776E-004;
2.405166666666667E+009;1.858356744050980E-001;3.988813608884811E-002;3.232353774365038E-004;4.196431254968047E-004;
2.405333333333334E+009;1.871728450059891E-001;3.940243273973465E-002;2.956684620585293E-004;3.634516033343971E-004;
2.405500000000000E+009;1.884554475545883E-001;3.877434507012367E-002;1.638277026358992E-004;4.434019792824984E-004;
2.405666666666667E+009;1.897912174463272E-001;3.852396085858345E-002;2.811533631756902E-004;4.765453340951353E-004;
2.405833333333334E+009;1.909029483795166E-001;3.812810778617859E-002;1.225318555952981E-004;4.929305869154632E-004;
2.406000000000000E+009;1.917724460363388E-001;3.796274214982987E-002;5.605719707091339E-005;5.287857493385673E-004;
2.406166666666667E+009;1.928488165140152E-001;3.786103427410126E-002;1.886021636892110E-004;4.884652444161475E-004;
2.406333333333334E+009;1.936548650264740E-001;3.777364268898964E-002;1.862221834016964E-004;6.124589708633721E-004;
2.406500000000000E+009;1.944901496171951E-001;3.781534358859062E-002;2.732158754952252E-004;6.109511014074087E-004;
2.406666666666667E+009;1.950114965438843E-001;3.785773739218712E-002;3.680065565276891E-004;6.738976226188242E-004;
2.406833333333334E+009;1.953985095024109E-001;3.777527809143066E-002;2.595224359538406E-004;6.042319000698626E-004;
2.407000000000000E+009;1.957353949546814E-001;3.788254037499428E-002;3.983722999691963E-004;7.668252219446003E-004;
2.407166666666667E+009;1.961471587419510E-001;3.772777691483498E-002;5.545719177462161E-004;7.242313004098833E-004;
2.407333333333334E+009;1.960444599390030E-001;3.785128518939018E-002;5.481692496687174E-004;4.655513039324433E-004;
2.407500000000000E+009;1.959540247917175E-001;3.792536258697510E-002;7.416040170937777E-004;6.401204154826701E-004;
2.407666666666667E+009;1.959453970193863E-001;3.781932219862938E-002;6.504282937385142E-004;4.425466177053750E-004;
2.407833333333334E+009;1.954857558012009E-001;3.763221949338913E-002;5.688660894520581E-004;4.450092092156410E-004;
2.408000000000000E+009;1.954559683799744E-001;3.743898868560791E-002;6.109347450546920E-004;3.389535413589329E-004;
2.408166666666667E+009;1.947919577360153E-001;3.716428205370903E-002;7.452494464814663E-004;4.222180577926338E-004;
2.408333333333334E+009;1.942669749259949E-001;3.668020665645599E-002;5.747310351580381E-004;4.375555145088583E-004;
2.408500000000000E+009;1.937331706285477E-001;3.620078787207604E-002;6.583337089978159E-004;1.616450463188812E-004;
2.408666666666667E+009;1.930107623338699E-001;3.575605526566505E-002;7.795377168804407E-004;3.224929678253830E-004;
2.408833333333334E+009;1.923468858003616E-001;3.479520604014397E-002;6.298504304140806E-004;1.754707482177764E-004;
2.409000000000000E+009;1.914343386888504E-001;3.393064066767693E-002;6.614268640987575E-004;2.623969339765608E-004;
2.409166666666667E+009;1.905189454555512E-001;3.297470137476921E-002;7.448169053532183E-004;2.058970421785489E-004;
2.409333333333334E+009;1.894325613975525E-001;3.195362538099289E-002;7.775019621476531E-004;2.129360364051536E-004;
2.409500000000000E+009;1.883970499038696E-001;3.070195391774178E-002;8.359742350876331E-004;2.002277760766447E-004;
2.409666666666667E+009;1.875276565551758E-001;2.921602688729763E-002;6.868461496196687E-004;4.643411375582218E-005;
2.409833333333334E+009;1.865337640047073E-001;2.763000689446926E-002;8.467903826385737E-004;2.852275974873919E-005;
2.410000000000000E+009;1.854996979236603E-001;2.615278400480747E-002;9.069873485714197E-004;2.464333920215722E-005;
2.410166666666667E+009;1.845339238643646E-001;2.430474199354649E-002;8.224589983001351E-004;4.592446566675790E-005;
2.410333333333334E+009;1.836658120155335E-001;2.241071686148644E-002;7.632535416632891E-004;-1.905960816657171E-004;
2.410500000000000E+009;1.827232390642166E-001;2.039469406008720E-002;7.689181948080659E-004;-1.684099406702444E-004;
2.410666666666667E+009;1.818597614765167E-001;1.826445572078228E-002;8.583841845393181E-004;-2.864912967197597E-004;
2.410833333333334E+009;1.812778115272522E-001;1.604123227298260E-002;8.107563480734825E-004;-3.821697901003063E-004;
2.411000000000000E+009;1.805042624473572E-001;1.378948334604502E-002;7.609813474118710E-004;-3.283323603682220E-004;
2.411166666666667E+009;1.799178123474121E-001;1.165851019322872E-002;8.506643353030086E-004;-3.776553494390100E-004;
2.411333333333334E+009;1.795463114976883E-001;9.233383461833000E-003;7.951243314892054E-004;-4.493226297199726E-004;
2.411500000000000E+009;1.790798157453537E-001;6.950947456061840E-003;7.402776973322034E-004;-5.384673713706434E-004;
2.411666666666667E+009;1.788900643587112E-001;4.463621880859137E-003;6.751929176971316E-004;-7.207382586784661E-004;
2.411833333333334E+009;1.785123497247696E-001;2.064602915197611E-003;6.211888394318521E-004;-7.477778708562255E-004;
2.412000000000000E+009;1.786730587482452E-001;-4.949940484948456E-004;4.803088959306479E-004;-7.872142596170306E-004;
2.412166666666667E+009;1.786994040012360E-001;-2.712119836360216E-003;6.069799419492483E-004;-8.453648188151419E-004;
2.412333333333334E+009;1.790807992219925E-001;-5.251064896583557E-003;4.657208628486842E-004;-8.518516551703215E-004;
2.412500000000000E+009;1.794508844614029E-001;-7.836135104298592E-003;3.549731918610632E-004;-9.485149639658630E-004;
2.412666666666667E+009;1.798492372035980E-001;-1.010013651102781E-002;1.252349320566282E-004;-9.832726791501045E-004;
2.412833333333334E+009;1.805717498064041E-001;-1.246668118983507E-002;-4.600850843416993E-006;-9.779852116480470E-004;
2.413000000000000E+009;1.813835352659226E-001;-1.469005271792412E-002;-9.688981663202867E-005;-1.041052280925214E-003;
2.413166666666667E+009;1.821432858705521E-001;-1.711828447878361E-002;-2.605761110316962E-004;-9.131413535214961E-004;
2.413333333333334E+009;1.831462681293488E-001;-1.930992119014263E-002;-4.259504203218967E-004;-8.640985470265150E-004;
2.413500000000000E+009;1.838759034872055E-001;-2.158196456730366E-002;-5.131124635227025E-004;-9.077651193365455E-004;
2.413666666666667E+009;1.850609481334686E-001;-2.384482324123383E-002;-6.465785554610193E-004;-7.534854812547565E-004;
2.413833333333334E+009;1.859910339117050E-001;-2.578865177929401E-002;-6.280533270910382E-004;-7.453212747350335E-004;
2.414000000000000E+009;1.872040331363678E-001;-2.765021100640297E-002;-6.245854892767966E-004;-6.233442691154778E-004;
2.414166666666667E+009;1.883262991905212E-001;-2.947202138602734E-002;-6.196292815729976E-004;-4.484328383114189E-004;
2.414333333333334E+009;1.894044578075409E-001;-3.124086372554302E-002;-5.217593861743808E-004;-5.184728070162237E-004;
2.414500000000000E+009;1.905996948480606E-001;-3.286741673946381E-002;-5.766939138993621E-004;-5.001505487598479E-004;
2.414666666666667E+009;1.917278170585632E-001;-3.420550003647804E-002;-8.097981917671859E-004;-2.959127887152135E-004;
2.414833333333334E+009;1.929737180471420E-001;-3.557140007615089E-002;-7.605327409692109E-004;-3.793020150624216E-004;
2.415000000000000E+009;1.939960718154907E-001;-3.682313114404678E-002;-7.413355051539838E-004;-3.529100795276463E-004;
2.415166666666667E+009;1.951391100883484E-001;-3.792907297611237E-002;-8.511650958098471E-004;-2.158009156119078E-004;
2.415333333333334E+009;1.962192654609680E-001;-3.888630121946335E-002;-9.022770682349801E-004;-2.007748844334856E-005;
2.415500000000000E+009;1.972469091415405E-001;-3.953475132584572E-002;-8.728062966838479E-004;-8.522476855432615E-005;
2.415666666666667E+009;1.982794106006622E-001;-4.031490534543991E-002;-1.021568430587649E-003;1.687407930148765E-004;
2.415833333333334E+009;1.989834457635880E-001;-4.091259837150574E-002;-9.433423401787877E-004;3.110618272330612E-004;
2.416000000000000E+009;1.997939050197601E-001;-4.143202304840088E-002;-9.993918938562274E-004;3.098577144555748E-004;
2.416166666666667E+009;2.004548013210297E-001;-4.193525761365891E-002;-9.678757633082569E-004;5.282024503685534E-004;
2.416333333333334E+009;2.012199014425278E-001;-4.218178987503052E-002;-7.760832668282092E-004;6.171429995447397E-004;
2.416500000000000E+009;2.014449387788773E-001;-4.264411702752113E-002;-8.528619073331356E-004;8.072914206422865E-004;
2.416666666666667E+009;2.017004638910294E-001;-4.266203567385674E-002;-7.326173945330083E-004;8.013777551241219E-004;
2.416833333333334E+009;2.018588781356812E-001;-4.280052334070206E-002;-4.142746038269252E-004;9.033949463628233E-004;
2.417000000000000E+009;2.020597010850906E-001;-4.300513491034508E-002;-4.707120533566922E-004;1.073093852028251E-003;
2.417166666666667E+009;2.016824632883072E-001;-4.283284768462181E-002;-2.561001747380942E-004;9.322803234681487E-004;
2.417333333333334E+009;2.013815641403198E-001;-4.264172166585922E-002;-1.260369608644396E-004;1.045814366079867E-003;
2.417500000000000E+009;2.011170983314514E-001;-4.269294068217278E-002;2.619618499011267E-005;1.073583029210568E-003;
2.417666666666667E+009;2.005992084741592E-001;-4.252465814352036E-002;6.935748388059437E-005;1.166649046353996E-003;
2.417833333333334E+009;2.001297473907471E-001;-4.232102259993553E-002;2.216939756181091E-004;1.123125199228525E-003;
2.418000000000000E+009;1.994229555130005E-001;-4.218524694442749E-002;2.260695619042963E-004;9.922074386849999E-004;
2.418166666666667E+009;1.986621618270874E-001;-4.208458214998245E-002;3.175630990881473E-004;9.540052269585431E-004;
2.418333333333334E+009;1.977323591709137E-001;-4.188694432377815E-002;3.797188983298838E-004;9.691601735539734E-004;
2.418500000000000E+009;1.966765224933624E-001;-4.195187985897064E-002;4.980484372936189E-004;9.266689303331077E-004;
2.418666666666667E+009;1.957244724035263E-001;-4.190300777554512E-002;6.686173728667200E-004;7.789541850797832E-004;
2.418833333333334E+009;1.944871544837952E-001;-4.202811792492867E-002;6.273296312429011E-004;8.469225722365081E-004;
2.419000000000000E+009;1.933128088712692E-001;-4.226354137063026E-002;6.706404965370894E-004;7.403719937428832E-004;
2.419166666666667E+009;1.919004470109940E-001;-4.257721081376076E-002;7.476499886251986E-004;8.075279765762389E-004;
2.419333333333334E+009;1.905380934476852E-001;-4.314014688134193E-002;7.633449276909232E-004;5.706240772269666E-004;
2.419500000000000E+009;1.890759468078613E-001;-4.339695349335671E-002;7.414546562358737E-004;6.822335417382419E-004;
2.419666666666667E+009;1.876014620065689E-001;-4.430466517806053E-002;9.150959085673094E-004;5.434852791950107E-004;
2.419833333333334E+009;1.859489828348160E-001;-4.492956399917603E-002;9.177331230603159E-004;5.204953486099839E-004;
2.420000000000000E+009;1.845884770154953E-001;-4.577355459332466E-002;9.612368885427713E-004;4.451603163033724E-004;
2.420166666666667E+009;1.829753965139389E-001;-4.677489772439003E-002;1.019346411339939E-003;4.737889394164085E-004;
2.420333333333334E+009;1.814484447240830E-001;-4.798116162419319E-002;1.037782989442349E-003;2.029577590292320E-004;
2.420500000000000E+009;1.796634793281555E-001;-4.924158006906509E-002;1.071546110324562E-003;3.136026207357645E-004;
2.420666666666667E+009;1.781659275293350E-001;-5.041952803730965E-002;1.166626112535596E-003;1.200993647216819E-004;
2.420833333333334E+009;1.765923053026199E-001;-5.188084021210671E-002;1.312073320150375E-003;-9.470166332903318E-006;
2.421000000000000E+009;1.751383990049362E-001;-5.347113311290741E-002;1.362668233923614E-003;-8.554166561225429E-005;
2.421166666666667E+009;1.738447397947311E-001;-5.509888008236885E-002;1.369812176562846E-003;-1.696655817795545E-004;
2.421333333333334E+009;1.720449924468994E-001;-5.651011690497398E-002;1.236785668879747E-003;-3.683815884869546E-004;
2.421500000000000E+009;1.709517687559128E-001;-5.851393938064575E-002;1.299510709941387E-003;-4.500200739130378E-004;
2.421666666666667E+009;1.697154492139816E-001;-6.024172529578209E-002;1.289753243327141E-003;-5.531402421183884E-004;
2.421833333333334E+009;1.685872673988342E-001;-6.224772706627846E-002;1.276600756682456E-003;-5.810614675283432E-004;
2.422000000000000E+009;1.674825996160507E-001;-6.407267600297928E-002;1.182080013677478E-003;-7.699477719143033E-004;
2.422166666666667E+009;1.667322814464569E-001;-6.604450941085815E-002;1.041984418407083E-003;-8.610751829110086E-004;
2.422333333333334E+009;1.657455861568451E-001;-6.809983402490616E-002;9.494949481450021E-004;-1.039275317452848E-003;
2.422500000000000E+009;1.649627089500427E-001;-6.999845802783966E-002;9.155887528322637E-004;-1.228397828526795E-003;
2.422666666666667E+009;1.643978059291840E-001;-7.190007716417313E-002;7.775073172524571E-004;-1.271964865736663E-003;
2.422833333333334E+009;1.639744043350220E-001;-7.394616305828095E-002;5.652833497151732E-004;-1.437846687622368E-003;
2.423000000000000E+009;1.633961349725723E-001;-7.591183483600617E-002;3.899065486621112E-004;-1.463691703975201E-003;
2.423166666666667E+009;1.631026566028595E-001;-7.789995521306992E-002;1.691724173724651E-004;-1.474662567488849E-003;
2.423333333333334E+009;1.629377454519272E-001;-7.974584400653839E-002;1.741291780490428E-004;-1.478313701227307E-003;
2.423500000000000E+009;1.628294885158539E-001;-8.176366984844208E-002;-1.507184933871031E-004;-1.524257822893560E-003;
2.423666666666667E+009;1.629184484481812E-001;-8.360520005226135E-002;-3.270743764005601E-004;-1.346157514490187E-003;
2.423833333333334E+009;1.627207249403000E-001;-8.510161936283112E-002;-3.656695771496743E-004;-1.261459779925644E-003;
2.424000000000000E+009;1.629896312952042E-001;-8.684374392032623E-002;-3.131518897134811E-004;-1.278590760193765E-003;
2.424166666666667E+009;1.629541963338852E-001;-8.832195401191711E-002;-4.660599224735051E-004;-1.184405758976936E-003;
2.424333333333334E+009;1.632393598556519E-001;-8.990038186311722E-002;-7.751396042294800E-004;-1.047822297550738E-003;
2.424500000000000E+009;1.636100262403488E-001;-9.163258969783783E-002;-7.154456689022481E-004;-1.032627536915243E-003;
2.424666666666667E+009;1.637779772281647E-001;-9.304033219814301E-002;-6.721786921843886E-004;-7.373243570327759E-004;
2.424833333333334E+009;1.643245369195938E-001;-9.417956322431564E-002;-9.423543233424425E-004;-7.394569693133235E-004;
2.425000000000000E+009;1.647073030471802E-001;-9.551367163658142E-002;-8.954272489063442E-004;-7.055966998450458E-004;
2.425166666666667E+009;1.650951653718948E-001;-9.630778431892395E-002;-9.233484743162990E-004;-6.036927807144821E-004;
2.425333333333334E+009;1.654543131589890E-001;-9.743852913379669E-002;-1.063309959135950E-003;-6.130763795226812E-004;
2.425500000000000E+009;1.658448725938797E-001;-9.836310893297195E-002;-9.704669355414808E-004;-3.947379009332508E-004;
2.425666666666667E+009;1.663354337215424E-001;-9.893588721752167E-002;-1.088383723981679E-003;-4.111099697183818E-004;
2.425833333333334E+009;1.665448397397995E-001;-9.980213642120361E-002;-1.151276635937393E-003;-1.913747837534174E-004;
2.426000000000000E+009;1.669486016035080E-001;-1.002208366990089E-001;-1.093806116841734E-003;-4.477919355849735E-005;
2.426166666666667E+009;1.673467457294464E-001;-1.006394922733307E-001;-1.109974109567702E-003;-1.749669900164008E-005;
2.426333333333334E+009;1.674016863107681E-001;-1.012929081916809E-001;-1.082344911992550E-003;1.799318561097607E-004;
2.426500000000000E+009;1.678021103143692E-001;-1.015262305736542E-001;-9.716515196487308E-004;1.681226713117212E-004;
2.426666666666667E+009;1.681228429079056E-001;-1.017737910151482E-001;-8.767120307311416E-004;2.320212079212070E-004;
2.426833333333334E+009;1.683233976364136E-001;-1.020681634545326E-001;-9.759168606251478E-004;3.435953112784773E-004;
2.427000000000000E+009;1.682457923889160E-001;-1.022854074835777E-001;-8.015306666493416E-004;4.480379866436124E-004;
2.427166666666667E+009;1.683475673198700E-001;-1.024389564990997E-001;-8.170010405592620E-004;3.674583858810365E-004;
2.427333333333334E+009;1.680961549282074E-001;-1.026982441544533E-001;-7.787332870066166E-004;4.315988335292786E-004;
2.427500000000000E+009;1.678597331047058E-001;-1.028673425316811E-001;-6.090048118494451E-004;5.302019417285919E-004;
2.427666666666667E+009;1.676283925771713E-001;-1.029992848634720E-001;-6.824818556196988E-004;8.942133863456547E-004;
2.427833333333334E+009;1.672119498252869E-001;-1.031362041831017E-001;-5.933757056482136E-004;7.916723843663931E-004;
