# Version 1.00
#
freq[Hz];re:Trc1_S11;im:Trc1_S11;re:Trc2_S21;im:Trc2_S21;
2.400000000000000E+009;1.552140712738037E-001;6.156186014413834E-002;-2.548524644225836E-003;2.004154725000262E-003;
2.400166666666667E+009;1.550292819738388E-001;5.969420820474625E-002;-2.619048347696662E-003;2.258512424305081E-003;
2.400333333333334E+009;1.550641506910324E-001;5.750188603997231E-002;-2.201701747253537E-003;2.203471492975950E-003;
2.400500000000000E+009;1.551917046308518E-001;5.543369799852371E-002;-2.154957735911012E-003;2.364249201491475E-003;
2.400666666666667E+009;1.551614999771118E-001;5.318700894713402E-002;-2.020471962168813E-003;2.484562108293176E-003;
2.400833333333334E+009;1.555332243442535E-001;5.121525004506111E-002;-1.860063639469445E-003;2.454547910019755E-003;
2.401000000000000E+009;1.558146476745606E-001;4.902113229036331E-002;-1.816012430936098E-003;2.531134290620685E-003;
2.401166666666667E+009;1.562823653221130E-001;4.665822535753250E-002;-1.648294390179217E-003;2.671713940799236E-003;
2.401333333333334E+009;1.565697938203812E-001;4.447371140122414E-002;-1.562018762342632E-003;2.604912267997861E-003;
2.401500000000000E+009;1.572206318378449E-001;4.238922521471977E-002;-1.294971094466746E-003;2.737992210313678E-003;
2.401666666666667E+009;1.577210128307343E-001;4.026720300316811E-002;-1.277645467780531E-003;2.629747148603201E-003;
2.401833333333334E+009;1.584162265062332E-001;3.812087327241898E-002;-1.191187649965286E-003;2.638493897393346E-003;
2.402000000000000E+009;1.590203493833542E-001;3.626251593232155E-002;-8.907228475436568E-004;2.517965622246265E-003;
2.402166666666667E+009;1.597584486007690E-001;3.403985872864723E-002;-8.075755904428661E-004;2.618607599288225E-003;
2.402333333333334E+009;1.606478393077850E-001;3.226668387651444E-002;-5.272994167171419E-004;2.493532607331872E-003;
2.402500000000000E+009;1.617750525474548E-001;3.064478561282158E-002;-3.558505850378424E-004;2.565951086580753E-003;
2.402666666666667E+009;1.625779569149017E-001;2.900321409106255E-002;-3.706929855979979E-004;2.477658446878195E-003;
2.402833333333334E+009;1.633293479681015E-001;2.719763480126858E-002;-1.336040586465970E-004;2.347492147237063E-003;
2.403000000000000E+009;1.646414697170258E-001;2.569883689284325E-002;-4.142024408793077E-005;2.153543056920171E-003;
2.403166666666667E+009;1.654732376337051E-001;2.431602403521538E-002;8.089773473329842E-006;2.084500156342983E-003;
2.403333333333334E+009;1.667668372392654E-001;2.297997102141380E-002;1.520835794508457E-004;1.987130381166935E-003;
2.403500000000000E+009;1.677120476961136E-001;2.165535464882851E-002;2.006839931709692E-004;1.948032295331359E-003;
2.403666666666667E+009;1.688754409551621E-001;2.027694880962372E-002;2.272474521305412E-004;1.759517006576061E-003;
2.403833333333334E+009;1.700521558523178E-001;1.938932575285435E-002;3.557400195859373E-004;1.764639397151768E-003;
2.404000000000000E+009;1.712879836559296E-001;1.847188360989094E-002;3.041840391233563E-004;1.621250296011567E-003;
2.404166666666667E+009;1.720940172672272E-001;1.738061942160130E-002;2.085832529701293E-004;1.662536873482168E-003;
2.404333333333334E+009;1.731780618429184E-001;1.668031699955463E-002;3.945252101402730E-004;1.319255447015166E-003;
2.404500000000000E+009;1.742536425590515E-001;1.603780686855316E-002;3.748408053070307E-004;1.212887349538505E-003;
2.404666666666667E+009;1.752330511808395E-001;1.534284651279450E-002;3.666813718155026E-004;1.358659123070538E-003;
2.404833333333334E+009;1.761394888162613E-001;1.472233328968287E-002;4.346295609138906E-004;1.152288750745356E-003;
2.405000000000000E+009;1.769854426383972E-001;1.446560304611921E-002;2.983658632729203E-004;1.035601948387921E-003;
2.405166666666667E+009;1.778580099344254E-001;1.394199114292860E-002;4.707517800852656E-004;1.030586310662329E-003;
2.405333333333334E+009;1.785698533058167E-001;1.336922310292721E-002;3.548560780473054E-004;1.061406917870045E-003;
2.405500000000000E+009;1.791710406541824E-001;1.341573987156153E-002;3.515598364174366E-004;9.557572193443775E-004;
2.405666666666667E+009;1.797220855951309E-001;1.315359584987164E-002;2.089149056700990E-004;1.051205559633672E-003;
2.405833333333334E+009;1.801052838563919E-001;1.298245694488287E-002;2.415044000372291E-004;8.953294018283486E-004;
2.406000000000000E+009;1.805980950593948E-001;1.268971245735884E-002;2.418291260255501E-004;8.921328699216247E-004;
2.406166666666667E+009;1.807541698217392E-001;1.268623583018780E-002;2.046528388746083E-004;7.911381544545293E-004;
2.406333333333334E+009;1.810687482357025E-001;1.254237256944180E-002;1.268735068151727E-004;7.591051980853081E-004;
2.406500000000000E+009;1.811502426862717E-001;1.219592522829771E-002;2.246566436951980E-004;9.826377499848604E-004;
2.406666666666667E+009;1.810320019721985E-001;1.217036042362452E-002;1.592419575899839E-004;8.690372342243791E-004;
2.406833333333334E+009;1.810200065374374E-001;1.201882306486368E-002;2.406151761533693E-004;7.563531980849803E-004;
2.407000000000000E+009;1.809841841459274E-001;1.184303220361471E-002;1.076125190593302E-004;7.726147305220366E-004;
2.407166666666667E+009;1.809045672416687E-001;1.149672456085682E-002;2.652246621437371E-004;7.450723787769675E-004;
2.407333333333334E+009;1.803240478038788E-001;1.105836220085621E-002;3.149439726257697E-005;7.845255313441157E-004;
2.407500000000000E+009;1.798985153436661E-001;1.077282708138228E-002;1.038792106555775E-004;8.569139754399657E-004;
2.407666666666667E+009;1.794764846563339E-001;1.040467340499163E-002;1.471276918891817E-004;8.115507080219686E-004;
2.407833333333334E+009;1.789067685604096E-001;9.781082160770893E-003;2.206032077083364E-004;7.557545905001462E-004;
2.408000000000000E+009;1.782818585634232E-001;9.089958854019642E-003;2.362102968618274E-004;7.851333357393742E-004;
2.408166666666667E+009;1.776248514652252E-001;8.449577726423740E-003;8.573318336857483E-005;6.490084342658520E-004;
2.408333333333334E+009;1.770172119140625E-001;7.565124891698360E-003;2.272921992698684E-004;7.741446606814861E-004;
2.408500000000000E+009;1.762072592973709E-001;6.595277693122625E-003;1.444431400159374E-004;4.934639437124133E-004;
2.408666666666667E+009;1.755223572254181E-001;5.617999006062746E-003;2.529872581362724E-004;6.304941489361227E-004;
2.408833333333334E+009;1.745642423629761E-001;4.428077489137650E-003;2.800115616992116E-004;7.684830925427377E-004;
2.409000000000000E+009;1.737511307001114E-001;3.342506708577275E-003;2.264886861667037E-004;4.953201860189438E-004;
2.409166666666667E+009;1.729851961135864E-001;2.031968440860510E-003;2.060069236904383E-004;5.797006306238473E-004;
2.409333333333334E+009;1.723155230283737E-001;4.579389642458409E-004;8.130810601869598E-005;5.495633813552558E-004;
2.409500000000000E+009;1.713911443948746E-001;-1.050658058375120E-003;2.162262244382873E-004;3.936256398446858E-004;
2.409666666666667E+009;1.707491576671600E-001;-2.768060192465782E-003;2.096639655064791E-004;4.153379704803228E-004;
2.409833333333334E+009;1.698364764451981E-001;-4.282847978174686E-003;1.768702350091189E-004;3.103399358224124E-004;
2.410000000000000E+009;1.693042069673538E-001;-6.075043231248856E-003;1.038473128573969E-004;4.344057233538479E-004;
2.410166666666667E+009;1.686846166849136E-001;-7.924008183181286E-003;2.353539748582989E-004;3.203302039764822E-004;
2.410333333333334E+009;1.680225729942322E-001;-9.569468908011913E-003;5.774682358605787E-005;1.443382498109713E-004;
2.410500000000000E+009;1.676347106695175E-001;-1.167452894151211E-002;-5.043878627475351E-005;2.983454614877701E-004;
2.410666666666667E+009;1.671762317419052E-001;-1.374510116875172E-002;-5.234663331066258E-005;2.222229231847450E-004;
2.410833333333334E+009;1.668561547994614E-001;-1.556646265089512E-002;-1.892127911560237E-004;1.979441440198571E-004;
2.411000000000000E+009;1.666225045919418E-001;-1.775558851659298E-002;-1.459696650272235E-004;8.486563456244767E-005;
2.411166666666667E+009;1.663609147071838E-001;-1.994380168616772E-002;-1.996579958358780E-004;2.146552724298090E-004;
2.411333333333334E+009;1.662788689136505E-001;-2.186263911426067E-002;-2.295411832164973E-004;1.919279602589086E-004;
2.411500000000000E+009;1.661896854639053E-001;-2.417595498263836E-002;-4.384779895190150E-004;2.512868086341769E-004;
2.411666666666667E+009;1.664000004529953E-001;-2.611246891319752E-002;-3.718040534295142E-004;1.896822504932061E-004;
2.411833333333334E+009;1.666398346424103E-001;-2.819251455366612E-002;-3.738816885743290E-004;1.896411995403469E-004;
2.412000000000000E+009;1.668206900358200E-001;-3.025468252599239E-002;-4.897535545751452E-004;2.593337849248201E-004;
2.412166666666667E+009;1.672394722700119E-001;-3.231268376111984E-002;-4.787906364072114E-004;3.047545615117997E-004;
2.412333333333334E+009;1.678545027971268E-001;-3.430607914924622E-002;-4.875472222920507E-004;2.622456522658467E-004;
2.412500000000000E+009;1.679080426692963E-001;-3.615746274590492E-002;-6.989783723838627E-004;2.806018455885351E-004;
2.412666666666667E+009;1.685661971569061E-001;-3.826959803700447E-002;-5.833593313582242E-004;3.988906973972917E-004;
2.412833333333334E+009;1.693647950887680E-001;-4.016649350523949E-002;-7.356440182775259E-004;6.190506974235177E-004;
2.413000000000000E+009;1.697641760110855E-001;-4.179034382104874E-002;-8.367312839254737E-004;5.846218555234373E-004;
2.413166666666667E+009;1.703201979398727E-001;-4.347882047295570E-002;-1.047450001351535E-003;5.331384018063545E-004;
2.413333333333334E+009;1.710419803857803E-001;-4.520525038242340E-002;-8.665861678309739E-004;7.325905025936663E-004;
2.413500000000000E+009;1.718911975622177E-001;-4.682550951838493E-002;-8.103177533484995E-004;5.772661534138024E-004;
2.413666666666667E+009;1.726752370595932E-001;-4.815874993801117E-002;-6.761526456102729E-004;8.467268780805171E-004;
2.413833333333334E+009;1.733373403549194E-001;-4.946178942918778E-002;-7.593909977003932E-004;8.405669359490275E-004;
2.414000000000000E+009;1.739023327827454E-001;-5.091081187129021E-002;-8.911057957448065E-004;8.161755977198482E-004;
2.414166666666667E+009;1.747039109468460E-001;-5.192361027002335E-002;-8.830701699480414E-004;9.799466934055090E-004;
2.414333333333334E+009;1.752656549215317E-001;-5.315533280372620E-002;-7.737024570815265E-004;8.402362582273781E-004;
2.414500000000000E+009;1.762257665395737E-001;-5.390790477395058E-002;-8.653470431454480E-004;1.194387790746987E-003;
2.414666666666667E+009;1.766634583473206E-001;-5.485227704048157E-002;-7.871003472246230E-004;1.223773579113185E-003;
2.414833333333334E+009;1.773284524679184E-001;-5.578511953353882E-002;-7.719668210484088E-004;1.287332386709750E-003;
2.415000000000000E+009;1.776469498872757E-001;-5.635167658329010E-002;-7.456482271663845E-004;1.424716319888830E-003;
2.415166666666667E+009;1.781247258186340E-001;-5.696126818656921E-002;-7.335531990975142E-004;1.458241255022585E-003;
2.415333333333334E+009;1.786945909261704E-001;-5.734520778059959E-002;-7.260569254867733E-004;1.451723510399461E-003;
2.415500000000000E+009;1.789575070142746E-001;-5.779325217008591E-002;-5.749114789068699E-004;1.587146776728332E-003;
2.415666666666667E+009;1.792009025812149E-001;-5.805058032274246E-002;-7.147685973905027E-004;1.687755109742284E-003;
2.415833333333334E+009;1.793755739927292E-001;-5.836234614253044E-002;-6.350679323077202E-004;1.620016177184880E-003;
2.416000000000000E+009;1.792441606521606E-001;-5.848791077733040E-002;-4.024173249490559E-004;1.862535020336509E-003;
2.416166666666667E+009;1.794262379407883E-001;-5.873465910553932E-002;-3.907196223735809E-004;1.734217978082597E-003;
2.416333333333334E+009;1.792767494916916E-001;-5.888966470956802E-002;-2.987823099829257E-004;1.912998268380761E-003;
2.416500000000000E+009;1.790343225002289E-001;-5.891638249158859E-002;-4.543895774986595E-004;1.784988795407116E-003;
2.416666666666667E+009;1.785902976989746E-001;-5.895310640335083E-002;-2.798650239128619E-004;1.864259131252766E-003;
2.416833333333334E+009;1.783238947391510E-001;-5.916411429643631E-002;-1.021052303258330E-004;1.896819798275828E-003;
2.417000000000000E+009;1.775677055120468E-001;-5.919502303004265E-002;-1.525166007922962E-004;2.044232329353690E-003;
2.417166666666667E+009;1.771143823862076E-001;-5.913223698735237E-002;-6.273749022511765E-005;2.040935447439551E-003;
2.417333333333334E+009;1.763713806867600E-001;-5.922510102391243E-002;4.705384344561026E-005;2.164265606552362E-003;
2.417500000000000E+009;1.754855513572693E-001;-5.955991894006729E-002;1.245661696884781E-004;2.019416308030486E-003;
2.417666666666667E+009;1.746539324522018E-001;-5.955619737505913E-002;2.536659303586930E-004;2.043508458882570E-003;
2.417833333333334E+009;1.736207008361816E-001;-5.983944609761238E-002;3.209739516023547E-004;2.107606036588550E-003;
2.418000000000000E+009;1.724317371845245E-001;-6.028378754854202E-002;2.867974690161645E-004;2.194187371060252E-003;
2.418166666666667E+009;1.712637096643448E-001;-6.039471551775932E-002;3.693921025842428E-004;2.226156415417790E-003;
2.418333333333334E+009;1.703860312700272E-001;-6.092652305960655E-002;5.785514367744327E-004;2.240564441308379E-003;
2.418500000000000E+009;1.689716428518295E-001;-6.135848164558411E-002;6.511003011837602E-004;2.123314887285233E-003;
2.418666666666667E+009;1.677151173353195E-001;-6.184644252061844E-002;5.352575681172311E-004;2.197534544393420E-003;
2.418833333333334E+009;1.663359701633453E-001;-6.247957795858383E-002;7.666409364901483E-004;2.168380189687014E-003;
2.419000000000000E+009;1.648227125406265E-001;-6.327296793460846E-002;8.458953234367073E-004;2.313934033736587E-003;
2.419166666666667E+009;1.634964197874069E-001;-6.410901993513107E-002;1.008254359476268E-003;2.200611168518663E-003;
2.419333333333334E+009;1.620738804340363E-001;-6.476634740829468E-002;8.686861838214099E-004;2.146305050700903E-003;
2.419500000000000E+009;1.607916951179504E-001;-6.594067066907883E-002;1.046694349497557E-003;2.045721979811788E-003;
2.419666666666667E+009;1.596525758504868E-001;-6.710792332887650E-002;1.235658652149141E-003;2.067829947918654E-003;
2.419833333333334E+009;1.582286506891251E-001;-6.797716021537781E-002;1.386521733365953E-003;2.080621197819710E-003;
2.420000000000000E+009;1.571092754602432E-001;-6.937682628631592E-002;1.337099471129477E-003;2.016046084463596E-003;
2.420166666666667E+009;1.558691114187241E-001;-7.058657705783844E-002;1.620420487597585E-003;1.997818006202579E-003;
2.420333333333334E+009;1.546127349138260E-001;-7.190897315740585E-002;1.527667976915836E-003;1.855592592619360E-003;
2.420500000000000E+009;1.538349241018295E-001;-7.345504313707352E-002;1.709890784695745E-003;1.834770082496107E-003;
2.420666666666667E+009;1.526732295751572E-001;-7.477357238531113E-002;1.846720115281642E-003;1.907243742607534E-003;
2.420833333333334E+009;1.518297344446182E-001;-7.652217149734497E-002;1.794440206140280E-003;1.702330424450338E-003;
2.421000000000000E+009;1.509944200515747E-001;-7.817192375659943E-002;1.919066300615668E-003;1.626659766770899E-003;
2.421166666666667E+009;1.503790169954300E-001;-7.977364212274551E-002;1.962150447070599E-003;1.636067638173699E-003;
2.421333333333334E+009;1.496666967868805E-001;-8.163546770811081E-002;2.148290164768696E-003;1.431137905456126E-003;
2.421500000000000E+009;1.490232050418854E-001;-8.334105461835861E-002;2.174487570300698E-003;1.432657125405967E-003;
2.421666666666667E+009;1.486847400665283E-001;-8.508331328630447E-002;2.179352799430490E-003;1.319814939051867E-003;
2.421833333333334E+009;1.484414190053940E-001;-8.694954961538315E-002;2.180484822019935E-003;1.066680299118161E-003;
2.422000000000000E+009;1.480166465044022E-001;-8.870446681976318E-002;2.214561915025115E-003;1.075661508366466E-003;
2.422166666666667E+009;1.479688882827759E-001;-9.081632643938065E-002;2.286304719746113E-003;9.171395213343203E-004;
2.422333333333334E+009;1.480165421962738E-001;-9.245071560144424E-002;2.269448945298791E-003;7.331132073886693E-004;
2.422500000000000E+009;1.479693353176117E-001;-9.411321580410004E-002;2.401351695880294E-003;7.058247574605048E-004;
2.422666666666667E+009;1.479338556528091E-001;-9.599567204713821E-002;2.262450987473130E-003;5.102184368297458E-004;
2.422833333333334E+009;1.483738273382187E-001;-9.780313819646835E-002;2.320931060239673E-003;4.362173203844577E-004;
2.423000000000000E+009;1.485809683799744E-001;-9.936816990375519E-002;2.323459135368466E-003;4.701640864368528E-004;
2.423166666666667E+009;1.491881161928177E-001;-1.009598374366760E-001;2.296882448717952E-003;1.620218245079741E-004;
2.423333333333334E+009;1.496677547693253E-001;-1.023072451353073E-001;2.117791678756475E-003;1.583003904670477E-004;
2.423500000000000E+009;1.499829143285751E-001;-1.039979234337807E-001;2.147209132090211E-003;1.412266137776896E-004;
2.423666666666667E+009;1.504068672657013E-001;-1.054664403200150E-001;2.177631016820669E-003;1.373500417685136E-004;
2.423833333333334E+009;1.512918770313263E-001;-1.068677306175232E-001;2.203572075814009E-003;-4.044653451273916E-006;
2.424000000000000E+009;1.516521871089935E-001;-1.079656779766083E-001;2.095795702189207E-003;-1.538958895253018E-004;
2.424166666666667E+009;1.522971689701080E-001;-1.092299595475197E-001;2.081895479932427E-003;-1.090682271751575E-004;
2.424333333333334E+009;1.530270278453827E-001;-1.102324351668358E-001;1.814115908928216E-003;-1.911211002152413E-004;
2.424500000000000E+009;1.537007093429565E-001;-1.113240644335747E-001;1.936623826622963E-003;-3.865354519803077E-004;
2.424666666666667E+009;1.543841958045960E-001;-1.120879054069519E-001;1.743832952342928E-003;-3.777443198487163E-004;
2.424833333333334E+009;1.547409594058991E-001;-1.130203306674957E-001;1.832413370721042E-003;-4.652736242860556E-004;
2.425000000000000E+009;1.554848551750183E-001;-1.138240322470665E-001;1.790997805073857E-003;-3.592047432903200E-004;
2.425166666666667E+009;1.558139771223068E-001;-1.145054996013641E-001;1.765457214787602E-003;-3.453360113780946E-004;
2.425333333333334E+009;1.564008891582489E-001;-1.150643974542618E-001;1.687726238742471E-003;-4.759343864861876E-004;
2.425500000000000E+009;1.568736881017685E-001;-1.155010014772415E-001;1.469052978791297E-003;-5.246177897788584E-004;
2.425666666666667E+009;1.570034325122833E-001;-1.160331144928932E-001;1.530472189188004E-003;-4.313990648370236E-004;
2.425833333333334E+009;1.574773043394089E-001;-1.163887679576874E-001;1.408315962180495E-003;-6.028004572726786E-004;
2.426000000000000E+009;1.575154960155487E-001;-1.166764497756958E-001;1.431522076018155E-003;-4.491666331887245E-004;
2.426166666666667E+009;1.578777730464935E-001;-1.168965548276901E-001;1.503407489508390E-003;-4.156672221142799E-004;
2.426333333333334E+009;1.576712578535080E-001;-1.170975416898727E-001;1.501247286796570E-003;-3.648003621492535E-004;
2.426500000000000E+009;1.576701849699020E-001;-1.171321645379067E-001;1.321442658081651E-003;-5.592866218648851E-004;
2.426666666666667E+009;1.576653569936752E-001;-1.170466914772987E-001;1.273425645194948E-003;-3.863723541144282E-004;
2.426833333333334E+009;1.573354452848434E-001;-1.171623393893242E-001;1.372871687635779E-003;-2.937650715466589E-004;
2.427000000000000E+009;1.569316983222961E-001;-1.172633841633797E-001;1.398670370690525E-003;-3.579669573809952E-004;
2.427166666666667E+009;1.564261764287949E-001;-1.170910894870758E-001;1.128115574829280E-003;-2.955892414320260E-004;
2.427333333333334E+009;1.557834148406982E-001;-1.171223595738411E-001;1.183249987661839E-003;-4.251349600963295E-004;
2.427500000000000E+009;1.551909446716309E-001;-1.172009557485580E-001;1.459708088077605E-003;-3.229794383514673E-004;
2.427666666666667E+009;1.543865203857422E-001;-1.172849312424660E-001;1.256485003978014E-003;-3.730971366167069E-004;
2.427833333333334E+009;1.533489525318146E-001;-1.172306686639786E-001;1.398269669152796E-003;-1.869056286523119E-004;
