# Version 1.00
#
freq[Hz];re:Trc1_S11;im:Trc1_S11;re:Trc2_S21;im:Trc2_S21;
2.400000000000000E+009;1.552727073431015E-001;6.152630597352982E-002;-2.515875035896897E-003;2.141080098226667E-003;
2.400166666666667E+009;1.551608890295029E-001;5.956789106130600E-002;-2.456825226545334E-003;2.093362389132381E-003;
2.400333333333334E+009;1.552540212869644E-001;5.749327689409256E-002;-2.288065385073423E-003;2.314910525456071E-003;
2.400500000000000E+009;1.552060693502426E-001;5.546863749623299E-002;-2.195564797148109E-003;2.377415075898171E-003;
2.400666666666667E+009;1.554255634546280E-001;5.315797775983810E-002;-2.069358248263598E-003;2.414251212030649E-003;
2.400833333333334E+009;1.557794511318207E-001;5.090244114398956E-002;-1.891504274681211E-003;2.369530266150832E-003;
2.401000000000000E+009;1.558518558740616E-001;4.880451038479805E-002;-1.758944708853960E-003;2.436302136629820E-003;
2.401166666666667E+009;1.562155932188034E-001;4.664568975567818E-002;-1.645502750761807E-003;2.538420958444476E-003;
2.401333333333334E+009;1.565884500741959E-001;4.448049142956734E-002;-1.477946178056300E-003;2.590952673926950E-003;
2.401500000000000E+009;1.573620736598969E-001;4.226054623723030E-002;-1.361439470201731E-003;2.636088291183114E-003;
2.401666666666667E+009;1.578890383243561E-001;4.031835496425629E-002;-1.048496225848794E-003;2.738647628575563E-003;
2.401833333333334E+009;1.582297384738922E-001;3.813225030899048E-002;-1.036830130033195E-003;2.647132147103548E-003;
2.402000000000000E+009;1.589648872613907E-001;3.599110245704651E-002;-8.998193661682308E-004;2.685202518478036E-003;
2.402166666666667E+009;1.598097234964371E-001;3.386152908205986E-002;-8.456573123112321E-004;2.608642214909196E-003;
2.402333333333334E+009;1.606354266405106E-001;3.217634186148644E-002;-6.391478236764669E-004;2.481109229847789E-003;
2.402500000000000E+009;1.617518514394760E-001;3.048404119908810E-002;-4.860828630626202E-004;2.587882801890373E-003;
2.402666666666667E+009;1.625226140022278E-001;2.873829565942287E-002;-3.921495808754116E-004;2.386786276474595E-003;
2.402833333333334E+009;1.634947806596756E-001;2.711874246597290E-002;-2.011380820476916E-005;2.234445419162512E-003;
2.403000000000000E+009;1.644788831472397E-001;2.564917132258415E-002;-1.827789856179152E-005;2.247003605589271E-003;
2.403166666666667E+009;1.656539887189865E-001;2.400932461023331E-002;1.298320275964215E-004;2.112073823809624E-003;
2.403333333333334E+009;1.666899174451828E-001;2.276286296546459E-002;3.635171378846280E-005;2.043135697022080E-003;
2.403500000000000E+009;1.677183508872986E-001;2.162687666714191E-002;5.993912054691464E-005;1.985813491046429E-003;
2.403666666666667E+009;1.688708811998367E-001;2.047278359532356E-002;2.240831236122176E-004;1.854727161116898E-003;
2.403833333333334E+009;1.701346784830093E-001;1.931148022413254E-002;2.420428791083396E-004;1.579241827130318E-003;
2.404000000000000E+009;1.710307598114014E-001;1.829300634562969E-002;2.346412657061592E-004;1.527477637864649E-003;
2.404166666666667E+009;1.720470488071442E-001;1.734715513885021E-002;2.746307873167098E-004;1.637978479266167E-003;
2.404333333333334E+009;1.732725054025650E-001;1.684833876788616E-002;3.436545957811177E-004;1.482741092331708E-003;
2.404500000000000E+009;1.741652488708496E-001;1.591245457530022E-002;4.178343224339187E-004;1.434692647308111E-003;
2.404666666666667E+009;1.751741468906403E-001;1.531804911792278E-002;4.803269112017006E-004;1.487899688072503E-003;
2.404833333333334E+009;1.761251837015152E-001;1.478971913456917E-002;1.944901741808280E-004;1.052855979651213E-003;
2.405000000000000E+009;1.769523769617081E-001;1.429827045649290E-002;2.860646345652640E-004;1.036158064380288E-003;
2.405166666666667E+009;1.778265982866287E-001;1.386610604822636E-002;2.582882007118315E-004;1.105384551919997E-003;
2.405333333333334E+009;1.786067336797714E-001;1.342851482331753E-002;3.464718465693295E-004;1.077142544090748E-003;
2.405500000000000E+009;1.792597025632858E-001;1.330302190035582E-002;3.000386059284210E-004;9.001929429359734E-004;
2.405666666666667E+009;1.797085851430893E-001;1.304572634398937E-002;2.386585692875087E-004;8.746181847527623E-004;
2.405833333333334E+009;1.800441443920136E-001;1.301508396863937E-002;3.045103803742677E-004;9.785386500880122E-004;
2.406000000000000E+009;1.806347072124481E-001;1.266566757112742E-002;2.732155553530902E-004;8.596586994826794E-004;
2.406166666666667E+009;1.807955503463745E-001;1.257459167391062E-002;2.686646184884012E-004;8.721909835003316E-004;
2.406333333333334E+009;1.810881048440933E-001;1.252358127385378E-002;3.327170270495117E-004;6.968812667764723E-004;
2.406500000000000E+009;1.811494678258896E-001;1.236514188349247E-002;1.302518212469295E-004;1.036911853589118E-003;
2.406666666666667E+009;1.810475140810013E-001;1.230091322213411E-002;2.327874390175566E-004;7.514227181673050E-004;
2.406833333333334E+009;1.811577379703522E-001;1.192881166934967E-002;3.566057421267033E-005;5.975019303150475E-004;
2.407000000000000E+009;1.809719204902649E-001;1.180060673505068E-002;1.789994712453336E-004;7.817432051524520E-004;
2.407166666666667E+009;1.808297932147980E-001;1.143818534910679E-002;1.986722636502236E-004;7.032658904790878E-004;
2.407333333333334E+009;1.803525537252426E-001;1.094376854598522E-002;2.127458283212036E-004;6.506773061119020E-004;
2.407500000000000E+009;1.799675077199936E-001;1.061693858355284E-002;2.665421925485134E-004;7.201996631920338E-004;
2.407666666666667E+009;1.796477735042572E-001;1.032640505582094E-002;1.002788849291392E-004;6.200723000802100E-004;
2.407833333333334E+009;1.787666678428650E-001;9.648950770497322E-003;1.443917135475203E-004;8.239519665949047E-004;
2.408000000000000E+009;1.783224344253540E-001;8.964388631284237E-003;1.827768137445673E-004;5.714194267056882E-004;
2.408166666666667E+009;1.776340603828430E-001;8.414976298809052E-003;2.547659678384662E-004;4.528975405264646E-004;
2.408333333333334E+009;1.770655661821365E-001;7.384049240499735E-003;2.470062463544309E-004;6.272274767979980E-004;
2.408500000000000E+009;1.761548966169357E-001;6.436445284634829E-003;2.663795312400907E-004;5.233971169218421E-004;
2.408666666666667E+009;1.754529625177383E-001;5.606083199381828E-003;2.944350708276033E-004;6.237743073143065E-004;
2.408833333333334E+009;1.745358258485794E-001;4.402502439916134E-003;2.257545129396021E-004;4.879831103608012E-004;
2.409000000000000E+009;1.737572550773621E-001;3.237849334254861E-003;3.390609053894877E-004;4.523350798990578E-004;
2.409166666666667E+009;1.730472594499588E-001;1.916115870699287E-003;8.148646884365007E-005;3.745691792573780E-004;
2.409333333333334E+009;1.722822338342667E-001;3.825685416813940E-004;2.223625779151917E-004;4.032809520140290E-004;
2.409500000000000E+009;1.714523285627365E-001;-1.179518410935998E-003;1.773311378201470E-004;3.021893498953432E-004;
2.409666666666667E+009;1.705170869827271E-001;-2.650004811584950E-003;6.722220859955996E-005;3.576376475393772E-004;
2.409833333333334E+009;1.698191165924072E-001;-4.249932710081339E-003;2.923360807471909E-005;2.627638168632984E-004;
2.410000000000000E+009;1.693075448274612E-001;-5.978072993457317E-003;-4.865467417403124E-005;3.269419830758125E-004;
2.410166666666667E+009;1.686221063137054E-001;-8.039886131882668E-003;-8.444757986580953E-005;2.641292230691761E-004;
2.410333333333334E+009;1.680022925138474E-001;-9.748769924044609E-003;-6.149863475002348E-005;2.153551467927173E-004;
2.410500000000000E+009;1.675692498683929E-001;-1.156245823949575E-002;3.867847044602968E-005;3.462837485130876E-004;
2.410666666666667E+009;1.670247316360474E-001;-1.372247748076916E-002;-9.761223918758333E-005;2.473625354468823E-004;
2.410833333333334E+009;1.669867485761643E-001;-1.568064652383328E-002;-5.965992386336438E-005;2.587299386505038E-004;
2.411000000000000E+009;1.665004491806030E-001;-1.768916100263596E-002;-1.103569738916121E-004;1.752389944158495E-004;
2.411166666666667E+009;1.663500964641571E-001;-1.988259330391884E-002;-2.727898245211691E-004;1.259369892068207E-004;
2.411333333333334E+009;1.663608103990555E-001;-2.197849750518799E-002;-2.426282444503158E-004;2.946687745861709E-004;
2.411500000000000E+009;1.662226617336273E-001;-2.414597570896149E-002;-2.816123305819929E-004;2.408641157671809E-004;
2.411666666666667E+009;1.662371754646301E-001;-2.623297460377216E-002;-3.337741072755307E-004;2.535296371206641E-004;
2.411833333333334E+009;1.664898544549942E-001;-2.824668399989605E-002;-4.214519285596907E-004;3.355606168042868E-004;
2.412000000000000E+009;1.669207364320755E-001;-3.021986782550812E-002;-4.928737762384117E-004;2.284766233060509E-004;
2.412166666666667E+009;1.670845896005631E-001;-3.235749900341034E-002;-5.655546556226909E-004;3.050257801078260E-004;
2.412333333333334E+009;1.678102761507034E-001;-3.423266857862473E-002;-5.881376564502716E-004;2.466592995915562E-004;
2.412500000000000E+009;1.680196970701218E-001;-3.614368289709091E-002;-7.284719031304121E-004;3.354070067871362E-004;
2.412666666666667E+009;1.686913520097733E-001;-3.820777684450150E-002;-6.695885676890612E-004;3.897566639352590E-004;
2.412833333333334E+009;1.692655533552170E-001;-4.001076146960259E-002;-7.044838275760412E-004;4.494188469834626E-004;
2.413000000000000E+009;1.697333753108978E-001;-4.177810996770859E-002;-8.613387471996248E-004;4.701103898696601E-004;
2.413166666666667E+009;1.705305278301239E-001;-4.356191307306290E-002;-9.104174678213894E-004;6.638072663918138E-004;
2.413333333333334E+009;1.710696518421173E-001;-4.518801718950272E-002;-8.162399171851575E-004;5.716693704016507E-004;
2.413500000000000E+009;1.718802303075790E-001;-4.674684628844261E-002;-8.424052502959967E-004;7.357774302363396E-004;
2.413666666666667E+009;1.724620908498764E-001;-4.821804910898209E-002;-7.433500722981989E-004;8.719140314497054E-004;
2.413833333333334E+009;1.733354330062866E-001;-4.940703511238098E-002;-8.331158314831555E-004;8.191854576580226E-004;
2.414000000000000E+009;1.738567650318146E-001;-5.082954838871956E-002;-7.018372998572886E-004;1.019767718389630E-003;
2.414166666666667E+009;1.748005151748657E-001;-5.196630954742432E-002;-8.313579601235688E-004;1.151539734564722E-003;
2.414333333333334E+009;1.753254234790802E-001;-5.306180566549301E-002;-8.269252721220255E-004;1.006747363135219E-003;
2.414500000000000E+009;1.762040853500366E-001;-5.380350351333618E-002;-8.728104294277728E-004;9.876383701339364E-004;
2.414666666666667E+009;1.767820864915848E-001;-5.468750745058060E-002;-7.039936608634889E-004;1.188165158964694E-003;
2.414833333333334E+009;1.772317886352539E-001;-5.553893744945526E-002;-8.446681313216686E-004;1.213165814988315E-003;
2.415000000000000E+009;1.777546703815460E-001;-5.610027909278870E-002;-8.595258113928139E-004;1.428679213859141E-003;
2.415166666666667E+009;1.782496571540833E-001;-5.683303624391556E-002;-5.905661382712424E-004;1.463075866922736E-003;
2.415333333333334E+009;1.786964535713196E-001;-5.732842907309532E-002;-7.479415507987142E-004;1.534995506517589E-003;
2.415500000000000E+009;1.790175139904022E-001;-5.778756365180016E-002;-6.723695551045239E-004;1.427757088094950E-003;
2.415666666666667E+009;1.791679114103317E-001;-5.796664953231812E-002;-6.191341672092676E-004;1.644274569116533E-003;
2.415833333333334E+009;1.793435215950012E-001;-5.834760889410973E-002;-4.326415073592216E-004;1.531380112282932E-003;
2.416000000000000E+009;1.793372184038162E-001;-5.850186944007874E-002;-5.797191406600177E-004;1.719311811029911E-003;
2.416166666666667E+009;1.794729083776474E-001;-5.868016928434372E-002;-2.345600078115240E-004;1.710438751615584E-003;
2.416333333333334E+009;1.793075501918793E-001;-5.877487733960152E-002;-3.602949436753988E-004;1.907884259708226E-003;
2.416500000000000E+009;1.790960729122162E-001;-5.906613171100617E-002;-1.996500504901633E-004;1.923788571730256E-003;
2.416666666666667E+009;1.787158697843552E-001;-5.896865576505661E-002;-2.322572108823806E-004;1.809370820410550E-003;
2.416833333333334E+009;1.784044653177261E-001;-5.919259414076805E-002;-1.795094576664269E-004;1.945497700944543E-003;
2.417000000000000E+009;1.776320636272430E-001;-5.921569839119911E-002;-1.631840714253485E-004;1.953201135620475E-003;
2.417166666666667E+009;1.770802587270737E-001;-5.930415540933609E-002;3.833443406620063E-005;1.989917829632759E-003;
2.417333333333334E+009;1.762459427118301E-001;-5.923186615109444E-002;9.011699876282364E-005;1.983809284865856E-003;
2.417500000000000E+009;1.754187494516373E-001;-5.963893607258797E-002;1.544811530038714E-004;2.188095590099692E-003;
2.417666666666667E+009;1.745575070381165E-001;-5.957621335983276E-002;2.884010027628392E-004;2.073763869702816E-003;
2.417833333333334E+009;1.735902875661850E-001;-5.982247367501259E-002;4.077487392351031E-004;2.087309490889311E-003;
2.418000000000000E+009;1.724426448345184E-001;-6.026473268866539E-002;3.275241469964385E-004;2.152804052457213E-003;
2.418166666666667E+009;1.712295562028885E-001;-6.051111593842506E-002;3.419595013838261E-004;2.094881609082222E-003;
2.418333333333334E+009;1.703867167234421E-001;-6.088340654969215E-002;4.625844303518534E-004;2.172252163290978E-003;
2.418500000000000E+009;1.689207404851914E-001;-6.129773333668709E-002;4.761811869684607E-004;2.066484885290265E-003;
2.418666666666667E+009;1.677436232566834E-001;-6.199292838573456E-002;6.943012704141438E-004;2.072698436677456E-003;
2.418833333333334E+009;1.661534458398819E-001;-6.257431209087372E-002;8.148950291797519E-004;2.175546251237392E-003;
2.419000000000000E+009;1.649327278137207E-001;-6.323648244142532E-002;7.632712367922068E-004;2.147634048014879E-003;
2.419166666666667E+009;1.636313945055008E-001;-6.407147645950317E-002;9.277417557314038E-004;2.259933389723301E-003;
2.419333333333334E+009;1.621707826852799E-001;-6.465614587068558E-002;1.046039047650993E-003;2.193575957790017E-003;
2.419500000000000E+009;1.607464551925659E-001;-6.597119569778442E-002;1.191548886708915E-003;2.064323052763939E-003;
2.419666666666667E+009;1.596100777387619E-001;-6.703484803438187E-002;1.224218402057886E-003;2.201914321631193E-003;
2.419833333333334E+009;1.581731587648392E-001;-6.799542158842087E-002;1.336585846729577E-003;2.179518574848771E-003;
2.420000000000000E+009;1.569707542657852E-001;-6.933689862489700E-002;1.381741371005774E-003;2.018055412918329E-003;
2.420166666666667E+009;1.559798866510391E-001;-7.060033082962036E-002;1.530852285213769E-003;2.109905006363988E-003;
2.420333333333334E+009;1.547507494688034E-001;-7.208982855081558E-002;1.630159909836948E-003;1.912906998768449E-003;
2.420500000000000E+009;1.536919027566910E-001;-7.348506897687912E-002;1.723953406326473E-003;1.948903198353946E-003;
2.420666666666667E+009;1.527303457260132E-001;-7.483405619859695E-002;1.732537639327347E-003;1.883604330942035E-003;
2.420833333333334E+009;1.518638581037521E-001;-7.658475637435913E-002;1.784400548785925E-003;1.894699991680682E-003;
2.421000000000000E+009;1.510000377893448E-001;-7.833918929100037E-002;2.105424413457513E-003;1.777731114998460E-003;
2.421166666666667E+009;1.503504961729050E-001;-7.993723452091217E-002;2.143088728189468E-003;1.609223545528948E-003;
2.421333333333334E+009;1.497054398059845E-001;-8.167716115713120E-002;2.291418844833970E-003;1.553038600832224E-003;
2.421500000000000E+009;1.490282267332077E-001;-8.326590806245804E-002;2.277796156704426E-003;1.469983835704625E-003;
2.421666666666667E+009;1.487897187471390E-001;-8.522516489028931E-002;2.349863294512034E-003;1.300556352362037E-003;
2.421833333333334E+009;1.485008150339127E-001;-8.698485046625137E-002;2.168251201510429E-003;1.149614225141704E-003;
2.422000000000000E+009;1.482152193784714E-001;-8.886232972145081E-002;2.446401398628950E-003;1.101895933970809E-003;
2.422166666666667E+009;1.480204164981842E-001;-9.070851653814316E-002;2.522999886423349E-003;9.890488581731916E-004;
2.422333333333334E+009;1.479726433753967E-001;-9.241900593042374E-002;2.277846448123455E-003;9.739242377690971E-004;
2.422500000000000E+009;1.480841189622879E-001;-9.421204775571823E-002;2.534378087148070E-003;6.418310804292560E-004;
2.422666666666667E+009;1.481940746307373E-001;-9.595771878957748E-002;2.380451885983348E-003;6.014014943502843E-004;
2.422833333333334E+009;1.484038382768631E-001;-9.777227789163590E-002;2.422290155664086E-003;5.679739406332374E-004;
2.423000000000000E+009;1.486794352531433E-001;-9.934665262699127E-002;2.408470725640655E-003;3.207073314115405E-004;
2.423166666666667E+009;1.492274254560471E-001;-1.009977981448174E-001;2.319761319085956E-003;3.356845409143716E-004;
2.423333333333334E+009;1.496610492467880E-001;-1.023551747202873E-001;2.322408137843013E-003;-1.651791535550728E-005;
2.423500000000000E+009;1.500310152769089E-001;-1.040348559617996E-001;2.234147628769279E-003;-1.124400000662718E-006;
2.423666666666667E+009;1.506305634975433E-001;-1.054473519325256E-001;2.214548410847783E-003;6.117882003309205E-005;
2.423833333333334E+009;1.511888206005096E-001;-1.068730801343918E-001;2.085052896291018E-003;-1.487335684942082E-004;
2.424000000000000E+009;1.517486721277237E-001;-1.081007048487663E-001;2.077186945825815E-003;2.480791954440065E-005;
2.424166666666667E+009;1.522679924964905E-001;-1.092541813850403E-001;1.992766046896577E-003;-1.982944086194038E-004;
2.424333333333334E+009;1.530771553516388E-001;-1.103677824139595E-001;2.023930661380291E-003;-9.420565766049549E-005;
2.424500000000000E+009;1.537065804004669E-001;-1.113183572888374E-001;1.904224394820631E-003;-2.871997130569071E-004;
2.424666666666667E+009;1.544065177440643E-001;-1.120884791016579E-001;2.023487817496061E-003;-3.955296415369958E-004;
2.424833333333334E+009;1.548352539539337E-001;-1.129473000764847E-001;1.765271066688001E-003;-3.406388277653605E-004;
2.425000000000000E+009;1.555631905794144E-001;-1.138945966959000E-001;1.812540111131966E-003;-4.517305933404714E-004;
2.425166666666667E+009;1.558523476123810E-001;-1.145797893404961E-001;1.744627254083753E-003;-5.037760129198432E-004;
2.425333333333334E+009;1.563013643026352E-001;-1.150130629539490E-001;1.607344485819340E-003;-5.013120826333761E-004;
2.425500000000000E+009;1.568350791931152E-001;-1.157202273607254E-001;1.500788610428572E-003;-4.564684350043535E-004;
2.425666666666667E+009;1.570963114500046E-001;-1.159755215048790E-001;1.455398858524859E-003;-4.557465726975352E-004;
2.425833333333334E+009;1.572736054658890E-001;-1.163546219468117E-001;1.485555781982839E-003;-6.130842957645655E-004;
2.426000000000000E+009;1.574858576059341E-001;-1.166878268122673E-001;1.497925492003560E-003;-5.233718547970057E-004;
2.426166666666667E+009;1.579284816980362E-001;-1.169580593705177E-001;1.345656346529722E-003;-4.215373483020812E-004;
2.426333333333334E+009;1.576887369155884E-001;-1.170391514897347E-001;1.268336200155318E-003;-4.100674414075911E-004;
2.426500000000000E+009;1.577297300100327E-001;-1.171730384230614E-001;1.417406136170030E-003;-4.709489585366100E-004;
2.426666666666667E+009;1.576318293809891E-001;-1.171205937862396E-001;1.315504778176546E-003;-4.119494697079063E-004;
2.426833333333334E+009;1.573625802993774E-001;-1.172277405858040E-001;1.339259208180010E-003;-4.126838466618210E-004;
2.427000000000000E+009;1.569354385137558E-001;-1.173296421766281E-001;1.278551993891597E-003;-3.100376925431192E-004;
2.427166666666667E+009;1.564339250326157E-001;-1.171876117587090E-001;1.257241005077958E-003;-3.705945564433932E-004;
2.427333333333334E+009;1.558130085468292E-001;-1.171813905239105E-001;1.385375391691923E-003;-2.533995721023530E-004;
2.427500000000000E+009;1.552390605211258E-001;-1.173140406608582E-001;1.358160283416510E-003;-3.940995957236737E-004;
2.427666666666667E+009;1.543255001306534E-001;-1.173396483063698E-001;1.357709057629108E-003;-2.592200471553952E-004;
2.427833333333334E+009;1.533122956752777E-001;-1.173595711588860E-001;1.301538082771003E-003;-2.261757763335481E-004;
