# Version 1.00
#
freq[Hz];re:Trc1_S11;im:Trc1_S11;re:Trc2_S21;im:Trc2_S21;
2.400000000000000E+009;1.560185551643372E-001;1.112333387136459E-001;-2.407392486929894E-003;2.648661844432354E-003;
2.400166666666667E+009;1.554686129093170E-001;1.090278327465057E-001;-2.431501401588321E-003;2.783873584121466E-003;
2.400333333333334E+009;1.552620083093643E-001;1.066944748163223E-001;-2.347382018342614E-003;3.121642395853996E-003;
2.400500000000000E+009;1.549722999334335E-001;1.039725616574287E-001;-2.366205910220742E-003;3.227330278605223E-003;
2.400666666666667E+009;1.546882838010788E-001;1.015053093433380E-001;-2.195329638198018E-003;3.452634206041694E-003;
2.400833333333334E+009;1.545229256153107E-001;9.862020611763001E-002;-2.160266507416964E-003;3.472193609923124E-003;
2.401000000000000E+009;1.543684601783752E-001;9.568464756011963E-002;-1.964902738109231E-003;3.602367360144854E-003;
2.401166666666667E+009;1.540949940681458E-001;9.286095947027206E-002;-1.917372690513730E-003;3.819402307271957E-003;
2.401333333333334E+009;1.541352272033691E-001;9.004876017570496E-002;-1.828797161579132E-003;3.861105768010020E-003;
2.401500000000000E+009;1.544202417135239E-001;8.710859715938568E-002;-1.597217051312327E-003;4.002802539616823E-003;
2.401666666666667E+009;1.544356942176819E-001;8.396655321121216E-002;-1.520587247796357E-003;4.073013085871935E-003;
2.401833333333334E+009;1.548982113599777E-001;8.111345767974854E-002;-1.340234419330955E-003;4.195369314402342E-003;
2.402000000000000E+009;1.553997099399567E-001;7.806321978569031E-002;-1.164105487987399E-003;4.309457726776600E-003;
2.402166666666667E+009;1.560000479221344E-001;7.531835138797760E-002;-1.003669109195471E-003;4.325201269239187E-003;
2.402333333333334E+009;1.570552736520767E-001;7.231792062520981E-002;-9.373243083246052E-004;4.515597596764565E-003;
2.402500000000000E+009;1.580795645713806E-001;6.959983706474304E-002;-6.060044979676604E-004;4.621068481355906E-003;
2.402666666666667E+009;1.589083373546600E-001;6.702052056789398E-002;-6.178371841087937E-004;4.469588398933411E-003;
2.402833333333334E+009;1.602829545736313E-001;6.430219113826752E-002;-3.213310264982283E-004;4.503187257796526E-003;
2.403000000000000E+009;1.617025583982468E-001;6.177021190524101E-002;-3.138091706205159E-004;4.816450644284487E-003;
2.403166666666667E+009;1.632496565580368E-001;5.923637747764587E-002;-7.541964441770688E-005;4.683081526309252E-003;
2.403333333333334E+009;1.646285951137543E-001;5.675460398197174E-002;3.149492840748280E-004;4.558696411550045E-003;
2.403500000000000E+009;1.664605438709259E-001;5.446263402700424E-002;3.194245509803295E-004;4.846522118896246E-003;
2.403666666666667E+009;1.683768182992935E-001;5.234453827142716E-002;5.221294704824686E-004;4.703469108790159E-003;
2.403833333333334E+009;1.699692159891129E-001;5.020014196634293E-002;7.611031178385019E-004;4.921152722090483E-003;
2.404000000000000E+009;1.716555058956146E-001;4.812587052583695E-002;9.692256571725011E-004;5.056882277131081E-003;
2.404166666666667E+009;1.735950112342835E-001;4.655783623456955E-002;1.233958173543215E-003;4.837784916162491E-003;
2.404333333333334E+009;1.754268109798431E-001;4.481926560401917E-002;1.280138385482132E-003;4.914328921586275E-003;
2.404500000000000E+009;1.771678477525711E-001;4.306980594992638E-002;1.539841410703957E-003;4.933254327625036E-003;
2.404666666666667E+009;1.790523380041122E-001;4.179757088422775E-002;1.799542806111276E-003;5.033157300204039E-003;
2.404833333333334E+009;1.808841824531555E-001;4.053156822919846E-002;2.123252023011446E-003;4.771497100591660E-003;
2.405000000000000E+009;1.824987530708313E-001;3.972728177905083E-002;2.281689783558250E-003;4.718719981610775E-003;
2.405166666666667E+009;1.841553151607513E-001;3.885930404067040E-002;2.538509201258421E-003;4.817103967070580E-003;
2.405333333333334E+009;1.857233643531799E-001;3.816476091742516E-002;2.691088011488318E-003;4.520178306847811E-003;
2.405500000000000E+009;1.873981505632401E-001;3.769124671816826E-002;3.153870580717921E-003;4.575494676828384E-003;
2.405666666666667E+009;1.889228224754334E-001;3.728153184056282E-002;3.436999861150980E-003;4.155654925853014E-003;
2.405833333333334E+009;1.904319226741791E-001;3.695703670382500E-002;3.776738885790110E-003;4.013761412352324E-003;
2.406000000000000E+009;1.916101276874542E-001;3.692694753408432E-002;3.877541748806834E-003;3.784313565120101E-003;
2.406166666666667E+009;1.928658932447434E-001;3.681718558073044E-002;4.112147260457277E-003;3.532089293003082E-003;
2.406333333333334E+009;1.940357536077499E-001;3.697318211197853E-002;4.303602967411280E-003;3.177264938130975E-003;
2.406500000000000E+009;1.950797438621521E-001;3.713964298367500E-002;4.278349224478006E-003;3.066092031076551E-003;
2.406666666666667E+009;1.959258466959000E-001;3.730233013629913E-002;4.375341348350048E-003;2.881840104237199E-003;
2.406833333333334E+009;1.966833621263504E-001;3.753221407532692E-002;4.502460826188326E-003;2.420626115053892E-003;
2.407000000000000E+009;1.971561908721924E-001;3.799605742096901E-002;4.641964100301266E-003;2.250646241009235E-003;
2.407166666666667E+009;1.977316886186600E-001;3.795531019568443E-002;4.552804864943028E-003;2.106711501255631E-003;
2.407333333333334E+009;1.978320330381393E-001;3.846713900566101E-002;4.586426075547934E-003;1.692067598924041E-003;
2.407500000000000E+009;1.980109363794327E-001;3.884981945157051E-002;4.555901978164911E-003;1.488540438003838E-003;
2.407666666666667E+009;1.981550604104996E-001;3.910412266850472E-002;4.731675144284964E-003;1.398565713316202E-003;
2.407833333333334E+009;1.978757530450821E-001;3.931447118520737E-002;4.707723390311003E-003;1.159052364528179E-003;
2.408000000000000E+009;1.979366838932037E-001;3.932908177375794E-002;4.723262041807175E-003;9.621754288673401E-004;
2.408166666666667E+009;1.973658949136734E-001;3.942128643393517E-002;4.617754369974136E-003;7.094155880622566E-004;
2.408333333333334E+009;1.970350444316864E-001;3.934671729803085E-002;4.793894942849875E-003;5.935853696428239E-004;
2.408500000000000E+009;1.963525414466858E-001;3.925006464123726E-002;4.562616813927889E-003;2.946181339211762E-004;
2.408666666666667E+009;1.955448687076569E-001;3.914908319711685E-002;4.590933211147785E-003;-2.795858017634600E-005;
2.408833333333334E+009;1.949051171541214E-001;3.879697993397713E-002;4.524356685578823E-003;-1.149721865658648E-004;
2.409000000000000E+009;1.939277201890945E-001;3.824263811111450E-002;4.328329116106033E-003;-2.068069734377787E-004;
2.409166666666667E+009;1.928194612264633E-001;3.764712810516357E-002;4.337794147431850E-003;-4.821245092898607E-004;
2.409333333333334E+009;1.918072551488876E-001;3.688402473926544E-002;4.077379126101732E-003;-7.430670666508377E-004;
2.409500000000000E+009;1.907058060169220E-001;3.589638322591782E-002;3.995197359472513E-003;-9.824540466070175E-004;
2.409666666666667E+009;1.894243359565735E-001;3.474986925721169E-002;3.970730584114790E-003;-8.368429844267666E-004;
2.409833333333334E+009;1.882277876138687E-001;3.368857130408287E-002;3.740829182788730E-003;-1.156646292656660E-003;
2.410000000000000E+009;1.871131807565689E-001;3.222800046205521E-002;3.692610654979944E-003;-1.088081975467503E-003;
2.410166666666667E+009;1.858174800872803E-001;3.057947009801865E-002;3.537976648658514E-003;-1.159960520453751E-003;
2.410333333333334E+009;1.846789419651032E-001;2.904636785387993E-002;3.468399168923497E-003;-1.213584677316248E-003;
2.410500000000000E+009;1.834974288940430E-001;2.723287604749203E-002;3.203622763976455E-003;-1.225017360411584E-003;
2.410666666666667E+009;1.823329776525497E-001;2.513480372726917E-002;3.377092070877552E-003;-1.161172636784613E-003;
2.410833333333334E+009;1.813908219337463E-001;2.304156683385372E-002;3.203835804015398E-003;-1.275007147341967E-003;
2.411000000000000E+009;1.805002987384796E-001;2.095036022365093E-002;3.191052237525582E-003;-1.398420194163919E-003;
2.411166666666667E+009;1.795647740364075E-001;1.875464431941509E-002;3.212329931557179E-003;-1.476288191042841E-003;
2.411333333333334E+009;1.789699494838715E-001;1.628917083144188E-002;3.076962660998106E-003;-1.560216885991395E-003;
2.411500000000000E+009;1.780997663736343E-001;1.398923154920340E-002;2.933337120339274E-003;-1.636959379538894E-003;
2.411666666666667E+009;1.778174787759781E-001;1.154535450041294E-002;2.871960168704391E-003;-1.542777288705111E-003;
2.411833333333334E+009;1.771650016307831E-001;9.069103747606278E-003;2.705941209569573E-003;-1.588439452461898E-003;
2.412000000000000E+009;1.772069782018662E-001;6.398142315447331E-003;2.753240521997213E-003;-1.501368475146592E-003;
2.412166666666667E+009;1.769981980323792E-001;3.886471502482891E-003;2.721427707001567E-003;-1.576568000018597E-003;
2.412333333333334E+009;1.771683990955353E-001;1.201609149575234E-003;2.540590241551399E-003;-1.637824811041355E-003;
2.412500000000000E+009;1.774607002735138E-001;-1.453862758353353E-003;2.533797407522798E-003;-1.743193366564810E-003;
2.412666666666667E+009;1.777970343828201E-001;-4.020228981971741E-003;2.609041286632419E-003;-1.735401456244290E-003;
2.412833333333334E+009;1.783713102340698E-001;-6.711356341838837E-003;2.460185904055834E-003;-1.744470908306539E-003;
2.413000000000000E+009;1.790518015623093E-001;-9.148523211479187E-003;2.466033678501844E-003;-1.844068407081068E-003;
2.413166666666667E+009;1.799479722976685E-001;-1.165638025850058E-002;2.488987287506461E-003;-1.798954093828797E-003;
2.413333333333334E+009;1.808100789785385E-001;-1.434944849461317E-002;2.469330094754696E-003;-1.976895378902555E-003;
2.413500000000000E+009;1.816936582326889E-001;-1.680125854909420E-002;2.460760762915015E-003;-2.088595647364855E-003;
2.413666666666667E+009;1.828128993511200E-001;-1.925746351480484E-002;2.353919669985771E-003;-2.257979474961758E-003;
2.413833333333334E+009;1.841085702180862E-001;-2.144099399447441E-002;2.282214350998402E-003;-2.201357157900930E-003;
2.414000000000000E+009;1.852855086326599E-001;-2.364056929945946E-002;2.284889109432697E-003;-2.341114217415452E-003;
2.414166666666667E+009;1.866843998432159E-001;-2.584526315331459E-002;2.213759114965797E-003;-2.433216897770762E-003;
2.414333333333334E+009;1.878795325756073E-001;-2.798057533800602E-002;2.039046725258231E-003;-2.469568280503154E-003;
2.414500000000000E+009;1.892163902521133E-001;-2.957059442996979E-002;1.784816035069525E-003;-2.635107375681400E-003;
2.414666666666667E+009;1.906863898038864E-001;-3.143750503659248E-002;1.872905064374209E-003;-2.622979925945401E-003;
2.414833333333334E+009;1.919584572315216E-001;-3.305694088339806E-002;1.625708071514964E-003;-2.570441691204906E-003;
2.415000000000000E+009;1.933102905750275E-001;-3.443723917007446E-002;1.538120559416711E-003;-2.579414518550038E-003;
2.415166666666667E+009;1.948333829641342E-001;-3.579242900013924E-002;1.476487144827843E-003;-2.693934831768274E-003;
2.415333333333334E+009;1.963671743869782E-001;-3.697451576590538E-002;1.439596991986036E-003;-2.637994941323996E-003;
2.415500000000000E+009;1.976523399353027E-001;-3.783027827739716E-002;1.352464198134840E-003;-2.673080423846841E-003;
2.415666666666667E+009;1.989264786243439E-001;-3.878048807382584E-002;1.413508318364620E-003;-2.642376348376274E-003;
2.415833333333334E+009;2.000738531351090E-001;-3.948046267032623E-002;1.440432853996754E-003;-2.668812405318022E-003;
2.416000000000000E+009;2.011040449142456E-001;-4.023173451423645E-002;1.278132782317698E-003;-2.764529548585415E-003;
2.416166666666667E+009;2.021408826112747E-001;-4.077550768852234E-002;1.096474938094616E-003;-2.833474893122912E-003;
2.416333333333334E+009;2.030047625303268E-001;-4.111388325691223E-002;1.094351173378527E-003;-3.081250470131636E-003;
2.416500000000000E+009;2.037947922945023E-001;-4.140201210975647E-002;1.024224562570453E-003;-2.997635165229440E-003;
2.416666666666667E+009;2.043414413928986E-001;-4.172430932521820E-002;7.201583357527852E-004;-3.031087107956410E-003;
2.416833333333334E+009;2.047949582338333E-001;-4.180406406521797E-002;6.419225246645510E-004;-3.384358715265989E-003;
2.417000000000000E+009;2.053573280572891E-001;-4.185364022850990E-002;7.147397263906896E-004;-3.139592008665204E-003;
2.417166666666667E+009;2.052323222160339E-001;-4.170010611414909E-002;4.613662022165954E-004;-3.224571468308568E-003;
2.417333333333334E+009;2.053414285182953E-001;-4.140064120292664E-002;2.816611959133297E-004;-3.221105784177780E-003;
2.417500000000000E+009;2.051893770694733E-001;-4.142669960856438E-002;-5.891506589250639E-005;-3.257710486650467E-003;
2.417666666666667E+009;2.049749344587326E-001;-4.101661592721939E-002;-1.905800017993897E-004;-3.324489807710052E-003;
2.417833333333334E+009;2.047102898359299E-001;-4.056432843208313E-002;-9.547903027851135E-005;-3.046649508178234E-003;
2.418000000000000E+009;2.042021751403809E-001;-4.013954848051071E-002;-3.110847319476306E-004;-2.986602718010545E-003;
2.418166666666667E+009;2.036168277263641E-001;-3.979613259434700E-002;-4.128243890590966E-004;-3.087888704612851E-003;
2.418333333333334E+009;2.028556764125824E-001;-3.945720568299294E-002;-4.870351403951645E-004;-2.928147558122873E-003;
2.418500000000000E+009;2.019289880990982E-001;-3.928954154253006E-002;-6.583678768947721E-004;-2.975787268951535E-003;
2.418666666666667E+009;2.010772079229355E-001;-3.899650275707245E-002;-5.666628712788224E-004;-2.844636328518391E-003;
2.418833333333334E+009;1.998856365680695E-001;-3.894985094666481E-002;-6.592510035261512E-004;-2.814706182107329E-003;
2.419000000000000E+009;1.987818032503128E-001;-3.887395560741425E-002;-8.530745399184525E-004;-2.794900443404913E-003;
2.419166666666667E+009;1.976678222417831E-001;-3.897393494844437E-002;-7.068896666169167E-004;-2.619158942252398E-003;
2.419333333333334E+009;1.960908472537994E-001;-3.926172479987145E-002;-9.381740819662809E-004;-2.638291334733367E-003;
2.419500000000000E+009;1.946369111537933E-001;-3.930121287703514E-002;-1.160002895630896E-003;-2.613539574667811E-003;
2.419666666666667E+009;1.929678618907929E-001;-3.999230265617371E-002;-9.745241841301322E-004;-2.653758274391294E-003;
2.419833333333334E+009;1.912716478109360E-001;-4.041328281164169E-002;-1.176059478893876E-003;-2.601421205326915E-003;
2.420000000000000E+009;1.896513700485230E-001;-4.113629832863808E-002;-1.122569781728089E-003;-2.582563553005457E-003;
2.420166666666667E+009;1.878962069749832E-001;-4.189234226942062E-002;-1.283631427213550E-003;-2.626465167850256E-003;
2.420333333333334E+009;1.860898584127426E-001;-4.298311844468117E-002;-1.196346012875438E-003;-2.483919961377978E-003;
2.420500000000000E+009;1.842712908983231E-001;-4.392364248633385E-002;-1.402360270731151E-003;-2.468719845637679E-003;
2.420666666666667E+009;1.824381351470947E-001;-4.516532644629479E-002;-1.508114743046463E-003;-2.284613903611898E-003;
2.420833333333334E+009;1.807494908571243E-001;-4.648737981915474E-002;-1.662953523918986E-003;-2.318585524335504E-003;
2.421000000000000E+009;1.791280210018158E-001;-4.799097776412964E-002;-1.726038521155715E-003;-2.240502275526524E-003;
2.421166666666667E+009;1.774769127368927E-001;-4.969524964690208E-002;-1.643469091504812E-003;-2.231555758044124E-003;
2.421333333333334E+009;1.756408661603928E-001;-5.135161429643631E-002;-1.722791464999318E-003;-2.093781251460314E-003;
2.421500000000000E+009;1.741602122783661E-001;-5.319244042038918E-002;-1.808367553167045E-003;-2.024457789957523E-003;
2.421666666666667E+009;1.726908534765244E-001;-5.500864237546921E-002;-1.903783879242837E-003;-1.931110396981239E-003;
2.421833333333334E+009;1.713574677705765E-001;-5.714030191302300E-002;-2.054544398561120E-003;-1.895150751806796E-003;
2.422000000000000E+009;1.699933260679245E-001;-5.911223217844963E-002;-2.136029768735170E-003;-1.761089311912656E-003;
2.422166666666667E+009;1.689473390579224E-001;-6.125977635383606E-002;-2.188371261581779E-003;-1.637735054828227E-003;
2.422333333333334E+009;1.677561998367310E-001;-6.345989555120468E-002;-2.141085220500827E-003;-1.423042500391603E-003;
2.422500000000000E+009;1.667586416006088E-001;-6.554061174392700E-002;-2.161824377253652E-003;-1.501905033364892E-003;
2.422666666666667E+009;1.659828722476959E-001;-6.782153993844986E-002;-2.310931915417314E-003;-1.313364016823471E-003;
2.422833333333334E+009;1.653538495302200E-001;-6.992159783840179E-002;-2.204090123996139E-003;-1.199304824694991E-003;
2.423000000000000E+009;1.648244559764862E-001;-7.215995341539383E-002;-2.229834208264947E-003;-1.084342366084456E-003;
2.423166666666667E+009;1.641540825366974E-001;-7.459485530853272E-002;-2.162551740184426E-003;-9.485401096753776E-004;
2.423333333333334E+009;1.639209240674973E-001;-7.672861963510513E-002;-2.205804456025362E-003;-9.954561246559024E-004;
2.423500000000000E+009;1.637665182352066E-001;-7.878952473402023E-002;-2.197624184191227E-003;-9.044416365213692E-004;
2.423666666666667E+009;1.637520641088486E-001;-8.107583969831467E-002;-2.297702012583613E-003;-7.672687061131001E-004;
2.423833333333334E+009;1.636878699064255E-001;-8.307433128356934E-002;-2.169269602745771E-003;-6.545923533849418E-004;
2.424000000000000E+009;1.637848317623138E-001;-8.516539633274078E-002;-2.051847288385034E-003;-4.997618962079287E-004;
2.424166666666667E+009;1.639160811901093E-001;-8.694250881671906E-002;-2.055966993793845E-003;-4.408052191138268E-004;
2.424333333333334E+009;1.642723679542542E-001;-8.863902091979981E-002;-2.314069075509906E-003;-2.919780672527850E-004;
2.424500000000000E+009;1.647024899721146E-001;-9.060493856668472E-002;-2.105534775182605E-003;-3.178338520228863E-004;
2.424666666666667E+009;1.649188548326492E-001;-9.237624704837799E-002;-2.134901471436024E-003;-1.198023237520829E-004;
2.424833333333334E+009;1.655796319246292E-001;-9.394718706607819E-002;-2.125402214005590E-003;-2.205190503445920E-005;
2.425000000000000E+009;1.660240888595581E-001;-9.534563124179840E-002;-2.057085279375315E-003;8.059756510192528E-005;
2.425166666666667E+009;1.664763242006302E-001;-9.648728370666504E-002;-2.067416207864881E-003;-4.397751035867259E-005;
2.425333333333334E+009;1.670586764812470E-001;-9.786166995763779E-002;-2.059151185676456E-003;2.588510687928647E-004;
2.425500000000000E+009;1.676314175128937E-001;-9.907449036836624E-002;-1.905462122522295E-003;3.208261041436344E-004;
2.425666666666667E+009;1.683286428451538E-001;-9.991884976625443E-002;-1.690342673100531E-003;4.106193955522031E-004;
2.425833333333334E+009;1.687651574611664E-001;-1.008443832397461E-001;-1.653537503443658E-003;5.870208260603249E-004;
2.426000000000000E+009;1.693893074989319E-001;-1.013901606202126E-001;-1.465334440581501E-003;5.090999184176326E-004;
2.426166666666667E+009;1.700341403484345E-001;-1.020786017179489E-001;-1.450163195841014E-003;5.471123731695116E-004;
2.426333333333334E+009;1.703651100397110E-001;-1.026795804500580E-001;-1.422260422259569E-003;4.339287988841534E-004;
2.426500000000000E+009;1.709853708744049E-001;-1.030625030398369E-001;-1.274727284908295E-003;4.755358095280826E-004;
2.426666666666667E+009;1.714178770780563E-001;-1.033948138356209E-001;-1.333840657025576E-003;5.141494330018759E-004;
2.426833333333334E+009;1.719947457313538E-001;-1.036090627312660E-001;-1.203493913635612E-003;4.867512034252286E-004;
2.427000000000000E+009;1.723075211048126E-001;-1.038707643747330E-001;-1.038872753269970E-003;4.792323452420533E-004;
2.427166666666667E+009;1.724798083305359E-001;-1.039689257740974E-001;-1.014402485452592E-003;4.128422879148275E-004;
2.427333333333334E+009;1.727177202701569E-001;-1.041153892874718E-001;-9.579053730703890E-004;4.368759109638631E-004;
2.427500000000000E+009;1.726676374673843E-001;-1.042807549238205E-001;-8.469829917885363E-004;5.180119187571108E-004;
2.427666666666667E+009;1.726047694683075E-001;-1.042220517992973E-001;-1.019342802464962E-003;3.388659097254276E-004;
