# Version 1.00
#
freq[Hz];re:Trc1_S11;im:Trc1_S11;re:Trc2_S21;im:Trc2_S21;
2.400000000000000E+009;1.563295871019363E-001;1.114219874143601E-001;-2.537998603656888E-003;2.761507639661431E-003;
2.400166666666667E+009;1.559767276048660E-001;1.092443764209747E-001;-2.598216058686376E-003;2.865840913727880E-003;
2.400333333333334E+009;1.556381732225418E-001;1.070229858160019E-001;-2.479081507772207E-003;3.083152929320931E-003;
2.400500000000000E+009;1.553606837987900E-001;1.043926104903221E-001;-2.276346785947681E-003;3.289144020527601E-003;
2.400666666666667E+009;1.551482677459717E-001;1.017350926995277E-001;-2.258934313431382E-003;3.382813883945346E-003;
2.400833333333334E+009;1.547963470220566E-001;9.877998381853104E-002;-2.192381536588073E-003;3.556870855391026E-003;
2.401000000000000E+009;1.548442393541336E-001;9.600640833377838E-002;-2.035646699368954E-003;3.804771695286036E-003;
2.401166666666667E+009;1.546209752559662E-001;9.310766309499741E-002;-1.911010942421854E-003;3.832374233752489E-003;
2.401333333333334E+009;1.546359360218048E-001;9.014353156089783E-002;-1.763008302077651E-003;3.841255558654666E-003;
2.401500000000000E+009;1.548083275556564E-001;8.695240318775177E-002;-1.754686818458140E-003;4.074173513799906E-003;
2.401666666666667E+009;1.548792868852615E-001;8.417409658432007E-002;-1.639621332287788E-003;4.080372396856546E-003;
2.401833333333334E+009;1.552569866180420E-001;8.109085261821747E-002;-1.412680838257074E-003;4.307284019887447E-003;
2.402000000000000E+009;1.557785421609879E-001;7.807469367980957E-002;-1.272459747269750E-003;4.366575740277767E-003;
2.402166666666667E+009;1.564796268939972E-001;7.563803344964981E-002;-1.195498742163181E-003;4.427680280059576E-003;
2.402333333333334E+009;1.571210771799088E-001;7.243823260068893E-002;-9.119245805777609E-004;4.479446914047003E-003;
2.402500000000000E+009;1.581714749336243E-001;6.955828517675400E-002;-8.460836834274232E-004;4.594594705849886E-003;
2.402666666666667E+009;1.593077629804611E-001;6.719370931386948E-002;-5.313989822752774E-004;4.776424262672663E-003;
2.402833333333334E+009;1.603361666202545E-001;6.451611220836639E-002;-5.110430647619069E-004;4.859156440943480E-003;
2.403000000000000E+009;1.619832217693329E-001;6.170842796564102E-002;-3.390096535440534E-004;4.878375213593245E-003;
2.403166666666667E+009;1.635407209396362E-001;5.936821177601814E-002;-1.484685781178996E-004;4.877257160842419E-003;
2.403333333333334E+009;1.650004088878632E-001;5.678715184330940E-002;1.233163784490898E-004;4.858686123043299E-003;
2.403500000000000E+009;1.667768508195877E-001;5.440580472350121E-002;3.038459690287709E-004;4.814435727894306E-003;
2.403666666666667E+009;1.686391979455948E-001;5.231760814785957E-002;5.020187818445265E-004;4.868131596595049E-003;
2.403833333333334E+009;1.704786568880081E-001;5.003198608756065E-002;7.490119314752519E-004;4.951714538037777E-003;
2.404000000000000E+009;1.720419973134995E-001;4.826645553112030E-002;8.412903989665210E-004;4.806049168109894E-003;
2.404166666666667E+009;1.739961653947830E-001;4.645904526114464E-002;1.216642791405320E-003;4.911131691187620E-003;
2.404333333333334E+009;1.757495850324631E-001;4.470422863960266E-002;1.291367458179593E-003;4.929076880216599E-003;
2.404500000000000E+009;1.775197684764862E-001;4.299285262823105E-002;1.524392515420914E-003;4.955441225320101E-003;
2.404666666666667E+009;1.793888956308365E-001;4.165766015648842E-002;1.774105709046125E-003;4.974529147148132E-003;
2.404833333333334E+009;1.812279522418976E-001;4.027472436428070E-002;1.916487701237202E-003;4.963855724781752E-003;
2.405000000000000E+009;1.829805225133896E-001;3.953201696276665E-002;2.318029990419745E-003;4.893046803772450E-003;
2.405166666666667E+009;1.844387203454971E-001;3.878405690193176E-002;2.549282973632217E-003;4.863260313868523E-003;
2.405333333333334E+009;1.860775947570801E-001;3.815887495875359E-002;2.877123188227415E-003;4.756051115691662E-003;
2.405500000000000E+009;1.876449435949326E-001;3.758390992879868E-002;3.175979945808649E-003;4.560622386634350E-003;
2.405666666666667E+009;1.891799569129944E-001;3.716069832444191E-002;3.347035497426987E-003;4.300611559301615E-003;
2.405833333333334E+009;1.907428950071335E-001;3.681998699903488E-002;3.485925961285830E-003;4.121875856071711E-003;
2.406000000000000E+009;1.919082999229431E-001;3.683316335082054E-002;3.910829778760672E-003;4.111671820282936E-003;
2.406166666666667E+009;1.930954754352570E-001;3.672269731760025E-002;4.123867955058813E-003;3.636945970356464E-003;
2.406333333333334E+009;1.943126022815704E-001;3.689587116241455E-002;4.282171837985516E-003;3.526686225086451E-003;
2.406500000000000E+009;1.953337043523789E-001;3.697782382369041E-002;4.433315247297287E-003;3.144632559269667E-003;
2.406666666666667E+009;1.961550116539002E-001;3.724990785121918E-002;4.578698892146349E-003;2.855664817616344E-003;
2.406833333333334E+009;1.969169676303864E-001;3.735841810703278E-002;4.593119025230408E-003;2.628289395943284E-003;
2.407000000000000E+009;1.973890513181686E-001;3.772024810314179E-002;4.780941642820835E-003;2.402405254542828E-003;
2.407166666666667E+009;1.979258656501770E-001;3.780671954154968E-002;4.661278333514929E-003;2.189585473388434E-003;
2.407333333333334E+009;1.981210559606552E-001;3.824404254555702E-002;4.759480711072683E-003;1.845973427407444E-003;
2.407500000000000E+009;1.982111334800720E-001;3.876426815986633E-002;4.733207635581493E-003;1.625357777811587E-003;
2.407666666666667E+009;1.983429789543152E-001;3.884151205420494E-002;4.799147136509419E-003;1.585033838637173E-003;
2.407833333333334E+009;1.980555504560471E-001;3.916948288679123E-002;4.898806102573872E-003;1.202100887894630E-003;
2.408000000000000E+009;1.980702131986618E-001;3.926322236657143E-002;4.850774072110653E-003;9.650802821852267E-004;
2.408166666666667E+009;1.976271122694016E-001;3.932535275816917E-002;4.753413610160351E-003;7.882814388722181E-004;
2.408333333333334E+009;1.971926391124725E-001;3.915350139141083E-002;4.827997647225857E-003;6.096476572565734E-004;
2.408500000000000E+009;1.965734213590622E-001;3.920435905456543E-002;4.783834796398878E-003;4.597260849550366E-004;
2.408666666666667E+009;1.957786977291107E-001;3.900242596864700E-002;4.658718127757311E-003;2.722748031374067E-004;
2.408833333333334E+009;1.950869113206863E-001;3.869103640317917E-002;4.566328600049019E-003;-8.683646592544392E-005;
2.409000000000000E+009;1.940665245056152E-001;3.801519423723221E-002;4.509945400059223E-003;-1.692508667474613E-004;
2.409166666666667E+009;1.930471062660217E-001;3.734535723924637E-002;4.392511676996946E-003;-1.813497510738671E-004;
2.409333333333334E+009;1.920214444398880E-001;3.673975169658661E-002;4.277369007468224E-003;-7.092498126439750E-004;
2.409500000000000E+009;1.908126920461655E-001;3.563046827912331E-002;4.198540933430195E-003;-7.779418956488371E-004;
2.409666666666667E+009;1.896636933088303E-001;3.452672436833382E-002;4.108979366719723E-003;-8.361482177861035E-004;
2.409833333333334E+009;1.884732246398926E-001;3.346531838178635E-002;3.960052505135536E-003;-9.748663287609816E-004;
2.410000000000000E+009;1.872624605894089E-001;3.191382437944412E-002;3.665690543130040E-003;-1.118966494686902E-003;
2.410166666666667E+009;1.860187202692032E-001;3.040424361824989E-002;3.626843448728323E-003;-1.151115284301341E-003;
2.410333333333334E+009;1.848007291555405E-001;2.878749370574951E-002;3.508476307615638E-003;-1.184973982162774E-003;
2.410500000000000E+009;1.836676746606827E-001;2.700535207986832E-002;3.419826505705714E-003;-1.167980255559087E-003;
2.410666666666667E+009;1.826802641153336E-001;2.491408959031105E-002;3.353200620040298E-003;-1.192047493532300E-003;
2.410833333333334E+009;1.816488504409790E-001;2.282780595123768E-002;3.145673777908087E-003;-1.287152990698814E-003;
2.411000000000000E+009;1.805889606475830E-001;2.077873982489109E-002;3.183631692081690E-003;-1.436669263057411E-003;
2.411166666666667E+009;1.796940863132477E-001;1.867573149502277E-002;3.153031691908836E-003;-1.371013699099422E-003;
2.411333333333334E+009;1.790134906768799E-001;1.595406979322434E-002;2.973462454974651E-003;-1.462170272134244E-003;
2.411500000000000E+009;1.783229261636734E-001;1.357589568942785E-002;2.975818468257785E-003;-1.671593869104981E-003;
2.411666666666667E+009;1.780036687850952E-001;1.111788302659988E-002;3.009999636560679E-003;-1.665628515183926E-003;
2.411833333333334E+009;1.773632317781448E-001;8.725510910153389E-003;2.829848323017359E-003;-1.609631930477917E-003;
2.412000000000000E+009;1.772793978452683E-001;6.107889581471682E-003;2.763019176200032E-003;-1.655732747167349E-003;
2.412166666666667E+009;1.771578341722488E-001;3.575064009055495E-003;2.782626776024699E-003;-1.626585726626217E-003;
2.412333333333334E+009;1.770389825105667E-001;1.081273425370455E-003;2.781867049634457E-003;-1.893469714559615E-003;
2.412500000000000E+009;1.776126921176910E-001;-1.692667370662093E-003;2.695923903957009E-003;-1.734279328957200E-003;
2.412666666666667E+009;1.778704077005386E-001;-4.226581659168005E-003;2.438721014186740E-003;-1.762945437803865E-003;
2.412833333333334E+009;1.786217093467712E-001;-6.948123220354319E-003;2.619975479319692E-003;-1.766759902238846E-003;
2.413000000000000E+009;1.790700703859329E-001;-9.547343477606773E-003;2.593787852674723E-003;-1.727262628264725E-003;
2.413166666666667E+009;1.798567771911621E-001;-1.193760056048632E-002;2.670110668987036E-003;-1.854613190516830E-003;
2.413333333333334E+009;1.807843446731567E-001;-1.449958514422178E-002;2.511996077373624E-003;-2.055805642157793E-003;
2.413500000000000E+009;1.817076504230499E-001;-1.694072037935257E-002;2.619212958961725E-003;-2.122069709002972E-003;
2.413666666666667E+009;1.829419732093811E-001;-1.940804906189442E-002;2.566250506788492E-003;-2.216806402429938E-003;
2.413833333333334E+009;1.841574907302856E-001;-2.174616418778896E-002;2.380087273195386E-003;-2.382758772000670E-003;
2.414000000000000E+009;1.852695643901825E-001;-2.399066090583801E-002;2.242884133011103E-003;-2.421080134809017E-003;
2.414166666666667E+009;1.866928189992905E-001;-2.600920014083386E-002;2.229755977168679E-003;-2.599963918328285E-003;
2.414333333333334E+009;1.879776865243912E-001;-2.821376733481884E-002;2.154029905796051E-003;-2.565601142123342E-003;
2.414500000000000E+009;1.893802881240845E-001;-2.985879033803940E-002;2.028701594099402E-003;-2.521638059988618E-003;
2.414666666666667E+009;1.907160282135010E-001;-3.155855089426041E-002;1.948236022144556E-003;-2.666341839358211E-003;
2.414833333333334E+009;1.920560300350189E-001;-3.318338096141815E-002;1.764323445968330E-003;-2.617783378809691E-003;
2.415000000000000E+009;1.934686899185181E-001;-3.473081439733505E-002;1.541307894513011E-003;-2.837044885382056E-003;
2.415166666666667E+009;1.949150562286377E-001;-3.591433539986610E-002;1.543520833365619E-003;-2.623115899041295E-003;
2.415333333333334E+009;1.962724477052689E-001;-3.711887821555138E-002;1.587411388754845E-003;-2.610775874927640E-003;
2.415500000000000E+009;1.977214813232422E-001;-3.807146474719048E-002;1.429913798347116E-003;-2.700399840250611E-003;
2.415666666666667E+009;1.989183127880096E-001;-3.899874538183212E-002;1.270631095394492E-003;-2.593314042314887E-003;
2.415833333333334E+009;2.000294625759125E-001;-3.971895948052406E-002;1.348607474938035E-003;-2.767695114016533E-003;
2.416000000000000E+009;2.011708021163940E-001;-4.040161892771721E-002;1.287588616833091E-003;-2.898958511650562E-003;
2.416166666666667E+009;2.022206932306290E-001;-4.105324670672417E-002;1.300009898841381E-003;-2.986205276101828E-003;
2.416333333333334E+009;2.030883431434631E-001;-4.139485955238342E-002;1.006418257020414E-003;-2.883737673982978E-003;
2.416500000000000E+009;2.039035856723785E-001;-4.157522320747376E-002;1.051240717060864E-003;-3.296106355264783E-003;
2.416666666666667E+009;2.044181674718857E-001;-4.195550829172134E-002;8.250897517427802E-004;-3.296978538855910E-003;
2.416833333333334E+009;2.049017101526260E-001;-4.190528392791748E-002;7.629842148162425E-004;-3.282311838120222E-003;
2.417000000000000E+009;2.053149342536926E-001;-4.208545386791229E-002;5.038716481067240E-004;-3.121834015473723E-003;
2.417166666666667E+009;2.052999287843704E-001;-4.190656915307045E-002;4.291146469768137E-004;-3.334368113428354E-003;
2.417333333333334E+009;2.053482532501221E-001;-4.162012413144112E-002;2.375705953454599E-004;-3.474385244771838E-003;
2.417500000000000E+009;2.052276283502579E-001;-4.162381961941719E-002;5.261214027996175E-005;-3.320176620036364E-003;
2.417666666666667E+009;2.048788815736771E-001;-4.116092994809151E-002;-1.087312484742142E-004;-3.331775078549981E-003;
2.417833333333334E+009;2.047320753335953E-001;-4.078432917594910E-002;-3.658503410406411E-004;-3.238651901483536E-003;
2.418000000000000E+009;2.041788995265961E-001;-4.046326875686646E-002;-4.312880337238312E-004;-3.247062442824245E-003;
2.418166666666667E+009;2.035467028617859E-001;-4.009019583463669E-002;-4.205423174425960E-004;-3.065074095502496E-003;
2.418333333333334E+009;2.028709352016449E-001;-3.971943259239197E-002;-5.547414766624570E-004;-2.984744729474187E-003;
2.418500000000000E+009;2.019189894199371E-001;-3.963394090533257E-002;-6.324991700239480E-004;-3.102518152445555E-003;
2.418666666666667E+009;2.010835409164429E-001;-3.923146426677704E-002;-6.386761670000851E-004;-3.009713720530272E-003;
2.418833333333334E+009;1.998861730098724E-001;-3.923038765788078E-002;-6.403229199349880E-004;-2.800751943141222E-003;
2.419000000000000E+009;1.987143158912659E-001;-3.924838826060295E-002;-7.571100140921772E-004;-2.802497008815408E-003;
2.419166666666667E+009;1.974147260189056E-001;-3.928891941905022E-002;-8.471586043015122E-004;-2.718218835070729E-003;
2.419333333333334E+009;1.961438655853272E-001;-3.948963060975075E-002;-9.849615162238479E-004;-2.775420900434256E-003;
2.419500000000000E+009;1.946043819189072E-001;-3.967877104878426E-002;-1.083801034837961E-003;-2.671147231012583E-003;
2.419666666666667E+009;1.929229646921158E-001;-4.018833860754967E-002;-1.127972616814077E-003;-2.767601283267140E-003;
2.419833333333334E+009;1.912403106689453E-001;-4.065469652414322E-002;-1.118009211495519E-003;-2.634290372952819E-003;
2.420000000000000E+009;1.895478367805481E-001;-4.150484129786491E-002;-1.286273589357734E-003;-2.486716024577618E-003;
2.420166666666667E+009;1.878325790166855E-001;-4.216295108199120E-002;-1.270508975721896E-003;-2.588614122942090E-003;
2.420333333333334E+009;1.860303431749344E-001;-4.318653047084808E-002;-1.310797757469118E-003;-2.356107346713543E-003;
2.420500000000000E+009;1.842189133167267E-001;-4.443283379077911E-002;-1.441198866814375E-003;-2.461527474224567E-003;
2.420666666666667E+009;1.824155747890472E-001;-4.541387036442757E-002;-1.408486627042294E-003;-2.415571361780167E-003;
2.420833333333334E+009;1.806144267320633E-001;-4.686759784817696E-002;-1.594897010363638E-003;-2.385643776506186E-003;
2.421000000000000E+009;1.790348440408707E-001;-4.832857847213745E-002;-1.750500872731209E-003;-2.283172449097037E-003;
2.421166666666667E+009;1.773589402437210E-001;-5.007364973425865E-002;-1.866996288299561E-003;-2.144268713891506E-003;
2.421333333333334E+009;1.755816936492920E-001;-5.154241621494293E-002;-1.931180129759014E-003;-2.111170673742890E-003;
2.421500000000000E+009;1.740025579929352E-001;-5.351142957806587E-002;-1.923999283462763E-003;-1.984433969482780E-003;
2.421666666666667E+009;1.725271344184876E-001;-5.541047081351280E-002;-2.044237451627851E-003;-1.792650669813156E-003;
2.421833333333334E+009;1.711141765117645E-001;-5.735133215785027E-002;-2.126308623701334E-003;-1.709496020339429E-003;
2.422000000000000E+009;1.697820723056793E-001;-5.928209424018860E-002;-2.143327379599214E-003;-1.738614053465426E-003;
2.422166666666667E+009;1.687722057104111E-001;-6.153322011232376E-002;-2.143688732758164E-003;-1.497685094363987E-003;
2.422333333333334E+009;1.677161902189255E-001;-6.375233083963394E-002;-2.281107939779759E-003;-1.565917045809329E-003;
2.422500000000000E+009;1.666253209114075E-001;-6.576241552829742E-002;-2.309925155714154E-003;-1.313921529799700E-003;
2.422666666666667E+009;1.657968163490295E-001;-6.787065416574478E-002;-2.284392016008496E-003;-1.235634204931557E-003;
2.422833333333334E+009;1.651642620563507E-001;-7.024239748716354E-002;-2.282179892063141E-003;-1.211616792716086E-003;
2.423000000000000E+009;1.644948124885559E-001;-7.246916741132736E-002;-2.307921415194869E-003;-1.105736475437880E-003;
2.423166666666667E+009;1.640101969242096E-001;-7.482698559761047E-002;-2.252124249935150E-003;-9.244848624803126E-004;
2.423333333333334E+009;1.636542379856110E-001;-7.694564014673233E-002;-2.253759652376175E-003;-7.260205456987023E-004;
2.423500000000000E+009;1.634487956762314E-001;-7.899031788110733E-002;-2.175001427531242E-003;-7.419955800287426E-004;
2.423666666666667E+009;1.635956764221191E-001;-8.114652335643768E-002;-2.194481901824474E-003;-7.708071498200297E-004;
2.423833333333334E+009;1.634181886911392E-001;-8.315579593181610E-002;-2.032549586147070E-003;-6.364507135003805E-004;
2.424000000000000E+009;1.635358631610870E-001;-8.528698980808258E-002;-2.258927095681429E-003;-6.863095914013684E-004;
2.424166666666667E+009;1.635705679655075E-001;-8.710422366857529E-002;-2.199831418693066E-003;-3.471989766694605E-004;
2.424333333333334E+009;1.639542579650879E-001;-8.885445445775986E-002;-2.114890841767192E-003;-4.680172714870423E-004;
2.424500000000000E+009;1.643502861261368E-001;-9.078069776296616E-002;-2.304162131622434E-003;-3.027624916285276E-004;
2.424666666666667E+009;1.647810935974121E-001;-9.243334084749222E-002;-2.204002346843481E-003;-1.957391214091331E-004;
2.424833333333334E+009;1.652644872665405E-001;-9.393583238124847E-002;-2.218136563897133E-003;-7.118841313058510E-005;
2.425000000000000E+009;1.658123433589935E-001;-9.545127302408218E-002;-2.076960634440184E-003;1.960304070962593E-004;
2.425166666666667E+009;1.661594510078430E-001;-9.672605246305466E-002;-2.102054655551910E-003;2.275228471262381E-004;
2.425333333333334E+009;1.666892766952515E-001;-9.796363115310669E-002;-1.919790054671466E-003;2.831905731000006E-004;
2.425500000000000E+009;1.674869954586029E-001;-9.916816651821137E-002;-1.991481287404895E-003;3.989257966168225E-004;
2.425666666666667E+009;1.680294722318649E-001;-9.993457794189453E-002;-1.825584447942674E-003;5.021801334805787E-004;
2.425833333333334E+009;1.684775650501251E-001;-1.009024009108543E-001;-1.905885059386492E-003;3.972788690589368E-004;
2.426000000000000E+009;1.690743565559387E-001;-1.015651375055313E-001;-1.559377880766988E-003;5.652985419146717E-004;
2.426166666666667E+009;1.697369515895844E-001;-1.021881178021431E-001;-1.557643176056445E-003;6.207679398357868E-004;
2.426333333333334E+009;1.700822114944458E-001;-1.027566865086556E-001;-1.480388105846942E-003;6.953604752197862E-004;
2.426500000000000E+009;1.707231849431992E-001;-1.030143350362778E-001;-1.396554987877607E-003;7.094058673828840E-004;
2.426666666666667E+009;1.711599826812744E-001;-1.033977866172791E-001;-1.248203683644533E-003;5.034757195971906E-004;
2.426833333333334E+009;1.717077344655991E-001;-1.037195473909378E-001;-1.187612419016659E-003;6.521629402413964E-004;
2.427000000000000E+009;1.719408035278320E-001;-1.039099842309952E-001;-1.098506734706461E-003;6.534607964567840E-004;
2.427166666666667E+009;1.721397489309311E-001;-1.039399504661560E-001;-1.077585387974978E-003;6.192579749040306E-004;
2.427333333333334E+009;1.723462045192719E-001;-1.042006313800812E-001;-1.068213488906622E-003;6.384920561686158E-004;
2.427500000000000E+009;1.724010109901428E-001;-1.042228043079376E-001;-1.129994750954211E-003;5.842601531185210E-004;
2.427666666666667E+009;1.722687929868698E-001;-1.042953953146935E-001;-9.942940669134259E-004;4.541664675343782E-004;
