# Version 1.00
#
freq[Hz];re:Trc1_S11;im:Trc1_S11;re:Trc2_S21;im:Trc2_S21;
2.400000000000000E+009;1.687796711921692E-001;4.595915973186493E-002;-4.028263501822949E-003;1.157582504674792E-003;
2.400166666666667E+009;1.698928475379944E-001;4.489832371473312E-002;-3.954208921641111E-003;1.200707978568971E-003;
2.400333333333334E+009;1.707778573036194E-001;4.383049160242081E-002;-3.851950401440263E-003;1.443030429072678E-003;
2.400500000000000E+009;1.717308908700943E-001;4.274130240082741E-002;-3.845980158075690E-003;1.580037875100970E-003;
2.400666666666667E+009;1.725304573774338E-001;4.179398715496063E-002;-3.848264459520578E-003;1.565947779454291E-003;
2.400833333333334E+009;1.736250817775726E-001;4.110864177346230E-002;-3.835135838016868E-003;1.826785388402641E-003;
2.401000000000000E+009;1.743952333927155E-001;4.027461260557175E-002;-3.651523264124990E-003;1.769194379448891E-003;
2.401166666666667E+009;1.751326173543930E-001;3.963081166148186E-002;-3.611828200519085E-003;1.912110717967153E-003;
2.401333333333334E+009;1.759143322706223E-001;3.875038772821426E-002;-3.588618012145162E-003;2.071680268272758E-003;
2.401500000000000E+009;1.766705513000488E-001;3.828511014580727E-002;-3.421745728701353E-003;2.169068437069655E-003;
2.401666666666667E+009;1.774217784404755E-001;3.761821612715721E-002;-3.408279502764344E-003;2.221066039055586E-003;
2.401833333333334E+009;1.777431368827820E-001;3.710781782865524E-002;-3.350147278979421E-003;2.441400662064552E-003;
2.402000000000000E+009;1.783632487058640E-001;3.644811362028122E-002;-3.210766706615686E-003;2.253261860460043E-003;
2.402166666666667E+009;1.787183284759522E-001;3.574894368648529E-002;-3.171396441757679E-003;2.325541805475950E-003;
2.402333333333334E+009;1.790518462657929E-001;3.521133214235306E-002;-3.230742411687970E-003;2.526600146666169E-003;
2.402500000000000E+009;1.796796470880508E-001;3.484866768121719E-002;-3.180944127961993E-003;2.762819640338421E-003;
2.402666666666667E+009;1.799934357404709E-001;3.407204523682594E-002;-3.146593458950520E-003;2.787692937999964E-003;
2.402833333333334E+009;1.799312978982925E-001;3.353627771139145E-002;-3.154461039230228E-003;2.835724502801895E-003;
2.403000000000000E+009;1.800809055566788E-001;3.270036727190018E-002;-3.042655065655708E-003;2.749106613919139E-003;
2.403166666666667E+009;1.800792962312698E-001;3.184951841831207E-002;-2.880909247323871E-003;2.918349113315344E-003;
2.403333333333334E+009;1.800557821989059E-001;3.112195432186127E-002;-2.838818589225411E-003;3.333781380206347E-003;
2.403500000000000E+009;1.798996627330780E-001;3.019532933831215E-002;-2.912918804213405E-003;3.234453266486526E-003;
2.403666666666667E+009;1.797004640102387E-001;2.912578731775284E-002;-2.707200357690454E-003;3.229497000575066E-003;
2.403833333333334E+009;1.794817000627518E-001;2.802734822034836E-002;-2.725680125877261E-003;3.504411783069372E-003;
2.404000000000000E+009;1.792516708374023E-001;2.707557938992977E-002;-2.664424944669008E-003;3.572296351194382E-003;
2.404166666666667E+009;1.787006109952927E-001;2.574658021330833E-002;-2.571801654994488E-003;3.837716765701771E-003;
2.404333333333334E+009;1.781028956174851E-001;2.462682500481606E-002;-2.376981545239687E-003;3.992393612861633E-003;
2.404500000000000E+009;1.776901185512543E-001;2.302097156643868E-002;-2.302073640748859E-003;4.290762357413769E-003;
2.404666666666667E+009;1.773689836263657E-001;2.184041962027550E-002;-2.370778704062104E-003;4.170695785433054E-003;
2.404833333333334E+009;1.766987442970276E-001;2.040189690887928E-002;-2.081798622384667E-003;4.297104664146900E-003;
2.405000000000000E+009;1.762856841087341E-001;1.878755167126656E-002;-1.829602057114244E-003;4.442321136593819E-003;
2.405166666666667E+009;1.756950020790100E-001;1.723691076040268E-002;-1.755925477482379E-003;4.506935365498066E-003;
2.405333333333334E+009;1.754259020090103E-001;1.557250879704952E-002;-1.470504561439157E-003;4.582974594086409E-003;
2.405500000000000E+009;1.749895364046097E-001;1.394933927804232E-002;-1.307753496803343E-003;4.793066997081041E-003;
2.405666666666667E+009;1.743742078542709E-001;1.228948496282101E-002;-1.051633735187352E-003;4.851081874221563E-003;
2.405833333333334E+009;1.739366501569748E-001;1.050205435603857E-002;-9.086067439056933E-004;4.651273600757122E-003;
2.406000000000000E+009;1.737397760152817E-001;8.513912558555603E-003;-7.995679625310004E-004;4.826904740184546E-003;
2.406166666666667E+009;1.733027398586273E-001;6.731362547725439E-003;-5.359797505661845E-004;4.768729209899902E-003;
2.406333333333334E+009;1.733164489269257E-001;4.653922282159329E-003;-4.684619198087603E-004;4.707663320004940E-003;
2.406500000000000E+009;1.730149239301682E-001;2.613037591800094E-003;-3.503159678075463E-004;4.956237506121397E-003;
2.406666666666667E+009;1.728683114051819E-001;7.048833067528904E-004;4.338570306572365E-006;4.958936478942633E-003;
2.406833333333334E+009;1.727710813283920E-001;-1.417425926774740E-003;1.753020624164492E-004;4.936026409268379E-003;
2.407000000000000E+009;1.728089749813080E-001;-3.482642816379666E-003;3.085596836172044E-004;4.811001475900412E-003;
2.407166666666667E+009;1.729370951652527E-001;-5.394699983298779E-003;5.192453972995281E-004;4.948427435010672E-003;
2.407333333333334E+009;1.730221658945084E-001;-7.715121842920780E-003;5.959286354482174E-004;4.896367900073528E-003;
2.407500000000000E+009;1.732003241777420E-001;-9.761690162122250E-003;8.161383448168635E-004;4.788598977029324E-003;
2.407666666666667E+009;1.734232306480408E-001;-1.175948139280081E-002;1.088944030925632E-003;4.807322286069393E-003;
2.407833333333334E+009;1.736102700233460E-001;-1.406384445726872E-002;1.369331963360310E-003;4.772886633872986E-003;
2.408000000000000E+009;1.740884184837341E-001;-1.619789749383926E-002;1.265004393644631E-003;4.779130686074495E-003;
2.408166666666667E+009;1.743835508823395E-001;-1.796524226665497E-002;1.579972216859460E-003;4.562980495393276E-003;
2.408333333333334E+009;1.749043464660645E-001;-1.996277458965778E-002;1.814878312870860E-003;4.411955364048481E-003;
2.408500000000000E+009;1.752357780933380E-001;-2.204315178096294E-002;2.128586871549487E-003;4.407186061143875E-003;
2.408666666666667E+009;1.754886806011200E-001;-2.387557365000248E-002;2.199236536398530E-003;4.394835326820612E-003;
2.408833333333334E+009;1.759132146835327E-001;-2.574113756418228E-002;2.455777488648891E-003;4.264326766133308E-003;
2.409000000000000E+009;1.763367503881455E-001;-2.730306796729565E-002;2.425620332360268E-003;4.135194234549999E-003;
2.409166666666667E+009;1.766111254692078E-001;-2.892458625137806E-002;2.547755604609847E-003;4.000637680292130E-003;
2.409333333333334E+009;1.772725731134415E-001;-3.050540387630463E-002;2.611600793898106E-003;3.772427793592215E-003;
2.409500000000000E+009;1.774792373180389E-001;-3.189724683761597E-002;2.903744811192155E-003;3.727504052221775E-003;
2.409666666666667E+009;1.778872013092041E-001;-3.284946456551552E-002;2.975286915898323E-003;3.594477195292711E-003;
2.409833333333334E+009;1.782679855823517E-001;-3.397062420845032E-002;3.078601090237498E-003;3.539051394909620E-003;
2.410000000000000E+009;1.787638515233994E-001;-3.514387086033821E-002;3.160310909152031E-003;3.397146239876747E-003;
2.410166666666667E+009;1.791994273662567E-001;-3.592626750469208E-002;3.261693054810166E-003;3.259741468355060E-003;
2.410333333333334E+009;1.796500831842423E-001;-3.662541881203651E-002;3.480954328551889E-003;3.241730388253927E-003;
2.410500000000000E+009;1.800384670495987E-001;-3.757588937878609E-002;3.631777130067349E-003;3.141505876556039E-003;
2.410666666666667E+009;1.804236918687820E-001;-3.837353363633156E-002;3.723877714946866E-003;3.007996128872037E-003;
2.410833333333334E+009;1.807292550802231E-001;-3.887128457427025E-002;3.638488240540028E-003;2.835223218426108E-003;
2.411000000000000E+009;1.810511350631714E-001;-3.949275240302086E-002;3.805989166721702E-003;2.588975708931685E-003;
2.411166666666667E+009;1.812407374382019E-001;-3.998236730694771E-002;3.855588613077998E-003;2.667515305802226E-003;
2.411333333333334E+009;1.814562678337097E-001;-4.039028659462929E-002;3.782124491408467E-003;2.423825208097696E-003;
2.411500000000000E+009;1.815592795610428E-001;-4.088570177555084E-002;3.853269852697849E-003;2.213057130575180E-003;
2.411666666666667E+009;1.817843616008759E-001;-4.140192642807961E-002;3.841157071292400E-003;2.025628928095102E-003;
2.411833333333334E+009;1.815885156393051E-001;-4.158805310726166E-002;3.938283305615187E-003;1.931546023115516E-003;
2.412000000000000E+009;1.814086884260178E-001;-4.217579960823059E-002;4.059596918523312E-003;1.879275776445866E-003;
2.412166666666667E+009;1.810678690671921E-001;-4.244647175073624E-002;4.154003690928221E-003;1.657117158174515E-003;
2.412333333333334E+009;1.809208244085312E-001;-4.284376651048660E-002;4.085250198841095E-003;1.602909294888377E-003;
2.412500000000000E+009;1.802598237991333E-001;-4.312993958592415E-002;4.180158022791147E-003;1.479091471992433E-003;
2.412666666666667E+009;1.798801869153976E-001;-4.369565472006798E-002;4.207037389278412E-003;1.283281249925494E-003;
2.412833333333334E+009;1.791843175888062E-001;-4.385634884238243E-002;4.141704645007849E-003;9.726638672873378E-004;
2.413000000000000E+009;1.784984618425369E-001;-4.441314935684204E-002;4.285960458219051E-003;8.498665411025286E-004;
2.413166666666667E+009;1.775812059640884E-001;-4.473469033837318E-002;4.143788944929838E-003;7.294922834262252E-004;
2.413333333333334E+009;1.766722053289414E-001;-4.514743760228157E-002;4.171533510088921E-003;8.351757423952222E-004;
2.413500000000000E+009;1.756652891635895E-001;-4.569684341549873E-002;4.189894068986177E-003;7.103789830580354E-004;
2.413666666666667E+009;1.746409833431244E-001;-4.616262391209602E-002;4.202512558549643E-003;5.214001284912229E-004;
2.413833333333334E+009;1.735023707151413E-001;-4.670202732086182E-002;4.226929042488337E-003;3.814765950664878E-004;
2.414000000000000E+009;1.724336445331574E-001;-4.741897433996201E-002;4.276080988347530E-003;2.476784284226596E-004;
2.414166666666667E+009;1.713949292898178E-001;-4.810910671949387E-002;4.259638022631407E-003;2.001103275688365E-004;
2.414333333333334E+009;1.700671315193176E-001;-4.879544675350189E-002;4.364451393485069E-003;-1.351075479760766E-004;
2.414500000000000E+009;1.689131408929825E-001;-4.975514858961105E-002;4.246187396347523E-003;-1.975264312932268E-004;
2.414666666666667E+009;1.678295582532883E-001;-5.050656199455261E-002;4.248035140335560E-003;-2.984682796522975E-004;
2.414833333333334E+009;1.664178967475891E-001;-5.147616937756538E-002;4.181214142590761E-003;-5.187834030948579E-004;
2.415000000000000E+009;1.651621162891388E-001;-5.263815447688103E-002;4.163558129221201E-003;-6.297712097875774E-004;
2.415166666666667E+009;1.639992445707321E-001;-5.382906645536423E-002;4.123647231608629E-003;-7.703280425630510E-004;
2.415333333333334E+009;1.628496646881104E-001;-5.520679056644440E-002;4.054034128785133E-003;-9.064835030585527E-004;
2.415500000000000E+009;1.617780178785324E-001;-5.649431049823761E-002;4.065062385052443E-003;-1.098310458473861E-003;
2.415666666666667E+009;1.606806963682175E-001;-5.782580748200417E-002;4.152931738644838E-003;-1.191610470414162E-003;
2.415833333333334E+009;1.596043109893799E-001;-5.949388816952705E-002;4.126926418393850E-003;-1.413741265423596E-003;
2.416000000000000E+009;1.585291773080826E-001;-6.104758381843567E-002;3.838201519101858E-003;-1.441479194909334E-003;
2.416166666666667E+009;1.576705873012543E-001;-6.275074183940888E-002;3.839523531496525E-003;-1.522219972684979E-003;
2.416333333333334E+009;1.567142307758331E-001;-6.443632394075394E-002;3.833275055512786E-003;-1.750050229020417E-003;
2.416500000000000E+009;1.556923538446426E-001;-6.625059992074966E-002;3.619987517595291E-003;-1.775963813997805E-003;
2.416666666666667E+009;1.547849625349045E-001;-6.806487590074539E-002;3.634502412751317E-003;-2.012926619499922E-003;
2.416833333333334E+009;1.542041748762131E-001;-7.018993049860001E-002;3.559453412890434E-003;-1.982579939067364E-003;
2.417000000000000E+009;1.531016230583191E-001;-7.191704958677292E-002;3.534917486831546E-003;-2.177597489207983E-003;
2.417166666666667E+009;1.525182873010635E-001;-7.388990372419357E-002;3.379476955160499E-003;-2.302449429407716E-003;
2.417333333333334E+009;1.520431488752365E-001;-7.572612166404724E-002;3.266258863732219E-003;-2.305278321728110E-003;
2.417500000000000E+009;1.514235734939575E-001;-7.778818160295487E-002;3.224934451282024E-003;-2.388125751167536E-003;
2.417666666666667E+009;1.510548442602158E-001;-7.953289151191711E-002;3.050996223464608E-003;-2.570455893874168E-003;
2.417833333333334E+009;1.505730003118515E-001;-8.128426223993301E-002;2.961299149319530E-003;-2.695375122129917E-003;
2.418000000000000E+009;1.501272320747376E-001;-8.326961845159531E-002;2.950533758848906E-003;-2.757939975708723E-003;
2.418166666666667E+009;1.498811244964600E-001;-8.481001853942871E-002;2.802378498017788E-003;-2.788113197311759E-003;
2.418333333333334E+009;1.499215811491013E-001;-8.657700568437576E-002;2.781422808766365E-003;-2.847941825166345E-003;
2.418500000000000E+009;1.495848745107651E-001;-8.810246735811234E-002;2.593749435618520E-003;-3.044530516490340E-003;
2.418666666666667E+009;1.496466547250748E-001;-8.981015533208847E-002;2.495871856808662E-003;-3.115026745945215E-003;
2.418833333333334E+009;1.494819223880768E-001;-9.134408086538315E-002;2.339297672733665E-003;-3.072687424719334E-003;
2.419000000000000E+009;1.494585424661636E-001;-9.260661154985428E-002;2.103288425132632E-003;-3.073298372328281E-003;
2.419166666666667E+009;1.495855599641800E-001;-9.381359815597534E-002;2.052590949460864E-003;-3.254889743402600E-003;
2.419333333333334E+009;1.495169252157211E-001;-9.479518234729767E-002;1.800315105356276E-003;-3.351301187649369E-003;
2.419500000000000E+009;1.498155891895294E-001;-9.609413892030716E-002;1.795637654140592E-003;-3.414414823055267E-003;
2.419666666666667E+009;1.500454545021057E-001;-9.702085703611374E-002;1.733290497213602E-003;-3.402147442102432E-003;
2.419833333333334E+009;1.503020823001862E-001;-9.761337190866470E-002;1.695868209935725E-003;-3.170813433825970E-003;
2.420000000000000E+009;1.505389958620071E-001;-9.851945191621780E-002;1.455955673009157E-003;-3.215208183974028E-003;
2.420166666666667E+009;1.507357805967331E-001;-9.896861761808395E-002;1.374391373246908E-003;-3.380522830411792E-003;
2.420333333333334E+009;1.510762423276901E-001;-9.964358061552048E-002;1.312967389822006E-003;-3.404310205951333E-003;
2.420500000000000E+009;1.514147818088532E-001;-9.973686188459396E-002;1.144998823292553E-003;-3.300665179267526E-003;
2.420666666666667E+009;1.515747010707855E-001;-1.000913381576538E-001;9.616069728508592E-004;-3.253733972087503E-003;
2.420833333333334E+009;1.517681181430817E-001;-1.002295538783073E-001;9.066165657714009E-004;-3.150423523038626E-003;
2.421000000000000E+009;1.519202739000320E-001;-1.005274355411530E-001;8.262679330073297E-004;-3.171643009409308E-003;
2.421166666666667E+009;1.522491276264191E-001;-1.003705114126205E-001;7.188710733316839E-004;-3.208830254152417E-003;
2.421333333333334E+009;1.523922234773636E-001;-1.004268378019333E-001;7.217155070975423E-004;-3.259029705077410E-003;
2.421500000000000E+009;1.523472666740418E-001;-1.003236323595047E-001;7.524729589931667E-004;-3.209544112905860E-003;
2.421666666666667E+009;1.523290425539017E-001;-1.001848205924034E-001;6.820001290179789E-004;-3.175921738147736E-003;
2.421833333333334E+009;1.524373590946198E-001;-1.001460999250412E-001;7.201730040833354E-004;-3.146067727357149E-003;
2.422000000000000E+009;1.521798372268677E-001;-9.974621236324310E-002;5.896738730370998E-004;-3.305263584479690E-003;
2.422166666666667E+009;1.520005613565445E-001;-9.961349517107010E-002;6.307254661805928E-004;-3.357542445883155E-003;
2.422333333333334E+009;1.517071723937988E-001;-9.920196235179901E-002;5.218277219682932E-004;-3.368353471159935E-003;
2.422500000000000E+009;1.512837409973145E-001;-9.902231395244598E-002;5.620673182420433E-004;-3.432127414271236E-003;
2.422666666666667E+009;1.505830138921738E-001;-9.870385378599167E-002;4.057758778799325E-004;-3.600094933062792E-003;
2.422833333333334E+009;1.498831808567047E-001;-9.852700680494309E-002;3.475747362244874E-004;-3.561464836820960E-003;
2.423000000000000E+009;1.492446362972260E-001;-9.800960123538971E-002;1.602931442903355E-004;-3.880560165271163E-003;
2.423166666666667E+009;1.484258919954300E-001;-9.785645455121994E-002;4.040086787426844E-005;-3.879500320181251E-003;
2.423333333333334E+009;1.474461108446121E-001;-9.722996503114700E-002;-1.272678346140310E-004;-3.959096502512693E-003;
2.423500000000000E+009;1.462880969047546E-001;-9.711325168609619E-002;-4.673723015002906E-004;-4.048018250614405E-003;
2.423666666666667E+009;1.449281871318817E-001;-9.701476246118546E-002;-5.200427258387208E-004;-3.980510868132114E-003;
2.423833333333334E+009;1.438411176204681E-001;-9.678593277931213E-002;-7.156757055781782E-004;-4.068972077220678E-003;
2.424000000000000E+009;1.424764692783356E-001;-9.651906788349152E-002;-9.853400988504291E-004;-4.169976804405451E-003;
2.424166666666667E+009;1.411219239234924E-001;-9.635136276483536E-002;-1.153786201030016E-003;-4.147830419242382E-003;
2.424333333333334E+009;1.399416774511337E-001;-9.628831595182419E-002;-1.493913820013404E-003;-4.111376125365496E-003;
2.424500000000000E+009;1.383440047502518E-001;-9.630103409290314E-002;-1.589308143593371E-003;-3.762038890272379E-003;
2.424666666666667E+009;1.370844841003418E-001;-9.624241292476654E-002;-1.709535252302885E-003;-3.834819654002786E-003;
2.424833333333334E+009;1.355148255825043E-001;-9.654486179351807E-002;-2.001720014959574E-003;-3.689358010888100E-003;
2.425000000000000E+009;1.341060698032379E-001;-9.694426506757736E-002;-2.142646815627813E-003;-3.607597434893251E-003;
2.425166666666667E+009;1.325309872627258E-001;-9.715301543474197E-002;-2.320474013686180E-003;-3.406889503821731E-003;
2.425333333333334E+009;1.309113651514053E-001;-9.772275388240814E-002;-2.538359956815839E-003;-3.156876424327493E-003;
2.425500000000000E+009;1.295177042484283E-001;-9.847100824117661E-002;-2.637363737449050E-003;-3.110717050731182E-003;
2.425666666666667E+009;1.280658245086670E-001;-9.909033030271530E-002;-2.681409940123558E-003;-2.892994321882725E-003;
2.425833333333334E+009;1.266842782497406E-001;-9.991715103387833E-002;-2.989160129800439E-003;-2.701958874240518E-003;
2.426000000000000E+009;1.252149641513825E-001;-1.010407805442810E-001;-3.045086981728673E-003;-2.520637121051550E-003;
2.426166666666667E+009;1.240501254796982E-001;-1.021781712770462E-001;-2.883136970922351E-003;-2.165836980566382E-003;
2.426333333333334E+009;1.225837096571922E-001;-1.033147051930428E-001;-3.014441812410951E-003;-1.927076489664614E-003;
2.426500000000000E+009;1.213991940021515E-001;-1.044569462537766E-001;-2.840469591319561E-003;-1.825620653107762E-003;
2.426666666666667E+009;1.203877478837967E-001;-1.057756319642067E-001;-3.016641130670905E-003;-1.561363809742034E-003;
2.426833333333334E+009;1.191610991954804E-001;-1.073169112205505E-001;-2.875929931178689E-003;-1.393163925968111E-003;
2.427000000000000E+009;1.181191205978394E-001;-1.090176776051521E-001;-2.746851416304708E-003;-1.254603499546647E-003;
2.427166666666667E+009;1.170730367302895E-001;-1.103778630495071E-001;-2.704294631257653E-003;-1.019447227008641E-003;
2.427333333333334E+009;1.160310730338097E-001;-1.120837107300758E-001;-2.713913796469569E-003;-8.183927857317030E-004;
2.427500000000000E+009;1.154487133026123E-001;-1.138088107109070E-001;-2.594665624201298E-003;-5.048622842878103E-004;
2.427666666666667E+009;1.145574972033501E-001;-1.154209300875664E-001;-2.426330465823412E-003;-5.300388438627124E-004;
