# Version 1.00
#
freq[Hz];re:Trc1_S11;im:Trc1_S11;re:Trc2_S21;im:Trc2_S21;
2.400000000000000E+009;1.688571274280548E-001;4.585343971848488E-002;-3.907743375748396E-003;9.631286957301199E-004;
2.400166666666667E+009;1.698344051837921E-001;4.491912573575974E-002;-3.942263312637806E-003;1.203656895086169E-003;
2.400333333333334E+009;1.706589609384537E-001;4.380513727664948E-002;-3.969392739236355E-003;1.213212846778333E-003;
2.400500000000000E+009;1.716700047254562E-001;4.301679134368897E-002;-3.839752404019237E-003;1.393063459545374E-003;
2.400666666666667E+009;1.725975424051285E-001;4.201377183198929E-002;-3.936876542866230E-003;1.464818371459842E-003;
2.400833333333334E+009;1.736295521259308E-001;4.110777378082275E-002;-3.894116962328553E-003;1.651610829867423E-003;
2.401000000000000E+009;1.743050217628479E-001;4.019527509808540E-002;-3.764183958992362E-003;1.812254195101559E-003;
2.401166666666667E+009;1.752849221229553E-001;3.965079039335251E-002;-3.633119165897369E-003;1.887767110019922E-003;
2.401333333333334E+009;1.758403331041336E-001;3.865259513258934E-002;-3.596391761675477E-003;2.102279337123036E-003;
2.401500000000000E+009;1.765885949134827E-001;3.830483928322792E-002;-3.546409308910370E-003;1.883246470242739E-003;
2.401666666666667E+009;1.773112863302231E-001;3.777122870087624E-002;-3.500784747302532E-003;2.263035625219345E-003;
2.401833333333334E+009;1.779973059892654E-001;3.705378994345665E-002;-3.505459288135171E-003;2.375119831413031E-003;
2.402000000000000E+009;1.783213466405869E-001;3.652945160865784E-002;-3.388732206076384E-003;2.405937528237701E-003;
2.402166666666667E+009;1.786912530660629E-001;3.579436987638474E-002;-3.337577218189836E-003;2.474760636687279E-003;
2.402333333333334E+009;1.791459023952484E-001;3.529851511120796E-002;-3.319466719403863E-003;2.656278666108847E-003;
2.402500000000000E+009;1.797036677598953E-001;3.462195396423340E-002;-3.287261119112372E-003;2.545119030401111E-003;
2.402666666666667E+009;1.797794848680496E-001;3.398183360695839E-002;-3.193087410181761E-003;2.681463724002242E-003;
2.402833333333334E+009;1.800745874643326E-001;3.334971517324448E-002;-3.118400229141116E-003;2.770089544355869E-003;
2.403000000000000E+009;1.800927817821503E-001;3.268081694841385E-002;-2.901079133152962E-003;2.818195614963770E-003;
2.403166666666667E+009;1.800750792026520E-001;3.168562427163124E-002;-2.925886074081063E-003;2.884829882532358E-003;
2.403333333333334E+009;1.801362335681915E-001;3.109516017138958E-002;-2.901354338973761E-003;3.267725696787238E-003;
2.403500000000000E+009;1.797788739204407E-001;3.007330000400543E-002;-2.627751557156444E-003;3.283431753516197E-003;
2.403666666666667E+009;1.794447153806686E-001;2.903345413506031E-002;-2.823716262355447E-003;3.266669111326337E-003;
2.403833333333334E+009;1.795380413532257E-001;2.797400392591953E-002;-2.741429954767227E-003;3.453610697761178E-003;
2.404000000000000E+009;1.791541427373886E-001;2.696937881410122E-002;-2.677583601325750E-003;3.710284596309066E-003;
2.404166666666667E+009;1.786681264638901E-001;2.566599473357201E-002;-2.737460192292929E-003;3.864073660224676E-003;
2.404333333333334E+009;1.781478524208069E-001;2.452409826219082E-002;-2.613252960145474E-003;3.962714225053787E-003;
2.404500000000000E+009;1.777115911245346E-001;2.299521677196026E-002;-2.490926999598742E-003;4.186828620731831E-003;
2.404666666666667E+009;1.772243380546570E-001;2.169304713606834E-002;-2.231123857200146E-003;4.110733512789011E-003;
2.404833333333334E+009;1.767387539148331E-001;2.026081457734108E-002;-2.152574714273214E-003;4.359638784080744E-003;
2.405000000000000E+009;1.761622875928879E-001;1.882246136665344E-002;-2.000115346163511E-003;4.526951350271702E-003;
2.405166666666667E+009;1.757436245679855E-001;1.714322157204151E-002;-1.642597373574972E-003;4.535309039056301E-003;
2.405333333333334E+009;1.754062026739121E-001;1.533165294677019E-002;-1.543907215818763E-003;4.632190335541964E-003;
2.405500000000000E+009;1.746669113636017E-001;1.384301763027906E-002;-1.334397471509874E-003;4.931298084557056E-003;
2.405666666666667E+009;1.744555532932282E-001;1.220929250121117E-002;-1.059702015481889E-003;4.742457997053862E-003;
2.405833333333334E+009;1.739089637994766E-001;1.045136339962483E-002;-1.081834430806339E-003;4.879642277956009E-003;
2.406000000000000E+009;1.736794710159302E-001;8.370948955416679E-003;-7.574906921945512E-004;4.839055705815554E-003;
2.406166666666667E+009;1.732412725687027E-001;6.704138591885567E-003;-4.466701648198068E-004;4.851127509027720E-003;
2.406333333333334E+009;1.731981933116913E-001;4.698636010289192E-003;-5.049036117270589E-004;4.745808895677328E-003;
2.406500000000000E+009;1.729398667812347E-001;2.631653333082795E-003;-3.587406245060265E-004;4.990247543901205E-003;
2.406666666666667E+009;1.726110577583313E-001;5.978178814984858E-004;-1.691353390924633E-004;4.920614417642355E-003;
2.406833333333334E+009;1.727541983127594E-001;-1.611181069165468E-003;1.159537423518486E-004;4.951735492795706E-003;
2.407000000000000E+009;1.726849675178528E-001;-3.643126692622900E-003;1.780926104402170E-004;4.883463960140944E-003;
2.407166666666667E+009;1.728856712579727E-001;-5.558978766202927E-003;4.018681647721678E-004;4.914060700684786E-003;
2.407333333333334E+009;1.728813201189041E-001;-7.867318578064442E-003;7.131761522032321E-004;5.001407116651535E-003;
2.407500000000000E+009;1.731185764074326E-001;-9.912014007568359E-003;7.553515606559813E-004;4.961169324815273E-003;
2.407666666666667E+009;1.734529584646225E-001;-1.185680646449328E-002;1.087650074623525E-003;4.865716677159071E-003;
2.407833333333334E+009;1.735207885503769E-001;-1.400477718561888E-002;1.215095282532275E-003;4.743119701743126E-003;
2.408000000000000E+009;1.739162802696228E-001;-1.610173285007477E-002;1.428555580787361E-003;4.830642137676477E-003;
2.408166666666667E+009;1.741929501295090E-001;-1.787002198398113E-002;1.576195470988751E-003;4.537757951766253E-003;
2.408333333333334E+009;1.747674494981766E-001;-2.005149051547051E-002;1.696847262792289E-003;4.584755748510361E-003;
2.408500000000000E+009;1.750809848308563E-001;-2.196420729160309E-002;2.125320257619023E-003;4.478027112782002E-003;
2.408666666666667E+009;1.754193305969238E-001;-2.396410517394543E-002;2.117135096341372E-003;4.406007938086987E-003;
2.408833333333334E+009;1.757767051458359E-001;-2.568428032100201E-002;2.305876696482301E-003;4.311075899749994E-003;
2.409000000000000E+009;1.761793643236160E-001;-2.738611958920956E-002;2.534037223085761E-003;4.051218740642071E-003;
2.409166666666667E+009;1.766576319932938E-001;-2.884715422987938E-002;2.505206735804677E-003;4.027833230793476E-003;
2.409333333333334E+009;1.770246475934982E-001;-3.049643337726593E-002;2.702086465433240E-003;3.950465936213732E-003;
2.409500000000000E+009;1.774379909038544E-001;-3.180066868662834E-002;2.885105786845088E-003;3.829233348369598E-003;
2.409666666666667E+009;1.777109056711197E-001;-3.287176415324211E-002;2.945876680314541E-003;3.683748655021191E-003;
2.409833333333334E+009;1.780788004398346E-001;-3.402273356914520E-002;3.112696111202240E-003;3.512243973091245E-003;
2.410000000000000E+009;1.786953061819077E-001;-3.500080853700638E-002;3.236955031752586E-003;3.433889709413052E-003;
2.410166666666667E+009;1.792390495538712E-001;-3.603921085596085E-002;3.356645815074444E-003;3.286330727860332E-003;
2.410333333333334E+009;1.795829683542252E-001;-3.665558993816376E-002;3.349150065332651E-003;3.117148531600833E-003;
2.410500000000000E+009;1.799181699752808E-001;-3.741433471441269E-002;3.568803425878286E-003;3.125183982774615E-003;
2.410666666666667E+009;1.803679615259171E-001;-3.822931647300720E-002;3.592695808038116E-003;2.843309892341495E-003;
2.410833333333334E+009;1.808992177248001E-001;-3.868119418621063E-002;3.729657968506217E-003;2.701040823012590E-003;
2.411000000000000E+009;1.810921579599381E-001;-3.929708153009415E-002;3.724058391526341E-003;2.465543104335666E-003;
2.411166666666667E+009;1.813046336174011E-001;-3.994454070925713E-002;3.690577344968915E-003;2.460208255797625E-003;
2.411333333333334E+009;1.814124882221222E-001;-4.036530107259750E-002;4.064236767590046E-003;2.284188056364656E-003;
2.411500000000000E+009;1.814899295568466E-001;-4.094081372022629E-002;3.880130127072334E-003;2.245006384328008E-003;
2.411666666666667E+009;1.816504448652268E-001;-4.134871438145638E-002;3.932012710720301E-003;1.943243667483330E-003;
2.411833333333334E+009;1.817582249641419E-001;-4.160766676068306E-002;3.999303560703993E-003;1.977300271391869E-003;
2.412000000000000E+009;1.813583672046661E-001;-4.194340482354164E-002;4.137923941016197E-003;1.556201488710940E-003;
2.412166666666667E+009;1.810602098703384E-001;-4.232390597462654E-002;3.993835765868425E-003;1.613559084944427E-003;
2.412333333333334E+009;1.808751076459885E-001;-4.282404109835625E-002;4.175934009253979E-003;1.477279001846910E-003;
2.412500000000000E+009;1.802654564380646E-001;-4.315458610653877E-002;4.085610155016184E-003;1.406029332429171E-003;
2.412666666666667E+009;1.798127740621567E-001;-4.350749030709267E-002;4.085038322955370E-003;1.262744539417327E-003;
2.412833333333334E+009;1.791277527809143E-001;-4.390063881874085E-002;4.331652540713549E-003;1.118035637773573E-003;
2.413000000000000E+009;1.782999485731125E-001;-4.430101066827774E-002;4.257968626916409E-003;1.092125894501805E-003;
2.413166666666667E+009;1.776544004678726E-001;-4.472850635647774E-002;4.321173764765263E-003;9.215464233420789E-004;
2.413333333333334E+009;1.765809953212738E-001;-4.511078447103500E-002;4.149836953729391E-003;6.816018722020090E-004;
2.413500000000000E+009;1.757012307643890E-001;-4.546771198511124E-002;4.276204854249954E-003;6.010403158143163E-004;
2.413666666666667E+009;1.748267263174057E-001;-4.623009264469147E-002;4.311201628297567E-003;5.782879306934774E-004;
2.413833333333334E+009;1.735590994358063E-001;-4.656716063618660E-002;4.321832675486803E-003;3.605772217269987E-004;
2.414000000000000E+009;1.724219620227814E-001;-4.731250926852226E-002;4.235265310853720E-003;2.587973140180111E-004;
2.414166666666667E+009;1.712908148765564E-001;-4.802506044507027E-002;4.190218634903431E-003;2.574939935584553E-005;
2.414333333333334E+009;1.701244562864304E-001;-4.876393824815750E-002;4.227050114423037E-003;-1.843931386247277E-004;
2.414500000000000E+009;1.690779775381088E-001;-4.954596236348152E-002;4.261600319296122E-003;-1.379721215926111E-004;
2.414666666666667E+009;1.678337156772614E-001;-5.040489137172699E-002;4.302912391722202E-003;-3.742520639207214E-004;
2.414833333333334E+009;1.665595620870590E-001;-5.154103785753250E-002;4.244549199938774E-003;-4.908213159069419E-004;
2.415000000000000E+009;1.652967035770416E-001;-5.250213667750359E-002;4.273590166121721E-003;-5.382227245718241E-004;
2.415166666666667E+009;1.641592532396317E-001;-5.377828702330589E-002;4.160200245678425E-003;-6.894198013469577E-004;
2.415333333333334E+009;1.629752069711685E-001;-5.518104508519173E-002;4.178704693913460E-003;-9.557824814692140E-004;
2.415500000000000E+009;1.618503630161285E-001;-5.635163187980652E-002;4.077793098986149E-003;-1.062927418388426E-003;
2.415666666666667E+009;1.607768684625626E-001;-5.775458738207817E-002;4.205969162285328E-003;-1.094269799068570E-003;
2.415833333333334E+009;1.596628278493881E-001;-5.958528071641922E-002;4.158045165240765E-003;-1.352931023575366E-003;
2.416000000000000E+009;1.585634201765060E-001;-6.107656657695770E-002;4.008789546787739E-003;-1.549691311083734E-003;
2.416166666666667E+009;1.576983779668808E-001;-6.267952919006348E-002;3.793947165831924E-003;-1.620996044948697E-003;
2.416333333333334E+009;1.567208766937256E-001;-6.445877999067307E-002;3.895842237398028E-003;-1.566825783811510E-003;
2.416500000000000E+009;1.557929217815399E-001;-6.633564084768295E-002;3.714583115652204E-003;-1.777764875441790E-003;
2.416666666666667E+009;1.548324227333069E-001;-6.805516034364700E-002;3.702243091538549E-003;-1.988287782296538E-003;
2.416833333333334E+009;1.542188674211502E-001;-7.005091011524200E-002;3.568748943507671E-003;-2.094346564263105E-003;
2.417000000000000E+009;1.532947123050690E-001;-7.202340662479401E-002;3.635881468653679E-003;-2.160832053050399E-003;
2.417166666666667E+009;1.527068763971329E-001;-7.389395684003830E-002;3.330137813463807E-003;-2.239210531115532E-003;
2.417333333333334E+009;1.520375907421112E-001;-7.568252831697464E-002;3.146920120343566E-003;-2.370602218434215E-003;
2.417500000000000E+009;1.514512151479721E-001;-7.787812501192093E-002;3.121095709502697E-003;-2.368840388953686E-003;
2.417666666666667E+009;1.510861665010452E-001;-7.950180768966675E-002;3.070440609008074E-003;-2.441709861159325E-003;
2.417833333333334E+009;1.506340950727463E-001;-8.141443133354187E-002;3.039472037926316E-003;-2.584879519417882E-003;
2.418000000000000E+009;1.502729505300522E-001;-8.325081318616867E-002;2.872640965506434E-003;-2.834206912666559E-003;
2.418166666666667E+009;1.499747931957245E-001;-8.494317531585693E-002;2.701624529436231E-003;-2.793238731101155E-003;
2.418333333333334E+009;1.499995589256287E-001;-8.668028563261032E-002;2.655549440532923E-003;-2.805827418342233E-003;
2.418500000000000E+009;1.497741788625717E-001;-8.823413401842117E-002;2.471714280545712E-003;-3.041057614609599E-003;
2.418666666666667E+009;1.496899127960205E-001;-8.989538252353668E-002;2.462910255417228E-003;-3.033107146620750E-003;
2.418833333333334E+009;1.495467722415924E-001;-9.140511602163315E-002;2.318394137546420E-003;-3.120374632999301E-003;
2.419000000000000E+009;1.494416296482086E-001;-9.244077652692795E-002;2.230707323178649E-003;-3.195448778569698E-003;
2.419166666666667E+009;1.497587114572525E-001;-9.387798607349396E-002;2.155077410861850E-003;-3.209501039236784E-003;
2.419333333333334E+009;1.494921892881393E-001;-9.481628239154816E-002;1.902966294437647E-003;-3.223868785426021E-003;
2.419500000000000E+009;1.498140096664429E-001;-9.625039249658585E-002;1.857511699199677E-003;-3.388975281268358E-003;
2.419666666666667E+009;1.501737982034683E-001;-9.700398147106171E-002;1.691931625828147E-003;-3.465663874521852E-003;
2.419833333333334E+009;1.502484381198883E-001;-9.791221469640732E-002;1.554910093545914E-003;-3.375867847353220E-003;
2.420000000000000E+009;1.505888104438782E-001;-9.842283278703690E-002;1.354787964373827E-003;-3.256972180679441E-003;
2.420166666666667E+009;1.506703197956085E-001;-9.900209307670593E-002;1.319912029430270E-003;-3.343979129567742E-003;
2.420333333333334E+009;1.510783880949020E-001;-9.962467104196549E-002;1.065031625330448E-003;-3.316672751680017E-003;
2.420500000000000E+009;1.514550149440765E-001;-9.978642314672470E-002;1.147979404777288E-003;-3.198921680450440E-003;
2.420666666666667E+009;1.516907513141632E-001;-1.000367701053619E-001;1.049558282829821E-003;-3.279994940385222E-003;
2.420833333333334E+009;1.517423242330551E-001;-1.002211868762970E-001;9.354824433103204E-004;-3.281779820099473E-003;
2.421000000000000E+009;1.519117802381516E-001;-1.004692390561104E-001;8.965237066149712E-004;-3.306334372609854E-003;
2.421166666666667E+009;1.522673070430756E-001;-1.004752442240715E-001;7.012042333371937E-004;-3.253443399444223E-003;
2.421333333333334E+009;1.523131877183914E-001;-1.004370748996735E-001;6.325820577330887E-004;-3.229207359254360E-003;
2.421500000000000E+009;1.523921191692352E-001;-1.003785580396652E-001;7.315244292840362E-004;-3.155968850478530E-003;
2.421666666666667E+009;1.523995548486710E-001;-1.001115515828133E-001;6.007416523061693E-004;-3.327785991132259E-003;
2.421833333333334E+009;1.523159593343735E-001;-1.000505089759827E-001;7.188837626017630E-004;-3.203755710273981E-003;
2.422000000000000E+009;1.521933823823929E-001;-9.983501583337784E-002;6.831079954281449E-004;-3.332261461764574E-003;
2.422166666666667E+009;1.518689692020416E-001;-9.976276010274887E-002;4.827406373806298E-004;-3.396460553631187E-003;
2.422333333333334E+009;1.515534669160843E-001;-9.932397305965424E-002;4.292585654184222E-004;-3.517320845276117E-003;
2.422500000000000E+009;1.511072218418121E-001;-9.893637895584106E-002;3.707128053065389E-004;-3.612489439547062E-003;
2.422666666666667E+009;1.505473852157593E-001;-9.891806542873383E-002;2.542475704103708E-004;-3.654924919828773E-003;
2.422833333333334E+009;1.499888747930527E-001;-9.847266972064972E-002;2.728266990743578E-004;-3.728402080014348E-003;
2.423000000000000E+009;1.491983979940414E-001;-9.828418493270874E-002;7.790514064254239E-005;-3.662918694317341E-003;
2.423166666666667E+009;1.482496708631516E-001;-9.779612720012665E-002;-1.903387237689458E-005;-3.826459171250463E-003;
2.423333333333334E+009;1.472576260566711E-001;-9.728650748729706E-002;-1.423437934136018E-004;-3.895452478900552E-003;
2.423500000000000E+009;1.463263779878616E-001;-9.716401249170303E-002;-4.197176604066044E-004;-3.831952344626188E-003;
2.423666666666667E+009;1.449465751647949E-001;-9.706810861825943E-002;-5.998975248076022E-004;-4.004553891718388E-003;
2.423833333333334E+009;1.438920348882675E-001;-9.672825038433075E-002;-6.996049778535962E-004;-3.951286431401968E-003;
2.424000000000000E+009;1.424578726291657E-001;-9.643770754337311E-002;-9.452268714085221E-004;-4.044330678880215E-003;
2.424166666666667E+009;1.411501467227936E-001;-9.637635946273804E-002;-1.310805324465036E-003;-3.898281371220946E-003;
2.424333333333334E+009;1.398056149482727E-001;-9.610626846551895E-002;-1.360182883217931E-003;-3.921245224773884E-003;
2.424500000000000E+009;1.383873075246811E-001;-9.634865820407867E-002;-1.632822328247130E-003;-3.687546821311116E-003;
2.424666666666667E+009;1.369099318981171E-001;-9.620074182748795E-002;-1.805461477488279E-003;-3.781180363148451E-003;
2.424833333333334E+009;1.354824155569077E-001;-9.652128070592880E-002;-2.082853578031063E-003;-3.510219277814031E-003;
2.425000000000000E+009;1.339055150747299E-001;-9.685684740543366E-002;-2.313721226528287E-003;-3.402776317670941E-003;
2.425166666666667E+009;1.324358880519867E-001;-9.729442745447159E-002;-2.437200164422393E-003;-3.471783827990294E-003;
2.425333333333334E+009;1.309615373611450E-001;-9.776490181684494E-002;-2.686991123482585E-003;-3.167785005643964E-003;
2.425500000000000E+009;1.296520382165909E-001;-9.841986745595932E-002;-2.629521768540144E-003;-2.908657770603895E-003;
2.425666666666667E+009;1.279294788837433E-001;-9.910091757774353E-002;-2.834793645888567E-003;-2.901510801166296E-003;
2.425833333333334E+009;1.266447007656097E-001;-9.997085481882095E-002;-2.651824383065105E-003;-2.600970910862088E-003;
2.426000000000000E+009;1.250676959753037E-001;-1.010961160063744E-001;-3.011598018929362E-003;-2.508179517462850E-003;
2.426166666666667E+009;1.239846870303154E-001;-1.021197140216827E-001;-2.948556328192353E-003;-2.174130640923977E-003;
2.426333333333334E+009;1.225115433335304E-001;-1.033494323492050E-001;-3.096075961366296E-003;-1.961550675332546E-003;
2.426500000000000E+009;1.214285939931870E-001;-1.045066714286804E-001;-2.904340159147978E-003;-1.700673135928810E-003;
2.426666666666667E+009;1.203591525554657E-001;-1.058252826333046E-001;-3.064944408833981E-003;-1.476203789934516E-003;
2.426833333333334E+009;1.192410215735436E-001;-1.073143780231476E-001;-2.887879731133580E-003;-1.440602936781943E-003;
2.427000000000000E+009;1.179485544562340E-001;-1.088657900691032E-001;-2.896060235798359E-003;-1.220145612023771E-003;
2.427166666666667E+009;1.170805022120476E-001;-1.103373095393181E-001;-2.728141378611326E-003;-1.000120420940220E-003;
2.427333333333334E+009;1.160157173871994E-001;-1.119624823331833E-001;-2.662871498614550E-003;-7.444138755090535E-004;
2.427500000000000E+009;1.154873594641686E-001;-1.136938929557800E-001;-2.554218983277679E-003;-7.848094683140516E-004;
2.427666666666667E+009;1.147177144885063E-001;-1.154597178101540E-001;-2.416137140244246E-003;-6.781282136216760E-004;
