# Version 1.00
#
freq[Hz];re:Trc1_S11;im:Trc1_S11;re:Trc2_S21;im:Trc2_S21;
2.400000000000000E+009;1.688618212938309E-001;4.597897827625275E-002;-3.978257998824120E-003;1.046626362949610E-003;
2.400166666666667E+009;1.699121296405792E-001;4.488850757479668E-002;-3.790240967646241E-003;1.309288199990988E-003;
2.400333333333334E+009;1.708758026361466E-001;4.376612231135368E-002;-4.094087518751621E-003;1.269798376597464E-003;
2.400500000000000E+009;1.718067824840546E-001;4.277871549129486E-002;-3.925813362002373E-003;1.508473069407046E-003;
2.400666666666667E+009;1.727385967969894E-001;4.189767688512802E-002;-3.797426354140043E-003;1.576227135956287E-003;
2.400833333333334E+009;1.736167371273041E-001;4.122393578290939E-002;-3.746678121387959E-003;1.703708665445447E-003;
2.401000000000000E+009;1.744376718997955E-001;4.027308523654938E-002;-3.787894500419498E-003;1.775085111148655E-003;
2.401166666666667E+009;1.752404123544693E-001;3.952797129750252E-002;-3.762431675568223E-003;1.888219383545220E-003;
2.401333333333334E+009;1.758927553892136E-001;3.883648291230202E-002;-3.613246837630868E-003;2.182220807299018E-003;
2.401500000000000E+009;1.767430901527405E-001;3.824990987777710E-002;-3.601310309022665E-003;2.097014337778091E-003;
2.401666666666667E+009;1.773821115493774E-001;3.773847222328186E-002;-3.474214579910040E-003;2.223896095529199E-003;
2.401833333333334E+009;1.778541058301926E-001;3.699235245585442E-002;-3.390260739251971E-003;2.342152176424861E-003;
2.402000000000000E+009;1.782893389463425E-001;3.645836189389229E-002;-3.461098996922374E-003;2.466240199282765E-003;
2.402166666666667E+009;1.788631975650787E-001;3.582097589969635E-002;-3.215910634025931E-003;2.459088573232293E-003;
2.402333333333334E+009;1.790849268436432E-001;3.542852401733398E-002;-3.198564751073718E-003;2.609045943245292E-003;
2.402500000000000E+009;1.798229515552521E-001;3.477992489933968E-002;-3.139274660497904E-003;2.728037303313613E-003;
2.402666666666667E+009;1.797155737876892E-001;3.407435119152069E-002;-3.087031887844205E-003;2.572969999164343E-003;
2.402833333333334E+009;1.799093633890152E-001;3.327699750661850E-002;-3.120310138911009E-003;2.898981794714928E-003;
2.403000000000000E+009;1.800940036773682E-001;3.258233144879341E-002;-3.063574898988009E-003;2.975564682856202E-003;
2.403166666666667E+009;1.801916509866715E-001;3.191177546977997E-002;-3.081561066210270E-003;3.151722019538283E-003;
2.403333333333334E+009;1.800911873579025E-001;3.094157576560974E-002;-3.025509184226394E-003;3.187464084476233E-003;
2.403500000000000E+009;1.798716038465500E-001;3.014797717332840E-002;-2.950310939922929E-003;3.263537771999836E-003;
2.403666666666667E+009;1.798070222139359E-001;2.904397621750832E-002;-2.865999704226852E-003;3.371809376403689E-003;
2.403833333333334E+009;1.795539557933807E-001;2.809150703251362E-002;-2.636751625686884E-003;3.568460466340184E-003;
2.404000000000000E+009;1.791855245828629E-001;2.685852348804474E-002;-2.706186613067985E-003;3.645615885034204E-003;
2.404166666666667E+009;1.786140948534012E-001;2.573954686522484E-002;-2.670784713700414E-003;3.790819318965077E-003;
2.404333333333334E+009;1.782875508069992E-001;2.448165416717529E-002;-2.570525044575334E-003;3.906120546162128E-003;
2.404500000000000E+009;1.775101423263550E-001;2.303972654044628E-002;-2.412583213299513E-003;3.989305812865496E-003;
2.404666666666667E+009;1.771582067012787E-001;2.182649821043015E-002;-2.190895844250917E-003;4.313817713409662E-003;
2.404833333333334E+009;1.766270548105240E-001;2.028190344572067E-002;-2.205397002398968E-003;4.375373013317585E-003;
2.405000000000000E+009;1.763299256563187E-001;1.879678480327129E-002;-1.830929773859680E-003;4.458444193005562E-003;
2.405166666666667E+009;1.757937520742416E-001;1.794422045350075E-002;-1.220396836288273E-003;4.566549789160490E-003;
2.405333333333334E+009;1.752386093139648E-001;1.462385524064302E-002;-2.080067293718457E-003;4.996300674974918E-003;
2.405500000000000E+009;1.747395843267441E-001;1.438917592167854E-002;-9.117934387177229E-004;4.783391021192074E-003;
2.405666666666667E+009;1.745720952749252E-001;1.206157263368368E-002;-1.386445015668869E-003;4.674106836318970E-003;
2.405833333333334E+009;1.735818833112717E-001;1.078755874186754E-002;-4.629384493455291E-004;4.984383005648851E-003;
2.406000000000000E+009;1.736063212156296E-001;8.332489058375359E-003;-7.278243429027498E-004;4.943415988236666E-003;
2.406166666666667E+009;1.732077151536942E-001;6.607434246689081E-003;-5.914545617997646E-004;4.724375437945128E-003;
2.406333333333334E+009;1.732074916362763E-001;4.710187204182148E-003;-4.386805230751634E-004;4.932526964694262E-003;
2.406500000000000E+009;1.729908585548401E-001;2.696055686101317E-003;-1.145237110904418E-004;5.040207412093878E-003;
2.406666666666667E+009;1.726724505424500E-001;7.426242809742689E-004;-7.127127901185304E-005;4.716569092124701E-003;
2.406833333333334E+009;1.728426367044449E-001;-1.550807850435376E-003;1.256143423233880E-005;4.865917842835188E-003;
2.407000000000000E+009;1.726946085691452E-001;-3.573812311515212E-003;3.693815378937870E-004;4.829344805330038E-003;
2.407166666666667E+009;1.730071306228638E-001;-5.442282184958458E-003;5.930121988058090E-004;4.843840375542641E-003;
2.407333333333334E+009;1.729230582714081E-001;-7.763474248349667E-003;6.886370829306543E-004;4.874152131378651E-003;
2.407500000000000E+009;1.730977743864059E-001;-9.843082167208195E-003;8.415838819928467E-004;4.765623714774847E-003;
2.407666666666667E+009;1.735681742429733E-001;-1.189545076340437E-002;1.069917925633490E-003;4.773744847625494E-003;
2.407833333333334E+009;1.735729724168778E-001;-1.404714025557041E-002;1.123640686273575E-003;4.825903568416834E-003;
2.408000000000000E+009;1.740303188562393E-001;-1.611315086483955E-002;1.354546053335071E-003;4.702001810073853E-003;
2.408166666666667E+009;1.743423938751221E-001;-1.807557791471481E-002;1.595096895471215E-003;4.668818786740303E-003;
2.408333333333334E+009;1.748157441616058E-001;-2.008740045130253E-002;1.812546397559345E-003;4.412295296788216E-003;
2.408500000000000E+009;1.751854419708252E-001;-2.210072986781597E-002;1.986293355002999E-003;4.412043839693070E-003;
2.408666666666667E+009;1.755857020616531E-001;-2.395958639681339E-002;2.243411261588335E-003;4.284157883375883E-003;
2.408833333333334E+009;1.757714301347733E-001;-2.569949254393578E-002;2.285131253302097E-003;4.422832280397415E-003;
2.409000000000000E+009;1.762095242738724E-001;-2.739153988659382E-002;2.341809915378690E-003;4.289398435503244E-003;
2.409166666666667E+009;1.766202002763748E-001;-2.891653589904308E-002;2.565229544416070E-003;4.209301900118589E-003;
2.409333333333334E+009;1.770964860916138E-001;-3.030673600733280E-002;2.674116985872388E-003;4.021274391561747E-003;
2.409500000000000E+009;1.772947013378143E-001;-3.187798708677292E-002;2.848519245162606E-003;3.930833190679550E-003;
2.409666666666667E+009;1.778833419084549E-001;-3.283681347966194E-002;2.994272625073791E-003;3.595405025407672E-003;
2.409833333333334E+009;1.781891584396362E-001;-3.385798633098602E-002;3.202004823833704E-003;3.574601840227842E-003;
2.410000000000000E+009;1.789626330137253E-001;-3.491443395614624E-002;2.997092902660370E-003;3.407871583476663E-003;
2.410166666666667E+009;1.790340691804886E-001;-3.594091162085533E-002;3.292059060186148E-003;3.455155529081821E-003;
2.410333333333334E+009;1.796061992645264E-001;-3.656673058867455E-002;3.570451401174069E-003;3.153108758851886E-003;
2.410500000000000E+009;1.797780990600586E-001;-3.743415325880051E-002;3.650205675512552E-003;3.189787967130542E-003;
2.410666666666667E+009;1.803616583347321E-001;-3.818178176879883E-002;3.680833149701357E-003;2.893398050218821E-003;
2.410833333333334E+009;1.808583885431290E-001;-3.864918276667595E-002;3.768090391531587E-003;2.761408686637878E-003;
2.411000000000000E+009;1.810317337512970E-001;-3.928091749548912E-002;3.761565545573831E-003;2.488294616341591E-003;
2.411166666666667E+009;1.814212203025818E-001;-4.005637392401695E-002;3.700651694089174E-003;2.405937295407057E-003;
2.411333333333334E+009;1.815201640129089E-001;-4.036424681544304E-002;3.901146817952395E-003;2.296975348144770E-003;
2.411500000000000E+009;1.814576387405396E-001;-4.097363352775574E-002;3.950710408389568E-003;2.272400073707104E-003;
2.411666666666667E+009;1.817073374986649E-001;-4.128894209861755E-002;3.905077464878559E-003;2.075319644063711E-003;
2.411833333333334E+009;1.815543919801712E-001;-4.158740118145943E-002;3.937609959393740E-003;1.991596072912216E-003;
2.412000000000000E+009;1.814525872468948E-001;-4.201797768473625E-002;3.976630046963692E-003;1.849215594120324E-003;
2.412166666666667E+009;1.811950951814652E-001;-4.253479465842247E-002;4.020138643682003E-003;1.784422202035785E-003;
2.412333333333334E+009;1.808664053678513E-001;-4.284241423010826E-002;4.171875305473805E-003;1.513953553512693E-003;
2.412500000000000E+009;1.802667677402496E-001;-4.302938655018807E-002;4.141279496252537E-003;1.350129256024957E-003;
2.412666666666667E+009;1.798212230205536E-001;-4.366851970553398E-002;4.108963999897242E-003;1.195634831674397E-003;
2.412833333333334E+009;1.792671531438828E-001;-4.403647035360336E-002;4.221155308187008E-003;1.024311641231179E-003;
2.413000000000000E+009;1.782177537679672E-001;-4.429379478096962E-002;4.169118590652943E-003;1.114269718527794E-003;
2.413166666666667E+009;1.773766130208969E-001;-4.469557106494904E-002;4.177415277808905E-003;8.083158172667027E-004;
2.413333333333334E+009;1.765635460615158E-001;-4.516532644629479E-002;4.161846823990345E-003;7.177957450039685E-004;
2.413500000000000E+009;1.758022755384445E-001;-4.566530138254166E-002;4.258574452251196E-003;5.783911328762770E-004;
2.413666666666667E+009;1.748024672269821E-001;-4.622490704059601E-002;4.200182389467955E-003;3.930957464035600E-004;
2.413833333333334E+009;1.735421121120453E-001;-4.663324356079102E-002;4.366868641227484E-003;3.751539916265756E-004;
2.414000000000000E+009;1.724182367324829E-001;-4.747754707932472E-002;4.378228913992643E-003;1.307031634496525E-004;
2.414166666666667E+009;1.714717745780945E-001;-4.795854911208153E-002;4.236397799104452E-003;1.307929924223572E-004;
2.414333333333334E+009;1.702274978160858E-001;-4.879150912165642E-002;4.245625343173742E-003;1.323529431829229E-005;
2.414500000000000E+009;1.690355241298676E-001;-4.965651780366898E-002;4.136259201914072E-003;-2.274055586894974E-004;
2.414666666666667E+009;1.677687168121338E-001;-5.053509026765823E-002;4.217737819999456E-003;-3.220370272174478E-004;
2.414833333333334E+009;1.664575636386871E-001;-5.147739127278328E-002;4.431174602359533E-003;-5.116513930261135E-004;
2.415000000000000E+009;1.653035283088684E-001;-5.241680517792702E-002;4.289246164262295E-003;-6.308046285994351E-004;
2.415166666666667E+009;1.640644371509552E-001;-5.385018885135651E-002;4.258373286575079E-003;-8.323165238834918E-004;
2.415333333333334E+009;1.630627661943436E-001;-5.514061450958252E-002;4.135357681661844E-003;-9.515909478068352E-004;
2.415500000000000E+009;1.618353575468063E-001;-5.643371865153313E-002;4.162700846791267E-003;-1.229000161401928E-003;
2.415666666666667E+009;1.607514619827271E-001;-5.789582431316376E-002;4.012011457234621E-003;-1.197286532260478E-003;
2.415833333333334E+009;1.597155183553696E-001;-5.947771668434143E-002;3.933283966034651E-003;-1.170802046544850E-003;
2.416000000000000E+009;1.584858596324921E-001;-6.105809286236763E-002;4.034049343317747E-003;-1.609246013686061E-003;
2.416166666666667E+009;1.577533483505249E-001;-6.273652613162994E-002;3.987634554505348E-003;-1.580641255713999E-003;
2.416333333333334E+009;1.566980779170990E-001;-6.452342867851257E-002;3.742086468264461E-003;-1.823978498578072E-003;
2.416500000000000E+009;1.557853668928146E-001;-6.640172749757767E-002;3.700067289173603E-003;-1.790580572560430E-003;
2.416666666666667E+009;1.548418998718262E-001;-6.807134300470352E-002;3.667356213554740E-003;-2.041245810687542E-003;
2.416833333333334E+009;1.542184650897980E-001;-7.015454769134522E-002;3.583544632419944E-003;-2.124640857800841E-003;
2.417000000000000E+009;1.532822102308273E-001;-7.202129065990448E-002;3.451632801443338E-003;-2.286573406308889E-003;
2.417166666666667E+009;1.525105983018875E-001;-7.379228621721268E-002;3.356638364493847E-003;-2.250964287668467E-003;
2.417333333333334E+009;1.520759910345078E-001;-7.557612657546997E-002;3.256952855736017E-003;-2.426826395094395E-003;
2.417500000000000E+009;1.514514088630676E-001;-7.763434201478958E-002;3.223784500733018E-003;-2.416864736005664E-003;
2.417666666666667E+009;1.511197090148926E-001;-7.949090003967285E-002;3.163825720548630E-003;-2.432224340736866E-003;
2.417833333333334E+009;1.505691558122635E-001;-8.119194209575653E-002;2.989458618685603E-003;-2.670468762516975E-003;
2.418000000000000E+009;1.501844227313995E-001;-8.319902420043945E-002;2.752927131950855E-003;-2.718067029491067E-003;
2.418166666666667E+009;1.499631702899933E-001;-8.496458083391190E-002;2.734237816184759E-003;-2.786527387797833E-003;
2.418333333333334E+009;1.498956233263016E-001;-8.660884201526642E-002;2.636695979163051E-003;-2.827836433425546E-003;
2.418500000000000E+009;1.496685296297073E-001;-8.823093026876450E-002;2.590502379462123E-003;-2.966426545754075E-003;
2.418666666666667E+009;1.497119814157486E-001;-8.984742313623428E-002;2.452626591548324E-003;-2.963818842545152E-003;
2.418833333333334E+009;1.495123505592346E-001;-9.128433465957642E-002;2.340100472792983E-003;-3.000486874952912E-003;
2.419000000000000E+009;1.494470983743668E-001;-9.253758192062378E-002;2.190698403865099E-003;-3.187879687175155E-003;
2.419166666666667E+009;1.495929062366486E-001;-9.373593330383301E-002;2.138493815436959E-003;-3.149623051285744E-003;
2.419333333333334E+009;1.496338099241257E-001;-9.470512717962265E-002;2.055864082649350E-003;-3.316952846944332E-003;
2.419500000000000E+009;1.498857289552689E-001;-9.611855447292328E-002;1.774893840774894E-003;-3.365209791809320E-003;
2.419666666666667E+009;1.499922871589661E-001;-9.704685211181641E-002;1.653586397878826E-003;-3.361418843269348E-003;
2.419833333333334E+009;1.502328962087631E-001;-9.764702618122101E-002;1.506707048974931E-003;-3.292677458375692E-003;
2.420000000000000E+009;1.505993455648422E-001;-9.849462658166885E-002;1.331761130131781E-003;-3.374408697709441E-003;
2.420166666666667E+009;1.508011817932129E-001;-9.901972115039825E-002;1.232662238180637E-003;-3.289751010015607E-003;
2.420333333333334E+009;1.509885340929031E-001;-9.962736815214157E-002;1.099071581847966E-003;-3.230419475585222E-003;
2.420500000000000E+009;1.512961685657501E-001;-9.979543089866638E-002;1.208836445584893E-003;-3.407545853406191E-003;
2.420666666666667E+009;1.515588015317917E-001;-9.991068392992020E-002;1.035686349496245E-003;-3.358179703354836E-003;
2.420833333333334E+009;1.517355293035507E-001;-1.004260182380676E-001;9.296775097027421E-004;-3.083351766690612E-003;
2.421000000000000E+009;1.519622206687927E-001;-1.003884226083756E-001;9.008900378830731E-004;-3.258529352024198E-003;
2.421166666666667E+009;1.522984653711319E-001;-1.004380211234093E-001;8.582145674154162E-004;-3.212759969756007E-003;
2.421333333333334E+009;1.523558795452118E-001;-1.003267392516136E-001;7.940421346575022E-004;-3.195650177076459E-003;
2.421500000000000E+009;1.523765474557877E-001;-1.003672033548355E-001;7.585108396597207E-004;-3.193286946043372E-003;
2.421666666666667E+009;1.524324566125870E-001;-1.002144366502762E-001;7.108339341357350E-004;-3.098341869190335E-003;
2.421833333333334E+009;1.525553613901138E-001;-1.000022068619728E-001;6.950207171030343E-004;-3.314125351607800E-003;
2.422000000000000E+009;1.523114293813705E-001;-9.984927624464035E-002;4.629661561921239E-004;-3.334686392918229E-003;
2.422166666666667E+009;1.520713567733765E-001;-9.982122480869293E-002;6.591423880308867E-004;-3.262299578636885E-003;
2.422333333333334E+009;1.516674607992172E-001;-9.933288395404816E-002;6.020779255777597E-004;-3.484344342723489E-003;
2.422500000000000E+009;1.510815322399139E-001;-9.892635047435761E-002;4.064253298565745E-004;-3.493336029350758E-003;
2.422666666666667E+009;1.505309939384460E-001;-9.870468080043793E-002;4.254037339705974E-004;-3.602028125897050E-003;
2.422833333333334E+009;1.499445587396622E-001;-9.845743328332901E-002;1.895021996460855E-004;-3.698225598782301E-003;
2.423000000000000E+009;1.490446925163269E-001;-9.801816940307617E-002;1.901548821479082E-004;-3.865150036290288E-003;
2.423166666666667E+009;1.483991742134094E-001;-9.784679114818573E-002;7.533803000114858E-006;-4.014364909380674E-003;
2.423333333333334E+009;1.473568230867386E-001;-9.731382876634598E-002;-2.241134789073840E-004;-3.964795731008053E-003;
2.423500000000000E+009;1.463076323270798E-001;-9.718826413154602E-002;-4.036082536913455E-004;-3.992225043475628E-003;
2.423666666666667E+009;1.448399126529694E-001;-9.692968428134918E-002;-5.991177167743444E-004;-4.020524211227894E-003;
2.423833333333334E+009;1.439934372901917E-001;-9.680275619029999E-002;-7.639936520718038E-004;-4.137805663049221E-003;
2.424000000000000E+009;1.425127387046814E-001;-9.640898555517197E-002;-9.301860118284822E-004;-4.055566620081663E-003;
2.424166666666667E+009;1.412065178155899E-001;-9.643374383449554E-002;-1.145132468082011E-003;-4.041993990540505E-003;
2.424333333333334E+009;1.397501677274704E-001;-9.621797502040863E-002;-1.474644639529288E-003;-4.041684325784445E-003;
2.424500000000000E+009;1.382455825805664E-001;-9.624562412500382E-002;-1.501949154771864E-003;-3.890861058607698E-003;
2.424666666666667E+009;1.371971815824509E-001;-9.627889841794968E-002;-1.826778869144619E-003;-3.876466304063797E-003;
2.424833333333334E+009;1.354487538337708E-001;-9.644635766744614E-002;-2.045419998466969E-003;-3.655231790617108E-003;
2.425000000000000E+009;1.340746283531189E-001;-9.687596559524536E-002;-2.291602548211813E-003;-3.551661036908627E-003;
2.425166666666667E+009;1.323408335447311E-001;-9.720198065042496E-002;-2.379709621891379E-003;-3.322530305013061E-003;
2.425333333333334E+009;1.309236735105515E-001;-9.776751697063446E-002;-2.467690035700798E-003;-3.331503365188837E-003;
2.425500000000000E+009;1.295364052057266E-001;-9.851446747779846E-002;-2.653321949765086E-003;-3.016315633431077E-003;
2.425666666666667E+009;1.280532479286194E-001;-9.921433031558991E-002;-2.854306483641267E-003;-2.729282015934587E-003;
2.425833333333334E+009;1.265301853418350E-001;-9.992795437574387E-002;-2.859729574993253E-003;-2.752641448751092E-003;
2.426000000000000E+009;1.251941770315170E-001;-1.010804921388626E-001;-2.918174723163247E-003;-2.373546361923218E-003;
2.426166666666667E+009;1.240635365247726E-001;-1.021512597799301E-001;-2.942576771602035E-003;-2.433480694890022E-003;
2.426333333333334E+009;1.226141080260277E-001;-1.032976880669594E-001;-3.004045924171805E-003;-1.991496887058020E-003;
2.426500000000000E+009;1.213507577776909E-001;-1.045752838253975E-001;-3.153868718072772E-003;-1.749798771925271E-003;
2.426666666666667E+009;1.202871724963188E-001;-1.057923585176468E-001;-3.103468334302306E-003;-1.448059221729636E-003;
2.426833333333334E+009;1.190774217247963E-001;-1.073028668761253E-001;-2.921113744378090E-003;-1.321687363088131E-003;
2.427000000000000E+009;1.180499568581581E-001;-1.089910641312599E-001;-2.891905140131712E-003;-1.138755353167653E-003;
2.427166666666667E+009;1.170771420001984E-001;-1.103554517030716E-001;-2.780282869935036E-003;-1.011665794067085E-003;
2.427333333333334E+009;1.161247640848160E-001;-1.120626032352448E-001;-2.674179617315531E-003;-8.385098772123456E-004;
2.427500000000000E+009;1.154776513576508E-001;-1.137113794684410E-001;-2.615452744066715E-003;-7.526795379817486E-004;
2.427666666666667E+009;1.146335825324059E-001;-1.154499128460884E-001;-2.420288044959307E-003;-6.003735470585525E-004;
