# Version 1.00
#
freq[Hz];re:Trc1_S11;im:Trc1_S11;re:Trc2_S21;im:Trc2_S21;
2.400000000000000E+009;1.551096886396408E-001;1.064049229025841E-001;1.889262348413467E-003;-3.451891243457794E-003;
2.400166666666667E+009;1.546729058027268E-001;1.039692610502243E-001;1.858281204476953E-003;-3.186667570844293E-003;
2.400333333333334E+009;1.547803580760956E-001;1.015316471457481E-001;1.871911808848381E-003;-2.946366090327501E-003;
2.400500000000000E+009;1.546622812747955E-001;9.893319010734558E-002;1.928383368067443E-003;-2.791779581457377E-003;
2.400666666666667E+009;1.547892689704895E-001;9.649664163589478E-002;1.917297951877117E-003;-2.732520224526525E-003;
2.400833333333334E+009;1.545871347188950E-001;9.357803314924240E-002;1.994106220081449E-003;-2.649197587743402E-003;
2.401000000000000E+009;1.547863632440567E-001;9.060644358396530E-002;2.215533982962370E-003;-2.691359026357532E-003;
2.401166666666667E+009;1.546845138072968E-001;8.782230317592621E-002;2.244902309030294E-003;-2.525913761928678E-003;
2.401333333333334E+009;1.551087796688080E-001;8.511880785226822E-002;2.348926616832614E-003;-2.725999103859067E-003;
2.401500000000000E+009;1.554027050733566E-001;8.224228024482727E-002;2.606278518214822E-003;-2.795833628624678E-003;
2.401666666666667E+009;1.558199226856232E-001;7.934058457612991E-002;2.636445686221123E-003;-2.833077916875482E-003;
2.401833333333334E+009;1.561504751443863E-001;7.678321748971939E-002;2.730209846049547E-003;-3.083806019276381E-003;
2.402000000000000E+009;1.569989770650864E-001;7.400630414485931E-002;2.717014402151108E-003;-3.434472484514117E-003;
2.402166666666667E+009;1.578614264726639E-001;7.132089883089066E-002;2.574396319687367E-003;-3.697204869240522E-003;
2.402333333333334E+009;1.587995141744614E-001;6.878636032342911E-002;2.793977968394756E-003;-3.856396302580833E-003;
2.402500000000000E+009;1.599198728799820E-001;6.615284830331802E-002;2.698328578844667E-003;-3.989979624748230E-003;
2.402666666666667E+009;1.610531061887741E-001;6.383954733610153E-002;2.464530058205128E-003;-4.253843799233437E-003;
2.402833333333334E+009;1.624585986137390E-001;6.140654906630516E-002;2.255647210404277E-003;-4.514249972999096E-003;
2.403000000000000E+009;1.639258414506912E-001;5.920916050672531E-002;2.129936125129461E-003;-4.694397095590830E-003;
2.403166666666667E+009;1.655182093381882E-001;5.689166486263275E-002;1.926075085066259E-003;-4.882936831563711E-003;
2.403333333333334E+009;1.670520156621933E-001;5.478657409548760E-002;1.607856014743447E-003;-4.853340331465006E-003;
2.403500000000000E+009;1.687103807926178E-001;5.277068167924881E-002;1.499665435403585E-003;-4.942668601870537E-003;
2.403666666666667E+009;1.705369949340820E-001;5.086966231465340E-002;1.334610162302852E-003;-4.994462709873915E-003;
2.403833333333334E+009;1.722147166728973E-001;4.900423437356949E-002;1.012784545309842E-003;-5.083376076072455E-003;
2.404000000000000E+009;1.737203896045685E-001;4.727558046579361E-002;9.680391522124410E-004;-4.833340179175139E-003;
2.404166666666667E+009;1.755589693784714E-001;4.581641405820847E-002;5.323158111423254E-004;-5.076023284345865E-003;
2.404333333333334E+009;1.772026866674423E-001;4.431346803903580E-002;6.556892767548561E-004;-5.140364635735750E-003;
2.404500000000000E+009;1.788683533668518E-001;4.300717636942864E-002;3.437082050368190E-004;-5.073170177638531E-003;
2.404666666666667E+009;1.805008053779602E-001;4.187114164233208E-002;2.570555661804974E-004;-5.113679450005293E-003;
2.404833333333334E+009;1.822637915611267E-001;4.067533835768700E-002;2.876315265893936E-004;-5.290245171636343E-003;
2.405000000000000E+009;1.835107356309891E-001;4.022588953375816E-002;-4.821782567887567E-005;-5.298915319144726E-003;
2.405166666666667E+009;1.850171834230423E-001;3.937780484557152E-002;-2.448632440064102E-004;-5.342582706362009E-003;
2.405333333333334E+009;1.865180581808090E-001;3.900125995278359E-002;-5.570941721089184E-004;-5.420866422355175E-003;
2.405500000000000E+009;1.879585534334183E-001;3.850040584802628E-002;-7.645731675438583E-004;-5.306928884238005E-003;
2.405666666666667E+009;1.891791373491287E-001;3.806134685873985E-002;-8.476313669234514E-004;-5.295997951179743E-003;
2.405833333333334E+009;1.905123293399811E-001;3.797081485390663E-002;-1.087868702597916E-003;-5.326390266418457E-003;
2.406000000000000E+009;1.915006935596466E-001;3.776445239782333E-002;-1.333645777776837E-003;-5.323227029293776E-003;
2.406166666666667E+009;1.924393177032471E-001;3.759123012423515E-002;-1.472155563533306E-003;-5.382251925766468E-003;
2.406333333333334E+009;1.933265775442123E-001;3.766567632555962E-002;-1.805023639462888E-003;-5.095539614558220E-003;
2.406500000000000E+009;1.941005587577820E-001;3.777277097105980E-002;-1.997017068788409E-003;-4.888863768428564E-003;
2.406666666666667E+009;1.948167830705643E-001;3.780760616064072E-002;-2.013740362599492E-003;-4.924349952489138E-003;
2.406833333333334E+009;1.953058242797852E-001;3.789421916007996E-002;-2.377103548496962E-003;-4.873136989772320E-003;
2.407000000000000E+009;1.955872774124146E-001;3.801128640770912E-002;-2.471765968948603E-003;-4.596071317791939E-003;
2.407166666666667E+009;1.960745602846146E-001;3.788916021585465E-002;-2.543192589655519E-003;-4.563773982226849E-003;
2.407333333333334E+009;1.960943788290024E-001;3.808272629976273E-002;-2.699234988540411E-003;-4.410855937749147E-003;
2.407500000000000E+009;1.959628760814667E-001;3.828402981162071E-002;-2.806738251820207E-003;-4.249995108693838E-003;
2.407666666666667E+009;1.959753036499023E-001;3.818116709589958E-002;-2.948996610939503E-003;-4.179996903985739E-003;
2.407833333333334E+009;1.956102102994919E-001;3.806924447417259E-002;-2.987770363688469E-003;-4.032131750136614E-003;
2.408000000000000E+009;1.954168677330017E-001;3.791559860110283E-002;-3.029368119314313E-003;-3.760810941457748E-003;
2.408166666666667E+009;1.949251294136047E-001;3.758759424090385E-002;-3.211165545508266E-003;-3.839958691969514E-003;
2.408333333333334E+009;1.945461034774780E-001;3.728566691279411E-002;-3.261987352743745E-003;-3.772861789911985E-003;
2.408500000000000E+009;1.937896013259888E-001;3.702218830585480E-002;-3.203254658728838E-003;-3.644092939794064E-003;
2.408666666666667E+009;1.932759732007980E-001;3.633896261453629E-002;-3.288277657702565E-003;-3.386910771951079E-003;
2.408833333333334E+009;1.924831867218018E-001;3.559536486864090E-002;-3.253184724599123E-003;-3.356059314683080E-003;
2.409000000000000E+009;1.916683763265610E-001;3.469706699252129E-002;-3.389825113117695E-003;-3.216717625036836E-003;
2.409166666666667E+009;1.907423883676529E-001;3.377079591155052E-002;-3.315893234685063E-003;-3.179817227646709E-003;
2.409333333333334E+009;1.897846460342407E-001;3.290252387523651E-002;-3.472475335001946E-003;-3.080699592828751E-003;
2.409500000000000E+009;1.886903792619705E-001;3.144914656877518E-002;-3.666392527520657E-003;-2.863645087927580E-003;
2.409666666666667E+009;1.877820491790772E-001;2.999593876302242E-002;-3.648894140496850E-003;-2.865558722987771E-003;
2.409833333333334E+009;1.867265105247498E-001;2.858660370111466E-002;-3.622900461778045E-003;-2.649862784892321E-003;
2.410000000000000E+009;1.858504265546799E-001;2.697484195232391E-002;-3.633377375081182E-003;-2.491526072844863E-003;
2.410166666666667E+009;1.845795065164566E-001;2.494016103446484E-002;-3.716022707521915E-003;-2.451454522088170E-003;
2.410333333333334E+009;1.836888343095779E-001;2.323384769260883E-002;-3.774909069761634E-003;-2.381980419158936E-003;
2.410500000000000E+009;1.826562583446503E-001;2.139514312148094E-002;-3.815390868112445E-003;-2.297997474670410E-003;
2.410666666666667E+009;1.817732006311417E-001;1.909241825342178E-002;-3.776953555643559E-003;-2.205479890108109E-003;
2.410833333333334E+009;1.810761094093323E-001;1.683359220623970E-002;-3.746111644431949E-003;-2.009492367506027E-003;
2.411000000000000E+009;1.802212297916412E-001;1.445070747286081E-002;-3.687504213303328E-003;-2.050968585535884E-003;
2.411166666666667E+009;1.796900033950806E-001;1.243166811764240E-002;-3.751260461285710E-003;-1.893600798211992E-003;
2.411333333333334E+009;1.792108267545700E-001;9.925236925482750E-003;-3.605286125093699E-003;-1.940694870427251E-003;
2.411500000000000E+009;1.788924336433411E-001;7.392208557575941E-003;-3.620192175731063E-003;-1.967856660485268E-003;
2.411666666666667E+009;1.783996373414993E-001;5.020683165639639E-003;-3.656979184597731E-003;-1.861100434325635E-003;
2.411833333333334E+009;1.781204938888550E-001;2.791735809296370E-003;-3.603760153055191E-003;-1.914374530315399E-003;
2.412000000000000E+009;1.784058213233948E-001;1.226242166012526E-004;-3.739779116585851E-003;-1.938265282660723E-003;
2.412166666666667E+009;1.785646826028824E-001;-2.232561353594065E-003;-3.804755397140980E-003;-2.031337236985564E-003;
2.412333333333334E+009;1.785635203123093E-001;-4.847967531532049E-003;-3.933571279048920E-003;-1.906977850012481E-003;
2.412500000000000E+009;1.791962236166000E-001;-7.320748176425695E-003;-3.912616986781359E-003;-1.934513915330172E-003;
2.412666666666667E+009;1.796799302101135E-001;-9.786570444703102E-003;-4.052643664181233E-003;-1.823006197810173E-003;
2.412833333333334E+009;1.804696023464203E-001;-1.223184354603291E-002;-4.134551156312227E-003;-1.852238783612847E-003;
2.413000000000000E+009;1.811677962541580E-001;-1.456756610423327E-002;-4.456143360584974E-003;-1.784621388651431E-003;
2.413166666666667E+009;1.818393170833588E-001;-1.681420393288136E-002;-4.660950042307377E-003;-1.716019003652036E-003;
2.413333333333334E+009;1.827968358993530E-001;-1.912250183522701E-002;-4.892027005553246E-003;-1.594483968801796E-003;
2.413500000000000E+009;1.838096976280212E-001;-2.147921919822693E-002;-5.010100547224283E-003;-1.464583678171039E-003;
2.413666666666667E+009;1.850204169750214E-001;-2.363878302276135E-002;-5.007688887417316E-003;-1.224812236614525E-003;
2.413833333333334E+009;1.860740929841995E-001;-2.550930716097355E-002;-5.159933585673571E-003;-1.072708051651716E-003;
2.414000000000000E+009;1.872338801622391E-001;-2.777004428207874E-002;-5.386687349528074E-003;-8.400999940931797E-004;
2.414166666666667E+009;1.884646713733673E-001;-2.962608076632023E-002;-5.415314342826605E-003;-6.310025346465409E-004;
2.414333333333334E+009;1.895276010036469E-001;-3.152598440647125E-002;-5.409023724496365E-003;-2.962538856081665E-004;
2.414500000000000E+009;1.908583790063858E-001;-3.288321569561958E-002;-5.334776826202869E-003;-1.342707982985303E-004;
2.414666666666667E+009;1.919561326503754E-001;-3.449631854891777E-002;-5.245889071375132E-003;1.074985630111769E-004;
2.414833333333334E+009;1.932086795568466E-001;-3.571519628167152E-002;-5.271221976727247E-003;3.477116988506168E-004;
2.415000000000000E+009;1.943157166242600E-001;-3.708143532276154E-002;-5.169715266674757E-003;4.627823655027896E-004;
2.415166666666667E+009;1.956110000610352E-001;-3.820948675274849E-002;-5.241327453404665E-003;6.031426601111889E-004;
2.415333333333334E+009;1.967337429523468E-001;-3.922230377793312E-002;-5.297674331814051E-003;8.529266924597323E-004;
2.415500000000000E+009;1.978485733270645E-001;-3.991650789976120E-002;-5.426596850156784E-003;9.754155762493610E-004;
2.415666666666667E+009;1.989298611879349E-001;-4.081602767109871E-002;-5.230684764683247E-003;1.205307198688388E-003;
2.415833333333334E+009;1.997337341308594E-001;-4.143309593200684E-002;-5.110258236527443E-003;1.362005015835166E-003;
2.416000000000000E+009;2.004306763410568E-001;-4.203869774937630E-002;-4.973772913217545E-003;1.480812439695001E-003;
2.416166666666667E+009;2.012045085430145E-001;-4.259018227458000E-002;-5.011466797441244E-003;1.731863711029291E-003;
2.416333333333334E+009;2.017850875854492E-001;-4.282792285084724E-002;-4.943481180816889E-003;1.887476188130677E-003;
2.416500000000000E+009;2.023588120937347E-001;-4.299767315387726E-002;-4.883745685219765E-003;2.064787549898028E-003;
2.416666666666667E+009;2.025704532861710E-001;-4.328652471303940E-002;-4.835124593228102E-003;2.145289210602641E-003;
2.416833333333334E+009;2.026293575763702E-001;-4.334533214569092E-002;-4.772424697875977E-003;2.395607763901353E-003;
2.417000000000000E+009;2.028803080320358E-001;-4.346343874931335E-002;-4.609154071658850E-003;2.513451268896461E-003;
2.417166666666667E+009;2.024380415678024E-001;-4.329347610473633E-002;-4.493956454098225E-003;2.657901961356401E-003;
2.417333333333334E+009;2.022885829210281E-001;-4.303516447544098E-002;-4.405490588396788E-003;2.863211091607809E-003;
2.417500000000000E+009;2.020047158002853E-001;-4.311367496848106E-002;-4.197562113404274E-003;3.112935693934560E-003;
2.417666666666667E+009;2.014265954494476E-001;-4.291443899273872E-002;-4.035959951579571E-003;3.162975190207362E-003;
2.417833333333334E+009;2.009932100772858E-001;-4.262803494930267E-002;-3.931147046387196E-003;3.145498922094703E-003;
2.418000000000000E+009;2.003103941679001E-001;-4.235751554369927E-002;-3.950799349695444E-003;3.256219672039151E-003;
2.418166666666667E+009;1.996353119611740E-001;-4.224566742777824E-002;-3.583783050999045E-003;3.595446702092886E-003;
2.418333333333334E+009;1.985437422990799E-001;-4.213256016373634E-002;-3.399201901629567E-003;3.697829786688089E-003;
2.418500000000000E+009;1.974496692419052E-001;-4.206930473446846E-002;-3.216512501239777E-003;3.612700151279569E-003;
2.418666666666667E+009;1.966207176446915E-001;-4.201402515172958E-002;-3.057720605283976E-003;3.600943367928267E-003;
2.418833333333334E+009;1.952787786722183E-001;-4.215147346258164E-002;-2.951268572360277E-003;3.555363044142723E-003;
2.419000000000000E+009;1.939552426338196E-001;-4.239081963896751E-002;-2.771465107798576E-003;3.507218090817332E-003;
2.419166666666667E+009;1.925908029079437E-001;-4.261571168899536E-002;-2.551200101152062E-003;3.510279348120093E-003;
2.419333333333334E+009;1.911713927984238E-001;-4.312181472778320E-002;-2.649608068168163E-003;3.427441464737058E-003;
2.419500000000000E+009;1.898349672555924E-001;-4.357574135065079E-002;-2.514443593099713E-003;3.463694592937827E-003;
2.419666666666667E+009;1.880690455436707E-001;-4.430776461958885E-002;-2.443779492750764E-003;3.185644512996078E-003;
2.419833333333334E+009;1.865207850933075E-001;-4.489085450768471E-002;-2.395842690020800E-003;3.301781835034490E-003;
2.420000000000000E+009;1.848937869071960E-001;-4.575195536017418E-002;-2.639948856085539E-003;3.193948650732637E-003;
2.420166666666667E+009;1.832163184881210E-001;-4.684337601065636E-002;-2.603530650958419E-003;3.115372499451041E-003;
2.420333333333334E+009;1.815268546342850E-001;-4.801458120346069E-002;-2.648227149620652E-003;3.236302174627781E-003;
2.420500000000000E+009;1.799600869417191E-001;-4.928272217512131E-002;-2.686574822291732E-003;3.210033988580108E-003;
2.420666666666667E+009;1.783406883478165E-001;-5.039065331220627E-002;-2.668494824320078E-003;3.279450582340360E-003;
2.420833333333334E+009;1.766678392887116E-001;-5.193525180220604E-002;-2.718610921874642E-003;3.331606509163976E-003;
2.421000000000000E+009;1.751243472099304E-001;-5.349770188331604E-002;-2.780183684080839E-003;3.561609191820025E-003;
2.421166666666667E+009;1.738426238298416E-001;-5.522054433822632E-002;-2.579464344307780E-003;3.769580507650971E-003;
2.421333333333334E+009;1.721447259187698E-001;-5.666862428188324E-002;-2.801363822072744E-003;3.719786880537868E-003;
2.421500000000000E+009;1.708890348672867E-001;-5.861644819378853E-002;-2.686166670173407E-003;3.935700748115778E-003;
2.421666666666667E+009;1.696490794420242E-001;-6.040960922837257E-002;-2.728417050093412E-003;4.057013895362616E-003;
2.421833333333334E+009;1.684435755014420E-001;-6.238748133182526E-002;-2.531487494707108E-003;4.267158452421427E-003;
2.422000000000000E+009;1.672689467668533E-001;-6.438241153955460E-002;-2.497194102033973E-003;4.491803236305714E-003;
2.422166666666667E+009;1.665018796920776E-001;-6.636767089366913E-002;-2.344822511076927E-003;4.576158709824085E-003;
2.422333333333334E+009;1.654185205698013E-001;-6.840516626834869E-002;-2.165124053135514E-003;4.639529157429934E-003;
2.422500000000000E+009;1.646950393915176E-001;-7.034693658351898E-002;-2.170852851122618E-003;4.856990184634924E-003;
2.422666666666667E+009;1.640734821557999E-001;-7.241982221603394E-002;-2.020538551732898E-003;4.889175761491060E-003;
2.422833333333334E+009;1.638057827949524E-001;-7.446743547916412E-002;-1.876073540188372E-003;4.968702793121338E-003;
2.423000000000000E+009;1.631176769733429E-001;-7.657579332590103E-002;-1.643775147385895E-003;4.977510776370764E-003;
2.423166666666667E+009;1.627719253301621E-001;-7.847296446561813E-002;-1.534623210318387E-003;5.306339822709560E-003;
2.423333333333334E+009;1.626297086477280E-001;-8.035534620285034E-002;-1.411181292496622E-003;5.235356744378805E-003;
2.423500000000000E+009;1.626635044813156E-001;-8.218871057033539E-002;-1.154422527179122E-003;5.291318055242300E-003;
2.423666666666667E+009;1.625113636255264E-001;-8.419793844223023E-002;-1.037692534737289E-003;5.445989780128002E-003;
2.423833333333334E+009;1.625425219535828E-001;-8.594815433025360E-002;-7.952258456498385E-004;5.551542155444622E-003;
2.424000000000000E+009;1.626943796873093E-001;-8.790761232376099E-002;-6.776064983569086E-004;5.588830914348364E-003;
2.424166666666667E+009;1.628169268369675E-001;-8.934361487627029E-002;-3.138283791486174E-004;5.753118544816971E-003;
2.424333333333334E+009;1.631134599447250E-001;-9.092886000871658E-002;-2.124065795214847E-004;5.913880188018084E-003;
2.424500000000000E+009;1.633786708116531E-001;-9.273353219032288E-002;3.651709630503319E-005;5.781963001936674E-003;
2.424666666666667E+009;1.637407243251801E-001;-9.402947872877121E-002;3.691539168357849E-004;5.949824582785368E-003;
2.424833333333334E+009;1.642710864543915E-001;-9.538771212100983E-002;3.360591654200107E-004;5.877119023352861E-003;
2.425000000000000E+009;1.646455377340317E-001;-9.659885615110397E-002;6.624275119975209E-004;5.883090663701296E-003;
2.425166666666667E+009;1.650034636259079E-001;-9.773663431406021E-002;1.277047907933593E-003;5.866853520274162E-003;
2.425333333333334E+009;1.653971970081329E-001;-9.861826896667481E-002;1.403829315677285E-003;5.883215926587582E-003;
2.425500000000000E+009;1.657949090003967E-001;-9.955795854330063E-002;1.534781302325428E-003;5.685457494109869E-003;
2.425666666666667E+009;1.662451624870300E-001;-1.003859341144562E-001;1.786657841876149E-003;5.608624313026667E-003;
2.425833333333334E+009;1.666217148303986E-001;-1.011239364743233E-001;1.853577326983213E-003;5.458767060190439E-003;
2.426000000000000E+009;1.670340746641159E-001;-1.014813855290413E-001;2.201555762439966E-003;5.554790608584881E-003;
2.426166666666667E+009;1.673859059810638E-001;-1.020250692963600E-001;2.493609441444278E-003;5.260791163891554E-003;
2.426333333333334E+009;1.675618141889572E-001;-1.025658696889877E-001;2.571929013356566E-003;5.167437717318535E-003;
2.426500000000000E+009;1.679207384586334E-001;-1.028179228305817E-001;2.816264051944017E-003;4.972907714545727E-003;
2.426666666666667E+009;1.681302785873413E-001;-1.030746325850487E-001;2.848730888217688E-003;4.847618751227856E-003;
2.426833333333334E+009;1.683437526226044E-001;-1.033741235733032E-001;3.059341572225094E-003;4.594636149704456E-003;
2.427000000000000E+009;1.684469580650330E-001;-1.034405976533890E-001;3.210362279787660E-003;4.487291909754276E-003;
2.427166666666667E+009;1.684395074844360E-001;-1.034418120980263E-001;3.231503767892718E-003;4.308116622269154E-003;
2.427333333333334E+009;1.683391332626343E-001;-1.038197204470635E-001;3.420064225792885E-003;3.976341802626848E-003;
2.427500000000000E+009;1.680130809545517E-001;-1.039398163557053E-001;3.465978195890784E-003;3.920835442841053E-003;
2.427666666666667E+009;1.677327752113342E-001;-1.040188744664192E-001;3.601609030738473E-003;3.900465089827776E-003;
