# Version 1.00
#
freq[Hz];re:Trc1_S11;im:Trc1_S11;re:Trc2_S21;im:Trc2_S21;
2.400000000000000E+009;1.554437279701233E-001;1.066338866949081E-001;2.023791661486030E-003;-3.245618427172303E-003;
2.400166666666667E+009;1.549998223781586E-001;1.042297556996346E-001;1.997681567445397E-003;-2.982647158205509E-003;
2.400333333333334E+009;1.551984846591950E-001;1.018565297126770E-001;1.873646979220212E-003;-2.948919543996453E-003;
2.400500000000000E+009;1.549587398767471E-001;9.913431107997894E-002;1.940021058544517E-003;-2.670780755579472E-003;
2.400666666666667E+009;1.551101207733154E-001;9.661477059125900E-002;1.976505154743791E-003;-2.737279748544097E-003;
2.400833333333334E+009;1.549525707960129E-001;9.374921023845673E-002;2.081852871924639E-003;-2.551164245232940E-003;
2.401000000000000E+009;1.550460308790207E-001;9.089923650026321E-002;2.263747388496995E-003;-2.731892280280590E-003;
2.401166666666667E+009;1.549009829759598E-001;8.816381543874741E-002;2.411680994555354E-003;-2.432990353554487E-003;
2.401333333333334E+009;1.554041653871536E-001;8.529802411794663E-002;2.530276542529464E-003;-2.584426663815975E-003;
2.401500000000000E+009;1.558791399002075E-001;8.242898434400559E-002;2.535978099331260E-003;-2.616304904222488E-003;
2.401666666666667E+009;1.561632901430130E-001;7.954016327857971E-002;2.777111018076539E-003;-2.937389304861426E-003;
2.401833333333334E+009;1.565819829702377E-001;7.682193815708160E-002;2.809623721987009E-003;-3.124350449070334E-003;
2.402000000000000E+009;1.572880744934082E-001;7.439228147268295E-002;2.793006366118789E-003;-3.344750730320811E-003;
2.402166666666667E+009;1.583242267370224E-001;7.154709845781326E-002;2.811978803947568E-003;-3.535006660968065E-003;
2.402333333333334E+009;1.590954959392548E-001;6.890501827001572E-002;2.805679105222225E-003;-3.849959466606379E-003;
2.402500000000000E+009;1.602676957845688E-001;6.630894541740418E-002;2.663992810994387E-003;-4.125132691115141E-003;
2.402666666666667E+009;1.613301485776901E-001;6.401783227920532E-002;2.498747315257788E-003;-4.026021342724562E-003;
2.402833333333334E+009;1.624771356582642E-001;6.153137609362602E-002;2.307069487869740E-003;-4.341695457696915E-003;
2.403000000000000E+009;1.642039716243744E-001;5.929972603917122E-002;2.312353812158108E-003;-4.526271019130945E-003;
2.403166666666667E+009;1.658162027597427E-001;5.695760622620583E-002;2.126229461282492E-003;-4.678022116422653E-003;
2.403333333333334E+009;1.673211008310318E-001;5.491602793335915E-002;1.751147327013314E-003;-4.756642505526543E-003;
2.403500000000000E+009;1.689543277025223E-001;5.268993228673935E-002;1.673263148404658E-003;-4.911704454571009E-003;
2.403666666666667E+009;1.708671599626541E-001;5.089721456170082E-002;1.401526620611548E-003;-5.029399879276753E-003;
2.403833333333334E+009;1.723513603210449E-001;4.893944412469864E-002;1.330800121650100E-003;-5.078142974525690E-003;
2.404000000000000E+009;1.740164458751679E-001;4.742205515503883E-002;1.044929958879948E-003;-5.094090942293406E-003;
2.404166666666667E+009;1.757969409227371E-001;4.573358595371246E-002;9.602967184036970E-004;-5.123883485794067E-003;
2.404333333333334E+009;1.774148643016815E-001;4.420189186930656E-002;7.284251623786986E-004;-5.207047332078219E-003;
2.404500000000000E+009;1.791464686393738E-001;4.305497929453850E-002;6.368500762619078E-004;-5.115928594022989E-003;
2.404666666666667E+009;1.807275116443634E-001;4.184933006763458E-002;5.188271752558649E-004;-5.130380392074585E-003;
2.404833333333334E+009;1.825826019048691E-001;4.082001000642777E-002;3.394351806491613E-004;-5.320666357874870E-003;
2.405000000000000E+009;1.839435398578644E-001;4.008876532316208E-002;5.205392881180160E-005;-5.368009675294161E-003;
2.405166666666667E+009;1.853732615709305E-001;3.944579511880875E-002;-5.719294131267816E-005;-5.442410241812468E-003;
2.405333333333334E+009;1.868563443422318E-001;3.889088332653046E-002;-2.326852118130773E-004;-5.387353245168924E-003;
2.405500000000000E+009;1.882227957248688E-001;3.845905885100365E-002;-4.941250663250685E-004;-5.443756468594074E-003;
2.405666666666667E+009;1.895483434200287E-001;3.816097229719162E-002;-8.358680643141270E-004;-5.375598557293415E-003;
2.405833333333334E+009;1.907991170883179E-001;3.776903450489044E-002;-8.994850795716047E-004;-5.510853137820959E-003;
2.406000000000000E+009;1.918431967496872E-001;3.769272193312645E-002;-1.298296381719410E-003;-5.311257205903530E-003;
2.406166666666667E+009;1.928197294473648E-001;3.747925534844399E-002;-1.541239791549742E-003;-5.195822101086378E-003;
2.406333333333334E+009;1.937004327774048E-001;3.750872239470482E-002;-1.641724025830627E-003;-5.115885753184557E-003;
2.406500000000000E+009;1.944742500782013E-001;3.764303401112557E-002;-1.798468525521457E-003;-5.193301010876894E-003;
2.406666666666667E+009;1.951168626546860E-001;3.760666400194168E-002;-1.947526005096734E-003;-4.976998548954725E-003;
2.406833333333334E+009;1.955563724040985E-001;3.776470944285393E-002;-2.167866798117757E-003;-4.950118251144886E-003;
2.407000000000000E+009;1.958448439836502E-001;3.801190853118897E-002;-2.428801497444511E-003;-4.730299580842257E-003;
2.407166666666667E+009;1.963327974081039E-001;3.780862316489220E-002;-2.486539771780372E-003;-4.571068100631237E-003;
2.407333333333334E+009;1.962458193302155E-001;3.786006197333336E-002;-2.735392889007926E-003;-4.601716063916683E-003;
2.407500000000000E+009;1.962844580411911E-001;3.811009228229523E-002;-2.599595347419381E-003;-4.415766336023808E-003;
2.407666666666667E+009;1.963470727205277E-001;3.794779255986214E-002;-2.755923429504037E-003;-4.426655359566212E-003;
2.407833333333334E+009;1.957199871540070E-001;3.785683959722519E-002;-2.710801316425204E-003;-4.270270466804504E-003;
2.408000000000000E+009;1.956127136945725E-001;3.780184686183929E-002;-3.099867608398199E-003;-4.174929577857256E-003;
2.408166666666667E+009;1.951911151409149E-001;3.746235370635986E-002;-2.943865954875946E-003;-3.840381279587746E-003;
2.408333333333334E+009;1.946981102228165E-001;3.711885586380959E-002;-3.255035262554884E-003;-3.897890914231539E-003;
2.408500000000000E+009;1.940761208534241E-001;3.672743961215019E-002;-3.191870637238026E-003;-3.727519186213613E-003;
2.408666666666667E+009;1.934190392494202E-001;3.618222102522850E-002;-3.380697453394532E-003;-3.697060747072101E-003;
2.408833333333334E+009;1.926598697900772E-001;3.554179146885872E-002;-3.279764438048005E-003;-3.529860870912671E-003;
2.409000000000000E+009;1.918716579675674E-001;3.454415872693062E-002;-3.341515548527241E-003;-3.358532674610615E-003;
2.409166666666667E+009;1.909074336290360E-001;3.352527692914009E-002;-3.562323981896043E-003;-3.438276937231422E-003;
2.409333333333334E+009;1.899493932723999E-001;3.249192982912064E-002;-3.559138858690858E-003;-3.171475138515234E-003;
2.409500000000000E+009;1.888500601053238E-001;3.123501315712929E-002;-3.601013915613294E-003;-3.161412430927157E-003;
2.409666666666667E+009;1.878315657377243E-001;2.986403368413448E-002;-3.631566651165485E-003;-2.920480910688639E-003;
2.409833333333334E+009;1.868945509195328E-001;2.818598225712776E-002;-3.718168009072542E-003;-2.893712837249041E-003;
2.410000000000000E+009;1.858625859022141E-001;2.660625055432320E-002;-3.696486819535494E-003;-2.767487894743681E-003;
2.410166666666667E+009;1.848833709955216E-001;2.473929151892662E-002;-3.704928560182452E-003;-2.671109978109598E-003;
2.410333333333334E+009;1.838489323854446E-001;2.284061536192894E-002;-3.568984335288405E-003;-2.576366765424609E-003;
2.410500000000000E+009;1.827837228775024E-001;2.118451334536076E-002;-3.746774513274431E-003;-2.398254116997123E-003;
2.410666666666667E+009;1.819722801446915E-001;1.875004358589649E-002;-3.779680933803320E-003;-2.207987708970904E-003;
2.410833333333334E+009;1.811712533235550E-001;1.665983535349369E-002;-3.674312494695187E-003;-2.304753521457315E-003;
2.411000000000000E+009;1.804313957691193E-001;1.420120429247618E-002;-3.737193299457431E-003;-2.140710130333901E-003;
2.411166666666667E+009;1.798551082611084E-001;1.215487439185381E-002;-3.813389688730240E-003;-2.016702201217413E-003;
2.411333333333334E+009;1.793187707662582E-001;9.588778950273991E-003;-3.822234459221363E-003;-2.115288749337196E-003;
2.411500000000000E+009;1.786753088235855E-001;7.210091222077608E-003;-3.830418689176440E-003;-1.933720894157887E-003;
2.411666666666667E+009;1.784872710704804E-001;4.973322618752718E-003;-3.681123955175281E-003;-2.052853116765618E-003;
2.411833333333334E+009;1.782662421464920E-001;2.564987167716026E-003;-3.794600255787373E-003;-1.882046810351312E-003;
2.412000000000000E+009;1.785104274749756E-001;-2.772626758087426E-004;-3.873436711728573E-003;-1.974951010197401E-003;
2.412166666666667E+009;1.785656362771988E-001;-2.542376052588224E-003;-3.936161752790213E-003;-1.977635081857443E-003;
2.412333333333334E+009;1.785791516304016E-001;-5.052483640611172E-003;-3.968894015997648E-003;-2.019647508859634E-003;
2.412500000000000E+009;1.790280342102051E-001;-7.266904227435589E-003;-4.166357684880495E-003;-2.016899175941944E-003;
2.412666666666667E+009;1.796889156103134E-001;-9.941697120666504E-003;-4.177014343440533E-003;-1.893516862764955E-003;
2.412833333333334E+009;1.804044842720032E-001;-1.237280853092670E-002;-4.372775088995695E-003;-1.825221581384540E-003;
2.413000000000000E+009;1.811241656541824E-001;-1.464534364640713E-002;-4.521929658949375E-003;-1.724780537188053E-003;
2.413166666666667E+009;1.818741112947464E-001;-1.705388538539410E-002;-4.604469984769821E-003;-1.707405899651349E-003;
2.413333333333334E+009;1.829321384429932E-001;-1.932201161980629E-002;-4.811587743461132E-003;-1.633588806726039E-003;
2.413500000000000E+009;1.838383972644806E-001;-2.165203727781773E-002;-5.021838936954737E-003;-1.457980135455728E-003;
2.413666666666667E+009;1.851022243499756E-001;-2.380964346230030E-002;-5.162705667316914E-003;-1.196917495690286E-003;
2.413833333333334E+009;1.859097480773926E-001;-2.578808739781380E-002;-5.234469193965197E-003;-1.064376556314528E-003;
2.414000000000000E+009;1.872552335262299E-001;-2.788537554442883E-002;-5.416844971477985E-003;-7.805431960150600E-004;
2.414166666666667E+009;1.885711550712585E-001;-2.961135841906071E-002;-5.395466927438974E-003;-5.342191434465349E-004;
2.414333333333334E+009;1.896777451038361E-001;-3.157282993197441E-002;-5.533115006983280E-003;-2.837358042597771E-004;
2.414500000000000E+009;1.907886117696762E-001;-3.299244120717049E-002;-5.490549840033054E-003;-1.084021350834519E-004;
2.414666666666667E+009;1.920653581619263E-001;-3.455024585127831E-002;-5.470360163599253E-003;2.118834818247706E-004;
2.414833333333334E+009;1.933472305536270E-001;-3.588790819048882E-002;-5.494692362844944E-003;1.692219229880720E-004;
2.415000000000000E+009;1.941906958818436E-001;-3.730082511901856E-002;-5.330589599907398E-003;4.659758997149766E-004;
2.415166666666667E+009;1.956491768360138E-001;-3.836742788553238E-002;-5.382017232477665E-003;5.775508470833302E-004;
2.415333333333334E+009;1.967031955718994E-001;-3.943802416324616E-002;-5.432646721601486E-003;9.444886818528175E-004;
2.415500000000000E+009;1.976927220821381E-001;-3.988453000783920E-002;-5.463011562824249E-003;1.021073316223919E-003;
2.415666666666667E+009;1.988055855035782E-001;-4.091844707727432E-002;-5.280325654894114E-003;1.190601382404566E-003;
2.415833333333334E+009;1.996328979730606E-001;-4.141083732247353E-002;-5.159602500498295E-003;1.385236042551696E-003;
2.416000000000000E+009;2.004222422838211E-001;-4.202431067824364E-002;-5.261065438389778E-003;1.553296693600714E-003;
2.416166666666667E+009;2.011688351631165E-001;-4.260883107781410E-002;-5.101612769067287E-003;1.751987729221582E-003;
2.416333333333334E+009;2.016551643610001E-001;-4.279913753271103E-002;-5.174132529646158E-003;1.882420037873089E-003;
2.416500000000000E+009;2.022986114025116E-001;-4.311613366007805E-002;-5.032667890191078E-003;2.089174231514335E-003;
2.416666666666667E+009;2.025285810232163E-001;-4.336675256490707E-002;-4.882057197391987E-003;2.221978968009353E-003;
2.416833333333334E+009;2.025721967220306E-001;-4.343462362885475E-002;-4.806939046829939E-003;2.310181036591530E-003;
2.417000000000000E+009;2.027286589145660E-001;-4.348309710621834E-002;-4.769473336637020E-003;2.591041149571538E-003;
2.417166666666667E+009;2.024158388376236E-001;-4.334131628274918E-002;-4.779019393026829E-003;2.641623374074698E-003;
2.417333333333334E+009;2.021911591291428E-001;-4.312208667397499E-002;-4.538743756711483E-003;2.824011025950313E-003;
2.417500000000000E+009;2.020111531019211E-001;-4.316828027367592E-002;-4.516921471804380E-003;3.010064130648971E-003;
2.417666666666667E+009;2.013946026563644E-001;-4.281379282474518E-002;-4.248498473316431E-003;3.157986328005791E-003;
2.417833333333334E+009;2.010068744421005E-001;-4.256947711110115E-002;-4.033594392240048E-003;3.232291666790843E-003;
2.418000000000000E+009;2.003850340843201E-001;-4.229564219713211E-002;-3.968883305788040E-003;3.340681083500385E-003;
2.418166666666667E+009;1.995260715484619E-001;-4.225601255893707E-002;-3.809736110270023E-003;3.587034530937672E-003;
2.418333333333334E+009;1.986426562070847E-001;-4.208003729581833E-002;-3.552780020982027E-003;3.496741177514195E-003;
2.418500000000000E+009;1.975589245557785E-001;-4.211966693401337E-002;-3.424132009968162E-003;3.696335013955832E-003;
2.418666666666667E+009;1.965523511171341E-001;-4.195396974682808E-002;-3.200789913535118E-003;3.763218410313129E-003;
2.418833333333334E+009;1.953165382146835E-001;-4.217916727066040E-002;-3.045600373297930E-003;3.724862821400166E-003;
2.419000000000000E+009;1.939548701047897E-001;-4.238395020365715E-002;-2.875294070690870E-003;3.588428255170584E-003;
2.419166666666667E+009;1.926885694265366E-001;-4.264878109097481E-002;-2.727712504565716E-003;3.501955186948180E-003;
2.419333333333334E+009;1.912422329187393E-001;-4.316001757979393E-002;-2.516512991860509E-003;3.559616161510348E-003;
2.419500000000000E+009;1.898538619279862E-001;-4.357798770070076E-002;-2.530911471694708E-003;3.352917032316327E-003;
2.419666666666667E+009;1.881709396839142E-001;-4.434179514646530E-002;-2.510449150577188E-003;3.346791490912437E-003;
2.419833333333334E+009;1.864414662122726E-001;-4.497959092259407E-002;-2.541733672842383E-003;3.261166624724865E-003;
2.420000000000000E+009;1.849828511476517E-001;-4.593836143612862E-002;-2.384273335337639E-003;3.240540856495500E-003;
2.420166666666667E+009;1.834258288145065E-001;-4.672428220510483E-002;-2.559523098170757E-003;3.219998674467206E-003;
2.420333333333334E+009;1.817391514778137E-001;-4.792210832238197E-002;-2.663735067471862E-003;3.255732590332627E-003;
2.420500000000000E+009;1.798694133758545E-001;-4.934385791420937E-002;-2.633835421875119E-003;3.342973068356514E-003;
2.420666666666667E+009;1.783191114664078E-001;-5.045635253190994E-002;-2.713676076382399E-003;3.374226624146104E-003;
2.420833333333334E+009;1.768060773611069E-001;-5.193480104207993E-002;-2.790983300656080E-003;3.553782589733601E-003;
2.421000000000000E+009;1.752128452062607E-001;-5.354822427034378E-002;-2.723202342167497E-003;3.608001628890634E-003;
2.421166666666667E+009;1.739007383584976E-001;-5.515244230628014E-002;-2.690371824428439E-003;3.755716141313314E-003;
2.421333333333334E+009;1.720404177904129E-001;-5.657826364040375E-002;-2.809015568345785E-003;3.807483939453960E-003;
2.421500000000000E+009;1.708868294954300E-001;-5.861342325806618E-002;-2.688970649614930E-003;4.005463793873787E-003;
2.421666666666667E+009;1.696162968873978E-001;-6.049071624875069E-002;-2.604538574814796E-003;4.093773663043976E-003;
2.421833333333334E+009;1.685297787189484E-001;-6.236256286501885E-002;-2.483912510797381E-003;4.420941695570946E-003;
2.422000000000000E+009;1.674075424671173E-001;-6.436990201473236E-002;-2.448633313179016E-003;4.411675035953522E-003;
2.422166666666667E+009;1.665119230747223E-001;-6.641458719968796E-002;-2.294559963047504E-003;4.611136857420206E-003;
2.422333333333334E+009;1.656363904476166E-001;-6.844218820333481E-002;-2.169489860534668E-003;4.733034409582615E-003;
2.422500000000000E+009;1.648132801055908E-001;-7.042357325553894E-002;-1.970270182937384E-003;4.929732531309128E-003;
2.422666666666667E+009;1.642331629991531E-001;-7.248519361019135E-002;-1.879741786979139E-003;5.007639992982149E-003;
2.422833333333334E+009;1.637238264083862E-001;-7.468260824680328E-002;-1.788225257769227E-003;5.190132651478052E-003;
2.423000000000000E+009;1.631743311882019E-001;-7.658156752586365E-002;-1.715978258289397E-003;5.036117509007454E-003;
2.423166666666667E+009;1.628318876028061E-001;-7.857063412666321E-002;-1.631778897717595E-003;5.215855315327644E-003;
2.423333333333334E+009;1.627413630485535E-001;-8.063617348670960E-002;-1.199995633214712E-003;5.418606102466583E-003;
2.423500000000000E+009;1.625641882419586E-001;-8.244075626134872E-002;-1.222255057655275E-003;5.492127966135740E-003;
2.423666666666667E+009;1.627225726842880E-001;-8.432727307081223E-002;-1.178111648187041E-003;5.607563536614180E-003;
2.423833333333334E+009;1.626621931791306E-001;-8.601677417755127E-002;-8.878051303327084E-004;5.748964846134186E-003;
2.424000000000000E+009;1.628025025129318E-001;-8.783451467752457E-002;-7.336794515140355E-004;5.765076261013746E-003;
2.424166666666667E+009;1.629487425088882E-001;-8.945767581462860E-002;-5.351108266040683E-004;5.758442450314760E-003;
2.424333333333334E+009;1.630574017763138E-001;-9.107019752264023E-002;-2.209198864875361E-004;5.974452942609787E-003;
2.424500000000000E+009;1.635048985481262E-001;-9.282649308443070E-002;-7.891097629908472E-005;5.957348737865686E-003;
2.424666666666667E+009;1.636587679386139E-001;-9.406438469886780E-002;3.669736033771187E-004;6.153127178549767E-003;
2.424833333333334E+009;1.643814295530319E-001;-9.546648710966110E-002;4.909913404844701E-004;5.991039797663689E-003;
2.425000000000000E+009;1.645150780677795E-001;-9.671712666749954E-002;8.045610738918185E-004;5.963781382888556E-003;
2.425166666666667E+009;1.649919897317886E-001;-9.780351817607880E-002;1.142979250289500E-003;5.917767994105816E-003;
2.425333333333334E+009;1.654202342033386E-001;-9.871822595596314E-002;1.193431206047535E-003;5.687698721885681E-003;
2.425500000000000E+009;1.658504754304886E-001;-9.974152594804764E-002;1.632083673030138E-003;5.707831587642431E-003;
2.425666666666667E+009;1.662907302379608E-001;-1.003990843892098E-001;1.859724521636963E-003;5.706448573619127E-003;
2.425833333333334E+009;1.666230112314224E-001;-1.012853756546974E-001;1.999608241021633E-003;5.508845206350088E-003;
2.426000000000000E+009;1.670320332050324E-001;-1.017186865210533E-001;2.132378518581390E-003;5.439105443656445E-003;
2.426166666666667E+009;1.674455255270004E-001;-1.021631807088852E-001;2.498461399227381E-003;5.308570805937052E-003;
2.426333333333334E+009;1.675163656473160E-001;-1.026234477758408E-001;2.608537441119552E-003;5.072335712611675E-003;
2.426500000000000E+009;1.680301129817963E-001;-1.028152108192444E-001;2.823262708261609E-003;5.131637211889029E-003;
2.426666666666667E+009;1.681820303201675E-001;-1.031369119882584E-001;2.991787856444717E-003;4.817546345293522E-003;
2.426833333333334E+009;1.684102118015289E-001;-1.035461723804474E-001;3.100074594840407E-003;4.761363379657269E-003;
2.427000000000000E+009;1.684492230415344E-001;-1.036182120442390E-001;3.468819195404649E-003;4.482067655771971E-003;
2.427166666666667E+009;1.684065610170364E-001;-1.037208512425423E-001;3.383576171472669E-003;4.360256250947714E-003;
2.427333333333334E+009;1.683179438114166E-001;-1.039864644408226E-001;3.581044729799032E-003;4.160269163548946E-003;
2.427500000000000E+009;1.680616140365601E-001;-1.041058301925659E-001;3.595789428800345E-003;4.129975102841854E-003;
2.427666666666667E+009;1.677370816469193E-001;-1.041631177067757E-001;3.757682163268328E-003;3.846774110570550E-003;
