# Version 1.00
#
freq[Hz];re:Trc1_S11;im:Trc1_S11;re:Trc2_S21;im:Trc2_S21;
2.400000000000000E+009;1.628257185220718E-001;5.268547311425209E-002;-6.220493465662003E-003;2.833158476278186E-003;
2.400166666666667E+009;1.626812964677811E-001;5.103240534663200E-002;-6.235887762159109E-003;2.966803265735507E-003;
2.400333333333334E+009;1.624661535024643E-001;4.911716282367706E-002;-6.313004530966282E-003;3.349980339407921E-003;
2.400500000000000E+009;1.626901924610138E-001;4.735651239752770E-002;-6.214367225766182E-003;3.650519531220198E-003;
2.400666666666667E+009;1.625649183988571E-001;4.551046714186668E-002;-6.250817794352770E-003;4.010406788438559E-003;
2.400833333333334E+009;1.626849174499512E-001;4.363159090280533E-002;-6.085238419473171E-003;4.176947288215160E-003;
2.401000000000000E+009;1.626220047473908E-001;4.162278398871422E-002;-6.103503517806530E-003;4.551294725388289E-003;
2.401166666666667E+009;1.627109944820404E-001;3.946854174137116E-002;-5.823965184390545E-003;4.903775174170733E-003;
2.401333333333334E+009;1.628368943929672E-001;3.744930401444435E-002;-5.591094028204680E-003;5.179279483854771E-003;
2.401500000000000E+009;1.631519496440888E-001;3.537747636437416E-002;-5.462453700602055E-003;5.548956803977490E-003;
2.401666666666667E+009;1.632748544216156E-001;3.343230485916138E-002;-5.240307189524174E-003;5.789961200207472E-003;
2.401833333333334E+009;1.635672748088837E-001;3.146227821707726E-002;-4.827788099646568E-003;6.117241457104683E-003;
2.402000000000000E+009;1.636808663606644E-001;2.944995835423470E-002;-4.672661423683167E-003;6.299229804426432E-003;
2.402166666666667E+009;1.641418337821960E-001;2.748227119445801E-002;-4.239173140376806E-003;6.810737773776054E-003;
2.402333333333334E+009;1.644470542669296E-001;2.563278004527092E-002;-3.923906944692135E-003;7.080330513417721E-003;
2.402500000000000E+009;1.652324348688126E-001;2.378638647496700E-002;-3.615335794165731E-003;7.110584527254105E-003;
2.402666666666667E+009;1.657124161720276E-001;2.206584252417088E-002;-3.175315679982305E-003;7.304703816771507E-003;
2.402833333333334E+009;1.663191318511963E-001;2.015506289899349E-002;-2.759526716545224E-003;7.428626995533705E-003;
2.403000000000000E+009;1.669065058231354E-001;1.844579726457596E-002;-2.446077996864915E-003;7.564813829958439E-003;
2.403166666666667E+009;1.676662862300873E-001;1.688795164227486E-002;-1.889120903797448E-003;7.494417019188404E-003;
2.403333333333334E+009;1.682663857936859E-001;1.540676224976778E-002;-1.528434921056032E-003;7.761405780911446E-003;
2.403500000000000E+009;1.689162850379944E-001;1.378945074975491E-002;-1.204169704578817E-003;7.921679876744747E-003;
2.403666666666667E+009;1.698145270347595E-001;1.247178204357624E-002;-5.725977825932205E-004;7.885899394750595E-003;
2.403833333333334E+009;1.708543896675110E-001;1.105823647230864E-002;-2.229535602964461E-004;7.776366081088781E-003;
2.404000000000000E+009;1.714456230401993E-001;9.859951213002205E-003;2.331681025680155E-004;7.927571423351765E-003;
2.404166666666667E+009;1.721923053264618E-001;8.687969297170639E-003;6.938155856914818E-004;7.757727988064289E-003;
2.404333333333334E+009;1.729969382286072E-001;7.667179685086012E-003;9.303400292992592E-004;7.574790157377720E-003;
2.404500000000000E+009;1.735541522502899E-001;6.366584915667772E-003;1.486213877797127E-003;7.642382755875588E-003;
2.404666666666667E+009;1.744931191205978E-001;5.681036040186882E-003;1.940652611665428E-003;7.288919296115637E-003;
2.404833333333334E+009;1.753757297992706E-001;4.752351436764002E-003;2.200890565291047E-003;7.024078629910946E-003;
2.405000000000000E+009;1.759188473224640E-001;3.979658707976341E-003;2.549298806115985E-003;6.921584717929363E-003;
2.405166666666667E+009;1.765256375074387E-001;3.324104938656092E-003;3.205611137673259E-003;6.754554808139801E-003;
2.405333333333334E+009;1.774250864982605E-001;2.594171557575464E-003;3.516334341838956E-003;6.324903108179569E-003;
2.405500000000000E+009;1.778783798217773E-001;2.105429535731673E-003;3.707212861627340E-003;6.012073252350092E-003;
2.405666666666667E+009;1.785027086734772E-001;1.650755410082638E-003;3.956927917897701E-003;5.722457543015480E-003;
2.405833333333334E+009;1.789082884788513E-001;1.217049313709140E-003;4.140721634030342E-003;5.508060101419687E-003;
2.406000000000000E+009;1.793533116579056E-001;8.054930949583650E-004;4.513496998697519E-003;5.116350948810577E-003;
2.406166666666667E+009;1.795755326747894E-001;5.658115842379630E-004;4.595045465976000E-003;4.734420217573643E-003;
2.406333333333334E+009;1.799908727407455E-001;1.737556885927916E-004;4.838561173528433E-003;4.501600749790669E-003;
2.406500000000000E+009;1.802127212285996E-001;-1.707626797724515E-004;4.813738632947207E-003;4.143064841628075E-003;
2.406666666666667E+009;1.803084462881088E-001;-2.642846084199846E-004;5.105040036141872E-003;3.747521899640560E-003;
2.406833333333334E+009;1.804120391607285E-001;-6.110178073868156E-004;4.996275994926691E-003;3.397548804059625E-003;
2.407000000000000E+009;1.805547028779984E-001;-9.503794135525823E-004;5.045813508331776E-003;3.099934663623571E-003;
2.407166666666667E+009;1.805898696184158E-001;-1.314962981268764E-003;5.030916538089514E-003;2.637993544340134E-003;
2.407333333333334E+009;1.803525835275650E-001;-1.570159569382668E-003;5.228798370808363E-003;2.411312656477094E-003;
2.407500000000000E+009;1.800121217966080E-001;-1.932789571583271E-003;5.137982312589884E-003;2.169841667637229E-003;
2.407666666666667E+009;1.799083650112152E-001;-2.282951958477497E-003;5.194972269237042E-003;1.895929686725140E-003;
2.407833333333334E+009;1.794925183057785E-001;-2.844141563400626E-003;5.064071621745825E-003;1.532629365101457E-003;
2.408000000000000E+009;1.790864020586014E-001;-3.365022828802466E-003;4.943302832543850E-003;1.208081957884133E-003;
2.408166666666667E+009;1.785659790039063E-001;-3.829860361292958E-003;4.858315456658602E-003;9.911973029375076E-004;
2.408333333333334E+009;1.782449930906296E-001;-4.390716552734375E-003;4.842987284064293E-003;6.964692147448659E-004;
2.408500000000000E+009;1.776749193668366E-001;-5.093210842460394E-003;4.682087339460850E-003;5.070404731668532E-004;
2.408666666666667E+009;1.770098507404327E-001;-5.950099322944880E-003;4.583200439810753E-003;2.093875227728859E-004;
2.408833333333334E+009;1.762742102146149E-001;-6.748253945261240E-003;4.473400767892599E-003;9.070729720406234E-005;
2.409000000000000E+009;1.755423992872238E-001;-7.718052715063095E-003;4.354772623628378E-003;-9.126973600359634E-005;
2.409166666666667E+009;1.748798936605454E-001;-8.702065795660019E-003;4.331525415182114E-003;-2.367415872868151E-004;
2.409333333333334E+009;1.741771250963211E-001;-9.826572611927986E-003;4.067062400281429E-003;-4.800833121407777E-004;
2.409500000000000E+009;1.734484136104584E-001;-1.093976665288210E-002;3.780680475756526E-003;-6.150274421088398E-004;
2.409666666666667E+009;1.726710945367813E-001;-1.205861754715443E-002;3.809471847489476E-003;-7.112948223948479E-004;
2.409833333333334E+009;1.718921661376953E-001;-1.363015826791525E-002;3.662796225398779E-003;-8.693835115991533E-004;
2.410000000000000E+009;1.712414324283600E-001;-1.480320561677218E-002;3.317725844681263E-003;-9.259625221602619E-004;
2.410166666666667E+009;1.704809665679932E-001;-1.638107001781464E-002;3.234951756894589E-003;-9.991226252168417E-004;
2.410333333333334E+009;1.698623001575470E-001;-1.794796623289585E-002;3.210678696632385E-003;-1.182007952593267E-003;
2.410500000000000E+009;1.692317873239517E-001;-1.958785019814968E-002;2.926661167293787E-003;-1.105847768485546E-003;
2.410666666666667E+009;1.686295717954636E-001;-2.146051824092865E-002;2.801196416839957E-003;-1.220968551933765E-003;
2.410833333333334E+009;1.680560857057571E-001;-2.307519689202309E-002;2.722086617723107E-003;-1.115060178562999E-003;
2.411000000000000E+009;1.675759255886078E-001;-2.468593046069145E-002;2.554929582402110E-003;-1.324399956502020E-003;
2.411166666666667E+009;1.671016663312912E-001;-2.663602121174336E-002;2.469056285917759E-003;-1.301778480410576E-003;
2.411333333333334E+009;1.666851937770844E-001;-2.863228507339954E-002;2.278305822983384E-003;-1.450934214517474E-003;
2.411500000000000E+009;1.665403097867966E-001;-3.064065799117088E-002;2.105490537360311E-003;-1.349944970570505E-003;
2.411666666666667E+009;1.661780029535294E-001;-3.231633454561234E-002;2.162877004593611E-003;-1.292586093768477E-003;
2.411833333333334E+009;1.661012619733810E-001;-3.424559533596039E-002;2.026359317824245E-003;-1.468257862143219E-003;
2.412000000000000E+009;1.660916358232498E-001;-3.628112003207207E-002;1.930195721797645E-003;-1.446195645257831E-003;
2.412166666666667E+009;1.659156829118729E-001;-3.822018578648567E-002;1.914346823468804E-003;-1.556233735755086E-003;
2.412333333333334E+009;1.659471988677979E-001;-4.017615690827370E-002;1.919490983709693E-003;-1.304030534811318E-003;
2.412500000000000E+009;1.659672558307648E-001;-4.206695035099983E-002;1.730869058519602E-003;-1.441634958609939E-003;
2.412666666666667E+009;1.660881936550140E-001;-4.426699504256249E-002;1.706745359115303E-003;-1.554333488456905E-003;
2.412833333333334E+009;1.664557904005051E-001;-4.604095220565796E-002;1.522452454082668E-003;-1.750935683958232E-003;
2.413000000000000E+009;1.667567938566208E-001;-4.791011288762093E-002;1.487349974922836E-003;-1.671410747803748E-003;
2.413166666666667E+009;1.668730974197388E-001;-4.972092434763908E-002;1.399163855239749E-003;-1.802304526790977E-003;
2.413333333333334E+009;1.671028733253479E-001;-5.148148909211159E-002;1.245932071469724E-003;-1.705721952021122E-003;
2.413500000000000E+009;1.675930023193359E-001;-5.303489044308662E-002;1.172435935586691E-003;-1.711008837446570E-003;
2.413666666666667E+009;1.681069433689117E-001;-5.471654608845711E-002;1.143650268204510E-003;-1.762185478582978E-003;
2.413833333333334E+009;1.683395951986313E-001;-5.626320838928223E-002;9.753594640642405E-004;-1.915148925036192E-003;
2.414000000000000E+009;1.688271909952164E-001;-5.771502479910851E-002;8.054538629949093E-004;-1.989397918805480E-003;
2.414166666666667E+009;1.693490743637085E-001;-5.909992381930351E-002;7.383851334452629E-004;-1.821776852011681E-003;
2.414333333333334E+009;1.697625815868378E-001;-6.035580858588219E-002;5.953830550424755E-004;-1.923458534292877E-003;
2.414500000000000E+009;1.705925613641739E-001;-6.147753447294235E-002;4.791337414644659E-004;-1.953621627762914E-003;
2.414666666666667E+009;1.708824783563614E-001;-6.265359371900559E-002;2.549884957261384E-004;-1.768462941981852E-003;
2.414833333333334E+009;1.712463200092316E-001;-6.364966928958893E-002;1.525398547528312E-004;-1.930924365296960E-003;
2.415000000000000E+009;1.717468500137329E-001;-6.456764042377472E-002;1.639419497223571E-005;-1.650738879106939E-003;
2.415166666666667E+009;1.721020936965942E-001;-6.531748920679092E-002;-8.188236824935302E-005;-1.652480917982757E-003;
2.415333333333334E+009;1.726507246494293E-001;-6.624946743249893E-002;-3.079808666370809E-004;-1.557601033709943E-003;
2.415500000000000E+009;1.730045080184937E-001;-6.675465404987335E-002;-3.502527251839638E-004;-1.500529120676220E-003;
2.415666666666667E+009;1.732159554958344E-001;-6.740846484899521E-002;-3.959300229325891E-004;-1.477058976888657E-003;
2.415833333333334E+009;1.734562665224075E-001;-6.789092719554901E-002;-4.972885362803936E-004;-1.277504605241120E-003;
2.416000000000000E+009;1.734959185123444E-001;-6.839005649089813E-002;-6.026631454005837E-004;-1.140381791628897E-003;
2.416166666666667E+009;1.738534569740295E-001;-6.885784864425659E-002;-8.649291121400893E-004;-9.264390100724995E-004;
2.416333333333334E+009;1.738287806510925E-001;-6.908790022134781E-002;-1.000572228804231E-003;-8.909657481126487E-004;
2.416500000000000E+009;1.737004667520523E-001;-6.946986168622971E-002;-9.747832082211971E-004;-8.192362147383392E-004;
2.416666666666667E+009;1.734939515590668E-001;-6.968124210834503E-002;-1.056574168615043E-003;-5.796036566607654E-004;
2.416833333333334E+009;1.734727174043655E-001;-7.008430361747742E-002;-9.317765361629427E-004;-4.836998123209924E-004;
2.417000000000000E+009;1.728318482637405E-001;-7.021567970514298E-002;-9.790714830160141E-004;-3.584036603569984E-004;
2.417166666666667E+009;1.725957989692688E-001;-7.027206569910049E-002;-9.926819475367665E-004;-1.095241241273470E-004;
2.417333333333334E+009;1.720727086067200E-001;-7.042124122381210E-002;-1.031376537866890E-003;-1.481975050410256E-004;
2.417500000000000E+009;1.715686470270157E-001;-7.074420899152756E-002;-9.914350230246782E-004;2.146880287909880E-004;
2.417666666666667E+009;1.708387583494186E-001;-7.081951946020126E-002;-1.077783061191440E-003;1.808536471799016E-004;
2.417833333333334E+009;1.701482981443405E-001;-7.096248120069504E-002;-8.629456860944629E-004;4.098066419828683E-004;
2.418000000000000E+009;1.692914962768555E-001;-7.139129936695099E-002;-9.064640034921467E-004;6.270948797464371E-004;
2.418166666666667E+009;1.683683097362518E-001;-7.141968607902527E-002;-7.965569384396076E-004;7.627019658684731E-004;
2.418333333333334E+009;1.675412803888321E-001;-7.186016440391541E-002;-7.182174595072866E-004;8.026894065551460E-004;
2.418500000000000E+009;1.664904952049255E-001;-7.212994247674942E-002;-7.005644147284329E-004;9.344081045128405E-004;
2.418666666666667E+009;1.653869152069092E-001;-7.255292683839798E-002;-7.649335311725736E-004;1.028521335683763E-003;
2.418833333333334E+009;1.641194224357605E-001;-7.293877005577087E-002;-5.884511047042906E-004;1.159777515567839E-003;
2.419000000000000E+009;1.629065275192261E-001;-7.337552309036255E-002;-4.662653955165297E-004;1.350430771708489E-003;
2.419166666666667E+009;1.618192791938782E-001;-7.389596104621887E-002;-2.956791140604764E-004;1.569501939229667E-003;
2.419333333333334E+009;1.603260040283203E-001;-7.434995472431183E-002;-1.869884144980460E-004;1.520566991530359E-003;
2.419500000000000E+009;1.592035144567490E-001;-7.528644800186157E-002;-1.615107794350479E-005;1.631650258786976E-003;
2.419666666666667E+009;1.580497771501541E-001;-7.618124783039093E-002;2.115219249390066E-004;1.631808816455305E-003;
2.419833333333334E+009;1.566515713930130E-001;-7.669156044721603E-002;3.339017857797444E-004;1.790288486517966E-003;
2.420000000000000E+009;1.555320471525192E-001;-7.772775739431381E-002;4.859871114604175E-004;1.718361862003803E-003;
2.420166666666667E+009;1.541419476270676E-001;-7.886651158332825E-002;7.263233419507742E-004;1.807922613807023E-003;
2.420333333333334E+009;1.531229615211487E-001;-7.992182672023773E-002;8.585678297095001E-004;2.017718274146318E-003;
2.420500000000000E+009;1.519861966371536E-001;-8.091281354427338E-002;8.535820525139570E-004;1.905531971715391E-003;
2.420666666666667E+009;1.507594734430313E-001;-8.215232193470001E-002;1.190805807709694E-003;1.975229009985924E-003;
2.420833333333334E+009;1.497081816196442E-001;-8.362521976232529E-002;1.338720438070595E-003;1.843678066506982E-003;
2.421000000000000E+009;1.486684232950211E-001;-8.488323539495468E-002;1.495866454206407E-003;1.902437768876553E-003;
2.421166666666667E+009;1.477826833724976E-001;-8.631769567728043E-002;1.700937165878713E-003;1.878507202491164E-003;
2.421333333333334E+009;1.470485180616379E-001;-8.789636939764023E-002;1.847491832450032E-003;1.779785845428705E-003;
2.421500000000000E+009;1.461767703294754E-001;-8.937423676252365E-002;1.968449912965298E-003;1.684527611359954E-003;
2.421666666666667E+009;1.454764157533646E-001;-9.120304882526398E-002;2.180511364713311E-003;1.657525077462196E-003;
2.421833333333334E+009;1.448692083358765E-001;-9.285518527030945E-002;2.495601074770093E-003;1.630206825211644E-003;
2.422000000000000E+009;1.442424207925797E-001;-9.434481710195541E-002;2.637480152770877E-003;1.404911279678345E-003;
2.422166666666667E+009;1.437597274780273E-001;-9.621512144804001E-002;2.637258730828762E-003;1.356605673208833E-003;
2.422333333333334E+009;1.435725539922714E-001;-9.798816591501236E-002;2.973387483507395E-003;1.284978934563696E-003;
2.422500000000000E+009;1.431374251842499E-001;-9.960228949785233E-002;2.986320527270436E-003;9.299215162172914E-004;
2.422666666666667E+009;1.428741514682770E-001;-1.014893352985382E-001;3.099326975643635E-003;8.929300238378346E-004;
2.422833333333334E+009;1.428162008523941E-001;-1.031726375222206E-001;3.124365815892816E-003;6.372290663421154E-004;
2.423000000000000E+009;1.427807956933975E-001;-1.048913374543190E-001;3.465946298092604E-003;5.359447095543146E-004;
2.423166666666667E+009;1.429223120212555E-001;-1.064987704157829E-001;3.676926018670201E-003;2.283150242874399E-004;
2.423333333333334E+009;1.430091559886932E-001;-1.081826910376549E-001;3.590488107874990E-003;1.530251320218667E-004;
2.423500000000000E+009;1.430745273828507E-001;-1.098373085260391E-001;3.619632683694363E-003;5.089421028969809E-005;
2.423666666666667E+009;1.432217359542847E-001;-1.115236729383469E-001;3.659413428977132E-003;-2.715055015869439E-004;
2.423833333333334E+009;1.437566578388214E-001;-1.130404546856880E-001;3.660499816760421E-003;-5.667282966896892E-004;
2.424000000000000E+009;1.438455730676651E-001;-1.143754646182060E-001;3.712236182764173E-003;-7.665902958251536E-004;
2.424166666666667E+009;1.440427303314209E-001;-1.159028783440590E-001;3.572982735931873E-003;-1.037045265547931E-003;
2.424333333333334E+009;1.445001512765884E-001;-1.171216219663620E-001;3.663655137643218E-003;-1.224013976752758E-003;
2.424500000000000E+009;1.450038701295853E-001;-1.184904128313065E-001;3.550417721271515E-003;-1.424755551852286E-003;
2.424666666666667E+009;1.455440968275070E-001;-1.193367391824722E-001;3.344191238284111E-003;-1.769558410160244E-003;
2.424833333333334E+009;1.457526534795761E-001;-1.205279305577278E-001;3.453900571912527E-003;-1.937400316819549E-003;
2.425000000000000E+009;1.462026238441467E-001;-1.215173229575157E-001;3.335980465635657E-003;-2.256358275189996E-003;
2.425166666666667E+009;1.463369429111481E-001;-1.224040240049362E-001;3.319949842989445E-003;-2.095686737447977E-003;
2.425333333333334E+009;1.469447016716003E-001;-1.231959685683250E-001;3.113132901489735E-003;-2.419069409370422E-003;
2.425500000000000E+009;1.473943740129471E-001;-1.238948032259941E-001;3.160007763653994E-003;-2.628207905218005E-003;
2.425666666666667E+009;1.475142687559128E-001;-1.246363744139671E-001;2.943165833130479E-003;-2.632564399391413E-003;
2.425833333333334E+009;1.477199494838715E-001;-1.251088827848434E-001;2.859632717445493E-003;-2.937097800895572E-003;
2.426000000000000E+009;1.479802280664444E-001;-1.255923956632614E-001;2.779878908768296E-003;-3.057659603655338E-003;
2.426166666666667E+009;1.483514755964279E-001;-1.260722726583481E-001;2.592630684375763E-003;-2.982272999361157E-003;
2.426333333333334E+009;1.482909470796585E-001;-1.262467950582504E-001;2.376265358179808E-003;-3.114822320640087E-003;
2.426500000000000E+009;1.483410745859146E-001;-1.264702528715134E-001;2.216312102973461E-003;-3.382937284186482E-003;
2.426666666666667E+009;1.484223604202271E-001;-1.265614777803421E-001;2.180058509111404E-003;-3.356931731104851E-003;
2.426833333333334E+009;1.482479423284531E-001;-1.267178803682327E-001;2.026909729465842E-003;-3.462762804701924E-003;
2.427000000000000E+009;1.480565071105957E-001;-1.268113702535629E-001;1.849500811658800E-003;-3.461337182670832E-003;
2.427166666666667E+009;1.475879997014999E-001;-1.268237829208374E-001;1.820815261453390E-003;-3.559738164767623E-003;
2.427333333333334E+009;1.472495943307877E-001;-1.267913430929184E-001;1.688771066255868E-003;-3.664047224447131E-003;
2.427500000000000E+009;1.467800885438919E-001;-1.267220824956894E-001;1.505480613559485E-003;-3.818687982857227E-003;
2.427666666666667E+009;1.461535692214966E-001;-1.266884803771973E-001;1.479324302636087E-003;-3.884656354784966E-003;
2.427833333333334E+009;1.454616487026215E-001;-1.266631633043289E-001;1.225854852236807E-003;-3.798365825787187E-003;
