# Version 1.00
#
freq[Hz];re:Trc1_S11;im:Trc1_S11;re:Trc2_S21;im:Trc2_S21;
2.400000000000000E+009;1.627830564975739E-001;5.256900563836098E-002;-6.143096834421158E-003;2.966536441817880E-003;
2.400166666666667E+009;1.627463251352310E-001;5.086745694279671E-002;-6.105165928602219E-003;3.205311717465520E-003;
2.400333333333334E+009;1.625846475362778E-001;4.916023835539818E-002;-5.999826360493898E-003;3.446201793849468E-003;
2.400500000000000E+009;1.626113504171372E-001;4.729679226875305E-002;-6.007590796798468E-003;3.682574955746532E-003;
2.400666666666667E+009;1.626016348600388E-001;4.537347704172134E-002;-5.860575474798679E-003;3.966355696320534E-003;
2.400833333333334E+009;1.624553799629211E-001;4.357323795557022E-002;-5.686497315764427E-003;4.264492075890303E-003;
2.401000000000000E+009;1.626326441764832E-001;4.151426255702972E-002;-5.702187307178974E-003;4.580390173941851E-003;
2.401166666666667E+009;1.628120690584183E-001;3.951773419976234E-002;-5.535340402275324E-003;4.930785857141018E-003;
2.401333333333334E+009;1.629245430231094E-001;3.734290972352028E-002;-5.459044594317675E-003;5.381084512919188E-003;
2.401500000000000E+009;1.631301045417786E-001;3.532826900482178E-002;-5.161658860743046E-003;5.536336917430162E-003;
2.401666666666667E+009;1.632953286170960E-001;3.346817567944527E-002;-4.952078685164452E-003;5.854825489223003E-003;
2.401833333333334E+009;1.636006534099579E-001;3.131344914436340E-002;-4.456317517906427E-003;6.128769833594561E-003;
2.402000000000000E+009;1.636281162500382E-001;2.938765101134777E-002;-4.241454415023327E-003;6.288755219429731E-003;
2.402166666666667E+009;1.641472876071930E-001;2.734839171171188E-002;-3.928708843886852E-003;6.524472497403622E-003;
2.402333333333334E+009;1.645228862762451E-001;2.546855248510838E-002;-3.687878372147679E-003;6.884971167892218E-003;
2.402500000000000E+009;1.651348322629929E-001;2.363433688879013E-002;-3.211602102965117E-003;6.981568876653910E-003;
2.402666666666667E+009;1.656952649354935E-001;2.198035269975662E-002;-2.904189284890890E-003;7.208814378827810E-003;
2.402833333333334E+009;1.661552637815476E-001;2.026470191776753E-002;-2.606014022603631E-003;7.261869497597218E-003;
2.403000000000000E+009;1.668124198913574E-001;1.865291967988014E-002;-2.175488509237766E-003;7.416953332722187E-003;
2.403166666666667E+009;1.675559133291245E-001;1.681927777826786E-002;-1.787416520528495E-003;7.642637938261032E-003;
2.403333333333334E+009;1.681518703699112E-001;1.553415693342686E-002;-1.495500328019261E-003;7.723444141447544E-003;
2.403500000000000E+009;1.688679456710815E-001;1.382972579449415E-002;-8.881224785000086E-004;7.850773632526398E-003;
2.403666666666667E+009;1.695936322212219E-001;1.247406285256147E-002;-3.580642514862120E-004;7.803577464073896E-003;
2.403833333333334E+009;1.704699993133545E-001;1.113900355994701E-002;4.379898018669337E-005;7.535717915743589E-003;
2.404000000000000E+009;1.712935417890549E-001;9.837516583502293E-003;4.913251032121480E-004;7.729078643023968E-003;
2.404166666666667E+009;1.722032576799393E-001;8.524156175553799E-003;9.784715948626399E-004;7.618257775902748E-003;
2.404333333333334E+009;1.728205233812332E-001;7.695503067225218E-003;1.302363583818078E-003;7.446567527949810E-003;
2.404500000000000E+009;1.736400127410889E-001;6.520824506878853E-003;1.682025729678571E-003;7.380288094282150E-003;
2.404666666666667E+009;1.744041293859482E-001;5.745512433350086E-003;2.133201342076063E-003;7.217755541205406E-003;
2.404833333333334E+009;1.752143353223801E-001;4.847248550504446E-003;2.568712690845132E-003;7.134250365197659E-003;
2.405000000000000E+009;1.759447157382965E-001;4.061345942318440E-003;2.943739527836442E-003;6.714415270835161E-003;
2.405166666666667E+009;1.766074597835541E-001;3.353408537805080E-003;3.129904391244054E-003;6.352441385388374E-003;
2.405333333333334E+009;1.772896051406860E-001;2.590080723166466E-003;3.489419585093856E-003;6.162627134472132E-003;
2.405500000000000E+009;1.778861582279205E-001;2.238831249997020E-003;3.703920869156718E-003;5.967014934867621E-003;
2.405666666666667E+009;1.784335970878601E-001;1.715330174192786E-003;4.076591692864895E-003;5.452342331409454E-003;
2.405833333333334E+009;1.788545399904251E-001;1.369236619211733E-003;4.241386428475380E-003;5.228539928793907E-003;
2.406000000000000E+009;1.792540252208710E-001;7.231365307234228E-004;4.436656832695007E-003;4.832848440855742E-003;
2.406166666666667E+009;1.795790195465088E-001;5.702728522010148E-004;4.604554269462824E-003;4.671801812946796E-003;
2.406333333333334E+009;1.799618452787399E-001;1.232505892403424E-004;4.719063173979521E-003;4.396842326968908E-003;
2.406500000000000E+009;1.803051382303238E-001;-3.872831803164445E-005;4.804821684956551E-003;3.876009257510305E-003;
2.406666666666667E+009;1.802244484424591E-001;-3.863110032398254E-004;4.918296821415424E-003;3.575236303731799E-003;
2.406833333333334E+009;1.804961264133453E-001;-5.842455429956317E-004;5.146275274455547E-003;3.205472370609641E-003;
2.407000000000000E+009;1.805915087461472E-001;-9.810206247493625E-004;5.152444355189800E-003;2.797737950459123E-003;
2.407166666666667E+009;1.806782782077789E-001;-1.288077794015408E-003;5.192480981349945E-003;2.582984045147896E-003;
2.407333333333334E+009;1.804699897766113E-001;-1.705541857518256E-003;5.020903423428536E-003;2.149286214262247E-003;
2.407500000000000E+009;1.802400052547455E-001;-1.948657212778926E-003;4.998881835490465E-003;2.043133834376931E-003;
2.407666666666667E+009;1.798693686723709E-001;-2.359834499657154E-003;4.944350570440292E-003;1.654568011872470E-003;
2.407833333333334E+009;1.795116066932678E-001;-2.969628665596247E-003;5.031131207942963E-003;1.440038206055760E-003;
2.408000000000000E+009;1.791739612817764E-001;-3.460654988884926E-003;4.825785756111145E-003;1.206697430461645E-003;
2.408166666666667E+009;1.786481142044067E-001;-3.810514928773046E-003;4.843780305236578E-003;1.022690325044096E-003;
2.408333333333334E+009;1.782824546098709E-001;-4.464967176318169E-003;4.842306952923536E-003;6.599188200198114E-004;
2.408500000000000E+009;1.777039170265198E-001;-5.239896476268768E-003;4.699287470430136E-003;4.759042058140039E-004;
2.408666666666667E+009;1.770813465118408E-001;-6.072490941733122E-003;4.512114915996790E-003;2.954499213956296E-004;
2.408833333333334E+009;1.762572526931763E-001;-6.704042665660381E-003;4.539408721029759E-003;7.604119218740379E-006;
2.409000000000000E+009;1.756576299667358E-001;-7.622025907039642E-003;4.355951678007841E-003;-3.346551966387779E-004;
2.409166666666667E+009;1.749063134193420E-001;-8.770931512117386E-003;4.285081755369902E-003;-4.165049176663160E-004;
2.409333333333334E+009;1.741931736469269E-001;-9.806730784475803E-003;3.815891919657588E-003;-7.127573480829597E-004;
2.409500000000000E+009;1.733816415071487E-001;-1.104766502976418E-002;3.828270127996802E-003;-6.959849270060659E-004;
2.409666666666667E+009;1.726087927818298E-001;-1.233915518969297E-002;3.734779544174671E-003;-7.717493572272360E-004;
2.409833333333334E+009;1.718864440917969E-001;-1.347001083195210E-002;3.486226778477430E-003;-8.782263612374663E-004;
2.410000000000000E+009;1.710769087076187E-001;-1.498452201485634E-002;3.239548997953534E-003;-9.529237286187708E-004;
2.410166666666667E+009;1.705822795629501E-001;-1.651039347052574E-002;3.229380119591951E-003;-1.125645358115435E-003;
2.410333333333334E+009;1.698166429996491E-001;-1.797136664390564E-002;2.933474723249674E-003;-1.224561012350023E-003;
2.410500000000000E+009;1.692257225513458E-001;-1.949019730091095E-002;2.937514800578356E-003;-1.122333691455424E-003;
2.410666666666667E+009;1.685044467449188E-001;-2.127482742071152E-002;2.792020794004202E-003;-1.415978302247822E-003;
2.410833333333334E+009;1.680531650781632E-001;-2.298825234174728E-002;2.643949119374156E-003;-1.343093928880990E-003;
2.411000000000000E+009;1.674529165029526E-001;-2.479181438684464E-002;2.537185791879892E-003;-1.330202561803162E-003;
2.411166666666667E+009;1.670932024717331E-001;-2.682157978415489E-002;2.389707602560520E-003;-1.302560325711966E-003;
2.411333333333334E+009;1.665423214435577E-001;-2.856780588626862E-002;2.297236816957593E-003;-1.216174103319645E-003;
2.411500000000000E+009;1.661581099033356E-001;-3.045526705682278E-002;2.104515908285976E-003;-1.466826768592000E-003;
2.411666666666667E+009;1.663306206464768E-001;-3.243295103311539E-002;2.129956148564816E-003;-1.430510194040835E-003;
2.411833333333334E+009;1.659760922193527E-001;-3.430386260151863E-002;2.000402193516493E-003;-1.392556354403496E-003;
2.412000000000000E+009;1.660977900028229E-001;-3.635679557919502E-002;2.022959059104323E-003;-1.533210626803339E-003;
2.412166666666667E+009;1.658414304256439E-001;-3.835691511631012E-002;1.880200463347137E-003;-1.570314168930054E-003;
2.412333333333334E+009;1.660258620977402E-001;-4.017438367009163E-002;1.792836003005505E-003;-1.552399364300072E-003;
2.412500000000000E+009;1.659056991338730E-001;-4.209682717919350E-002;1.746607013046742E-003;-1.661795075051487E-003;
2.412666666666667E+009;1.661469191312790E-001;-4.405433312058449E-002;1.687875716015697E-003;-1.707577612251043E-003;
2.412833333333334E+009;1.665058583021164E-001;-4.606992378830910E-002;1.493899035267532E-003;-1.677186577580869E-003;
2.413000000000000E+009;1.667975634336472E-001;-4.773901030421257E-002;1.502148923464119E-003;-1.680856570601463E-003;
2.413166666666667E+009;1.670128405094147E-001;-4.967908561229706E-002;1.482430379837751E-003;-1.786112552508712E-003;
2.413333333333334E+009;1.672104746103287E-001;-5.131795629858971E-002;1.255104318261147E-003;-1.615360146388412E-003;
2.413500000000000E+009;1.675110757350922E-001;-5.313181504607201E-002;9.904793696478009E-004;-1.860301010310650E-003;
2.413666666666667E+009;1.682651787996292E-001;-5.460711196064949E-002;9.821720886975527E-004;-1.998404040932655E-003;
2.413833333333334E+009;1.684446632862091E-001;-5.625230818986893E-002;8.034359198063612E-004;-1.820001634769142E-003;
2.414000000000000E+009;1.689096838235855E-001;-5.766486003994942E-002;7.346611819230020E-004;-1.971595687791705E-003;
2.414166666666667E+009;1.695881932973862E-001;-5.915964022278786E-002;5.271118134260178E-004;-1.817228272557259E-003;
2.414333333333334E+009;1.699205040931702E-001;-6.044164672493935E-002;4.464565427042544E-004;-2.021989086642861E-003;
2.414500000000000E+009;1.706018298864365E-001;-6.149158626794815E-002;2.595371333882213E-004;-1.889801351353526E-003;
2.414666666666667E+009;1.710300594568253E-001;-6.258255988359451E-002;6.727081927238032E-005;-1.772850402630866E-003;
2.414833333333334E+009;1.714013367891312E-001;-6.371913850307465E-002;-1.038136758779729E-007;-1.669341698288918E-003;
2.415000000000000E+009;1.718253940343857E-001;-6.463155150413513E-002;-1.562728575663641E-004;-1.697165425866842E-003;
2.415166666666667E+009;1.721973568201065E-001;-6.549375504255295E-002;-2.470131148584187E-004;-1.503683160990477E-003;
2.415333333333334E+009;1.727850139141083E-001;-6.625822931528091E-002;-3.164235968142748E-004;-1.502258586697280E-003;
2.415500000000000E+009;1.730255484580994E-001;-6.696106493473053E-002;-4.490491119213402E-004;-1.407585106790066E-003;
2.415666666666667E+009;1.732155084609985E-001;-6.749242544174194E-002;-5.794849130325019E-004;-1.303303986787796E-003;
2.415833333333334E+009;1.736009567975998E-001;-6.804743409156799E-002;-7.446691743098199E-004;-1.225671847350895E-003;
2.416000000000000E+009;1.735304594039917E-001;-6.844909489154816E-002;-6.423881859518588E-004;-1.077925087884069E-003;
2.416166666666667E+009;1.739144921302795E-001;-6.880462914705277E-002;-8.463856647722423E-004;-1.164619345217943E-003;
2.416333333333334E+009;1.736988425254822E-001;-6.901893019676209E-002;-8.235416025854647E-004;-9.129401878453791E-004;
2.416500000000000E+009;1.737379878759384E-001;-6.953272223472595E-002;-9.815585799515247E-004;-7.203415734693408E-004;
2.416666666666667E+009;1.735986322164536E-001;-6.965400278568268E-002;-9.779809042811394E-004;-5.808782298117876E-004;
2.416833333333334E+009;1.734371334314346E-001;-7.011738419532776E-002;-1.002001576125622E-003;-4.286883631721139E-004;
2.417000000000000E+009;1.729568541049957E-001;-7.023640722036362E-002;-1.101388945244253E-003;-3.882443706970662E-004;
2.417166666666667E+009;1.726589798927307E-001;-7.031316310167313E-002;-1.044227392412722E-003;-8.932232594816014E-005;
2.417333333333334E+009;1.721412241458893E-001;-7.046990096569061E-002;-9.204203379340470E-004;-9.997932647820562E-005;
2.417500000000000E+009;1.715136319398880E-001;-7.083592563867569E-002;-1.106292242184281E-003;-1.723845707601868E-005;
2.417666666666667E+009;1.711173802614212E-001;-7.075325399637222E-002;-9.243603562936187E-004;1.093916216632351E-004;
2.417833333333334E+009;1.701803952455521E-001;-7.104604691267014E-002;-9.815901285037398E-004;3.786510205827653E-004;
2.418000000000000E+009;1.692584455013275E-001;-7.130390405654907E-002;-8.913198835216463E-004;5.224664928391576E-004;
2.418166666666667E+009;1.684822440147400E-001;-7.145322859287262E-002;-1.048888661898673E-003;7.268341723829508E-004;
2.418333333333334E+009;1.676260679960251E-001;-7.175420224666596E-002;-8.263851632364094E-004;5.870855529792607E-004;
2.418500000000000E+009;1.664788424968720E-001;-7.204321026802063E-002;-7.461480563506484E-004;9.831908391788602E-004;
2.418666666666667E+009;1.654708385467529E-001;-7.253254204988480E-002;-6.388771580532193E-004;1.144538167864084E-003;
2.418833333333334E+009;1.641550064086914E-001;-7.299758493900299E-002;-5.983659066259861E-004;1.284471247345209E-003;
2.419000000000000E+009;1.630374342203140E-001;-7.341555505990982E-002;-3.803804283961654E-004;1.205410459078848E-003;
2.419166666666667E+009;1.617897152900696E-001;-7.403400540351868E-002;-3.754399658646435E-004;1.370854442939162E-003;
2.419333333333334E+009;1.604063063859940E-001;-7.436598837375641E-002;-2.064630534732714E-004;1.443405053578317E-003;
2.419500000000000E+009;1.592334806919098E-001;-7.531277090311050E-002;-7.587509753648192E-005;1.733575947582722E-003;
2.419666666666667E+009;1.581053435802460E-001;-7.604511827230454E-002;-7.612154877278954E-005;1.809129957109690E-003;
2.419833333333334E+009;1.567605584859848E-001;-7.693804800510407E-002;3.019329451490194E-004;1.560055767185986E-003;
2.420000000000000E+009;1.554817110300064E-001;-7.770726829767227E-002;4.902214277535677E-004;1.777988858520985E-003;
2.420166666666667E+009;1.542599946260452E-001;-7.875035703182221E-002;5.025996943004429E-004;1.854877918958664E-003;
2.420333333333334E+009;1.531456112861633E-001;-7.998972386121750E-002;6.560897454619408E-004;1.977382926270366E-003;
2.420500000000000E+009;1.520048677921295E-001;-8.102848380804062E-002;8.481660042889416E-004;1.818306278437376E-003;
2.420666666666667E+009;1.508265882730484E-001;-8.210955560207367E-002;1.101695466786623E-003;1.859059790149331E-003;
2.420833333333334E+009;1.496834158897400E-001;-8.346340060234070E-002;1.166495843790472E-003;1.890912652015686E-003;
2.421000000000000E+009;1.486656069755554E-001;-8.502470701932907E-002;1.356961205601692E-003;1.833726302720606E-003;
2.421166666666667E+009;1.478731036186218E-001;-8.647510409355164E-002;1.579949399456382E-003;1.942545641213656E-003;
2.421333333333334E+009;1.471063196659088E-001;-8.805719017982483E-002;1.830291585065424E-003;1.812003552913666E-003;
2.421500000000000E+009;1.462166607379913E-001;-8.937260508537293E-002;1.842725556343794E-003;1.604640157893300E-003;
2.421666666666667E+009;1.455772817134857E-001;-9.119325876235962E-002;2.065855776891112E-003;1.639186171814799E-003;
2.421833333333334E+009;1.449392735958099E-001;-9.278476983308792E-002;2.250223187729716E-003;1.505616004578769E-003;
2.422000000000000E+009;1.443945467472076E-001;-9.436268359422684E-002;2.473701490089297E-003;1.525166793726385E-003;
2.422166666666667E+009;1.437853127717972E-001;-9.631781280040741E-002;2.716911491006613E-003;1.383548951707780E-003;
2.422333333333334E+009;1.436333507299423E-001;-9.785213321447372E-002;2.748200902715325E-003;1.327242236584425E-003;
2.422500000000000E+009;1.434152275323868E-001;-9.960705786943436E-002;2.757205860689282E-003;9.912457317113876E-004;
2.422666666666667E+009;1.429579854011536E-001;-1.013536974787712E-001;3.030668711289764E-003;7.748531643301249E-004;
2.422833333333334E+009;1.428968161344528E-001;-1.031939238309860E-001;3.003374673426151E-003;7.394124404527247E-004;
2.423000000000000E+009;1.429549306631088E-001;-1.049533560872078E-001;3.293530549854040E-003;6.945934728719294E-004;
2.423166666666667E+009;1.429668217897415E-001;-1.068123206496239E-001;3.223044564947486E-003;3.086199576500803E-004;
2.423333333333334E+009;1.431990265846252E-001;-1.082171350717545E-001;3.458644729107618E-003;6.705280247842893E-005;
2.423500000000000E+009;1.432159245014191E-001;-1.099377423524857E-001;3.413714701309800E-003;-1.138155857915990E-004;
2.423666666666667E+009;1.432174295186997E-001;-1.116595715284348E-001;3.608926432207227E-003;-1.970346929738298E-004;
2.423833333333334E+009;1.437195390462875E-001;-1.130989044904709E-001;3.478261874988675E-003;-4.651932686101645E-004;
2.424000000000000E+009;1.438076645135880E-001;-1.143988221883774E-001;3.397228894755244E-003;-6.753207999281585E-004;
2.424166666666667E+009;1.442505866289139E-001;-1.159629151225090E-001;3.409301629289985E-003;-8.803881355561316E-004;
2.424333333333334E+009;1.446067541837692E-001;-1.171899065375328E-001;3.460207954049110E-003;-1.211759867146611E-003;
2.424500000000000E+009;1.450413614511490E-001;-1.184706687927246E-001;3.502049716189504E-003;-1.296039903536439E-003;
2.424666666666667E+009;1.454252749681473E-001;-1.194528639316559E-001;3.431130200624466E-003;-1.639167428947985E-003;
2.424833333333334E+009;1.457621753215790E-001;-1.206446215510368E-001;3.486289409920573E-003;-1.702688168734312E-003;
2.425000000000000E+009;1.462440788745880E-001;-1.215956956148148E-001;3.212674288079143E-003;-2.038778271526098E-003;
2.425166666666667E+009;1.464948058128357E-001;-1.224618479609489E-001;3.232758259400725E-003;-2.003108849748969E-003;
2.425333333333334E+009;1.469027251005173E-001;-1.232805103063583E-001;2.901804400607944E-003;-2.351603005081415E-003;
2.425500000000000E+009;1.473300904035568E-001;-1.240348145365715E-001;2.965423511341214E-003;-2.448593964800239E-003;
2.425666666666667E+009;1.473532170057297E-001;-1.245766654610634E-001;2.791391685605049E-003;-2.559943357482553E-003;
2.425833333333334E+009;1.478713452816010E-001;-1.251721531152725E-001;2.743499120697379E-003;-2.815389772877097E-003;
2.426000000000000E+009;1.480037420988083E-001;-1.257475912570953E-001;2.700588898733258E-003;-2.790489699691534E-003;
2.426166666666667E+009;1.482833176851273E-001;-1.260209530591965E-001;2.465676050633192E-003;-3.026201855391264E-003;
2.426333333333334E+009;1.483523845672607E-001;-1.263156831264496E-001;2.531525678932667E-003;-3.100977977737784E-003;
2.426500000000000E+009;1.483800113201141E-001;-1.264855861663818E-001;2.215462736785412E-003;-3.231488866731525E-003;
2.426666666666667E+009;1.484640240669251E-001;-1.265582740306854E-001;2.228380646556616E-003;-3.173816949129105E-003;
2.426833333333334E+009;1.482435315847397E-001;-1.267594397068024E-001;1.865094644017518E-003;-3.253563307225704E-003;
2.427000000000000E+009;1.479658931493759E-001;-1.268995255231857E-001;1.740076928399503E-003;-3.401083173230290E-003;
2.427166666666667E+009;1.475887298583984E-001;-1.267821788787842E-001;1.636658678762615E-003;-3.480753395706415E-003;
2.427333333333334E+009;1.472451090812683E-001;-1.267731338739395E-001;1.649782760068774E-003;-3.565668826922774E-003;
2.427500000000000E+009;1.468825936317444E-001;-1.267274022102356E-001;1.551726134493947E-003;-3.586799139156938E-003;
2.427666666666667E+009;1.463014036417007E-001;-1.267904937267304E-001;1.378771965391934E-003;-3.576417919248343E-003;
2.427833333333334E+009;1.454808413982391E-001;-1.266762018203735E-001;1.217778772115707E-003;-3.710005199536681E-003;
