# Version 1.00
#
freq[Hz];re:Trc1_S11;im:Trc1_S11;re:Trc2_S21;im:Trc2_S21;
2.400000000000000E+009;1.627832353115082E-001;5.277977138757706E-002;-6.300018634647131E-003;2.840740839019418E-003;
2.400166666666667E+009;1.627702265977860E-001;5.120014399290085E-002;-6.401026155799627E-003;3.091625170782208E-003;
2.400333333333334E+009;1.625419110059738E-001;4.932441562414169E-002;-6.340210326015949E-003;3.357588080689311E-003;
2.400500000000000E+009;1.625146567821503E-001;4.746900498867035E-002;-6.185120902955532E-003;3.692422527819872E-003;
2.400666666666667E+009;1.625607162714005E-001;4.542049393057823E-002;-6.199969444423914E-003;3.952715545892716E-003;
2.400833333333334E+009;1.626138985157013E-001;4.379632696509361E-002;-6.148734595626593E-003;4.295066930353642E-003;
2.401000000000000E+009;1.625293195247650E-001;4.158962145447731E-002;-6.073649507015944E-003;4.621642641723156E-003;
2.401166666666667E+009;1.627530008554459E-001;3.939815983176231E-002;-5.923651158809662E-003;4.946523346006870E-003;
2.401333333333334E+009;1.627833396196365E-001;3.755322098731995E-002;-5.730603355914354E-003;5.224251188337803E-003;
2.401500000000000E+009;1.630353331565857E-001;3.563475608825684E-002;-5.376092158257961E-003;5.622160155326128E-003;
2.401666666666667E+009;1.632224619388580E-001;3.350595012307167E-002;-5.242113023996353E-003;5.792784038931131E-003;
2.401833333333334E+009;1.636590212583542E-001;3.154215589165688E-002;-4.938856698572636E-003;6.233908236026764E-003;
2.402000000000000E+009;1.636937558650971E-001;2.948583476245403E-002;-4.439719021320343E-003;6.425947416573763E-003;
2.402166666666667E+009;1.641925424337387E-001;2.747095003724098E-002;-4.169097635895014E-003;6.710842717438936E-003;
2.402333333333334E+009;1.646091639995575E-001;2.565083093941212E-002;-3.817438147962093E-003;6.907030940055847E-003;
2.402500000000000E+009;1.652704179286957E-001;2.384183928370476E-002;-3.604197409003973E-003;6.999835837632418E-003;
2.402666666666667E+009;1.657947897911072E-001;2.216233499348164E-002;-3.079900052398443E-003;7.262164726853371E-003;
2.402833333333334E+009;1.662504673004150E-001;2.032182365655899E-002;-2.788756741210818E-003;7.300988305360079E-003;
2.403000000000000E+009;1.669242382049561E-001;1.853933371603489E-002;-2.335969125851989E-003;7.495398167520762E-003;
2.403166666666667E+009;1.676091998815537E-001;1.694478094577789E-002;-1.851998036727309E-003;7.681510411202908E-003;
2.403333333333334E+009;1.683409661054611E-001;1.565152220427990E-002;-1.516700256615877E-003;7.862491533160210E-003;
2.403500000000000E+009;1.690851598978043E-001;1.390173472464085E-002;-9.087552316486836E-004;7.920365780591965E-003;
2.403666666666667E+009;1.697604060173035E-001;1.257602870464325E-002;-5.689943791367114E-004;7.979470305144787E-003;
2.403833333333334E+009;1.708019077777863E-001;1.113594509661198E-002;-1.523921819170937E-004;7.788954302668572E-003;
2.404000000000000E+009;1.713763326406479E-001;9.980405680835247E-003;3.753378696274012E-004;7.750190794467926E-003;
2.404166666666667E+009;1.721691340208054E-001;8.639431558549404E-003;5.813413881696761E-004;7.697109133005142E-003;
2.404333333333334E+009;1.730366349220276E-001;7.775586098432541E-003;1.160199986770749E-003;7.743412628769875E-003;
2.404500000000000E+009;1.738017350435257E-001;6.398157216608524E-003;1.632281579077244E-003;7.560764905065298E-003;
2.404666666666667E+009;1.744700223207474E-001;5.514125339686871E-003;1.945659285411239E-003;7.345635909587145E-003;
2.404833333333334E+009;1.752584874629974E-001;4.606325179338455E-003;2.409083535894752E-003;6.961406674236059E-003;
2.405000000000000E+009;1.759564727544785E-001;3.911286592483521E-003;2.610010793432593E-003;6.963418330997229E-003;
2.405166666666667E+009;1.766758561134338E-001;3.287197789177299E-003;3.249847330152988E-003;6.542387884110212E-003;
2.405333333333334E+009;1.774007081985474E-001;2.540603978559375E-003;3.399806795641780E-003;6.401918362826109E-003;
2.405500000000000E+009;1.779143512248993E-001;2.031971467658877E-003;3.747012699022889E-003;6.161112803965807E-003;
2.405666666666667E+009;1.784723103046417E-001;1.807371154427528E-003;4.059265367686749E-003;5.807966459542513E-003;
2.405833333333334E+009;1.789046227931976E-001;1.221885671839118E-003;4.211805760860443E-003;5.501241423189640E-003;
2.406000000000000E+009;1.794669926166534E-001;6.934859557077289E-004;4.479289520531893E-003;5.153891164809465E-003;
2.406166666666667E+009;1.796224713325501E-001;5.535387899726629E-004;4.643476102501154E-003;4.702608566731215E-003;
2.406333333333334E+009;1.801345646381378E-001;1.439390762243420E-004;4.782644566148520E-003;4.373248666524887E-003;
2.406500000000000E+009;1.803356409072876E-001;-1.233356597367674E-004;4.981418605893850E-003;4.084135871380568E-003;
2.406666666666667E+009;1.802812814712524E-001;-3.694848855957389E-004;4.931803792715073E-003;3.740295302122831E-003;
2.406833333333334E+009;1.804706454277039E-001;-6.924456683918834E-004;5.084264092147350E-003;3.496420104056597E-003;
2.407000000000000E+009;1.805015504360199E-001;-1.083098235540092E-003;5.075061693787575E-003;3.113058162853122E-003;
2.407166666666667E+009;1.805340200662613E-001;-1.298483693972230E-003;5.088229663670063E-003;2.842882182449102E-003;
2.407333333333334E+009;1.803489327430725E-001;-1.664799405261874E-003;5.082148592919111E-003;2.434356603771448E-003;
2.407500000000000E+009;1.801618635654450E-001;-1.965543488040566E-003;5.087743978947401E-003;2.105350606143475E-003;
2.407666666666667E+009;1.799357086420059E-001;-2.272945595905185E-003;5.115180276334286E-003;1.771104289218783E-003;
2.407833333333334E+009;1.794030219316483E-001;-2.964888466522098E-003;5.031676031649113E-003;1.665380666963756E-003;
2.408000000000000E+009;1.790770739316940E-001;-3.434054786339402E-003;4.978715907782316E-003;1.208643894642592E-003;
2.408166666666667E+009;1.786127537488937E-001;-3.778281621634960E-003;5.086340010166168E-003;1.021452364511788E-003;
2.408333333333334E+009;1.783224642276764E-001;-4.353871103376150E-003;4.912696778774262E-003;6.944114575162530E-004;
2.408500000000000E+009;1.775434762239456E-001;-5.283739417791367E-003;4.801132250577211E-003;5.403131945058703E-004;
2.408666666666667E+009;1.769846975803375E-001;-5.879197735339403E-003;4.760359413921833E-003;3.127435920760036E-004;
2.408833333333334E+009;1.762573271989822E-001;-6.879454478621483E-003;4.646830260753632E-003;-9.646653779782355E-006;
2.409000000000000E+009;1.755157709121704E-001;-7.739988155663014E-003;4.312653094530106E-003;-3.296270442660898E-004;
2.409166666666667E+009;1.748445630073547E-001;-8.780041709542275E-003;4.183236975222826E-003;-2.628064248710871E-004;
2.409333333333334E+009;1.741620749235153E-001;-9.929757565259934E-003;3.997974097728729E-003;-6.237392080947757E-004;
2.409500000000000E+009;1.734068393707275E-001;-1.105427928268910E-002;4.023444838821888E-003;-5.270177498459816E-004;
2.409666666666667E+009;1.724607646465302E-001;-1.224518474191427E-002;3.822310129180551E-003;-8.325257804244757E-004;
2.409833333333334E+009;1.717665344476700E-001;-1.346580684185028E-002;3.495912766084075E-003;-9.477654821239412E-004;
2.410000000000000E+009;1.711633503437042E-001;-1.492410711944103E-002;3.589258994907141E-003;-1.075075590051711E-003;
2.410166666666667E+009;1.704127043485642E-001;-1.645445451140404E-002;3.275049617514014E-003;-1.135731115937233E-003;
2.410333333333334E+009;1.698465645313263E-001;-1.783515699207783E-002;3.031435888260603E-003;-1.248791115358472E-003;
2.410500000000000E+009;1.691475212574005E-001;-1.940481737256050E-002;3.058452624827623E-003;-1.289959996938705E-003;
2.410666666666667E+009;1.685725748538971E-001;-2.136453054845333E-002;2.783557632938027E-003;-1.240807469002903E-003;
2.410833333333334E+009;1.680769622325897E-001;-2.286380156874657E-002;2.697971882298589E-003;-1.329393126070499E-003;
2.411000000000000E+009;1.675197035074234E-001;-2.475169673562050E-002;2.523636678233743E-003;-1.388307544402778E-003;
2.411166666666667E+009;1.671217530965805E-001;-2.668833360075951E-002;2.485847333446145E-003;-1.357907894998789E-003;
2.411333333333334E+009;1.666028499603272E-001;-2.868936583399773E-002;2.340815030038357E-003;-1.453202683478594E-003;
2.411500000000000E+009;1.662151962518692E-001;-3.053147904574871E-002;2.077054930850864E-003;-1.394542865455151E-003;
2.411666666666667E+009;1.662523150444031E-001;-3.237885981798172E-002;2.148268744349480E-003;-1.415691105648875E-003;
2.411833333333334E+009;1.659825295209885E-001;-3.430541604757309E-002;2.194539876654744E-003;-1.547511201351881E-003;
2.412000000000000E+009;1.659027934074402E-001;-3.634941205382347E-002;2.116888994351029E-003;-1.511466456577182E-003;
2.412166666666667E+009;1.658685505390167E-001;-3.829278796911240E-002;1.895457739010453E-003;-1.419898122549057E-003;
2.412333333333334E+009;1.659964323043823E-001;-4.023952409625053E-002;1.801539212465286E-003;-1.496155280619860E-003;
2.412500000000000E+009;1.660902053117752E-001;-4.202464595437050E-002;1.660827198065817E-003;-1.611116225831211E-003;
2.412666666666667E+009;1.661341935396195E-001;-4.421727359294891E-002;1.720192609354854E-003;-1.477366313338280E-003;
2.412833333333334E+009;1.665220558643341E-001;-4.594086110591888E-002;1.613970845937729E-003;-1.615289831534028E-003;
2.413000000000000E+009;1.666197627782822E-001;-4.787491261959076E-002;1.529480214230716E-003;-1.695043873041868E-003;
2.413166666666667E+009;1.668221950531006E-001;-4.967905953526497E-002;1.480786711908877E-003;-1.738817314617336E-003;
2.413333333333334E+009;1.672146022319794E-001;-5.136234685778618E-002;1.259003765881062E-003;-1.769369118846953E-003;
2.413500000000000E+009;1.676535606384277E-001;-5.295969918370247E-002;1.221516751684248E-003;-1.760752755217254E-003;
2.413666666666667E+009;1.680776774883270E-001;-5.477264150977135E-002;1.043174532242119E-003;-1.834682538174093E-003;
2.413833333333334E+009;1.685659587383270E-001;-5.609728395938873E-002;9.682295494712889E-004;-1.867340877652168E-003;
2.414000000000000E+009;1.688260436058044E-001;-5.771357566118240E-002;8.469282183796167E-004;-1.943879760801792E-003;
2.414166666666667E+009;1.692635715007782E-001;-5.908706411719322E-002;6.659515202045441E-004;-1.932219136506319E-003;
2.414333333333334E+009;1.698348373174667E-001;-6.031607836484909E-002;4.699659766629338E-004;-1.920019625686109E-003;
2.414500000000000E+009;1.705289781093597E-001;-6.159295886754990E-002;4.232034552842379E-004;-1.834864495322108E-003;
2.414666666666667E+009;1.708838343620300E-001;-6.254602223634720E-002;2.835276536643505E-004;-1.868802588433027E-003;
2.414833333333334E+009;1.713174581527710E-001;-6.352405250072479E-002;1.203924839501269E-004;-1.802547485567629E-003;
2.415000000000000E+009;1.717388331890106E-001;-6.446247547864914E-002;1.104194088838995E-004;-1.693193335086107E-003;
2.415166666666667E+009;1.720738857984543E-001;-6.527401506900787E-002;-1.233070070156828E-004;-1.666169147938490E-003;
2.415333333333334E+009;1.726556718349457E-001;-6.609261780977249E-002;-2.394771581748501E-004;-1.669223187491298E-003;
2.415500000000000E+009;1.730261743068695E-001;-6.688162684440613E-002;-3.891509841196239E-004;-1.512233517132700E-003;
2.415666666666667E+009;1.732695549726486E-001;-6.724447757005692E-002;-3.778621612582356E-004;-1.488039735704660E-003;
2.415833333333334E+009;1.735672652721405E-001;-6.793484091758728E-002;-6.314349011518061E-004;-1.323650823906064E-003;
2.416000000000000E+009;1.734602451324463E-001;-6.836563348770142E-002;-7.518476340919733E-004;-1.081697409972549E-003;
2.416166666666667E+009;1.736436188220978E-001;-6.876872479915619E-002;-9.159916080534458E-004;-1.035630470141769E-003;
2.416333333333334E+009;1.737512499094009E-001;-6.907180696725845E-002;-7.460191845893860E-004;-8.577880798839033E-004;
2.416500000000000E+009;1.737793982028961E-001;-6.944745779037476E-002;-9.011044166982174E-004;-6.582943606190383E-004;
2.416666666666667E+009;1.735632419586182E-001;-6.968612223863602E-002;-9.626111132092774E-004;-5.878258380107582E-004;
2.416833333333334E+009;1.734501570463181E-001;-7.009353488683701E-002;-8.982324507087469E-004;-4.504137032199651E-004;
2.417000000000000E+009;1.729328632354736E-001;-7.015509903430939E-002;-8.742040372453630E-004;-3.677650820463896E-004;
2.417166666666667E+009;1.726333200931549E-001;-7.028655707836151E-002;-9.705999982543290E-004;-4.149522865191102E-004;
2.417333333333334E+009;1.720736026763916E-001;-7.042367756366730E-002;-9.910154622048140E-004;2.440757270960603E-005;
2.417500000000000E+009;1.716123968362808E-001;-7.074046880006790E-002;-1.024903147481382E-003;5.198082726565190E-005;
2.417666666666667E+009;1.709507703781128E-001;-7.072644680738449E-002;-9.645410464145243E-004;2.900536346714944E-004;
2.417833333333334E+009;1.701352596282959E-001;-7.096005976200104E-002;-9.953019907698035E-004;4.100588557776064E-004;
2.418000000000000E+009;1.691661626100540E-001;-7.131129503250122E-002;-9.501237072981894E-004;4.733297100756317E-004;
2.418166666666667E+009;1.684435456991196E-001;-7.135879993438721E-002;-7.838726160116494E-004;7.482086657546461E-004;
2.418333333333334E+009;1.676190644502640E-001;-7.168360054492950E-002;-8.909314638003707E-004;7.950128056108952E-004;
2.418500000000000E+009;1.665066033601761E-001;-7.213934510946274E-002;-6.886246264912188E-004;1.061739400029182E-003;
2.418666666666667E+009;1.654351502656937E-001;-7.253469526767731E-002;-6.035249098204076E-004;1.113076228648424E-003;
2.418833333333334E+009;1.641327440738678E-001;-7.282570004463196E-002;-5.719070904888213E-004;1.365944393910468E-003;
2.419000000000000E+009;1.629099547863007E-001;-7.335647195577622E-002;-4.026218957733363E-004;1.385661540552974E-003;
2.419166666666667E+009;1.617961674928665E-001;-7.399065792560577E-002;-2.950052730739117E-004;1.430471893399954E-003;
2.419333333333334E+009;1.603589653968811E-001;-7.440141588449478E-002;-8.009842713363469E-005;1.586387632414699E-003;
2.419500000000000E+009;1.592073440551758E-001;-7.521255314350128E-002;-7.797945727361366E-005;1.604519668035209E-003;
2.419666666666667E+009;1.579841077327728E-001;-7.610027492046356E-002;1.486561959609389E-004;1.661101006902754E-003;
2.419833333333334E+009;1.566803902387619E-001;-7.687705755233765E-002;3.483576292637736E-004;1.678755739703775E-003;
2.420000000000000E+009;1.555563807487488E-001;-7.777850329875946E-002;4.441972123458982E-004;1.877822563983500E-003;
2.420166666666667E+009;1.543193012475967E-001;-7.877224683761597E-002;5.995265091769397E-004;1.898055663332343E-003;
2.420333333333334E+009;1.530653387308121E-001;-7.990042120218277E-002;7.598987431265414E-004;1.838688505813479E-003;
2.420500000000000E+009;1.520717293024063E-001;-8.092141896486282E-002;1.002963632345200E-003;2.022668486461043E-003;
2.420666666666667E+009;1.507250219583511E-001;-8.218075335025787E-002;1.038676826283336E-003;1.983657479286194E-003;
2.420833333333334E+009;1.498425751924515E-001;-8.361822366714478E-002;1.299080671742559E-003;1.790482201613486E-003;
2.421000000000000E+009;1.487970501184464E-001;-8.494630455970764E-002;1.472601317800582E-003;1.872715656645596E-003;
2.421166666666667E+009;1.478209942579269E-001;-8.660816401243210E-002;1.759426086209714E-003;1.856919494457543E-003;
2.421333333333334E+009;1.469918787479401E-001;-8.792785555124283E-002;1.852857647463679E-003;1.788225257769227E-003;
2.421500000000000E+009;1.461768895387650E-001;-8.956336975097656E-002;1.999808708205819E-003;1.707241637632251E-003;
2.421666666666667E+009;1.454725861549377E-001;-9.109358489513397E-002;2.217733766883612E-003;1.660514506511390E-003;
2.421833333333334E+009;1.449885517358780E-001;-9.280773997306824E-002;2.413532929494977E-003;1.633462961763144E-003;
2.422000000000000E+009;1.443240344524384E-001;-9.457790106534958E-002;2.632772084325552E-003;1.456202473491430E-003;
2.422166666666667E+009;1.438521146774292E-001;-9.626723825931549E-002;2.799510257318616E-003;1.444829045794904E-003;
2.422333333333334E+009;1.434253007173538E-001;-9.791500866413117E-002;2.890582894906402E-003;1.129333977587521E-003;
2.422500000000000E+009;1.432473659515381E-001;-9.954176843166351E-002;2.941612154245377E-003;9.828587062656879E-004;
2.422666666666667E+009;1.429193615913391E-001;-1.014161333441734E-001;3.021739423274994E-003;8.456967188976705E-004;
2.422833333333334E+009;1.428779363632202E-001;-1.032864302396774E-001;3.447566647082567E-003;6.523017073050141E-004;
2.423000000000000E+009;1.426163911819458E-001;-1.048500984907150E-001;3.212895244359970E-003;6.476185517385602E-004;
2.423166666666667E+009;1.428997814655304E-001;-1.066256761550903E-001;3.434498561546207E-003;3.564202052075416E-004;
2.423333333333334E+009;1.429315507411957E-001;-1.080951392650604E-001;3.488134592771530E-003;1.435292651876807E-004;
2.423500000000000E+009;1.430643945932388E-001;-1.099438816308975E-001;3.514310810714960E-003;-1.281806762563065E-004;
2.423666666666667E+009;1.431695669889450E-001;-1.116156205534935E-001;3.828421700745821E-003;-3.989683464169502E-004;
2.423833333333334E+009;1.436646878719330E-001;-1.130156219005585E-001;3.673192346468568E-003;-3.870880464091897E-004;
2.424000000000000E+009;1.438791155815125E-001;-1.145009994506836E-001;3.600995289161801E-003;-7.759620784781873E-004;
2.424166666666667E+009;1.441445648670197E-001;-1.158638596534729E-001;3.807679750025272E-003;-1.140655018389225E-003;
2.424333333333334E+009;1.446079313755035E-001;-1.170998662710190E-001;3.696473781019449E-003;-1.140862004831433E-003;
2.424500000000000E+009;1.449324041604996E-001;-1.184730976819992E-001;3.615973982959986E-003;-1.244833576492965E-003;
2.424666666666667E+009;1.455326229333878E-001;-1.192963644862175E-001;3.345223609358072E-003;-1.567752799019218E-003;
2.424833333333334E+009;1.457427144050598E-001;-1.205358281731606E-001;3.461414016783238E-003;-1.682845875620842E-003;
2.425000000000000E+009;1.462148576974869E-001;-1.214673370122910E-001;3.438835032284260E-003;-2.179866423830390E-003;
2.425166666666667E+009;1.464028358459473E-001;-1.224037185311317E-001;3.357741050422192E-003;-2.159971278160811E-003;
2.425333333333334E+009;1.468827873468399E-001;-1.232638061046600E-001;3.268791595473886E-003;-2.337679499760270E-003;
2.425500000000000E+009;1.473754942417145E-001;-1.239448338747025E-001;3.127560717985034E-003;-2.441826509311795E-003;
2.425666666666667E+009;1.475095450878143E-001;-1.245082095265389E-001;2.948085311800242E-003;-2.558550098910928E-003;
2.425833333333334E+009;1.477975547313690E-001;-1.251075565814972E-001;2.788558369502425E-003;-2.740564988926053E-003;
2.426000000000000E+009;1.479218304157257E-001;-1.256110221147537E-001;2.741444623097777E-003;-2.810563659295440E-003;
2.426166666666667E+009;1.483152657747269E-001;-1.259840577840805E-001;2.723784651607275E-003;-3.036812413483858E-003;
2.426333333333334E+009;1.482387185096741E-001;-1.263280361890793E-001;2.490180311724544E-003;-3.072320716455579E-003;
2.426500000000000E+009;1.483075171709061E-001;-1.264677196741104E-001;2.301965141668916E-003;-3.318331670016050E-003;
2.426666666666667E+009;1.484927535057068E-001;-1.265186071395874E-001;2.095863223075867E-003;-3.355457680299878E-003;
2.426833333333334E+009;1.482862830162048E-001;-1.267002075910568E-001;2.011994598433375E-003;-3.379692323505878E-003;
2.427000000000000E+009;1.479804664850235E-001;-1.268876194953919E-001;1.914769760333002E-003;-3.440098837018013E-003;
2.427166666666667E+009;1.477739959955216E-001;-1.267583221197128E-001;1.760869170539081E-003;-3.446766408160329E-003;
2.427333333333334E+009;1.471121758222580E-001;-1.267873793840408E-001;1.674172934144735E-003;-3.753944998607040E-003;
2.427500000000000E+009;1.469184756278992E-001;-1.267255842685700E-001;1.546150888316333E-003;-3.757656319066882E-003;
2.427666666666667E+009;1.462881714105606E-001;-1.267088353633881E-001;1.449618022888899E-003;-3.812817856669426E-003;
2.427833333333334E+009;1.454263031482697E-001;-1.267198920249939E-001;1.426385133527219E-003;-3.781422972679138E-003;
