# Version 1.00
#
freq[Hz];re:Trc1_S11;im:Trc1_S11;re:Trc2_S21;im:Trc2_S21;
2.400000000000000E+009;1.682076454162598E-001;4.714874178171158E-002;2.697356510907412E-003;3.596491646021605E-003;
2.400166666666667E+009;1.693855524063110E-001;4.623186215758324E-002;2.660636557266116E-003;3.430196549743414E-003;
2.400333333333334E+009;1.701209396123886E-001;4.495089128613472E-002;2.937630051746965E-003;3.311269916594029E-003;
2.400500000000000E+009;1.709741055965424E-001;4.395614564418793E-002;3.014574991539121E-003;3.244191408157349E-003;
2.400666666666667E+009;1.719266027212143E-001;4.297036305069923E-002;3.079081419855356E-003;3.160984953865409E-003;
2.400833333333334E+009;1.728067547082901E-001;4.224134981632233E-002;3.115805098786950E-003;2.989721018821001E-003;
2.401000000000000E+009;1.736456602811813E-001;4.130689799785614E-002;3.231779672205448E-003;2.734418492764235E-003;
2.401166666666667E+009;1.741996109485626E-001;4.063919186592102E-002;3.360474715009332E-003;2.584064379334450E-003;
2.401333333333334E+009;1.748075932264328E-001;3.988642245531082E-002;3.209779039025307E-003;2.568631432950497E-003;
2.401500000000000E+009;1.756223291158676E-001;3.920850902795792E-002;3.440286498516798E-003;2.413552254438400E-003;
2.401666666666667E+009;1.763333678245544E-001;3.876909986138344E-002;3.653835505247116E-003;2.310932381078601E-003;
2.401833333333334E+009;1.766907423734665E-001;3.806932643055916E-002;3.446678165346384E-003;2.182333962991834E-003;
2.402000000000000E+009;1.771156191825867E-001;3.742517158389092E-002;3.447916358709335E-003;2.006189664825797E-003;
2.402166666666667E+009;1.776253879070282E-001;3.672780841588974E-002;3.683756338432431E-003;1.901936484500766E-003;
2.402333333333334E+009;1.778024286031723E-001;3.605513274669647E-002;3.592787310481072E-003;1.881670206785202E-003;
2.402500000000000E+009;1.783977001905441E-001;3.560439124703407E-002;3.633982269093394E-003;1.617512083612382E-003;
2.402666666666667E+009;1.785485744476318E-001;3.470062464475632E-002;3.616166999563575E-003;1.614529639482498E-003;
2.402833333333334E+009;1.787965297698975E-001;3.414220362901688E-002;3.658881178125739E-003;1.497240969911218E-003;
2.403000000000000E+009;1.789923906326294E-001;3.333665058016777E-002;3.648243844509125E-003;1.241334597580135E-003;
2.403166666666667E+009;1.788551211357117E-001;3.245311230421066E-002;3.699190914630890E-003;1.311940723098815E-003;
2.403333333333334E+009;1.787515878677368E-001;3.172255679965019E-002;3.724929876625538E-003;1.141467597335577E-003;
2.403500000000000E+009;1.787886917591095E-001;3.073833137750626E-002;3.683432005345821E-003;1.130493590608239E-003;
2.403666666666667E+009;1.786856502294540E-001;2.972687222063541E-002;3.793783020228148E-003;1.006081583909690E-003;
2.403833333333334E+009;1.783787608146668E-001;2.859011478722096E-002;3.789529204368591E-003;9.473446407355368E-004;
2.404000000000000E+009;1.782288253307343E-001;2.753907628357410E-002;3.899659728631377E-003;8.943481952883303E-004;
2.404166666666667E+009;1.778184026479721E-001;2.614622749388218E-002;3.867799183353782E-003;8.262365008704364E-004;
2.404333333333334E+009;1.772740185260773E-001;2.497838437557221E-002;3.898008028045297E-003;4.893754376098514E-004;
2.404500000000000E+009;1.769226938486099E-001;2.343153208494186E-002;3.816638141870499E-003;6.394644733518362E-004;
2.404666666666667E+009;1.765953004360199E-001;2.213920280337334E-002;3.924456890672445E-003;4.516885092016310E-004;
2.404833333333334E+009;1.762137115001679E-001;2.075392939150333E-002;3.976725973188877E-003;4.756488488055766E-004;
2.405000000000000E+009;1.757396459579468E-001;1.909546181559563E-002;4.154171328991652E-003;2.875023346859962E-004;
2.405166666666667E+009;1.754686683416367E-001;1.748029515147209E-002;4.235951695591211E-003;1.746079651638866E-004;
2.405333333333334E+009;1.750729531049728E-001;1.575430482625961E-002;3.881478216499090E-003;6.229768769117072E-005;
2.405500000000000E+009;1.746815294027329E-001;1.435556728392839E-002;4.068579524755478E-003;-6.747934094164521E-005;
2.405666666666667E+009;1.744127124547958E-001;1.247755903750658E-002;4.126729443669319E-003;-3.757079321076162E-005;
2.405833333333334E+009;1.738410741090775E-001;1.063663419336081E-002;4.045075271278620E-003;-2.799821959342808E-004;
2.406000000000000E+009;1.736719608306885E-001;8.767187595367432E-003;3.994378261268139E-003;-3.226042608730495E-004;
2.406166666666667E+009;1.733647733926773E-001;6.980719044804573E-003;4.161569755524397E-003;-5.329798441380262E-004;
2.406333333333334E+009;1.732553392648697E-001;5.029506050050259E-003;4.188971128314734E-003;-5.994469393044710E-004;
2.406500000000000E+009;1.732425540685654E-001;2.974362578243017E-003;4.082463681697846E-003;-6.931724492460489E-004;
2.406666666666667E+009;1.731172055006027E-001;8.908266900107265E-004;4.271013662219048E-003;-8.031462202779949E-004;
2.406833333333334E+009;1.732142120599747E-001;-1.186387497000396E-003;4.197690635919571E-003;-9.360182448290288E-004;
2.407000000000000E+009;1.733237504959106E-001;-3.121240297332406E-003;4.356472752988339E-003;-1.092179678380489E-003;
2.407166666666667E+009;1.735223382711411E-001;-5.190420895814896E-003;4.366965964436531E-003;-1.228607376106083E-003;
2.407333333333334E+009;1.735478639602661E-001;-7.373126223683357E-003;4.281795583665371E-003;-1.339759211987257E-003;
2.407500000000000E+009;1.737454235553742E-001;-9.321047924458981E-003;4.550912883132696E-003;-1.746508525684476E-003;
2.407666666666667E+009;1.739406436681747E-001;-1.130438316613436E-002;4.562107380479574E-003;-1.698344829492271E-003;
2.407833333333334E+009;1.742367297410965E-001;-1.352279260754585E-002;4.507389850914478E-003;-1.998246414586902E-003;
2.408000000000000E+009;1.746808737516403E-001;-1.551438216120005E-002;4.407922737300396E-003;-2.258583903312683E-003;
2.408166666666667E+009;1.749222576618195E-001;-1.731096766889095E-002;4.487313330173492E-003;-2.429936314001679E-003;
2.408333333333334E+009;1.755275726318359E-001;-1.916516385972500E-002;4.432390909641981E-003;-2.708221320062876E-003;
2.408500000000000E+009;1.759473532438278E-001;-2.106210589408875E-002;4.408109467476606E-003;-3.092977451160550E-003;
2.408666666666667E+009;1.762835532426834E-001;-2.297367528080940E-002;4.334035795181990E-003;-3.472967073321343E-003;
2.408833333333334E+009;1.766363233327866E-001;-2.465560473501682E-002;4.011656157672405E-003;-3.640116192400456E-003;
2.409000000000000E+009;1.769383251667023E-001;-2.616788074374199E-002;3.839325625449419E-003;-3.940833266824484E-003;
2.409166666666667E+009;1.775311380624771E-001;-2.774600870907307E-002;3.764726454392076E-003;-4.134441725909710E-003;
2.409333333333334E+009;1.780316084623337E-001;-2.919360250234604E-002;3.379580797627568E-003;-4.329498857259750E-003;
2.409500000000000E+009;1.783339083194733E-001;-3.057039529085159E-002;3.209319664165378E-003;-4.315988160669804E-003;
2.409666666666667E+009;1.787808686494827E-001;-3.172919526696205E-002;3.048562677577138E-003;-4.692079965025187E-003;
2.409833333333334E+009;1.791845858097076E-001;-3.270866349339485E-002;2.798856468871236E-003;-4.728372208774090E-003;
2.410000000000000E+009;1.799341589212418E-001;-3.381581604480743E-002;2.594360616058111E-003;-4.726306535303593E-003;
2.410166666666667E+009;1.801258623600006E-001;-3.474833071231842E-002;2.367188921198249E-003;-4.959329962730408E-003;
2.410333333333334E+009;1.807432323694229E-001;-3.550840169191361E-002;2.087144646793604E-003;-4.804083146154881E-003;
2.410500000000000E+009;1.810467541217804E-001;-3.644603490829468E-002;1.853623194620013E-003;-4.940786398947239E-003;
2.410666666666667E+009;1.811159700155258E-001;-3.718894347548485E-002;1.598456525243819E-003;-5.122318863868713E-003;
2.410833333333334E+009;1.815411299467087E-001;-3.763210773468018E-002;1.441430300474167E-003;-5.194367840886116E-003;
2.411000000000000E+009;1.817850917577744E-001;-3.842742368578911E-002;1.174950506538153E-003;-5.139499902725220E-003;
2.411166666666667E+009;1.820614784955978E-001;-3.886687010526657E-002;9.582918137311935E-004;-5.145350005477667E-003;
2.411333333333334E+009;1.821818798780441E-001;-3.941337764263153E-002;7.084711105562747E-004;-5.134141072630882E-003;
2.411500000000000E+009;1.821155846118927E-001;-4.005767405033112E-002;6.477682036347687E-004;-5.069576203823090E-003;
2.411666666666667E+009;1.821937859058380E-001;-4.040420800447464E-002;3.951157559640706E-004;-4.987012129276991E-003;
2.411833333333334E+009;1.819882094860077E-001;-4.073738306760788E-002;3.168518887832761E-004;-5.111434496939182E-003;
2.412000000000000E+009;1.817838847637177E-001;-4.110281914472580E-002;-2.522366776247509E-005;-5.076944828033447E-003;
2.412166666666667E+009;1.812957674264908E-001;-4.155367240309715E-002;-1.856823655543849E-004;-5.173062905669212E-003;
2.412333333333334E+009;1.811005175113678E-001;-4.181562364101410E-002;-3.715694765560329E-004;-5.131638143211603E-003;
2.412500000000000E+009;1.804588884115219E-001;-4.231175780296326E-002;-7.788902148604393E-004;-5.205746740102768E-003;
2.412666666666667E+009;1.799152344465256E-001;-4.269608855247498E-002;-9.712238679639995E-004;-5.080431234091520E-003;
2.412833333333334E+009;1.793258786201477E-001;-4.310450702905655E-002;-1.080966438166797E-003;-5.010238848626614E-003;
2.413000000000000E+009;1.783892512321472E-001;-4.347142949700356E-002;-1.318211667239666E-003;-5.093431565910578E-003;
2.413166666666667E+009;1.776490807533264E-001;-4.409278556704521E-002;-1.684521557763219E-003;-4.964327905327082E-003;
2.413333333333334E+009;1.766161471605301E-001;-4.438896849751473E-002;-1.783719751983881E-003;-4.903594963252544E-003;
2.413500000000000E+009;1.756597012281418E-001;-4.503234475851059E-002;-1.974136102944613E-003;-4.891179502010346E-003;
2.413666666666667E+009;1.745986938476563E-001;-4.572650417685509E-002;-2.222172915935516E-003;-4.798830486834049E-003;
2.413833333333334E+009;1.735375523567200E-001;-4.612503200769424E-002;-2.477538539096713E-003;-4.509084858000279E-003;
2.414000000000000E+009;1.722475588321686E-001;-4.688385128974915E-002;-2.743144519627094E-003;-4.494328517466784E-003;
2.414166666666667E+009;1.712003201246262E-001;-4.764116182923317E-002;-2.917960518971086E-003;-4.457765724509955E-003;
2.414333333333334E+009;1.699189990758896E-001;-4.859672859311104E-002;-2.974913921207190E-003;-4.211977589875460E-003;
2.414500000000000E+009;1.686994284391403E-001;-4.938450455665588E-002;-3.350178711116314E-003;-3.845769213512540E-003;
2.414666666666667E+009;1.675068140029907E-001;-5.030247941613197E-002;-3.456659382209182E-003;-3.625315846875310E-003;
2.414833333333334E+009;1.662301272153854E-001;-5.146271735429764E-002;-3.582150442525744E-003;-3.576209070160985E-003;
2.415000000000000E+009;1.650352030992508E-001;-5.233991146087647E-002;-3.822294063866139E-003;-3.216229612007737E-003;
2.415166666666667E+009;1.638823151588440E-001;-5.377804860472679E-002;-3.794792806729674E-003;-3.023814177140594E-003;
2.415333333333334E+009;1.626722961664200E-001;-5.523673444986343E-002;-3.978998865932226E-003;-2.691113157197833E-003;
2.415500000000000E+009;1.615999042987824E-001;-5.650335922837257E-002;-4.192708525806665E-003;-2.499656053259969E-003;
2.415666666666667E+009;1.604749262332916E-001;-5.796858668327332E-002;-4.148503765463829E-003;-2.256906358525157E-003;
2.415833333333334E+009;1.593710333108902E-001;-5.956606566905975E-002;-4.150509368628264E-003;-2.019498031586409E-003;
2.416000000000000E+009;1.581818610429764E-001;-6.122509017586708E-002;-4.157997667789459E-003;-1.799143967218697E-003;
2.416166666666667E+009;1.575175374746323E-001;-6.291600316762924E-002;-4.174500238150358E-003;-1.420935965143144E-003;
2.416333333333334E+009;1.565336287021637E-001;-6.464088708162308E-002;-4.255129024386406E-003;-1.283675665035844E-003;
2.416500000000000E+009;1.556048542261124E-001;-6.651757657527924E-002;-4.180292598903179E-003;-9.698999347165227E-004;
2.416666666666667E+009;1.546044498682022E-001;-6.816016137599945E-002;-4.139518365263939E-003;-8.543290314264596E-004;
2.416833333333334E+009;1.540040224790573E-001;-7.031747698783875E-002;-4.072430543601513E-003;-7.176012732088566E-004;
2.417000000000000E+009;1.530464291572571E-001;-7.218354940414429E-002;-3.858893644064665E-003;-5.328221013769507E-004;
2.417166666666667E+009;1.524638682603836E-001;-7.393367588520050E-002;-3.893280401825905E-003;-3.479462757240981E-004;
2.417333333333334E+009;1.519543230533600E-001;-7.588749378919601E-002;-3.714917227625847E-003;-3.397614591449383E-006;
2.417500000000000E+009;1.513529419898987E-001;-7.790116220712662E-002;-3.616503439843655E-003;6.559860048582777E-005;
2.417666666666667E+009;1.509610414505005E-001;-7.956809550523758E-002;-3.669415833428502E-003;1.060531649272889E-004;
2.417833333333334E+009;1.504655331373215E-001;-8.139400184154511E-002;-3.619077848270536E-003;2.101643476635218E-004;
2.418000000000000E+009;1.501954197883606E-001;-8.328431844711304E-002;-3.320585470646620E-003;4.808812518604100E-004;
2.418166666666667E+009;1.499335467815399E-001;-8.489838242530823E-002;-3.189139766618609E-003;4.937679623253644E-004;
2.418333333333334E+009;1.499395072460175E-001;-8.656612038612366E-002;-3.158290404826403E-003;6.144664948806167E-004;
2.418500000000000E+009;1.496956795454025E-001;-8.817204087972641E-002;-2.927819965407252E-003;6.798376562073827E-004;
2.418666666666667E+009;1.497809290885925E-001;-8.974207192659378E-002;-3.012169152498245E-003;8.312793797813356E-004;
2.418833333333334E+009;1.495021134614945E-001;-9.119599312543869E-002;-2.853942103683949E-003;8.045667782425880E-004;
2.419000000000000E+009;1.495394557714462E-001;-9.240107983350754E-002;-2.723213285207748E-003;9.199753985740244E-004;
2.419166666666667E+009;1.496927589178085E-001;-9.371536225080490E-002;-2.606384223327041E-003;1.164161367341876E-003;
2.419333333333334E+009;1.497011780738831E-001;-9.451296925544739E-002;-2.435294911265373E-003;1.087160082533956E-003;
2.419500000000000E+009;1.499290317296982E-001;-9.565990418195725E-002;-2.292040269821882E-003;1.170713803730905E-003;
2.419666666666667E+009;1.501972824335098E-001;-9.668991714715958E-002;-2.082057064399123E-003;1.225519808940589E-003;
2.419833333333334E+009;1.503070592880249E-001;-9.728883951902390E-002;-2.028906717896462E-003;1.482611638493836E-003;
2.420000000000000E+009;1.506600230932236E-001;-9.816535562276840E-002;-1.912555773742497E-003;1.365796197205782E-003;
2.420166666666667E+009;1.508273184299469E-001;-9.846575558185577E-002;-1.828634878620505E-003;1.300218398682773E-003;
2.420333333333334E+009;1.511160433292389E-001;-9.889911115169525E-002;-1.717843115329742E-003;1.115422928705812E-003;
2.420500000000000E+009;1.514700651168823E-001;-9.911106526851654E-002;-1.545048202387989E-003;1.357067492790520E-003;
2.420666666666667E+009;1.517308354377747E-001;-9.940052777528763E-002;-1.343925250694156E-003;1.387805212289095E-003;
2.420833333333334E+009;1.520603001117706E-001;-9.940674155950546E-002;-1.379032502882183E-003;1.249242923222482E-003;
2.421000000000000E+009;1.520779132843018E-001;-9.956552833318710E-002;-1.153141609393060E-003;1.365221338346601E-003;
2.421166666666667E+009;1.523100286722183E-001;-9.960016608238220E-002;-9.623483056202531E-004;1.208419213071466E-003;
2.421333333333334E+009;1.526009142398834E-001;-9.958792477846146E-002;-1.063970266841352E-003;1.039715134538710E-003;
2.421500000000000E+009;1.525436490774155E-001;-9.930025041103363E-002;-9.109217789955437E-004;1.038612332195044E-003;
2.421666666666667E+009;1.525612771511078E-001;-9.920219331979752E-002;-7.718650158494711E-004;9.705462143756449E-004;
2.421833333333334E+009;1.525865197181702E-001;-9.895107895135880E-002;-6.133497226983309E-004;8.117746911011636E-004;
2.422000000000000E+009;1.523963063955307E-001;-9.862609207630158E-002;-7.045969832688570E-004;6.864192546345294E-004;
2.422166666666667E+009;1.522456705570221E-001;-9.861028194427490E-002;-6.274888291954994E-004;6.184052326716483E-004;
2.422333333333334E+009;1.518238633871079E-001;-9.816659241914749E-002;-6.992500857450068E-004;5.119876586832106E-004;
2.422500000000000E+009;1.514178961515427E-001;-9.763602912425995E-002;-7.363459444604814E-004;3.542252525221556E-004;
2.422666666666667E+009;1.508145034313202E-001;-9.742940962314606E-002;-7.734828977845609E-004;2.955988456960768E-004;
2.422833333333334E+009;1.503944247961044E-001;-9.711571782827377E-002;-6.782773416489363E-004;2.244169882033020E-004;
2.423000000000000E+009;1.494131386280060E-001;-9.672327339649200E-002;-8.139915298670530E-004;2.016930666286498E-004;
2.423166666666667E+009;1.487417221069336E-001;-9.647676348686218E-002;-8.050922770053148E-004;6.051184755051509E-005;
2.423333333333334E+009;1.476355195045471E-001;-9.608609974384308E-002;-9.085310157388449E-004;-5.423465700005181E-005;
2.423500000000000E+009;1.467081159353256E-001;-9.591666609048843E-002;-1.000616932287812E-003;-4.520013681030832E-005;
2.423666666666667E+009;1.454592794179916E-001;-9.559240192174912E-002;-1.086115022189915E-003;-1.219222831423394E-004;
2.423833333333334E+009;1.443599462509155E-001;-9.539028257131577E-002;-1.271713408641517E-003;-1.402356720063835E-004;
2.424000000000000E+009;1.428970694541931E-001;-9.515377134084702E-002;-1.212180824950337E-003;-2.593602403067052E-004;
2.424166666666667E+009;1.415630131959915E-001;-9.512712806463242E-002;-1.508493791334331E-003;-1.592073967913166E-004;
2.424333333333334E+009;1.402930617332459E-001;-9.508832544088364E-002;-1.634515007026494E-003;-7.345845369854942E-005;
2.424500000000000E+009;1.388730555772781E-001;-9.510772675275803E-002;-1.682748901657760E-003;-1.156547732534818E-004;
2.424666666666667E+009;1.375792473554611E-001;-9.507533162832260E-002;-1.849721069447696E-003;-8.246452489402145E-005;
2.424833333333334E+009;1.360259503126144E-001;-9.534870833158493E-002;-1.899669296108186E-003;-1.661896021687426E-005;
2.425000000000000E+009;1.346204727888107E-001;-9.576530754566193E-002;-1.916568609885871E-003;1.134653211920522E-004;
2.425166666666667E+009;1.328754574060440E-001;-9.612827003002167E-002;-2.082756254822016E-003;9.171202691504732E-005;
2.425333333333334E+009;1.316584944725037E-001;-9.671965241432190E-002;-1.982454676181078E-003;1.512884336989373E-004;
2.425500000000000E+009;1.301803737878799E-001;-9.745285660028458E-002;-2.278493251651526E-003;1.892592117656022E-004;
2.425666666666667E+009;1.285415589809418E-001;-9.814298152923584E-002;-2.187534933909774E-003;3.742927219718695E-004;
2.425833333333334E+009;1.272039711475372E-001;-9.908580034971237E-002;-2.240218222141266E-003;6.662631640210748E-004;
2.426000000000000E+009;1.257769763469696E-001;-1.001495346426964E-001;-2.328753471374512E-003;6.632421282120049E-004;
2.426166666666667E+009;1.245759427547455E-001;-1.012901887297630E-001;-2.150144195184112E-003;8.359987987205386E-004;
2.426333333333334E+009;1.232608631253243E-001;-1.024476736783981E-001;-2.344111213460565E-003;9.536934667266905E-004;
2.426500000000000E+009;1.220511943101883E-001;-1.038037165999413E-001;-2.333528362214565E-003;1.157138147391379E-003;
2.426666666666667E+009;1.210203766822815E-001;-1.050357744097710E-001;-2.223387593403459E-003;1.231161179021001E-003;
2.426833333333334E+009;1.197109222412109E-001;-1.066377386450768E-001;-2.179229399189353E-003;1.456820173189044E-003;
2.427000000000000E+009;1.187225282192230E-001;-1.082613021135330E-001;-2.071627648547292E-003;1.522113219834864E-003;
2.427166666666667E+009;1.176063045859337E-001;-1.097992360591888E-001;-2.035215729847550E-003;1.550251501612365E-003;
2.427333333333334E+009;1.167254894971848E-001;-1.115601137280464E-001;-1.958049368113279E-003;1.587947481311858E-003;
2.427500000000000E+009;1.160017326474190E-001;-1.133279204368591E-001;-1.889825216494501E-003;1.639073831029236E-003;
2.427666666666667E+009;1.152899041771889E-001;-1.150778308510780E-001;-1.927319215610623E-003;1.798211713321507E-003;
