# Version 1.00
#
freq[Hz];re:Trc1_S11;im:Trc1_S11;re:Trc2_S21;im:Trc2_S21;
2.400000000000000E+009;1.579954028129578E-001;6.235800310969353E-002;-3.731655422598124E-003;2.146801445633173E-003;
2.400166666666667E+009;1.579172760248184E-001;6.073268875479698E-002;-3.769050352275372E-003;2.229875419288874E-003;
2.400333333333334E+009;1.576825976371765E-001;5.886447057127953E-002;-3.604980418458581E-003;2.216747961938381E-003;
2.400500000000000E+009;1.577471047639847E-001;5.690984427928925E-002;-3.741670632734895E-003;2.291192067787051E-003;
2.400666666666667E+009;1.576239913702011E-001;5.499378219246864E-002;-3.571678651496768E-003;2.507229335606098E-003;
2.400833333333334E+009;1.578721106052399E-001;5.303420498967171E-002;-3.365946700796485E-003;2.602435881271958E-003;
2.401000000000000E+009;1.578393876552582E-001;5.103985965251923E-002;-3.358596237376332E-003;2.702418714761734E-003;
2.401166666666667E+009;1.578958928585053E-001;4.883070662617683E-002;-3.213354153558612E-003;2.735278336331248E-003;
2.401333333333334E+009;1.580885350704193E-001;4.674528539180756E-002;-3.176888916641474E-003;2.904081484302878E-003;
2.401500000000000E+009;1.584056466817856E-001;4.488854855298996E-002;-2.976275514811277E-003;2.862612484022975E-003;
2.401666666666667E+009;1.587449312210083E-001;4.288411885499954E-002;-2.916899509727955E-003;2.996250754222274E-003;
2.401833333333334E+009;1.591832488775253E-001;4.082029685378075E-002;-2.915421035140753E-003;3.150799311697483E-003;
2.402000000000000E+009;1.594807952642441E-001;3.883107379078865E-002;-2.652139170095325E-003;3.210465190932155E-003;
2.402166666666667E+009;1.599134057760239E-001;3.667698800563812E-002;-2.491843421012163E-003;3.324748249724507E-003;
2.402333333333334E+009;1.605777442455292E-001;3.487735986709595E-002;-2.611390547826886E-003;3.414404578506947E-003;
2.402500000000000E+009;1.614182889461517E-001;3.326154500246048E-002;-2.410095417872071E-003;3.433003788813949E-003;
2.402666666666667E+009;1.620271056890488E-001;3.131277859210968E-002;-2.315143356099725E-003;3.640310838818550E-003;
2.402833333333334E+009;1.627324372529984E-001;2.972555533051491E-002;-2.231971127912402E-003;3.647239645943046E-003;
2.403000000000000E+009;1.635321229696274E-001;2.824124507606030E-002;-2.118429634720087E-003;3.967606462538242E-003;
2.403166666666667E+009;1.644756048917770E-001;2.661814913153648E-002;-2.078962977975607E-003;3.873195964843035E-003;
2.403333333333334E+009;1.653350591659546E-001;2.507655695080757E-002;-1.743099419400096E-003;3.936110530048609E-003;
2.403500000000000E+009;1.661585569381714E-001;2.371843531727791E-002;-1.633267384022474E-003;4.129054024815559E-003;
2.403666666666667E+009;1.671999096870422E-001;2.221262641251087E-002;-1.564748003147543E-003;4.080045968294144E-003;
2.403833333333334E+009;1.681888103485107E-001;2.083772420883179E-002;-1.370378187857568E-003;4.278433043509722E-003;
2.404000000000000E+009;1.689919978380203E-001;1.977419480681419E-002;-1.392327016219497E-003;4.374542273581028E-003;
2.404166666666667E+009;1.701139360666275E-001;1.846564561128616E-002;-1.141480053775013E-003;4.323798697441816E-003;
2.404333333333334E+009;1.710392832756043E-001;1.775323227047920E-002;-9.633755544200540E-004;4.457809962332249E-003;
2.404500000000000E+009;1.720211952924728E-001;1.660660468041897E-002;-7.021683850325644E-004;4.437526687979698E-003;
2.404666666666667E+009;1.729695051908493E-001;1.582607626914978E-002;-6.373985088430345E-004;4.502031952142716E-003;
2.404833333333334E+009;1.738741844892502E-001;1.509446930140257E-002;-2.170358784496784E-004;4.653806798160076E-003;
2.405000000000000E+009;1.748744547367096E-001;1.421872992068529E-002;-2.261828194605187E-004;4.796242807060480E-003;
2.405166666666667E+009;1.757336556911469E-001;1.369546260684729E-002;9.667816811997909E-006;4.741444718092680E-003;
2.405333333333334E+009;1.765917092561722E-001;1.294886879622936E-002;1.115782652050257E-004;4.722665995359421E-003;
2.405500000000000E+009;1.772408038377762E-001;1.261124666780233E-002;3.992189012933523E-004;4.760009236633778E-003;
2.405666666666667E+009;1.779629141092300E-001;1.217173691838980E-002;6.802830612286925E-004;4.763063043355942E-003;
2.405833333333334E+009;1.783801466226578E-001;1.188968960195780E-002;8.134284289553762E-004;4.760460462421179E-003;
2.406000000000000E+009;1.791267991065979E-001;1.123911608010531E-002;9.649904095567763E-004;4.594561643898487E-003;
2.406166666666667E+009;1.795773357152939E-001;1.110851485282183E-002;1.405601506121457E-003;4.502729047089815E-003;
2.406333333333334E+009;1.801740974187851E-001;1.077293138951063E-002;1.466227578930557E-003;4.634258802980185E-003;
2.406500000000000E+009;1.803038269281387E-001;1.041828375309706E-002;1.651034806855023E-003;4.533463157713413E-003;
2.406666666666667E+009;1.804817020893097E-001;1.018692273646593E-002;1.865848549641669E-003;4.540609195828438E-003;
2.406833333333334E+009;1.807778477668762E-001;9.724097326397896E-003;2.122162608429790E-003;4.402849823236466E-003;
2.407000000000000E+009;1.809613704681397E-001;9.460776112973690E-003;2.542201662436128E-003;4.287577234208584E-003;
2.407166666666667E+009;1.808956563472748E-001;9.218977764248848E-003;2.513407263904810E-003;4.068783484399319E-003;
2.407333333333334E+009;1.807677000761032E-001;8.759152144193649E-003;2.723663579672575E-003;3.987098578363657E-003;
2.407500000000000E+009;1.806276142597199E-001;8.407001383602619E-003;2.896483987569809E-003;3.973842132836580E-003;
2.407666666666667E+009;1.805562376976013E-001;7.865920662879944E-003;3.086426528170705E-003;3.645682008937001E-003;
2.407833333333334E+009;1.801279783248901E-001;7.316282950341702E-003;3.259826684370637E-003;3.464998444542289E-003;
2.408000000000000E+009;1.797971725463867E-001;6.742305122315884E-003;3.332877298817039E-003;3.282711841166019E-003;
2.408166666666667E+009;1.793214231729507E-001;6.055991165339947E-003;3.413708414882422E-003;3.223829669877887E-003;
2.408333333333334E+009;1.789704561233521E-001;5.464118439704180E-003;3.467257600277662E-003;3.039463656023145E-003;
2.408500000000000E+009;1.784182339906693E-001;4.519021138548851E-003;3.601223463192582E-003;2.705095103010535E-003;
2.408666666666667E+009;1.778869479894638E-001;3.633373649790883E-003;3.725640708580613E-003;2.532504731789231E-003;
2.408833333333334E+009;1.772288978099823E-001;2.627761801704764E-003;4.035713151097298E-003;2.437406685203314E-003;
2.409000000000000E+009;1.765026003122330E-001;1.730584888719022E-003;3.878438845276833E-003;2.322690328583121E-003;
2.409166666666667E+009;1.759102195501328E-001;6.455106777139008E-004;4.199896473437548E-003;2.160043688490987E-003;
2.409333333333334E+009;1.752946227788925E-001;-7.658465183340013E-004;4.062226507812738E-003;1.957101281732321E-003;
2.409500000000000E+009;1.745155304670334E-001;-2.021196763962507E-003;4.061546642333269E-003;1.710355165414512E-003;
2.409666666666667E+009;1.736702471971512E-001;-3.469472751021385E-003;4.066272638738155E-003;1.661715446971357E-003;
2.409833333333334E+009;1.731179952621460E-001;-4.924235865473747E-003;4.235843662172556E-003;1.416065730154514E-003;
2.410000000000000E+009;1.726196706295013E-001;-6.274311337620020E-003;4.204289522022009E-003;1.094660838134587E-003;
2.410166666666667E+009;1.718976199626923E-001;-7.934328168630600E-003;4.261675290763378E-003;1.000345451757312E-003;
2.410333333333334E+009;1.712008118629456E-001;-9.640869684517384E-003;4.194875713437796E-003;8.702081395313144E-004;
2.410500000000000E+009;1.704722940921783E-001;-1.128845196217299E-002;4.205225501209498E-003;7.473613950423896E-004;
2.410666666666667E+009;1.700952649116516E-001;-1.324240956455469E-002;4.320897161960602E-003;4.703219747170806E-004;
2.410833333333334E+009;1.697209924459457E-001;-1.502491254359484E-002;4.305423237383366E-003;1.612752384971827E-004;
2.411000000000000E+009;1.692887246608734E-001;-1.697221957147121E-002;4.202763084322214E-003;2.583666937425733E-004;
2.411166666666667E+009;1.688621640205383E-001;-1.878513023257256E-002;4.245804157108069E-003;-1.107972420868464E-004;
2.411333333333334E+009;1.685467362403870E-001;-2.074408344924450E-002;4.050344228744507E-003;-1.978922373382375E-004;
2.411500000000000E+009;1.682142317295075E-001;-2.294483222067356E-002;4.087160341441631E-003;-3.593658038880676E-004;
2.411666666666667E+009;1.682195812463760E-001;-2.466086111962795E-002;4.041344393044710E-003;-6.149853579699993E-004;
2.411833333333334E+009;1.682586222887039E-001;-2.656958252191544E-002;3.850608132779598E-003;-7.280406425707042E-004;
2.412000000000000E+009;1.683006435632706E-001;-2.864319644868374E-002;3.977432847023010E-003;-1.092132064513862E-003;
2.412166666666667E+009;1.682582497596741E-001;-3.060054033994675E-002;3.756659803912044E-003;-9.840854909271002E-004;
2.412333333333334E+009;1.684338152408600E-001;-3.247512131929398E-002;3.679744666442275E-003;-1.309077488258481E-003;
2.412500000000000E+009;1.685076951980591E-001;-3.433836251497269E-002;3.603908931836486E-003;-1.387432683259249E-003;
2.412666666666667E+009;1.688210070133209E-001;-3.662797063589096E-002;3.361888229846954E-003;-1.489121234044433E-003;
2.412833333333334E+009;1.691898107528687E-001;-3.829674050211906E-002;3.319551702588797E-003;-1.684415037743747E-003;
2.413000000000000E+009;1.695346087217331E-001;-4.006700962781906E-002;3.145640948787332E-003;-1.897964859381318E-003;
2.413166666666667E+009;1.699829548597336E-001;-4.180764034390450E-002;3.161813598126173E-003;-1.949380268342793E-003;
2.413333333333334E+009;1.703261435031891E-001;-4.347183182835579E-002;3.011120948940516E-003;-2.006744965910912E-003;
2.413500000000000E+009;1.710199415683746E-001;-4.521748796105385E-002;2.779891481623054E-003;-2.129534725099802E-003;
2.413666666666667E+009;1.714943051338196E-001;-4.690944775938988E-002;2.658791840076447E-003;-2.185716060921550E-003;
2.413833333333334E+009;1.718050986528397E-001;-4.835651442408562E-002;2.616200828924775E-003;-2.319037448614836E-003;
2.414000000000000E+009;1.725216656923294E-001;-4.963911697268486E-002;2.319012302905321E-003;-2.376797841861844E-003;
2.414166666666667E+009;1.729621887207031E-001;-5.106331780552864E-002;2.284140093252063E-003;-2.411614637821913E-003;
2.414333333333334E+009;1.734947562217712E-001;-5.232601240277290E-002;2.137630479410291E-003;-2.401630161330104E-003;
2.414500000000000E+009;1.744047999382019E-001;-5.337351560592651E-002;1.939737354405224E-003;-2.437114249914885E-003;
2.414666666666667E+009;1.746202707290649E-001;-5.437114089727402E-002;1.816516625694931E-003;-2.348551759496331E-003;
2.414833333333334E+009;1.752058118581772E-001;-5.541997775435448E-002;1.739416504278779E-003;-2.449011197313666E-003;
2.415000000000000E+009;1.756541728973389E-001;-5.624381452798843E-002;1.586466096341610E-003;-2.436998533084989E-003;
2.415166666666667E+009;1.760061532258987E-001;-5.694364383816719E-002;1.529944827780128E-003;-2.481878735125065E-003;
2.415333333333334E+009;1.764672994613648E-001;-5.784593150019646E-002;1.407051691785455E-003;-2.426795428618789E-003;
2.415500000000000E+009;1.768151670694351E-001;-5.831345915794373E-002;1.272036926820874E-003;-2.465658355504274E-003;
2.415666666666667E+009;1.770958453416824E-001;-5.881886184215546E-002;1.188285415992141E-003;-2.480376977473497E-003;
2.415833333333334E+009;1.773430854082108E-001;-5.932515487074852E-002;1.017609727568924E-003;-2.409292152151465E-003;
2.416000000000000E+009;1.773126423358917E-001;-5.979248881340027E-002;1.020023133605719E-003;-2.432450884953141E-003;
2.416166666666667E+009;1.776259988546372E-001;-6.018659472465515E-002;8.332685683853924E-004;-2.437768969684839E-003;
2.416333333333334E+009;1.775783002376556E-001;-6.037368997931480E-002;8.661936735734344E-004;-2.250245539471507E-003;
2.416500000000000E+009;1.773964315652847E-001;-6.077840551733971E-002;7.859328761696816E-004;-2.480487339198589E-003;
2.416666666666667E+009;1.772197186946869E-001;-6.088115274906158E-002;6.805614684708417E-004;-2.300659427419305E-003;
2.416833333333334E+009;1.770956665277481E-001;-6.113787740468979E-002;7.119271322153509E-004;-2.403662307187915E-003;
2.417000000000000E+009;1.765477806329727E-001;-6.131340190768242E-002;4.835588042624295E-004;-2.271814271807671E-003;
2.417166666666667E+009;1.762106865644455E-001;-6.141359731554985E-002;6.789710605517030E-004;-2.302841050550342E-003;
2.417333333333334E+009;1.756999045610428E-001;-6.163349747657776E-002;4.368052177596837E-004;-2.240838715806603E-003;
2.417500000000000E+009;1.749679744243622E-001;-6.204936653375626E-002;4.002217610832304E-004;-2.202246570959687E-003;
2.417666666666667E+009;1.743453294038773E-001;-6.201960146427155E-002;2.052130730589852E-004;-2.127451589331031E-003;
2.417833333333334E+009;1.735112220048904E-001;-6.217628717422485E-002;2.585558104328811E-004;-2.201873809099197E-003;
2.418000000000000E+009;1.725525408983231E-001;-6.267120689153671E-002;4.256770771462470E-004;-2.090692752972245E-003;
2.418166666666667E+009;1.716840565204620E-001;-6.273613125085831E-002;2.183163596782833E-004;-2.390798879787326E-003;
2.418333333333334E+009;1.710217595100403E-001;-6.311364471912384E-002;2.604180190246552E-005;-2.232714788988233E-003;
2.418500000000000E+009;1.697233617305756E-001;-6.355946511030197E-002;1.059040878317319E-004;-2.312042750418186E-003;
2.418666666666667E+009;1.688228100538254E-001;-6.402534246444702E-002;-5.130189674673602E-005;-2.245010808110237E-003;
2.418833333333334E+009;1.676462888717651E-001;-6.458342820405960E-002;1.799510209821165E-005;-2.262472873553634E-003;
2.419000000000000E+009;1.664127409458160E-001;-6.505836546421051E-002;-7.112858838809189E-006;-2.140127355232835E-003;
2.419166666666667E+009;1.652620583772659E-001;-6.574302911758423E-002;-2.042912965407595E-004;-2.097392454743385E-003;
2.419333333333334E+009;1.638863682746887E-001;-6.630948185920715E-002;-3.201282233931124E-004;-2.206513425335288E-003;
2.419500000000000E+009;1.627112925052643E-001;-6.723114848136902E-002;-3.957610751967877E-004;-2.230246085673571E-003;
2.419666666666667E+009;1.616386473178864E-001;-6.823398172855377E-002;-4.289287608116865E-004;-2.245348645374179E-003;
2.419833333333334E+009;1.602907776832581E-001;-6.905052065849304E-002;-5.867255968041718E-004;-2.219194779172540E-003;
2.420000000000000E+009;1.592863351106644E-001;-7.001446187496185E-002;-5.198291619308293E-004;-2.202123403549194E-003;
2.420166666666667E+009;1.581697314977646E-001;-7.112689316272736E-002;-6.575962761417031E-004;-2.176505513489246E-003;
2.420333333333334E+009;1.570837348699570E-001;-7.230764627456665E-002;-6.712225731462240E-004;-2.055929508060217E-003;
2.420500000000000E+009;1.562270671129227E-001;-7.344829291105270E-002;-8.143098675645888E-004;-2.214021515101194E-003;
2.420666666666667E+009;1.550870537757874E-001;-7.472226023674011E-002;-7.584924460388720E-004;-2.013708697631955E-003;
2.420833333333334E+009;1.541726440191269E-001;-7.623904943466187E-002;-7.516317418776453E-004;-2.023536944761872E-003;
2.421000000000000E+009;1.532704830169678E-001;-7.767695188522339E-002;-8.931618067435920E-004;-1.913707121275365E-003;
2.421166666666667E+009;1.525194793939591E-001;-7.923254370689392E-002;-9.909498039633036E-004;-1.962382113561034E-003;
2.421333333333334E+009;1.519039124250412E-001;-8.075131475925446E-002;-1.135181053541601E-003;-1.813789363950491E-003;
2.421500000000000E+009;1.510864943265915E-001;-8.225101232528687E-002;-1.225323067046702E-003;-1.829949673265219E-003;
2.421666666666667E+009;1.504748463630676E-001;-8.393900841474533E-002;-1.325459335930646E-003;-1.729071722365916E-003;
2.421833333333334E+009;1.503137946128845E-001;-8.562796562910080E-002;-1.328661455772817E-003;-1.607176149263978E-003;
2.422000000000000E+009;1.498524099588394E-001;-8.738491684198380E-002;-1.482639694586396E-003;-1.575503963977099E-003;
2.422166666666667E+009;1.494845300912857E-001;-8.924121409654617E-002;-1.375590451061726E-003;-1.345558324828744E-003;
2.422333333333334E+009;1.494002342224121E-001;-9.067998826503754E-002;-1.556714298203588E-003;-1.362905488349497E-003;
2.422500000000000E+009;1.492591202259064E-001;-9.246569871902466E-002;-1.701539149507880E-003;-1.373133622109890E-003;
2.422666666666667E+009;1.490422040224075E-001;-9.423524141311646E-002;-1.634968328289688E-003;-1.316731097176671E-003;
2.422833333333334E+009;1.493177711963654E-001;-9.603944420814514E-002;-1.818728167563677E-003;-1.134141581133008E-003;
2.423000000000000E+009;1.492704749107361E-001;-9.758670628070831E-002;-1.845923019573093E-003;-8.567214244976640E-004;
2.423166666666667E+009;1.496428996324539E-001;-9.943833947181702E-002;-1.705729402601719E-003;-9.476845152676106E-004;
2.423333333333334E+009;1.498361378908157E-001;-1.008488982915878E-001;-1.862498465925455E-003;-8.111841743811965E-004;
2.423500000000000E+009;1.502352505922318E-001;-1.025303378701210E-001;-1.750910421833396E-003;-7.625896250829101E-004;
2.423666666666667E+009;1.503251641988754E-001;-1.041929647326469E-001;-1.918628462590277E-003;-5.223881453275681E-004;
2.423833333333334E+009;1.510459035634995E-001;-1.056597307324410E-001;-1.854997244663537E-003;-3.536841832101345E-004;
2.424000000000000E+009;1.513709723949432E-001;-1.067997068166733E-001;-1.778934150934219E-003;-2.915582153946161E-004;
2.424166666666667E+009;1.516734361648560E-001;-1.082322150468826E-001;-1.805403153412044E-003;-1.785108179319650E-004;
2.424333333333334E+009;1.523384600877762E-001;-1.094530597329140E-001;-1.781236263923347E-003;-1.355341519229114E-004;
2.424500000000000E+009;1.526924222707748E-001;-1.106349304318428E-001;-1.730193966068327E-003;1.091196681954898E-004;
2.424666666666667E+009;1.534664630889893E-001;-1.116496399044991E-001;-1.676010317169130E-003;1.331793027929962E-004;
2.424833333333334E+009;1.536877304315567E-001;-1.127577424049377E-001;-1.637323526665568E-003;3.070530074182898E-004;
2.425000000000000E+009;1.543596982955933E-001;-1.138581931591034E-001;-1.496626413427293E-003;3.026440390385687E-004;
2.425166666666667E+009;1.545555442571640E-001;-1.145438030362129E-001;-1.487465226091445E-003;3.105595533270389E-004;
2.425333333333334E+009;1.550906598567963E-001;-1.154031082987785E-001;-1.328428508713841E-003;3.782632702495903E-004;
2.425500000000000E+009;1.555628031492233E-001;-1.160445734858513E-001;-1.248792512342334E-003;6.523469346575439E-004;
2.425666666666667E+009;1.556694805622101E-001;-1.166835278272629E-001;-1.195876393467188E-003;7.005957886576653E-004;
2.425833333333334E+009;1.559451520442963E-001;-1.171929761767387E-001;-1.097802887670696E-003;6.804695585742593E-004;
2.426000000000000E+009;1.562194526195526E-001;-1.177109107375145E-001;-9.700426016934216E-004;7.595287752337754E-004;
2.426166666666667E+009;1.565566509962082E-001;-1.180539578199387E-001;-9.443893213756383E-004;6.871237419545651E-004;
2.426333333333334E+009;1.564935743808746E-001;-1.184738203883171E-001;-7.189493044279516E-004;8.298780303448439E-004;
2.426500000000000E+009;1.566108167171478E-001;-1.187123432755470E-001;-6.320116808637977E-004;8.043339475989342E-004;
2.426666666666667E+009;1.566097885370255E-001;-1.189007759094238E-001;-4.829065292142332E-004;6.893646204844117E-004;
2.426833333333334E+009;1.563108861446381E-001;-1.191215887665749E-001;-4.338534490671009E-004;7.447197567671537E-004;
2.427000000000000E+009;1.560813784599304E-001;-1.192829012870789E-001;-4.171556211076677E-004;6.563963252119720E-004;
2.427166666666667E+009;1.556861102581024E-001;-1.193052530288696E-001;-2.396584022790194E-004;6.717272335663438E-004;
2.427333333333334E+009;1.552305370569229E-001;-1.194355636835098E-001;-2.797326014842838E-004;5.900822579860687E-004;
2.427500000000000E+009;1.548305153846741E-001;-1.195315420627594E-001;-1.122534304158762E-004;5.666458746418357E-004;
2.427666666666667E+009;1.540898829698563E-001;-1.196340173482895E-001;-1.464491506339982E-004;5.334091256372631E-004;
