# Version 1.00
#
freq[Hz];re:Trc1_S11;im:Trc1_S11;re:Trc2_S21;im:Trc2_S21;
2.400000000000000E+009;1.580575108528137E-001;6.239299848675728E-002;-4.065331071615219E-003;2.023772336542606E-003;
2.400166666666667E+009;1.580096185207367E-001;6.076047942042351E-002;-3.721666755154729E-003;2.268762327730656E-003;
2.400333333333334E+009;1.578103303909302E-001;5.883861333131790E-002;-3.755580633878708E-003;2.324922941625118E-003;
2.400500000000000E+009;1.576608866453171E-001;5.697758868336678E-002;-3.674983978271484E-003;2.311334712430835E-003;
2.400666666666667E+009;1.576934307813644E-001;5.504886060953140E-002;-3.375167725607753E-003;2.502049552276731E-003;
2.400833333333334E+009;1.577244699001312E-001;5.320332199335098E-002;-3.363326890394092E-003;2.560326131060720E-003;
2.401000000000000E+009;1.578223705291748E-001;5.094091966748238E-002;-3.300752723589540E-003;2.717376686632633E-003;
2.401166666666667E+009;1.579714566469193E-001;4.884495213627815E-002;-3.342911601066589E-003;2.867297036573291E-003;
2.401333333333334E+009;1.582785546779633E-001;4.702372848987579E-002;-3.284372854977846E-003;2.870372729375958E-003;
2.401500000000000E+009;1.585101634263992E-001;4.485415294766426E-002;-2.939510159194470E-003;3.135167760774493E-003;
2.401666666666667E+009;1.588069200515747E-001;4.282769560813904E-002;-2.892410149797797E-003;2.967794425785542E-003;
2.401833333333334E+009;1.590924710035324E-001;4.074442759156227E-002;-2.866868162527680E-003;3.075775923207402E-003;
2.402000000000000E+009;1.594495177268982E-001;3.883635252714157E-002;-2.736924216151238E-003;3.158451523631811E-003;
2.402166666666667E+009;1.599418669939041E-001;3.669123724102974E-002;-2.708718879148364E-003;3.322814125567675E-003;
2.402333333333334E+009;1.604370325803757E-001;3.519024699926376E-002;-2.498747082427144E-003;3.397715045139194E-003;
2.402500000000000E+009;1.614701300859451E-001;3.322017192840576E-002;-2.490326995030046E-003;3.657010616734624E-003;
2.402666666666667E+009;1.619920879602432E-001;3.139137849211693E-002;-2.396273193880916E-003;3.637545742094517E-003;
2.402833333333334E+009;1.626033633947372E-001;2.976563386619091E-002;-2.066385000944138E-003;3.728966461494565E-003;
2.403000000000000E+009;1.635056287050247E-001;2.815581299364567E-002;-2.047235611826181E-003;3.775136778131127E-003;
2.403166666666667E+009;1.644185781478882E-001;2.645065076649189E-002;-1.944289891980588E-003;3.927008248865604E-003;
2.403333333333334E+009;1.652548611164093E-001;2.506745234131813E-002;-1.871140790171921E-003;4.004073794931173E-003;
2.403500000000000E+009;1.660973578691483E-001;2.374203689396381E-002;-1.637407811358571E-003;3.948734607547522E-003;
2.403666666666667E+009;1.671559065580368E-001;2.215213328599930E-002;-1.709251082502306E-003;4.098690580576658E-003;
2.403833333333334E+009;1.681935340166092E-001;2.094139531254768E-002;-1.208408386446536E-003;4.249135032296181E-003;
2.404000000000000E+009;1.692354530096054E-001;1.994628831744194E-002;-1.443968154489994E-003;4.228141624480486E-003;
2.404166666666667E+009;1.699968874454498E-001;1.864514313638210E-002;-1.235065865330398E-003;4.377636127173901E-003;
2.404333333333334E+009;1.710561960935593E-001;1.778723485767841E-002;-9.131489205174148E-004;4.307634197175503E-003;
2.404500000000000E+009;1.719776988029480E-001;1.677459664642811E-002;-9.131901897490025E-004;4.575976636260748E-003;
2.404666666666667E+009;1.730983257293701E-001;1.583571918308735E-002;-6.008460186421871E-004;4.533956758677959E-003;
2.404833333333334E+009;1.739243716001511E-001;1.507130544632673E-002;-3.557885938789696E-004;4.521217662841082E-003;
2.405000000000000E+009;1.747768670320511E-001;1.422746013849974E-002;-2.165314654121175E-004;4.587045405060053E-003;
2.405166666666667E+009;1.756924390792847E-001;1.379140559583902E-002;-1.085256735677831E-005;4.672034177929163E-003;
2.405333333333334E+009;1.765677630901337E-001;1.297728531062603E-002;6.578909960808232E-005;4.713591188192368E-003;
2.405500000000000E+009;1.773726046085358E-001;1.270373724400997E-002;2.273644495289773E-004;4.775878507643938E-003;
2.405666666666667E+009;1.780102998018265E-001;1.221233140677214E-002;4.628355964086950E-004;4.796613473445177E-003;
2.405833333333334E+009;1.785535812377930E-001;1.172761060297489E-002;6.894696271046996E-004;4.815418273210526E-003;
2.406000000000000E+009;1.792058944702148E-001;1.134674996137619E-002;9.978143498301506E-004;4.596024751663208E-003;
2.406166666666667E+009;1.796257048845291E-001;1.101173833012581E-002;1.254047616384924E-003;4.844686947762966E-003;
2.406333333333334E+009;1.802037358283997E-001;1.072523649781942E-002;1.449325354769826E-003;4.749021958559752E-003;
2.406500000000000E+009;1.804547607898712E-001;1.033190824091435E-002;1.547755557112396E-003;4.485349636524916E-003;
2.406666666666667E+009;1.804434359073639E-001;1.014591008424759E-002;1.699687796644867E-003;4.670843016356230E-003;
2.406833333333334E+009;1.808570772409439E-001;9.783552028238773E-003;1.987292198464274E-003;4.312840756028891E-003;
2.407000000000000E+009;1.809466034173966E-001;9.524988941848278E-003;2.283761510625482E-003;4.340677987784147E-003;
2.407166666666667E+009;1.810533404350281E-001;9.075643494725227E-003;2.595012309029698E-003;4.099376033991575E-003;
2.407333333333334E+009;1.808131188154221E-001;8.610004559159279E-003;2.657048637047410E-003;4.017527680844069E-003;
2.407500000000000E+009;1.807100474834442E-001;8.247714489698410E-003;2.763685304671526E-003;3.945903386920691E-003;
2.407666666666667E+009;1.806276887655258E-001;7.824679836630821E-003;3.062483621761203E-003;3.684851806610823E-003;
2.407833333333334E+009;1.801579147577286E-001;7.227794267237186E-003;3.343442687764764E-003;3.605943638831377E-003;
2.408000000000000E+009;1.799323856830597E-001;6.668462418019772E-003;3.230168018490076E-003;3.374306950718164E-003;
2.408166666666667E+009;1.793325841426849E-001;6.181459408253431E-003;3.435116261243820E-003;3.149144584313035E-003;
2.408333333333334E+009;1.790240108966827E-001;5.249583162367344E-003;3.568119136616588E-003;2.983653917908669E-003;
2.408500000000000E+009;1.783666163682938E-001;4.573965910822153E-003;3.688733093440533E-003;2.824049675837159E-003;
2.408666666666667E+009;1.777530908584595E-001;3.577350638806820E-003;3.770495764911175E-003;2.650124253705144E-003;
2.408833333333334E+009;1.770062297582626E-001;2.636433811858296E-003;4.050634335726500E-003;2.526367316022515E-003;
2.409000000000000E+009;1.765410602092743E-001;1.645188080146909E-003;4.007400013506413E-003;2.364712767302990E-003;
2.409166666666667E+009;1.758849471807480E-001;4.848037497140467E-004;4.019217099994421E-003;2.136428374797106E-003;
2.409333333333334E+009;1.752530932426453E-001;-7.337172282859683E-004;4.093897528946400E-003;1.999374246224761E-003;
2.409500000000000E+009;1.743915230035782E-001;-2.218669746071100E-003;4.111431073397398E-003;1.782106352038682E-003;
2.409666666666667E+009;1.736610084772110E-001;-3.524845466017723E-003;4.036608617752791E-003;1.738898223266006E-003;
2.409833333333334E+009;1.729578226804733E-001;-4.794429522007704E-003;4.175056237727404E-003;1.359471818432212E-003;
2.410000000000000E+009;1.725027710199356E-001;-6.389990914613009E-003;4.307562485337257E-003;1.247452921234071E-003;
2.410166666666667E+009;1.717326939105988E-001;-7.999479770660400E-003;4.229518584907055E-003;1.051090192049742E-003;
2.410333333333334E+009;1.710215806961060E-001;-9.744071401655674E-003;4.097499419003725E-003;9.010477224364877E-004;
2.410500000000000E+009;1.707099527120590E-001;-1.133917365223169E-002;4.133854527026415E-003;6.612786091864109E-004;
2.410666666666667E+009;1.700787991285324E-001;-1.327260769903660E-002;4.106014035642147E-003;5.931867635808885E-004;
2.410833333333334E+009;1.695766597986221E-001;-1.501314528286457E-002;4.210747312754393E-003;2.708944084588438E-004;
2.411000000000000E+009;1.691759377717972E-001;-1.687101833522320E-002;4.316907841712236E-003;2.014865749515593E-004;
2.411166666666667E+009;1.688747555017471E-001;-1.873447559773922E-002;4.122317768633366E-003;-5.366201730794273E-005;
2.411333333333334E+009;1.685707271099091E-001;-2.061854489147663E-002;4.086808767169714E-003;-3.109492245130241E-004;
2.411500000000000E+009;1.683998554944992E-001;-2.294667623937130E-002;4.104445688426495E-003;-5.543425795622170E-004;
2.411666666666667E+009;1.682808995246887E-001;-2.469978109002113E-002;4.066108260303736E-003;-4.109695437364280E-004;
2.411833333333334E+009;1.682717055082321E-001;-2.662627957761288E-002;3.953005652874708E-003;-8.800518116913736E-004;
2.412000000000000E+009;1.681589931249619E-001;-2.864848077297211E-002;3.899190807715058E-003;-8.064561407081783E-004;
2.412166666666667E+009;1.683793812990189E-001;-3.064057417213917E-002;3.812524722889066E-003;-1.056575682014227E-003;
2.412333333333334E+009;1.686806976795197E-001;-3.251264989376068E-002;3.578722011297941E-003;-1.282699522562325E-003;
2.412500000000000E+009;1.686293780803680E-001;-3.454246371984482E-002;3.567291190847755E-003;-1.485865330323577E-003;
2.412666666666667E+009;1.689810901880264E-001;-3.653626888990402E-002;3.472261596471071E-003;-1.631492516025901E-003;
2.412833333333334E+009;1.692206412553787E-001;-3.828918933868408E-002;3.387861885130405E-003;-1.641759765334427E-003;
2.413000000000000E+009;1.697962731122971E-001;-4.012392833828926E-002;3.105123061686754E-003;-1.821967423893511E-003;
2.413166666666667E+009;1.701684743165970E-001;-4.185133427381516E-002;3.090863581746817E-003;-1.859513111412525E-003;
2.413333333333334E+009;1.703364551067352E-001;-4.353712126612663E-002;2.977599157020450E-003;-1.879507908597589E-003;
2.413500000000000E+009;1.710678189992905E-001;-4.524581506848335E-002;2.801878144964576E-003;-2.259825123474002E-003;
2.413666666666667E+009;1.715376526117325E-001;-4.692492634057999E-002;2.642996143549681E-003;-2.169725950807333E-003;
2.413833333333334E+009;1.719205975532532E-001;-4.833789169788361E-002;2.519557951018214E-003;-2.314783167093992E-003;
2.414000000000000E+009;1.724662482738495E-001;-4.974464327096939E-002;2.523842500522733E-003;-2.368868328630924E-003;
2.414166666666667E+009;1.731074452400208E-001;-5.118843540549278E-002;2.110907575115562E-003;-2.357888501137495E-003;
2.414333333333334E+009;1.737593859434128E-001;-5.222255364060402E-002;1.906055375002325E-003;-2.226867945864797E-003;
2.414500000000000E+009;1.743153482675552E-001;-5.346367508172989E-002;1.963920658454299E-003;-2.467524958774447E-003;
2.414666666666667E+009;1.747840195894241E-001;-5.436101555824280E-002;1.879879389889538E-003;-2.402177313342691E-003;
2.414833333333334E+009;1.751256436109543E-001;-5.549769103527069E-002;1.750092022120953E-003;-2.469886094331741E-003;
2.415000000000000E+009;1.756311804056168E-001;-5.627965927124023E-002;1.595683861523867E-003;-2.454479457810521E-003;
2.415166666666667E+009;1.760438382625580E-001;-5.698863044381142E-002;1.408955198712647E-003;-2.381970640271902E-003;
2.415333333333334E+009;1.765536367893219E-001;-5.781207233667374E-002;1.349433907307684E-003;-2.441072138026357E-003;
2.415500000000000E+009;1.769172847270966E-001;-5.843173712491989E-002;1.198943355120719E-003;-2.466587349772453E-003;
2.415666666666667E+009;1.771111935377121E-001;-5.894026160240173E-002;1.189182745292783E-003;-2.370226895436645E-003;
2.415833333333334E+009;1.772404760122299E-001;-5.926695093512535E-002;1.120976754464209E-003;-2.346712397411466E-003;
2.416000000000000E+009;1.773511916399002E-001;-5.978066101670265E-002;9.572033886797726E-004;-2.254323102533817E-003;
2.416166666666667E+009;1.776147335767746E-001;-6.013939157128334E-002;9.986317018046975E-004;-2.281651366502047E-003;
2.416333333333334E+009;1.775700896978378E-001;-6.046765670180321E-002;8.922456181608141E-004;-2.324301283806562E-003;
2.416500000000000E+009;1.774358600378037E-001;-6.071504205465317E-002;8.851262391544879E-004;-2.287773881107569E-003;
2.416666666666667E+009;1.772412806749344E-001;-6.079085171222687E-002;8.164253085851669E-004;-2.242426620796323E-003;
2.416833333333334E+009;1.769964694976807E-001;-6.116216629743576E-002;5.566817126236856E-004;-2.255664905533195E-003;
2.417000000000000E+009;1.765099763870239E-001;-6.134028360247612E-002;6.618977640755475E-004;-2.311106538400054E-003;
2.417166666666667E+009;1.760560870170593E-001;-6.145888194441795E-002;4.941661027260125E-004;-2.182965632528067E-003;
2.417333333333334E+009;1.756223440170288E-001;-6.164547801017761E-002;4.364495107438415E-004;-2.268960932269692E-003;
2.417500000000000E+009;1.750184148550034E-001;-6.204932555556297E-002;3.622795338742435E-004;-2.224428812041879E-003;
2.417666666666667E+009;1.743880659341812E-001;-6.192132458090782E-002;4.017353639937937E-004;-2.255733357742429E-003;
2.417833333333334E+009;1.736529767513275E-001;-6.227209046483040E-002;2.912672644015402E-004;-2.239809837192297E-003;
2.418000000000000E+009;1.726620197296143E-001;-6.272850930690765E-002;3.033286484424025E-004;-2.392295282334089E-003;
2.418166666666667E+009;1.718012392520905E-001;-6.273377686738968E-002;1.788943191058934E-004;-2.242071554064751E-003;
2.418333333333334E+009;1.709571182727814E-001;-6.319484114646912E-002;2.071670169243589E-004;-2.166107762604952E-003;
2.418500000000000E+009;1.698163449764252E-001;-6.361996382474899E-002;-1.313416032644454E-005;-2.298075938597322E-003;
2.418666666666667E+009;1.688269078731537E-001;-6.410192698240280E-002;-4.255108069628477E-005;-2.311277436092496E-003;
2.418833333333334E+009;1.675895750522614E-001;-6.453540176153183E-002;-1.318273862125352E-004;-2.245077397674322E-003;
2.419000000000000E+009;1.663395017385483E-001;-6.506589800119400E-002;-1.513109891675413E-004;-2.304484834894538E-003;
2.419166666666667E+009;1.652508527040482E-001;-6.566956639289856E-002;-2.284645888721570E-004;-2.208939753472805E-003;
2.419333333333334E+009;1.638001799583435E-001;-6.623959541320801E-002;-2.787247940432280E-004;-2.191468607634306E-003;
2.419500000000000E+009;1.626694500446320E-001;-6.705266237258911E-002;-3.275170456618071E-004;-2.325274981558323E-003;
2.419666666666667E+009;1.616433262825012E-001;-6.815971434116364E-002;-3.488365036901087E-004;-2.084263367578387E-003;
2.419833333333334E+009;1.604154258966446E-001;-6.887114793062210E-002;-4.117288626730442E-004;-2.101431135088205E-003;
2.420000000000000E+009;1.593014001846314E-001;-6.998943537473679E-002;-5.472230259329081E-004;-2.261539688333869E-003;
2.420166666666667E+009;1.582858115434647E-001;-7.108390331268311E-002;-4.847358504775912E-004;-2.145672449842095E-003;
2.420333333333334E+009;1.570828706026077E-001;-7.232364267110825E-002;-6.905432674102485E-004;-2.116883639246225E-003;
2.420500000000000E+009;1.561263948678970E-001;-7.335472851991653E-002;-7.088939892128110E-004;-2.029230818152428E-003;
2.420666666666667E+009;1.551075130701065E-001;-7.456443458795548E-002;-9.186237002722919E-004;-1.917854300700128E-003;
2.420833333333334E+009;1.542482227087021E-001;-7.619338482618332E-002;-9.837896795943379E-004;-2.009895863011479E-003;
2.421000000000000E+009;1.530867218971252E-001;-7.770563662052155E-002;-9.412871440872550E-004;-1.978737302124500E-003;
2.421166666666667E+009;1.525544971227646E-001;-7.906808704137802E-002;-1.053500571288168E-003;-1.825674204155803E-003;
2.421333333333334E+009;1.519714891910553E-001;-8.063039183616638E-002;-1.299866125918925E-003;-1.810741145163775E-003;
2.421500000000000E+009;1.510231345891953E-001;-8.212058991193771E-002;-1.341884722933173E-003;-1.739814993925393E-003;
2.421666666666667E+009;1.507696658372879E-001;-8.394934982061386E-002;-1.440668478608131E-003;-1.858520437963307E-003;
2.421833333333334E+009;1.503633558750153E-001;-8.562228083610535E-002;-1.407634117640555E-003;-1.693928265012801E-003;
2.422000000000000E+009;1.499058753252029E-001;-8.738534897565842E-002;-1.378899207338691E-003;-1.569207990542054E-003;
2.422166666666667E+009;1.496187895536423E-001;-8.931764960289002E-002;-1.478018821217120E-003;-1.584120211191475E-003;
2.422333333333334E+009;1.494763791561127E-001;-9.072455763816834E-002;-1.627514604479075E-003;-1.606754260137677E-003;
2.422500000000000E+009;1.491690874099731E-001;-9.242919087409973E-002;-1.667856471613050E-003;-1.364515628665686E-003;
2.422666666666667E+009;1.491460055112839E-001;-9.429769963026047E-002;-1.742568216286600E-003;-1.201953156851232E-003;
2.422833333333334E+009;1.492231339216232E-001;-9.597612172365189E-002;-1.821449375711381E-003;-1.071163336746395E-003;
2.423000000000000E+009;1.494618654251099E-001;-9.775789827108383E-002;-1.772621995769441E-003;-9.553639101795852E-004;
2.423166666666667E+009;1.495809853076935E-001;-9.940655529499054E-002;-1.893474371172488E-003;-9.495471604168415E-004;
2.423333333333334E+009;1.500640362501144E-001;-1.008320823311806E-001;-1.870341482572258E-003;-7.983316900208592E-004;
2.423500000000000E+009;1.501902341842651E-001;-1.024752631783485E-001;-1.880346448160708E-003;-6.723286351189017E-004;
2.423666666666667E+009;1.505374163389206E-001;-1.041763499379158E-001;-1.853657769970596E-003;-5.156024708412588E-004;
2.423833333333334E+009;1.508939415216446E-001;-1.056970357894898E-001;-1.938199740834534E-003;-3.220004728063941E-004;
2.424000000000000E+009;1.513615846633911E-001;-1.067772656679153E-001;-1.815341762267053E-003;-4.401603946462274E-004;
2.424166666666667E+009;1.516556739807129E-001;-1.082743033766747E-001;-1.818176242522895E-003;-6.544574716826901E-005;
2.424333333333334E+009;1.523264199495316E-001;-1.095039844512940E-001;-1.731180702336133E-003;-1.336558198090643E-004;
2.424500000000000E+009;1.529108732938767E-001;-1.107292026281357E-001;-1.679215696640313E-003;1.525744155514985E-004;
2.424666666666667E+009;1.533595025539398E-001;-1.116878613829613E-001;-1.693473313935101E-003;2.262741618324071E-004;
2.424833333333334E+009;1.537536233663559E-001;-1.127960011363030E-001;-1.624568481929600E-003;2.475410583429039E-004;
2.425000000000000E+009;1.543074250221252E-001;-1.137970760464668E-001;-1.522768987342715E-003;3.573371213860810E-004;
2.425166666666667E+009;1.546122580766678E-001;-1.145275011658669E-001;-1.369983772747219E-003;4.179291427135468E-004;
2.425333333333334E+009;1.551242321729660E-001;-1.152830794453621E-001;-1.450859475880861E-003;5.920382100157440E-004;
2.425500000000000E+009;1.555859297513962E-001;-1.161244511604309E-001;-1.379768247716129E-003;6.704983534291387E-004;
2.425666666666667E+009;1.557423323392868E-001;-1.166713312268257E-001;-1.115693477913737E-003;6.097289151512086E-004;
2.425833333333334E+009;1.559366732835770E-001;-1.172319352626801E-001;-1.083905808627605E-003;7.145727868191898E-004;
2.426000000000000E+009;1.561855971813202E-001;-1.177804470062256E-001;-9.469047072343528E-004;7.294541574083269E-004;
2.426166666666667E+009;1.565017700195313E-001;-1.180829405784607E-001;-8.474353235214949E-004;9.520894382148981E-004;
2.426333333333334E+009;1.565744578838348E-001;-1.185593977570534E-001;-8.080078405328095E-004;7.621842087246478E-004;
2.426500000000000E+009;1.565648764371872E-001;-1.186554729938507E-001;-6.508438964374363E-004;7.789579103700817E-004;
2.426666666666667E+009;1.565899699926376E-001;-1.188324093818665E-001;-4.682405560743064E-004;7.023811340332031E-004;
2.426833333333334E+009;1.563308387994766E-001;-1.191024631261826E-001;-5.549330380745232E-004;7.618771633133292E-004;
2.427000000000000E+009;1.561306267976761E-001;-1.192410588264465E-001;-3.052345127798617E-004;6.955240387469530E-004;
2.427166666666667E+009;1.556934863328934E-001;-1.193173751235008E-001;-2.357714110985398E-004;8.764941594563425E-004;
2.427333333333334E+009;1.551576852798462E-001;-1.193966567516327E-001;-2.446011058054864E-004;7.174649508669972E-004;
2.427500000000000E+009;1.547356396913528E-001;-1.194100305438042E-001;-6.511583342216909E-005;6.149005494080484E-004;
2.427666666666667E+009;1.540752351284027E-001;-1.195974946022034E-001;8.538182555639651E-006;5.447718431241810E-004;
