# Version 1.00
#
freq[Hz];re:Trc1_S11;im:Trc1_S11;re:Trc2_S21;im:Trc2_S21;
2.400000000000000E+009;1.582865417003632E-001;6.220727041363716E-002;-3.978207707405090E-003;2.080394886434078E-003;
2.400166666666667E+009;1.579314321279526E-001;6.072092428803444E-002;-3.711615689098835E-003;2.117287833243609E-003;
2.400333333333334E+009;1.578034311532974E-001;5.870999768376350E-002;-3.608849132433534E-003;2.253324724733830E-003;
2.400500000000000E+009;1.576031893491745E-001;5.701765418052673E-002;-3.606134559959173E-003;2.431646687909961E-003;
2.400666666666667E+009;1.576267033815384E-001;5.499983206391335E-002;-3.572434885427356E-003;2.480644965544343E-003;
2.400833333333334E+009;1.578152924776077E-001;5.308701470494270E-002;-3.397380700334907E-003;2.623395761474967E-003;
2.401000000000000E+009;1.578222662210465E-001;5.089654028415680E-002;-3.288686973974109E-003;2.735492540523410E-003;
2.401166666666667E+009;1.579405963420868E-001;4.904210940003395E-002;-2.982095349580050E-003;2.916997298598290E-003;
2.401333333333334E+009;1.581506878137589E-001;4.673884436488152E-002;-3.181900130584836E-003;2.937472891062498E-003;
2.401500000000000E+009;1.585856974124908E-001;4.493842646479607E-002;-3.151604905724526E-003;3.030679654330015E-003;
2.401666666666667E+009;1.587864458560944E-001;4.289857670664787E-002;-2.822091570124030E-003;3.119932254776359E-003;
2.401833333333334E+009;1.591449528932571E-001;4.066962003707886E-002;-2.898702397942543E-003;3.124160924926400E-003;
2.402000000000000E+009;1.594103872776032E-001;3.867355361580849E-002;-2.621467225253582E-003;3.251374932006002E-003;
2.402166666666667E+009;1.600622385740280E-001;3.680983185768127E-002;-2.614683937281370E-003;3.200982697308064E-003;
2.402333333333334E+009;1.604419797658920E-001;3.503493219614029E-002;-2.522057853639126E-003;3.320246236398816E-003;
2.402500000000000E+009;1.614793241024017E-001;3.321319073438644E-002;-2.345058601349592E-003;3.571963869035244E-003;
2.402666666666667E+009;1.620461046695709E-001;3.143320605158806E-002;-2.255713567137718E-003;3.575138980522752E-003;
2.402833333333334E+009;1.626339256763458E-001;2.965268306434155E-002;-2.111945766955614E-003;3.821684746071696E-003;
2.403000000000000E+009;1.634169965982437E-001;2.803600952029228E-002;-2.072898903861642E-003;3.952030092477799E-003;
2.403166666666667E+009;1.644590049982071E-001;2.643620967864990E-002;-1.861212193034589E-003;3.986190073192120E-003;
2.403333333333334E+009;1.652000844478607E-001;2.502979524433613E-002;-1.832167152315378E-003;4.178604576736689E-003;
2.403500000000000E+009;1.659312099218369E-001;2.368832379579544E-002;-1.723897643387318E-003;4.047980066388845E-003;
2.403666666666667E+009;1.670669466257095E-001;2.216171659529209E-002;-1.655245898291469E-003;4.232077859342098E-003;
2.403833333333334E+009;1.682159006595612E-001;2.109719812870026E-002;-1.510643633082509E-003;4.286214243620634E-003;
2.404000000000000E+009;1.692878603935242E-001;1.978723891079426E-002;-1.206032582558692E-003;4.277508240193129E-003;
2.404166666666667E+009;1.702136397361755E-001;1.875547319650650E-002;-1.032278290949762E-003;4.393435083329678E-003;
2.404333333333334E+009;1.710937768220902E-001;1.781097799539566E-002;-9.854965610429645E-004;4.519262816756964E-003;
2.404500000000000E+009;1.719261556863785E-001;1.664897613227367E-002;-6.415511015802622E-004;4.447999875992537E-003;
2.404666666666667E+009;1.729580610990524E-001;1.590602658689022E-002;-5.934584769420326E-004;4.563242197036743E-003;
2.404833333333334E+009;1.739488244056702E-001;1.493966113775969E-002;-2.668919332791120E-004;4.529073368757963E-003;
2.405000000000000E+009;1.749104857444763E-001;1.432942319661379E-002;-1.332337706116960E-004;4.535607993602753E-003;
2.405166666666667E+009;1.756913959980011E-001;1.376629527658224E-002;5.253298149909824E-005;4.638805054128170E-003;
2.405333333333334E+009;1.765722483396530E-001;1.298105809837580E-002;1.739219296723604E-004;4.816211760044098E-003;
2.405500000000000E+009;1.772647202014923E-001;1.266561076045036E-002;3.070177917834371E-004;4.820012487471104E-003;
2.405666666666667E+009;1.781017482280731E-001;1.210148539394140E-002;6.901214946992695E-004;4.629958420991898E-003;
2.405833333333334E+009;1.784963756799698E-001;1.182717084884644E-002;9.371944470331073E-004;4.695884417742491E-003;
2.406000000000000E+009;1.791942417621613E-001;1.133563648909330E-002;8.803362725302577E-004;4.726218525320292E-003;
2.406166666666667E+009;1.795637607574463E-001;1.107700727880001E-002;1.059313770383596E-003;4.605480469763279E-003;
2.406333333333334E+009;1.802610605955124E-001;1.067870855331421E-002;1.600785297341645E-003;4.694487899541855E-003;
2.406500000000000E+009;1.804971098899841E-001;1.035361737012863E-002;1.682881149463356E-003;4.627051763236523E-003;
2.406666666666667E+009;1.805150657892227E-001;1.003017369657755E-002;1.973292557522655E-003;4.545731935650110E-003;
2.406833333333334E+009;1.808259040117264E-001;9.673267602920532E-003;2.189499326050282E-003;4.352103918790817E-003;
2.407000000000000E+009;1.809562146663666E-001;9.269707836210728E-003;2.286484465003014E-003;4.373662639409304E-003;
2.407166666666667E+009;1.810161471366882E-001;9.045330807566643E-003;2.491389866918325E-003;4.096203017979860E-003;
2.407333333333334E+009;1.808979511260986E-001;8.638586848974228E-003;2.753838896751404E-003;4.117665812373161E-003;
2.407500000000000E+009;1.807116568088532E-001;8.253733627498150E-003;2.821772592142224E-003;3.849003696814179E-003;
2.407666666666667E+009;1.805825680494309E-001;7.867113687098026E-003;3.098531626164913E-003;3.718141233548522E-003;
2.407833333333334E+009;1.800567656755447E-001;7.231070660054684E-003;3.361065173521638E-003;3.577338298782706E-003;
2.408000000000000E+009;1.797551959753037E-001;6.639338098466396E-003;3.433799603953958E-003;3.430174198001623E-003;
2.408166666666667E+009;1.793064177036285E-001;6.110082846134901E-003;3.587840124964714E-003;3.198760095983744E-003;
2.408333333333334E+009;1.790495514869690E-001;5.344771780073643E-003;3.614893881604075E-003;3.061006078496575E-003;
2.408500000000000E+009;1.784356981515884E-001;4.487779457122088E-003;3.674932057037950E-003;2.883006120100617E-003;
2.408666666666667E+009;1.778677105903626E-001;3.703866386786103E-003;3.861727192997932E-003;2.554289530962706E-003;
2.408833333333334E+009;1.769926398992539E-001;2.640403574332595E-003;3.929889760911465E-003;2.460466697812080E-003;
2.409000000000000E+009;1.763999015092850E-001;1.700371387414634E-003;3.797010052949190E-003;2.141377888619900E-003;
2.409166666666667E+009;1.758243143558502E-001;5.743390065617859E-004;3.983028698712587E-003;2.082018414512277E-003;
2.409333333333334E+009;1.752064377069473E-001;-8.189880754798651E-004;4.179826006293297E-003;1.957609783858061E-003;
2.409500000000000E+009;1.744591444730759E-001;-2.217874396592379E-003;4.102814011275768E-003;1.789313973858953E-003;
2.409666666666667E+009;1.737115830183029E-001;-3.440910251811147E-003;4.120546858757734E-003;1.518726465292275E-003;
2.409833333333334E+009;1.728948950767517E-001;-4.782874137163162E-003;4.237238783389330E-003;1.394554739817977E-003;
2.410000000000000E+009;1.724046170711517E-001;-6.287944968789816E-003;4.324689041823149E-003;1.201170613057911E-003;
2.410166666666667E+009;1.716572344303131E-001;-7.960636168718338E-003;4.206052515655756E-003;1.004112884402275E-003;
2.410333333333334E+009;1.711740046739578E-001;-9.689063765108585E-003;4.188024438917637E-003;8.667279034852982E-004;
2.410500000000000E+009;1.705247759819031E-001;-1.133329328149557E-002;4.331919364631176E-003;5.410012672655284E-004;
2.410666666666667E+009;1.699632406234741E-001;-1.330236159265041E-002;4.250044468790293E-003;3.830957866739482E-004;
2.410833333333334E+009;1.697346568107605E-001;-1.490531768649817E-002;4.296544007956982E-003;3.613016451708973E-004;
2.411000000000000E+009;1.692987829446793E-001;-1.675814576447010E-002;4.273848142474890E-003;-4.584266935125925E-005;
2.411166666666667E+009;1.689645648002625E-001;-1.878762245178223E-002;4.197286441922188E-003;-1.194178257719614E-004;
2.411333333333334E+009;1.685472726821899E-001;-2.068031951785088E-002;4.049916286021471E-003;-4.216424131300300E-004;
2.411500000000000E+009;1.681034862995148E-001;-2.278557233512402E-002;3.985390532761812E-003;-6.033168174326420E-004;
2.411666666666667E+009;1.682820916175842E-001;-2.462394535541534E-002;3.999360837042332E-003;-5.953520303592086E-004;
2.411833333333334E+009;1.682973057031632E-001;-2.659276314079762E-002;3.941310103982687E-003;-9.115227730944753E-004;
2.412000000000000E+009;1.680714040994644E-001;-2.868232317268848E-002;3.986314870417118E-003;-9.742356487549841E-004;
2.412166666666667E+009;1.681861579418182E-001;-3.066084906458855E-002;3.771220101043582E-003;-1.193814096041024E-003;
2.412333333333334E+009;1.685943454504013E-001;-3.248902410268784E-002;3.594185225665569E-003;-1.273224595934153E-003;
2.412500000000000E+009;1.686300039291382E-001;-3.458690270781517E-002;3.582953475415707E-003;-1.419205567799509E-003;
2.412666666666667E+009;1.689522713422775E-001;-3.649590909481049E-002;3.526900894939899E-003;-1.501817954704166E-003;
2.412833333333334E+009;1.694972366094589E-001;-3.840528428554535E-002;3.313025459647179E-003;-1.648496370762587E-003;
2.413000000000000E+009;1.696963459253311E-001;-4.010863229632378E-002;3.185775829479098E-003;-1.882112934254110E-003;
2.413166666666667E+009;1.700009852647781E-001;-4.187763854861260E-002;3.072805935516954E-003;-1.915572094731033E-003;
2.413333333333334E+009;1.704127639532089E-001;-4.354894906282425E-002;2.894546603783965E-003;-1.824817270971835E-003;
2.413500000000000E+009;1.709936559200287E-001;-4.525736346840859E-002;2.793265040963888E-003;-2.004671143367887E-003;
2.413666666666667E+009;1.716192513704300E-001;-4.672246053814888E-002;2.666360698640347E-003;-2.095200587064028E-003;
2.413833333333334E+009;1.720819771289825E-001;-4.827729985117912E-002;2.494050189852715E-003;-2.293659141287208E-003;
2.414000000000000E+009;1.723650395870209E-001;-4.976565390825272E-002;2.222360111773014E-003;-2.427952131256461E-003;
2.414166666666667E+009;1.731702238321304E-001;-5.107558891177177E-002;2.207065233960748E-003;-2.241329755634069E-003;
2.414333333333334E+009;1.734984368085861E-001;-5.233768001198769E-002;1.984572038054466E-003;-2.446388360112906E-003;
2.414500000000000E+009;1.744291931390762E-001;-5.334967002272606E-002;1.902435091324151E-003;-2.370304660871625E-003;
2.414666666666667E+009;1.746223121881485E-001;-5.432690680027008E-002;1.762049621902406E-003;-2.440350130200386E-003;
2.414833333333334E+009;1.752427816390991E-001;-5.551689118146896E-002;1.619009533897042E-003;-2.539290115237236E-003;
2.415000000000000E+009;1.755973398685455E-001;-5.624998733401299E-002;1.576481270603836E-003;-2.403683494776487E-003;
2.415166666666667E+009;1.761031597852707E-001;-5.697061866521835E-002;1.597866998054087E-003;-2.439417876303196E-003;
2.415333333333334E+009;1.764453947544098E-001;-5.777601897716522E-002;1.273376750759780E-003;-2.549268770962954E-003;
2.415500000000000E+009;1.768597066402435E-001;-5.833425000309944E-002;1.124434405937791E-003;-2.343258121982217E-003;
2.415666666666667E+009;1.770477741956711E-001;-5.888532474637032E-002;1.243702950887382E-003;-2.473889151588082E-003;
2.415833333333334E+009;1.774513125419617E-001;-5.929248780012131E-002;1.033843145705760E-003;-2.391208428889513E-003;
2.416000000000000E+009;1.772744357585907E-001;-5.985078588128090E-002;9.380707051604986E-004;-2.345115412026644E-003;
2.416166666666667E+009;1.776119172573090E-001;-6.023598089814186E-002;1.032422878779471E-003;-2.292698016390204E-003;
2.416333333333334E+009;1.774441897869110E-001;-6.026859208941460E-002;8.152747759595513E-004;-2.393223810940981E-003;
2.416500000000000E+009;1.775196045637131E-001;-6.068542599678040E-002;6.873667589388788E-004;-2.451945561915636E-003;
2.416666666666667E+009;1.771332025527954E-001;-6.075494736433029E-002;6.920082960277796E-004;-2.284027636051178E-003;
2.416833333333334E+009;1.770258992910385E-001;-6.115090101957321E-002;5.220368620939553E-004;-2.314602257683873E-003;
2.417000000000000E+009;1.765637099742889E-001;-6.145070865750313E-002;5.581617588177323E-004;-2.334992401301861E-003;
2.417166666666667E+009;1.761902123689652E-001;-6.141184642910957E-002;3.332262858748436E-004;-2.362935338169336E-003;
2.417333333333334E+009;1.757332980632782E-001;-6.145990639925003E-002;5.358791677281261E-004;-2.299396786838770E-003;
2.417500000000000E+009;1.751396656036377E-001;-6.202339008450508E-002;3.508828813210130E-004;-2.370534464716911E-003;
2.417666666666667E+009;1.744463294744492E-001;-6.198193877935410E-002;2.857495273929089E-004;-2.280158689245582E-003;
2.417833333333334E+009;1.735332310199738E-001;-6.230463832616806E-002;1.489831338403747E-004;-2.196047222241759E-003;
2.418000000000000E+009;1.727203279733658E-001;-6.259169429540634E-002;9.819512342801318E-005;-2.300252672284842E-003;
2.418166666666667E+009;1.717161089181900E-001;-6.270197778940201E-002;1.280436990782619E-004;-2.114286180585623E-003;
2.418333333333334E+009;1.709463447332382E-001;-6.317655742168427E-002;5.309173502610065E-005;-2.278383588418365E-003;
2.418500000000000E+009;1.698132306337357E-001;-6.355168670415878E-002;-8.360891661141068E-005;-2.255002968013287E-003;
2.418666666666667E+009;1.689312756061554E-001;-6.392009556293488E-002;-2.562777808634564E-005;-2.125622704625130E-003;
2.418833333333334E+009;1.676246076822281E-001;-6.450810283422470E-002;-7.305094914045185E-005;-2.169198123738170E-003;
2.419000000000000E+009;1.662943512201309E-001;-6.513455510139465E-002;-1.690294884610921E-004;-2.223827876150608E-003;
2.419166666666667E+009;1.652450263500214E-001;-6.577187031507492E-002;-3.510428650770336E-004;-2.142910147085786E-003;
2.419333333333334E+009;1.639314293861389E-001;-6.625764071941376E-002;-2.728406689129770E-004;-2.179157454520464E-003;
2.419500000000000E+009;1.628116071224213E-001;-6.717350333929062E-002;-3.316799411550164E-004;-2.187263919040561E-003;
2.419666666666667E+009;1.617229133844376E-001;-6.805031001567841E-002;-5.420292727649212E-004;-2.111760200932622E-003;
2.419833333333334E+009;1.603440791368485E-001;-6.896237283945084E-002;-5.128603661432862E-004;-2.189691178500652E-003;
2.420000000000000E+009;1.592448651790619E-001;-7.000245898962021E-002;-6.903666071593761E-004;-2.181981457397342E-003;
2.420166666666667E+009;1.582220047712326E-001;-7.111188024282455E-002;-6.892490200698376E-004;-2.121545141562820E-003;
2.420333333333334E+009;1.570398658514023E-001;-7.227785885334015E-002;-7.819125894457102E-004;-2.078880090266466E-003;
2.420500000000000E+009;1.560328900814056E-001;-7.345109432935715E-002;-8.965217275545001E-004;-2.152312546968460E-003;
2.420666666666667E+009;1.551973819732666E-001;-7.468627393245697E-002;-9.032784146256745E-004;-1.976218307390809E-003;
2.420833333333334E+009;1.541391462087631E-001;-7.627217471599579E-002;-1.042351708747447E-003;-1.998702064156532E-003;
2.421000000000000E+009;1.531415879726410E-001;-7.755661755800247E-002;-9.349921601824462E-004;-1.937536173500121E-003;
2.421166666666667E+009;1.524212956428528E-001;-7.911871373653412E-002;-1.165034016594291E-003;-1.928608748130500E-003;
2.421333333333334E+009;1.520841419696808E-001;-8.081220835447311E-002;-1.355417305603623E-003;-1.827319501899183E-003;
2.421500000000000E+009;1.510423719882965E-001;-8.219387382268906E-002;-1.402659807354212E-003;-1.749457092955709E-003;
2.421666666666667E+009;1.507441401481628E-001;-8.394506573677063E-002;-1.236620359122753E-003;-1.825325191020966E-003;
2.421833333333334E+009;1.502220332622528E-001;-8.568813651800156E-002;-1.286148675717413E-003;-1.707741641439498E-003;
2.422000000000000E+009;1.499890238046646E-001;-8.727993816137314E-002;-1.327965408563614E-003;-1.576589071191847E-003;
2.422166666666667E+009;1.497185528278351E-001;-8.915881812572479E-002;-1.555095775984228E-003;-1.507052569650114E-003;
2.422333333333334E+009;1.495543569326401E-001;-9.084884822368622E-002;-1.750087365508080E-003;-1.423983252607286E-003;
2.422500000000000E+009;1.492356508970261E-001;-9.239053726196289E-002;-1.808728906325996E-003;-1.443548244424164E-003;
2.422666666666667E+009;1.490970253944397E-001;-9.427105635404587E-002;-1.767127891071141E-003;-1.245611463673413E-003;
2.422833333333334E+009;1.493962407112122E-001;-9.612070024013519E-002;-1.769058406352997E-003;-1.250016968697310E-003;
2.423000000000000E+009;1.494955271482468E-001;-9.774688631296158E-002;-1.837187213823199E-003;-9.691812447272241E-004;
2.423166666666667E+009;1.496698856353760E-001;-9.943605214357376E-002;-2.012410899624229E-003;-8.436447242274880E-004;
2.423333333333334E+009;1.499382704496384E-001;-1.007838845252991E-001;-1.917362445965409E-003;-6.886328337714076E-004;
2.423500000000000E+009;1.503014564514160E-001;-1.026174649596214E-001;-1.852124463766813E-003;-4.103703540749848E-004;
2.423666666666667E+009;1.505477875471115E-001;-1.042249947786331E-001;-1.942563918419182E-003;-4.976157797500491E-004;
2.423833333333334E+009;1.509721428155899E-001;-1.056131720542908E-001;-1.874099718406797E-003;-3.265396226197481E-004;
2.424000000000000E+009;1.512988507747650E-001;-1.068354547023773E-001;-1.817744807340205E-003;-3.243334649596363E-004;
2.424166666666667E+009;1.517350673675537E-001;-1.082799881696701E-001;-2.020250074565411E-003;-6.186454265844077E-005;
2.424333333333334E+009;1.523926556110382E-001;-1.095853894948959E-001;-1.768011832609773E-003;8.696060103829950E-005;
2.424500000000000E+009;1.528102457523346E-001;-1.107212454080582E-001;-1.588173909112811E-003;1.787038054317236E-004;
2.424666666666667E+009;1.534775495529175E-001;-1.116474419832230E-001;-1.674765837378800E-003;3.340867406222969E-004;
2.424833333333334E+009;1.538839191198349E-001;-1.127446368336678E-001;-1.572259236127138E-003;4.308100906200707E-004;
2.425000000000000E+009;1.543483287096024E-001;-1.137887910008431E-001;-1.564702950417996E-003;4.015925806015730E-004;
2.425166666666667E+009;1.546964943408966E-001;-1.145088970661163E-001;-1.490485039539635E-003;6.382708088494837E-004;
2.425333333333334E+009;1.551258563995361E-001;-1.153213754296303E-001;-1.238026074133813E-003;4.577263607643545E-004;
2.425500000000000E+009;1.554972082376480E-001;-1.160931140184403E-001;-1.246600644662976E-003;6.132551352493465E-004;
2.425666666666667E+009;1.557384729385376E-001;-1.167692616581917E-001;-1.023152843117714E-003;7.541439263150096E-004;
2.425833333333334E+009;1.560793668031693E-001;-1.172546520829201E-001;-1.033750246278942E-003;8.634541300125420E-004;
2.426000000000000E+009;1.563084721565247E-001;-1.177913546562195E-001;-8.963508298620582E-004;7.912628352642059E-004;
2.426166666666667E+009;1.566188931465149E-001;-1.181275472044945E-001;-6.975457072257996E-004;8.605824550613761E-004;
2.426333333333334E+009;1.565896123647690E-001;-1.184907555580139E-001;-7.115033804439008E-004;8.790782303549349E-004;
2.426500000000000E+009;1.565261036157608E-001;-1.187476739287376E-001;-6.629496929235756E-004;8.225745987147093E-004;
2.426666666666667E+009;1.566347330808640E-001;-1.187519207596779E-001;-4.281369328964502E-004;8.877108921296895E-004;
2.426833333333334E+009;1.563975512981415E-001;-1.190987974405289E-001;-2.923758584074676E-004;7.280451245605946E-004;
2.427000000000000E+009;1.560743600130081E-001;-1.192695796489716E-001;-3.126801457256079E-004;8.812057203613222E-004;
2.427166666666667E+009;1.558163613080978E-001;-1.192682087421417E-001;-1.760143204592168E-004;7.619267562404275E-004;
2.427333333333334E+009;1.551761776208878E-001;-1.193799600005150E-001;-1.223860163008794E-004;8.811954176053405E-004;
2.427500000000000E+009;1.548832505941391E-001;-1.196076124906540E-001;-1.816205040086061E-004;6.921521271578968E-004;
2.427666666666667E+009;1.540919244289398E-001;-1.196194663643837E-001;-9.642390068620443E-005;5.968177574686706E-004;
