# Version 1.00
#
freq[Hz];re:Trc1_S11;im:Trc1_S11;re:Trc2_S21;im:Trc2_S21;
2.400000000000000E+009;1.580065637826920E-001;6.232854351401329E-002;-3.840800840407610E-003;2.002837369218469E-003;
2.400166666666667E+009;1.580529659986496E-001;6.078538671135902E-002;-3.898043418303132E-003;2.060917904600501E-003;
2.400333333333334E+009;1.578058600425720E-001;5.881668999791145E-002;-3.744497196748853E-003;2.284721005707979E-003;
2.400500000000000E+009;1.577821075916290E-001;5.703629553318024E-002;-3.661009017378092E-003;2.368016401305795E-003;
2.400666666666667E+009;1.576737314462662E-001;5.484469234943390E-002;-3.517461474984884E-003;2.394543262198567E-003;
2.400833333333334E+009;1.578150242567062E-001;5.298940464854240E-002;-3.481770632788539E-003;2.514883177354932E-003;
2.401000000000000E+009;1.577931642532349E-001;5.096114426851273E-002;-3.328998805955052E-003;2.701727906242013E-003;
2.401166666666667E+009;1.579789668321610E-001;4.888042062520981E-002;-3.318632952868938E-003;2.774497959762812E-003;
2.401333333333334E+009;1.580391377210617E-001;4.685086011886597E-002;-3.111573401838541E-003;2.790493424981833E-003;
2.401500000000000E+009;1.586200743913651E-001;4.489634931087494E-002;-3.112149890512228E-003;2.854367950931191E-003;
2.401666666666667E+009;1.588100045919418E-001;4.285676777362824E-002;-3.048556856811047E-003;2.968203043565154E-003;
2.401833333333334E+009;1.591378599405289E-001;4.069378226995468E-002;-3.000368829816580E-003;3.161809174343944E-003;
2.402000000000000E+009;1.595010012388229E-001;3.879962116479874E-002;-2.756516681984067E-003;3.194744931533933E-003;
2.402166666666667E+009;1.599219292402268E-001;3.664829581975937E-002;-2.640806604176760E-003;3.302040277048945E-003;
2.402333333333334E+009;1.605232506990433E-001;3.511224687099457E-002;-2.522903960198164E-003;3.489393740892410E-003;
2.402500000000000E+009;1.613342612981796E-001;3.310808539390564E-002;-2.568927826359868E-003;3.476186422631145E-003;
2.402666666666667E+009;1.618246734142304E-001;3.131940215826035E-002;-2.292348304763436E-003;3.580947639420629E-003;
2.402833333333334E+009;1.626451909542084E-001;2.966350875794888E-002;-2.239856403321028E-003;3.761210478842259E-003;
2.403000000000000E+009;1.633928865194321E-001;2.816903963685036E-002;-1.988029107451439E-003;3.820894053205848E-003;
2.403166666666667E+009;1.643292754888535E-001;2.645121328532696E-002;-1.880134455859661E-003;3.886682912707329E-003;
2.403333333333334E+009;1.653152555227280E-001;2.514678053557873E-002;-1.863821875303984E-003;3.902040887624025E-003;
2.403500000000000E+009;1.662351042032242E-001;2.367819286882877E-002;-1.706682494841516E-003;4.192092921584845E-003;
2.403666666666667E+009;1.672041267156601E-001;2.221057750284672E-002;-1.538034528493881E-003;4.025147762149572E-003;
2.403833333333334E+009;1.682473719120026E-001;2.109648101031780E-002;-1.576391630806029E-003;4.268869757652283E-003;
2.404000000000000E+009;1.691481471061707E-001;1.989622786641121E-002;-1.256291987374425E-003;4.248985555022955E-003;
2.404166666666667E+009;1.702718287706375E-001;1.861499436199665E-002;-1.397152896970511E-003;4.346340429037809E-003;
2.404333333333334E+009;1.710953414440155E-001;1.765114814043045E-002;-1.022176584228873E-003;4.487288650125265E-003;
2.404500000000000E+009;1.718335598707199E-001;1.659748889505863E-002;-8.018832886591554E-004;4.467902239412069E-003;
2.404666666666667E+009;1.730125993490219E-001;1.586737111210823E-002;-5.880813114345074E-004;4.481784999370575E-003;
2.404833333333334E+009;1.738969236612320E-001;1.506980508565903E-002;-4.866857198067009E-004;4.707467742264271E-003;
2.405000000000000E+009;1.749721914529800E-001;1.438174396753311E-002;-3.673830360639840E-004;4.559557884931564E-003;
2.405166666666667E+009;1.757616698741913E-001;1.365242898464203E-002;-1.432534481864423E-004;4.596434999257326E-003;
2.405333333333334E+009;1.767716854810715E-001;1.306521147489548E-002;8.995154348667711E-005;4.745413083583117E-003;
2.405500000000000E+009;1.774312257766724E-001;1.258092001080513E-002;3.944981435779482E-004;4.630876239389181E-003;
2.405666666666667E+009;1.781559735536575E-001;1.210997812449932E-002;5.765991518273950E-004;4.743459168821573E-003;
2.405833333333334E+009;1.786000430583954E-001;1.170811336487532E-002;7.415560539811850E-004;4.732373170554638E-003;
2.406000000000000E+009;1.792275607585907E-001;1.128039881587029E-002;1.038360293023288E-003;4.701913334429264E-003;
2.406166666666667E+009;1.795299798250198E-001;1.117132697254419E-002;1.165338559076190E-003;4.734709858894348E-003;
2.406333333333334E+009;1.801231950521469E-001;1.077257283031941E-002;1.382898539304733E-003;4.705973900854588E-003;
2.406500000000000E+009;1.805254966020584E-001;1.039168331772089E-002;1.618231297470629E-003;4.642880987375975E-003;
2.406666666666667E+009;1.804658919572830E-001;1.017409376800060E-002;1.744288485497236E-003;4.505601711571217E-003;
2.406833333333334E+009;1.807941198348999E-001;9.742555208504200E-003;2.208139980211854E-003;4.426315892487764E-003;
2.407000000000000E+009;1.809175759553909E-001;9.376538917422295E-003;2.290534321218729E-003;4.385559353977442E-003;
2.407166666666667E+009;1.811131387948990E-001;9.203668683767319E-003;2.460757736116648E-003;4.384891130030155E-003;
2.407333333333334E+009;1.808488667011261E-001;8.597671985626221E-003;2.635126933455467E-003;4.092903342097998E-003;
2.407500000000000E+009;1.806517392396927E-001;8.394137956202030E-003;2.759484574198723E-003;3.886392572894692E-003;
2.407666666666667E+009;1.806192249059677E-001;7.926699705421925E-003;3.167068120092154E-003;3.750881645828486E-003;
2.407833333333334E+009;1.801467537879944E-001;7.251917850226164E-003;3.112322185188532E-003;3.630690043792129E-003;
2.408000000000000E+009;1.798364371061325E-001;6.640962790697813E-003;3.360226983204484E-003;3.506375476717949E-003;
2.408166666666667E+009;1.794230043888092E-001;6.130252964794636E-003;3.379896748811007E-003;3.143826965242624E-003;
2.408333333333334E+009;1.790556162595749E-001;5.367575213313103E-003;3.650869941338897E-003;3.062011441215873E-003;
2.408500000000000E+009;1.785023510456085E-001;4.446312785148621E-003;3.595214569941163E-003;2.900493796914816E-003;
2.408666666666667E+009;1.778530627489090E-001;3.616226604208350E-003;3.695405786857009E-003;2.752054715529084E-003;
2.408833333333334E+009;1.771705001592636E-001;2.650902373716235E-003;3.877779236063361E-003;2.543468493968248E-003;
2.409000000000000E+009;1.764101237058640E-001;1.656725187785924E-003;3.835303010419011E-003;2.329042879864574E-003;
2.409166666666667E+009;1.758556067943573E-001;4.481298092287034E-004;4.000118933618069E-003;2.163352444767952E-003;
2.409333333333334E+009;1.753386110067368E-001;-7.560626836493611E-004;3.985964693129063E-003;2.014139434322715E-003;
2.409500000000000E+009;1.744903475046158E-001;-2.150977496057749E-003;4.213952925056219E-003;1.896029920317233E-003;
2.409666666666667E+009;1.737942546606064E-001;-3.366581629961729E-003;4.234112333506346E-003;1.674842089414597E-003;
2.409833333333334E+009;1.730796545743942E-001;-4.914575722068548E-003;4.152851644903421E-003;1.413913327269256E-003;
2.410000000000000E+009;1.725209802389145E-001;-6.225320976227522E-003;4.226618912070990E-003;1.249432214535773E-003;
2.410166666666667E+009;1.718772053718567E-001;-7.886905223131180E-003;4.339049570262432E-003;1.107097137719393E-003;
2.410333333333334E+009;1.710548400878906E-001;-9.615818038582802E-003;4.193093162029982E-003;9.553601266816258E-004;
2.410500000000000E+009;1.705465465784073E-001;-1.132501848042011E-002;4.158028867095709E-003;6.480441079474986E-004;
2.410666666666667E+009;1.700847446918488E-001;-1.329294219613075E-002;4.205715842545033E-003;5.816160701215267E-004;
2.410833333333334E+009;1.696648895740509E-001;-1.503562461584806E-002;4.409150686115027E-003;2.426497230771929E-004;
2.411000000000000E+009;1.692386418581009E-001;-1.694332621991634E-002;4.235175903886557E-003;2.077762474073097E-004;
2.411166666666667E+009;1.688625812530518E-001;-1.882166601717472E-002;4.341651685535908E-003;-5.417119973571971E-005;
2.411333333333334E+009;1.685495674610138E-001;-2.061480283737183E-002;4.212209954857826E-003;-2.962192520499229E-004;
2.411500000000000E+009;1.685158759355545E-001;-2.288255468010902E-002;4.142962396144867E-003;-3.040070878341794E-004;
2.411666666666667E+009;1.683682054281235E-001;-2.473111823201180E-002;4.014903213828802E-003;-3.982647031079978E-004;
2.411833333333334E+009;1.683431565761566E-001;-2.654667012393475E-002;3.860482713207603E-003;-7.763469475321472E-004;
2.412000000000000E+009;1.681998223066330E-001;-2.884524688124657E-002;3.842726116999984E-003;-9.897779673337936E-004;
2.412166666666667E+009;1.683022975921631E-001;-3.049106523394585E-002;3.937700763344765E-003;-1.155778649263084E-003;
2.412333333333334E+009;1.686847656965256E-001;-3.253575786948204E-002;3.728121984750032E-003;-1.336183864623308E-003;
2.412500000000000E+009;1.686730533838272E-001;-3.444673866033554E-002;3.582343924790621E-003;-1.394716207869351E-003;
2.412666666666667E+009;1.689853370189667E-001;-3.665668889880180E-002;3.472399199381471E-003;-1.583945238962770E-003;
2.412833333333334E+009;1.692548543214798E-001;-3.828372061252594E-002;3.392786951735616E-003;-1.693409052677453E-003;
2.413000000000000E+009;1.697994917631149E-001;-4.018158838152885E-002;3.221980063244700E-003;-1.733267912641168E-003;
2.413166666666667E+009;1.700341850519180E-001;-4.194981604814529E-002;3.128592856228352E-003;-1.877827686257660E-003;
2.413333333333334E+009;1.704472005367279E-001;-4.364847391843796E-002;2.956647891551256E-003;-1.966206589713693E-003;
2.413500000000000E+009;1.709089428186417E-001;-4.522426426410675E-002;2.876829588785768E-003;-2.120018471032381E-003;
2.413666666666667E+009;1.716681867837906E-001;-4.677788168191910E-002;2.680989447981119E-003;-2.146248007193208E-003;
2.413833333333334E+009;1.720419228076935E-001;-4.837617278099060E-002;2.509988611564040E-003;-2.338528400287032E-003;
2.414000000000000E+009;1.723704785108566E-001;-4.990028589963913E-002;2.479903399944305E-003;-2.065779641270638E-003;
2.414166666666667E+009;1.730739027261734E-001;-5.111348256468773E-002;2.251213183626533E-003;-2.391736721619964E-003;
2.414333333333334E+009;1.736625880002976E-001;-5.222328007221222E-002;2.246629213914275E-003;-2.415052149444819E-003;
2.414500000000000E+009;1.743633151054382E-001;-5.346317589282990E-002;2.126096049323678E-003;-2.342583145946264E-003;
2.414666666666667E+009;1.746228039264679E-001;-5.438881367444992E-002;1.819025492295623E-003;-2.457154216244817E-003;
2.414833333333334E+009;1.751151382923126E-001;-5.549997091293335E-002;1.792092574760318E-003;-2.533515449613333E-003;
2.415000000000000E+009;1.756694465875626E-001;-5.635405704379082E-002;1.574463676661253E-003;-2.582584973424673E-003;
2.415166666666667E+009;1.759974509477615E-001;-5.709628760814667E-002;1.473823911510408E-003;-2.475790679454804E-003;
2.415333333333334E+009;1.766454726457596E-001;-5.783263593912125E-002;1.483751111663878E-003;-2.537852153182030E-003;
2.415500000000000E+009;1.769205629825592E-001;-5.849247425794601E-002;1.301811891607940E-003;-2.376926131546497E-003;
2.415666666666667E+009;1.770528405904770E-001;-5.878045409917831E-002;1.133791869506240E-003;-2.420702949166298E-003;
2.415833333333334E+009;1.773304939270020E-001;-5.931902304291725E-002;1.100589288398624E-003;-2.245221519842744E-003;
2.416000000000000E+009;1.772966980934143E-001;-5.975222215056419E-002;9.656307520344853E-004;-2.327036578208208E-003;
2.416166666666667E+009;1.777050644159317E-001;-6.013570353388786E-002;9.191958233714104E-004;-2.424697857350111E-003;
2.416333333333334E+009;1.774902641773224E-001;-6.041431054472923E-002;7.594726630486548E-004;-2.306888811290264E-003;
2.416500000000000E+009;1.774329543113709E-001;-6.072333455085754E-002;8.971752831712365E-004;-2.314084675163031E-003;
2.416666666666667E+009;1.772416532039642E-001;-6.089263409376144E-002;8.277391316369176E-004;-2.517426619306207E-003;
2.416833333333334E+009;1.771425902843475E-001;-6.118969246745110E-002;6.040193256922066E-004;-2.334001939743757E-003;
2.417000000000000E+009;1.765553355216980E-001;-6.134151294827461E-002;5.592487868852913E-004;-2.250965917482972E-003;
2.417166666666667E+009;1.760987490415573E-001;-6.142443791031838E-002;4.305649490561336E-004;-2.205695724114776E-003;
2.417333333333334E+009;1.756335496902466E-001;-6.156063079833984E-002;4.708661581389606E-004;-2.278492553159595E-003;
2.417500000000000E+009;1.750459223985672E-001;-6.204079091548920E-002;4.453757428564131E-004;-2.209866419434547E-003;
2.417666666666667E+009;1.744254231452942E-001;-6.199724227190018E-002;4.321860033087432E-004;-2.319053513929248E-003;
2.417833333333334E+009;1.735644340515137E-001;-6.219841167330742E-002;2.781408547889441E-004;-2.249683253467083E-003;
2.418000000000000E+009;1.727391928434372E-001;-6.268171966075897E-002;2.493400243110955E-004;-2.300803083926439E-003;
2.418166666666667E+009;1.716532856225967E-001;-6.279586255550385E-002;2.197842259192839E-004;-2.365096239373088E-003;
2.418333333333334E+009;1.710023581981659E-001;-6.311007589101791E-002;1.756301062414423E-004;-2.339283702895045E-003;
2.418500000000000E+009;1.697622388601303E-001;-6.349149346351624E-002;1.415165461366996E-004;-2.305134432390332E-003;
2.418666666666667E+009;1.687811762094498E-001;-6.399582326412201E-002;1.084494215319865E-005;-2.250618301331997E-003;
2.418833333333334E+009;1.675401926040649E-001;-6.456103175878525E-002;-5.512580537470058E-005;-2.173953223973513E-003;
2.419000000000000E+009;1.663592457771301E-001;-6.501569598913193E-002;-2.022973785642535E-004;-2.130231587216258E-003;
2.419166666666667E+009;1.651551574468613E-001;-6.552297621965408E-002;-5.799733844469301E-005;-2.256524283438921E-003;
2.419333333333334E+009;1.639050692319870E-001;-6.625588238239288E-002;-2.256649750052020E-004;-2.377697266638279E-003;
2.419500000000000E+009;1.627466678619385E-001;-6.721275299787521E-002;-4.802230105269700E-004;-2.202593954280019E-003;
2.419666666666667E+009;1.616042405366898E-001;-6.809860467910767E-002;-2.585430338513106E-004;-2.130784792825580E-003;
2.419833333333334E+009;1.603949964046478E-001;-6.890856474637985E-002;-4.413500719238073E-004;-2.213301137089729E-003;
2.420000000000000E+009;1.594098359346390E-001;-6.992262601852417E-002;-5.471560289151967E-004;-2.033270662650466E-003;
2.420166666666667E+009;1.581409275531769E-001;-7.117157429456711E-002;-5.451589240692556E-004;-2.170417923480272E-003;
2.420333333333334E+009;1.570745557546616E-001;-7.231687009334564E-002;-6.559370667673647E-004;-2.084471285343170E-003;
2.420500000000000E+009;1.561951190233231E-001;-7.356300204992294E-002;-7.632866618223488E-004;-2.274949569255114E-003;
2.420666666666667E+009;1.551517397165299E-001;-7.468062639236450E-002;-8.745191735215485E-004;-2.273901598528028E-003;
2.420833333333334E+009;1.541948616504669E-001;-7.626693695783615E-002;-9.431116632185876E-004;-2.054869895800948E-003;
2.421000000000000E+009;1.532914340496063E-001;-7.769062370061874E-002;-9.520117309875786E-004;-2.007947303354740E-003;
2.421166666666667E+009;1.524436771869659E-001;-7.920885086059570E-002;-1.153538236394525E-003;-1.924193231388927E-003;
2.421333333333334E+009;1.518871784210205E-001;-8.077725768089294E-002;-1.093251747079194E-003;-1.993729034438729E-003;
2.421500000000000E+009;1.510789841413498E-001;-8.224099874496460E-002;-1.303499913774431E-003;-1.910364837385714E-003;
2.421666666666667E+009;1.508270502090454E-001;-8.402055501937866E-002;-1.156642916612327E-003;-1.776728313416243E-003;
2.421833333333334E+009;1.502512991428375E-001;-8.576667308807373E-002;-1.298499526455998E-003;-1.600763294845820E-003;
2.422000000000000E+009;1.496945172548294E-001;-8.737760782241821E-002;-1.437974278815091E-003;-1.693200436420739E-003;
2.422166666666667E+009;1.496076285839081E-001;-8.907305449247360E-002;-1.502630184404552E-003;-1.780286664143205E-003;
2.422333333333334E+009;1.493959426879883E-001;-9.085611999034882E-002;-1.673266873694956E-003;-1.381560810841620E-003;
2.422500000000000E+009;1.491762697696686E-001;-9.247159957885742E-002;-1.667222590185702E-003;-1.452550874091685E-003;
2.422666666666667E+009;1.492392420768738E-001;-9.428007900714874E-002;-1.705779461190105E-003;-1.243363018147647E-003;
2.422833333333334E+009;1.493233591318131E-001;-9.598224610090256E-002;-1.817660988308489E-003;-1.187157700769603E-003;
2.423000000000000E+009;1.494322419166565E-001;-9.771724045276642E-002;-1.865369267761707E-003;-1.085070427507162E-003;
2.423166666666667E+009;1.497827768325806E-001;-9.946073591709137E-002;-1.792178838513792E-003;-1.072326907888055E-003;
2.423333333333334E+009;1.500810533761978E-001;-1.008552685379982E-001;-1.978974556550384E-003;-8.263004710897803E-004;
2.423500000000000E+009;1.501593887805939E-001;-1.024997830390930E-001;-1.701051951386035E-003;-7.492917939089239E-004;
2.423666666666667E+009;1.503038257360458E-001;-1.040799021720886E-001;-1.844590879045427E-003;-6.481033633463085E-004;
2.423833333333334E+009;1.511006802320480E-001;-1.055692434310913E-001;-1.953293103724718E-003;-5.208464572206140E-004;
2.424000000000000E+009;1.512864679098129E-001;-1.068481504917145E-001;-1.842497964389622E-003;-3.999645705334842E-004;
2.424166666666667E+009;1.516852229833603E-001;-1.082299128174782E-001;-1.836990122683346E-003;-2.764019882306457E-004;
2.424333333333334E+009;1.523770242929459E-001;-1.094025894999504E-001;-1.662851427681744E-003;-2.448477025609464E-004;
2.424500000000000E+009;1.528658568859100E-001;-1.107171401381493E-001;-1.816067844629288E-003;1.421613560523838E-004;
2.424666666666667E+009;1.533347666263580E-001;-1.115701571106911E-001;-1.784823136404157E-003;1.646966993575916E-004;
2.424833333333334E+009;1.537482291460037E-001;-1.127106919884682E-001;-1.760066836141050E-003;3.619150957092643E-004;
2.425000000000000E+009;1.543047577142716E-001;-1.137489825487137E-001;-1.486568595282733E-003;4.240994458086789E-004;
2.425166666666667E+009;1.545976996421814E-001;-1.145855337381363E-001;-1.455433084629476E-003;4.610572068486363E-004;
2.425333333333334E+009;1.551149487495422E-001;-1.152375116944313E-001;-1.417377730831504E-003;4.157830262556672E-004;
2.425500000000000E+009;1.555502563714981E-001;-1.160418912768364E-001;-1.241614576429129E-003;5.451077013276517E-004;
2.425666666666667E+009;1.557081639766693E-001;-1.166180446743965E-001;-1.082794042304158E-003;6.270071025937796E-004;
2.425833333333334E+009;1.560630351305008E-001;-1.171951740980148E-001;-1.062702969647944E-003;6.788931204937398E-004;
2.426000000000000E+009;1.561931222677231E-001;-1.177625805139542E-001;-9.806064190343022E-004;6.673653260804713E-004;
2.426166666666667E+009;1.565604209899902E-001;-1.181573569774628E-001;-1.070305705070496E-003;8.516267407685518E-004;
2.426333333333334E+009;1.564502269029617E-001;-1.183632388710976E-001;-7.127534481696785E-004;6.092799012549222E-004;
2.426500000000000E+009;1.565913558006287E-001;-1.187093332409859E-001;-5.772567819803953E-004;7.757295970804989E-004;
2.426666666666667E+009;1.565563380718231E-001;-1.187535971403122E-001;-5.443118861876428E-004;5.932501517236233E-004;
2.426833333333334E+009;1.563701182603836E-001;-1.190056577324867E-001;-4.957417841069400E-004;6.557772285304964E-004;
2.427000000000000E+009;1.561397165060043E-001;-1.192472055554390E-001;-4.535757179837674E-004;6.092535913921893E-004;
2.427166666666667E+009;1.557042002677918E-001;-1.192397698760033E-001;-4.065273969899863E-004;8.141100988723338E-004;
2.427333333333334E+009;1.552603095769882E-001;-1.193209141492844E-001;-3.384259471204132E-004;6.748075247742236E-004;
2.427500000000000E+009;1.548480987548828E-001;-1.194072887301445E-001;-1.165228604804725E-004;5.119099514558911E-004;
2.427666666666667E+009;1.540691554546356E-001;-1.195870265364647E-001;-1.258212578250095E-004;5.559046403504908E-004;
