# Version 1.00
#
freq[Hz];re:Trc1_S11;im:Trc1_S11;re:Trc2_S21;im:Trc2_S21;
2.400000000000000E+009;1.684077978134155E-001;4.650885239243507E-002;1.543264021165669E-003;3.096212632954121E-003;
2.400166666666667E+009;1.695048809051514E-001;4.582525417208672E-002;1.615314627997577E-003;2.965818159282208E-003;
2.400333333333334E+009;1.702686995267868E-001;4.460845515131950E-002;1.718081533908844E-003;2.987275132909417E-003;
2.400500000000000E+009;1.714806258678436E-001;4.350741580128670E-002;1.856805174611509E-003;2.809358527883887E-003;
2.400666666666667E+009;1.723906397819519E-001;4.262026771903038E-002;1.936952583491802E-003;2.959802048280835E-003;
2.400833333333334E+009;1.731065362691879E-001;4.177777096629143E-002;2.025066874921322E-003;2.777030225843191E-003;
2.401000000000000E+009;1.740141808986664E-001;4.096191003918648E-002;1.987278461456299E-003;2.543317154049873E-003;
2.401166666666667E+009;1.748177856206894E-001;4.002419486641884E-002;2.163325902074575E-003;2.664537401869893E-003;
2.401333333333334E+009;1.754438877105713E-001;3.944632038474083E-002;2.240094821900129E-003;2.606793539598584E-003;
2.401500000000000E+009;1.763556897640228E-001;3.885563462972641E-002;2.270945580676198E-003;2.472570631653070E-003;
2.401666666666667E+009;1.767772883176804E-001;3.835174813866615E-002;2.372696995735169E-003;2.294559963047504E-003;
2.401833333333334E+009;1.774051934480667E-001;3.766797482967377E-002;2.443782985210419E-003;2.150008222088218E-003;
2.402000000000000E+009;1.777936965227127E-001;3.706648200750351E-002;2.394619863480330E-003;2.247167052701116E-003;
2.402166666666667E+009;1.783922910690308E-001;3.635188192129135E-002;2.434649504721165E-003;2.061216626316309E-003;
2.402333333333334E+009;1.786804646253586E-001;3.580936044454575E-002;2.445383928716183E-003;2.054228913038969E-003;
2.402500000000000E+009;1.793721765279770E-001;3.532318770885468E-002;2.507976256310940E-003;1.752110547386110E-003;
2.402666666666667E+009;1.794707626104355E-001;3.451184928417206E-002;2.581010805442929E-003;1.812662580050528E-003;
2.402833333333334E+009;1.796155869960785E-001;3.392479941248894E-002;2.620394341647625E-003;1.662698807194829E-003;
2.403000000000000E+009;1.796790063381195E-001;3.312010690569878E-002;2.549943281337619E-003;1.735906000249088E-003;
2.403166666666667E+009;1.797016561031342E-001;3.230507671833038E-002;2.602600492537022E-003;1.508675399236381E-003;
2.403333333333334E+009;1.796145588159561E-001;3.163035586476326E-002;2.694638911634684E-003;1.360606518574059E-003;
2.403500000000000E+009;1.792831867933273E-001;3.053930029273033E-002;2.619753358885646E-003;1.286443555727601E-003;
2.403666666666667E+009;1.793506294488907E-001;2.955398336052895E-002;2.654355484992266E-003;1.124847563914955E-003;
2.403833333333334E+009;1.791683137416840E-001;2.841322124004364E-002;2.338577760383487E-003;1.033106585964561E-003;
2.404000000000000E+009;1.786763072013855E-001;2.741552889347076E-002;2.684930339455605E-003;9.669525898061693E-004;
2.404166666666667E+009;1.784142106771469E-001;2.610563300549984E-002;2.514386549592018E-003;9.091374231502414E-004;
2.404333333333334E+009;1.780426055192947E-001;2.495322003960609E-002;2.476870547980070E-003;9.398432448506355E-004;
2.404500000000000E+009;1.772841066122055E-001;2.351140603423119E-002;2.400652505457401E-003;7.718270062468946E-004;
2.404666666666667E+009;1.769164055585861E-001;2.212288230657578E-002;2.349290763959289E-003;7.224893197417259E-004;
2.404833333333334E+009;1.764485687017441E-001;2.057678997516632E-002;2.282886533066630E-003;7.647041347809136E-004;
2.405000000000000E+009;1.759280413389206E-001;1.906450651586056E-002;2.504263073205948E-003;5.426378920674324E-004;
2.405166666666667E+009;1.754629015922546E-001;1.756929606199265E-002;2.370647154748440E-003;4.614782519638538E-004;
2.405333333333334E+009;1.750767827033997E-001;1.582772284746170E-002;2.284189686179161E-003;6.401333375833929E-004;
2.405500000000000E+009;1.746831387281418E-001;1.407729741185904E-002;2.251022029668093E-003;4.695355892181397E-004;
2.405666666666667E+009;1.743400841951370E-001;1.237827446311712E-002;2.202877542003989E-003;6.201856886036694E-004;
2.405833333333334E+009;1.737116426229477E-001;1.070462446659803E-002;2.170470543205738E-003;5.679920432157815E-004;
2.406000000000000E+009;1.734734177589417E-001;8.675035089254379E-003;2.191810635849834E-003;4.791725368704647E-004;
2.406166666666667E+009;1.731108427047730E-001;6.869046017527580E-003;2.233377890661359E-003;5.676929140463471E-004;
2.406333333333334E+009;1.730525642633438E-001;4.879762884229422E-003;2.244378440082073E-003;5.897410446777940E-004;
2.406500000000000E+009;1.729671061038971E-001;2.745815552771092E-003;2.268069190904498E-003;5.979319685138762E-004;
2.406666666666667E+009;1.726207733154297E-001;8.226626086980104E-004;2.052703872323036E-003;5.953864892944694E-004;
2.406833333333334E+009;1.727228611707687E-001;-1.264998805709183E-003;2.322984160855413E-003;6.715229828841984E-004;
2.407000000000000E+009;1.727080196142197E-001;-3.406570060178638E-003;2.327212598174810E-003;6.431447691284120E-004;
2.407166666666667E+009;1.729836761951447E-001;-5.368139594793320E-003;2.431620378047228E-003;4.497926565818489E-004;
2.407333333333334E+009;1.730154603719711E-001;-7.739503402262926E-003;2.384207444265485E-003;5.091339698992670E-004;
2.407500000000000E+009;1.732765138149262E-001;-9.714955464005470E-003;2.422227757051587E-003;5.120902787894011E-004;
2.407666666666667E+009;1.734531819820404E-001;-1.172516867518425E-002;2.601945539936423E-003;4.935045726597309E-004;
2.407833333333334E+009;1.735830157995224E-001;-1.390959694981575E-002;2.651880728080869E-003;4.635646764654666E-004;
2.408000000000000E+009;1.740402430295944E-001;-1.614587195217609E-002;2.723414916545153E-003;2.551770303398371E-004;
2.408166666666667E+009;1.743109226226807E-001;-1.785127818584442E-002;2.791187260299921E-003;8.011868339963257E-005;
2.408333333333334E+009;1.748456209897995E-001;-1.990511082112789E-002;2.778761088848114E-003;1.112088502850384E-004;
2.408500000000000E+009;1.751502305269241E-001;-2.191141806542873E-002;2.713961759582162E-003;6.581463094335049E-005;
2.408666666666667E+009;1.755657941102982E-001;-2.360262535512447E-002;2.779516158625484E-003;-2.326261310372502E-004;
2.408833333333334E+009;1.758550405502319E-001;-2.538110874593258E-002;2.787655219435692E-003;-3.091164981015027E-004;
2.409000000000000E+009;1.761943548917770E-001;-2.701206319034100E-002;2.629912691190839E-003;-3.497551952023059E-004;
2.409166666666667E+009;1.766701787710190E-001;-2.850038558244705E-002;2.742394339293242E-003;-3.809920453932136E-004;
2.409333333333334E+009;1.771999597549439E-001;-3.003149479627609E-002;2.682642079889774E-003;-5.154223763383925E-004;
2.409500000000000E+009;1.776289343833923E-001;-3.141831979155541E-002;2.662135986611247E-003;-5.983376759104431E-004;
2.409666666666667E+009;1.780205070972443E-001;-3.240009769797325E-002;2.640375401824713E-003;-6.433553062379360E-004;
2.409833333333334E+009;1.784863919019699E-001;-3.338665142655373E-002;2.702087629586458E-003;-7.295060204342008E-004;
2.410000000000000E+009;1.790518760681152E-001;-3.436383977532387E-002;2.607040107250214E-003;-7.605308783240616E-004;
2.410166666666667E+009;1.795209795236588E-001;-3.544001653790474E-002;2.655147807672620E-003;-8.146787295117974E-004;
2.410333333333334E+009;1.798884570598602E-001;-3.624218702316284E-002;2.691430039703846E-003;-8.229613886214793E-004;
2.410500000000000E+009;1.802932620048523E-001;-3.690164163708687E-002;2.594298915937543E-003;-7.726284093223512E-004;
2.410666666666667E+009;1.806936264038086E-001;-3.782264515757561E-002;2.807578304782510E-003;-8.283377974294126E-004;
2.410833333333334E+009;1.808967888355255E-001;-3.824919462203980E-002;2.647155197337270E-003;-9.758906671777368E-004;
2.411000000000000E+009;1.811843514442444E-001;-3.887715935707092E-002;2.791951643303037E-003;-1.049474929459393E-003;
2.411166666666667E+009;1.815614849328995E-001;-3.946262970566750E-002;2.750368323177099E-003;-1.017567934468389E-003;
2.411333333333334E+009;1.816038191318512E-001;-3.966490924358368E-002;2.727397251874209E-003;-1.297397539019585E-003;
2.411500000000000E+009;1.817173808813095E-001;-4.037209972739220E-002;2.831058111041784E-003;-1.329523627646267E-003;
2.411666666666667E+009;1.817321032285690E-001;-4.070122167468071E-002;2.779016504064202E-003;-1.450380310416222E-003;
2.411833333333334E+009;1.817452013492584E-001;-4.098915681242943E-002;2.708253916352987E-003;-1.376323518343270E-003;
2.412000000000000E+009;1.816674917936325E-001;-4.138142243027687E-002;2.666219836100936E-003;-1.571764354594052E-003;
2.412166666666667E+009;1.811190247535706E-001;-4.157187417149544E-002;2.800306538119912E-003;-1.844578189775348E-003;
2.412333333333334E+009;1.808937788009644E-001;-4.193568229675293E-002;2.842990448698402E-003;-1.848972751758993E-003;
2.412500000000000E+009;1.803975105285645E-001;-4.219947755336762E-002;2.572546247392893E-003;-1.964170951396227E-003;
2.412666666666667E+009;1.797591894865036E-001;-4.267406463623047E-002;2.725769765675068E-003;-2.366977045312524E-003;
2.412833333333334E+009;1.792533695697784E-001;-4.307134076952934E-002;2.555868821218610E-003;-2.405304461717606E-003;
2.413000000000000E+009;1.784646958112717E-001;-4.337311908602715E-002;2.495350083336234E-003;-2.514357445761561E-003;
2.413166666666667E+009;1.777185350656509E-001;-4.364024847745895E-002;2.321590436622500E-003;-2.596314996480942E-003;
2.413333333333334E+009;1.766301393508911E-001;-4.419230669736862E-002;2.144614700227976E-003;-2.909046364948154E-003;
2.413500000000000E+009;1.757295429706574E-001;-4.462051019072533E-002;2.044939901679754E-003;-2.866687020286918E-003;
2.413666666666667E+009;1.746901571750641E-001;-4.523737728595734E-002;1.821516780182719E-003;-2.920393832027912E-003;
2.413833333333334E+009;1.735546439886093E-001;-4.563749954104424E-002;1.672000973485410E-003;-3.069657832384110E-003;
2.414000000000000E+009;1.722546517848969E-001;-4.638180881738663E-002;1.457300386391580E-003;-3.187894355505705E-003;
2.414166666666667E+009;1.713399589061737E-001;-4.688728973269463E-002;1.315301284193993E-003;-3.189412411302328E-003;
2.414333333333334E+009;1.700142621994019E-001;-4.789729788899422E-002;1.109879696741700E-003;-3.172329859808087E-003;
2.414500000000000E+009;1.690613031387329E-001;-4.870751872658730E-002;8.466964354738593E-004;-3.085093107074499E-003;
2.414666666666667E+009;1.677512228488922E-001;-4.956481233239174E-002;7.893607253208756E-004;-3.176802536472678E-003;
2.414833333333334E+009;1.664176732301712E-001;-5.069269612431526E-002;6.698917713947594E-004;-2.951764967292547E-003;
2.415000000000000E+009;1.652036160230637E-001;-5.176719650626183E-002;6.725061102770269E-004;-2.942215185612440E-003;
2.415166666666667E+009;1.640224456787109E-001;-5.305808410048485E-002;3.849925706163049E-004;-2.897857455536723E-003;
2.415333333333334E+009;1.629374027252197E-001;-5.434552952647209E-002;3.913121181540191E-004;-2.679288852959871E-003;
2.415500000000000E+009;1.618262231349945E-001;-5.576143786311150E-002;2.506303717382252E-004;-2.621490275487304E-003;
2.415666666666667E+009;1.605177372694016E-001;-5.721119791269302E-002;3.128321259282529E-004;-2.495587803423405E-003;
2.415833333333334E+009;1.593752950429916E-001;-5.880144983530045E-002;1.783457555575296E-004;-2.336610108613968E-003;
2.416000000000000E+009;1.582766473293304E-001;-6.033658236265183E-002;2.345790417166427E-004;-2.337065758183599E-003;
2.416166666666667E+009;1.574802994728088E-001;-6.208865717053413E-002;2.823059330694377E-004;-2.281916327774525E-003;
2.416333333333334E+009;1.564438492059708E-001;-6.381688266992569E-002;4.660276754293591E-004;-2.315756166353822E-003;
2.416500000000000E+009;1.554871350526810E-001;-6.575728207826614E-002;3.662520321086049E-004;-2.157443668693304E-003;
2.416666666666667E+009;1.546503305435181E-001;-6.762304902076721E-002;6.692929891869426E-004;-2.212345367297530E-003;
2.416833333333334E+009;1.539754867553711E-001;-6.976597011089325E-002;6.255296175368130E-004;-2.112452406436205E-003;
2.417000000000000E+009;1.530063599348068E-001;-7.158777117729187E-002;5.949008627794683E-004;-2.300661290064454E-003;
2.417166666666667E+009;1.522900462150574E-001;-7.356834411621094E-002;6.713942275382578E-004;-2.391133457422257E-003;
2.417333333333334E+009;1.518913954496384E-001;-7.545473426580429E-002;7.929700659587979E-004;-2.451297361403704E-003;
2.417500000000000E+009;1.511808633804321E-001;-7.750260084867477E-002;6.015130784362555E-004;-2.565904520452023E-003;
2.417666666666667E+009;1.509107351303101E-001;-7.922280579805374E-002;6.718960939906538E-004;-2.601285697892308E-003;
2.417833333333334E+009;1.504320353269577E-001;-8.119813352823257E-002;6.492639658972621E-004;-2.734335372224450E-003;
2.418000000000000E+009;1.499621719121933E-001;-8.313863724470139E-002;7.557996432296932E-004;-2.815967425704002E-003;
2.418166666666667E+009;1.498896032571793E-001;-8.480328321456909E-002;6.132286507636309E-004;-2.992671215906739E-003;
2.418333333333334E+009;1.498752683401108E-001;-8.645537495613098E-002;5.755247548222542E-004;-3.099977970123291E-003;
2.418500000000000E+009;1.495601832866669E-001;-8.809465169906616E-002;4.504665266722441E-004;-3.177130827680230E-003;
2.418666666666667E+009;1.495849937200546E-001;-8.977359533309937E-002;5.173825775273144E-004;-3.161103231832385E-003;
2.418833333333334E+009;1.494400501251221E-001;-9.125871211290360E-002;2.905387955252081E-004;-3.214327152818441E-003;
2.419000000000000E+009;1.493814736604691E-001;-9.246136248111725E-002;1.051544095389545E-004;-3.496814053505659E-003;
2.419166666666667E+009;1.495702713727951E-001;-9.396245330572128E-002;2.293817087775096E-004;-3.482870291918516E-003;
2.419333333333334E+009;1.496231257915497E-001;-9.473309665918350E-002;8.737304597161710E-005;-3.621032927185297E-003;
2.419500000000000E+009;1.499236375093460E-001;-9.606410562992096E-002;-9.020160359796137E-005;-3.600266994908452E-003;
2.419666666666667E+009;1.501957476139069E-001;-9.702869504690170E-002;-2.715704613365233E-004;-3.763739485293627E-003;
2.419833333333334E+009;1.502602994441986E-001;-9.766347706317902E-002;-4.129566077608615E-004;-3.771770978346467E-003;
2.420000000000000E+009;1.505986452102661E-001;-9.837759286165237E-002;-4.198765091132373E-004;-3.819965990260243E-003;
2.420166666666667E+009;1.510370671749115E-001;-9.896322339773178E-002;-5.829068832099438E-004;-3.982038237154484E-003;
2.420333333333334E+009;1.513095349073410E-001;-9.953140467405319E-002;-7.962897652760148E-004;-4.084107466042042E-003;
2.420500000000000E+009;1.517508029937744E-001;-9.971980005502701E-002;-9.243229869753122E-004;-4.048068076372147E-003;
2.420666666666667E+009;1.519824117422104E-001;-9.995111078023911E-002;-1.188780530355871E-003;-4.158110823482275E-003;
2.420833333333334E+009;1.522949934005737E-001;-1.000525355339050E-001;-1.355755608528853E-003;-4.288134630769491E-003;
2.421000000000000E+009;1.524362266063690E-001;-1.003652513027191E-001;-1.341385999694467E-003;-4.140440840274096E-003;
2.421166666666667E+009;1.526818424463272E-001;-1.003350242972374E-001;-1.714627724140883E-003;-4.117647651582956E-003;
2.421333333333334E+009;1.529926955699921E-001;-1.003586128354073E-001;-1.904596923850477E-003;-4.207646474242210E-003;
2.421500000000000E+009;1.529708206653595E-001;-1.002246364951134E-001;-2.044139197096229E-003;-4.131604451686144E-003;
2.421666666666667E+009;1.529428809881210E-001;-9.998183697462082E-002;-2.258175751194358E-003;-4.298279527574778E-003;
2.421833333333334E+009;1.529306769371033E-001;-9.981652349233627E-002;-2.434791764244437E-003;-4.155251663178206E-003;
2.422000000000000E+009;1.528040170669556E-001;-9.955620020627976E-002;-2.700953278690577E-003;-4.025090951472521E-003;
2.422166666666667E+009;1.525506973266602E-001;-9.933338314294815E-002;-3.003967227414250E-003;-4.272529855370522E-003;
2.422333333333334E+009;1.523429155349731E-001;-9.905961155891419E-002;-3.133458085358143E-003;-3.995609469711781E-003;
2.422500000000000E+009;1.516498923301697E-001;-9.851077944040299E-002;-3.440100234001875E-003;-4.086833912879229E-003;
2.422666666666667E+009;1.510689258575440E-001;-9.830097109079361E-002;-3.771605435758829E-003;-3.915668930858374E-003;
2.422833333333334E+009;1.504473686218262E-001;-9.787020832300186E-002;-3.880613716319203E-003;-3.871052758768201E-003;
2.423000000000000E+009;1.496615409851074E-001;-9.762486815452576E-002;-4.264183808118105E-003;-3.732036333531141E-003;
2.423166666666667E+009;1.490162611007690E-001;-9.725607186555862E-002;-4.626339301466942E-003;-3.383113304153085E-003;
2.423333333333334E+009;1.477934122085571E-001;-9.679001569747925E-002;-4.848892800509930E-003;-3.241455648094416E-003;
2.423500000000000E+009;1.468521058559418E-001;-9.640088677406311E-002;-5.113908555358648E-003;-3.213058691471815E-003;
2.423666666666667E+009;1.452118307352066E-001;-9.618280082941055E-002;-5.232057068496943E-003;-2.874577185139060E-003;
2.423833333333334E+009;1.443929523229599E-001;-9.583945572376251E-002;-5.626700818538666E-003;-2.522667171433568E-003;
2.424000000000000E+009;1.431012898683548E-001;-9.565351903438568E-002;-5.681568291038275E-003;-2.219035523012281E-003;
2.424166666666667E+009;1.415124088525772E-001;-9.553871303796768E-002;-5.970808211714029E-003;-1.822204561904073E-003;
2.424333333333334E+009;1.401142328977585E-001;-9.537962079048157E-002;-6.036332808434963E-003;-1.501981168985367E-003;
2.424500000000000E+009;1.387238949537277E-001;-9.543836116790772E-002;-6.158874370157719E-003;-1.105156494304538E-003;
2.424666666666667E+009;1.374844312667847E-001;-9.523382782936096E-002;-6.323958747088909E-003;-7.542162784375250E-004;
2.424833333333334E+009;1.357000172138214E-001;-9.557981044054031E-002;-6.207481492310762E-003;-4.097718629054725E-004;
2.425000000000000E+009;1.343321055173874E-001;-9.592328965663910E-002;-6.286410614848137E-003;-5.699109169654548E-005;
2.425166666666667E+009;1.325349360704422E-001;-9.625168144702911E-002;-6.075981538742781E-003;3.148156392853707E-004;
2.425333333333334E+009;1.311279088258743E-001;-9.661962836980820E-002;-6.014678627252579E-003;5.807690322399139E-004;
2.425500000000000E+009;1.297865360975266E-001;-9.729439765214920E-002;-5.971107631921768E-003;9.870224166661501E-004;
2.425666666666667E+009;1.280114650726318E-001;-9.794685989618301E-002;-5.845332052558661E-003;1.186500303447247E-003;
2.425833333333334E+009;1.267078518867493E-001;-9.888484328985214E-002;-5.663261283189058E-003;1.623574527911842E-003;
2.426000000000000E+009;1.251765191555023E-001;-9.991683065891266E-002;-5.630861036479473E-003;1.860822783783078E-003;
2.426166666666667E+009;1.240642219781876E-001;-1.010637581348419E-001;-5.133552942425013E-003;2.190923318266869E-003;
2.426333333333334E+009;1.225861608982086E-001;-1.021906509995461E-001;-5.247767549008131E-003;2.399760065600276E-003;
2.426500000000000E+009;1.213032528758049E-001;-1.034657359123230E-001;-4.912342876195908E-003;2.659301040694118E-003;
2.426666666666667E+009;1.202011033892632E-001;-1.046968922019005E-001;-4.853809252381325E-003;2.733902307227254E-003;
2.426833333333334E+009;1.189826726913452E-001;-1.062970906496048E-001;-4.542346112430096E-003;2.979929093271494E-003;
2.427000000000000E+009;1.178440675139427E-001;-1.078041866421700E-001;-4.276825580745935E-003;3.244814230129123E-003;
2.427166666666667E+009;1.169131025671959E-001;-1.093983426690102E-001;-4.028671886771917E-003;3.160982392728329E-003;
2.427333333333334E+009;1.159853264689446E-001;-1.111472621560097E-001;-3.706122050061822E-003;3.375462722033262E-003;
2.427500000000000E+009;1.152967661619186E-001;-1.128696799278259E-001;-3.633731044828892E-003;3.519212128594518E-003;
2.427666666666667E+009;1.144810691475868E-001;-1.146362274885178E-001;-3.260649275034666E-003;3.507254179567099E-003;
