# Version 1.00
#
freq[Hz];re:Trc1_S11;im:Trc1_S11;re:Trc2_S21;im:Trc2_S21;
2.400000000000000E+009;1.685396432876587E-001;4.640658944845200E-002;1.544543774798513E-003;2.861276501789689E-003;
2.400166666666667E+009;1.695069819688797E-001;4.548433795571327E-002;1.589637133292854E-003;3.004218684509397E-003;
2.400333333333334E+009;1.704517155885696E-001;4.440522566437721E-002;1.715121208690107E-003;2.818236825987697E-003;
2.400500000000000E+009;1.713651269674301E-001;4.334218055009842E-002;1.643985626287758E-003;2.861719811335206E-003;
2.400666666666667E+009;1.723160743713379E-001;4.259492456912994E-002;1.841738121584058E-003;2.796861808747053E-003;
2.400833333333334E+009;1.731469780206680E-001;4.160865023732185E-002;1.868161140009761E-003;2.807265147566795E-003;
2.401000000000000E+009;1.738642454147339E-001;4.085803031921387E-002;2.095849486067891E-003;2.595455152913928E-003;
2.401166666666667E+009;1.748802959918976E-001;3.990810737013817E-002;2.257678424939513E-003;2.532933373004198E-003;
2.401333333333334E+009;1.753124594688416E-001;3.926066681742668E-002;2.003262285143137E-003;2.479066373780370E-003;
2.401500000000000E+009;1.763684302568436E-001;3.882164135575295E-002;2.314045559614897E-003;2.449876163154841E-003;
2.401666666666667E+009;1.767891943454742E-001;3.833247348666191E-002;2.364543732255697E-003;2.406959421932697E-003;
2.401833333333334E+009;1.775208115577698E-001;3.741642832756043E-002;2.269260352477431E-003;2.089587971568108E-003;
2.402000000000000E+009;1.777941882610321E-001;3.693620488047600E-002;2.431933069601655E-003;2.071093069389463E-003;
2.402166666666667E+009;1.781892925500870E-001;3.622886538505554E-002;2.449393039569259E-003;2.028591698035598E-003;
2.402333333333334E+009;1.785958409309387E-001;3.587208688259125E-002;2.406607847660780E-003;1.844185637310147E-003;
2.402500000000000E+009;1.792786717414856E-001;3.502970561385155E-002;2.488049445673823E-003;1.716976868920028E-003;
2.402666666666667E+009;1.793922483921051E-001;3.445275872945786E-002;2.602942287921906E-003;1.686855801381171E-003;
2.402833333333334E+009;1.793194413185120E-001;3.377765789628029E-002;2.398182172328234E-003;1.623178250156343E-003;
2.403000000000000E+009;1.795068532228470E-001;3.307732194662094E-002;2.372763119637966E-003;1.524882158264518E-003;
2.403166666666667E+009;1.795724332332611E-001;3.236522525548935E-002;2.455173293128610E-003;1.387250376865268E-003;
2.403333333333334E+009;1.796051263809204E-001;3.157291561365128E-002;2.572007244452834E-003;1.335357315838337E-003;
2.403500000000000E+009;1.793723851442337E-001;3.058192506432533E-002;2.551798010244966E-003;1.165069639682770E-003;
2.403666666666667E+009;1.792964637279511E-001;2.969700470566750E-002;2.542927861213684E-003;1.091703888960183E-003;
2.403833333333334E+009;1.790057718753815E-001;2.853691577911377E-002;2.504571108147502E-003;1.105663017369807E-003;
2.404000000000000E+009;1.786597520112991E-001;2.742450498044491E-002;2.348034409806132E-003;7.068510167300701E-004;
2.404166666666667E+009;1.781838238239288E-001;2.622290141880512E-002;2.205726224929094E-003;8.660833700560033E-004;
2.404333333333334E+009;1.776463240385056E-001;2.492905594408512E-002;2.395908348262310E-003;7.620973628945649E-004;
2.404500000000000E+009;1.773297041654587E-001;2.351740188896656E-002;2.304772846400738E-003;9.338444797322154E-004;
2.404666666666667E+009;1.768951863050461E-001;2.215223386883736E-002;2.270958386361599E-003;5.992515943944454E-004;
2.404833333333334E+009;1.763483285903931E-001;2.079307660460472E-002;2.097982913255692E-003;7.601454271934927E-004;
2.405000000000000E+009;1.757913231849670E-001;1.923711597919464E-002;2.138375071808696E-003;6.720171077176929E-004;
2.405166666666667E+009;1.753959953784943E-001;1.766088977456093E-002;2.173933666199446E-003;7.093129679560661E-004;
2.405333333333334E+009;1.751649379730225E-001;1.586592569947243E-002;2.172455191612244E-003;5.268027889542282E-004;
2.405500000000000E+009;1.744967699050903E-001;1.436079386621714E-002;2.301193075254560E-003;5.980505375191569E-004;
2.405666666666667E+009;1.742184609174728E-001;1.254308968782425E-002;2.097026677802205E-003;6.483410834334791E-004;
2.405833333333334E+009;1.736293286085129E-001;1.084719691425562E-002;2.025201683863998E-003;6.726692081429064E-004;
2.406000000000000E+009;1.735074669122696E-001;8.796641603112221E-003;2.129809465259314E-003;7.587268482893705E-004;
2.406166666666667E+009;1.730945557355881E-001;7.022677455097437E-003;2.133319154381752E-003;7.065369281917810E-004;
2.406333333333334E+009;1.731417328119278E-001;4.889652132987976E-003;2.132243476808071E-003;8.136980468407273E-004;
2.406500000000000E+009;1.727571934461594E-001;2.850912744179368E-003;2.237460110336542E-003;7.218644022941589E-004;
2.406666666666667E+009;1.726114451885223E-001;8.369315182790160E-004;2.222630195319653E-003;6.338550592772663E-004;
2.406833333333334E+009;1.725905686616898E-001;-1.335355918854475E-003;2.407349180430174E-003;6.505246856249869E-004;
2.407000000000000E+009;1.726040393114090E-001;-3.363744821399450E-003;2.280961023643613E-003;4.932850715704262E-004;
2.407166666666667E+009;1.727933585643768E-001;-5.336608272045851E-003;2.319688908755779E-003;5.716470768675208E-004;
2.407333333333334E+009;1.728791445493698E-001;-7.701091002672911E-003;2.406180603429675E-003;3.893235407304019E-004;
2.407500000000000E+009;1.730215102434158E-001;-9.620552882552147E-003;2.622239757329226E-003;5.042932461947203E-004;
2.407666666666667E+009;1.733395755290985E-001;-1.175443269312382E-002;2.683312166482210E-003;4.208690952509642E-004;
2.407833333333334E+009;1.734842807054520E-001;-1.375510822981596E-002;2.606783760711551E-003;3.796573728322983E-004;
2.408000000000000E+009;1.737559139728546E-001;-1.594964228570461E-002;2.607164438813925E-003;3.052559914067388E-004;
2.408166666666667E+009;1.742078959941864E-001;-1.785611733794212E-002;2.627542009577155E-003;-1.286269139200158E-006;
2.408333333333334E+009;1.746701151132584E-001;-1.967640779912472E-002;2.789556514471769E-003;4.440645716385916E-005;
2.408500000000000E+009;1.751046329736710E-001;-2.174616418778896E-002;2.892279298976064E-003;-9.122239134740084E-005;
2.408666666666667E+009;1.754628568887711E-001;-2.350581809878349E-002;2.835812279954553E-003;-2.228198427474126E-004;
2.408833333333334E+009;1.757940948009491E-001;-2.535090968012810E-002;2.647701883688569E-003;-2.433565823594108E-004;
2.409000000000000E+009;1.760903596878052E-001;-2.681478857994080E-002;2.728256629779935E-003;-4.706227045971900E-004;
2.409166666666667E+009;1.766711324453354E-001;-2.836352027952671E-002;2.678204094991088E-003;-4.370985261630267E-004;
2.409333333333334E+009;1.772617399692535E-001;-2.986593917012215E-002;2.704076003283262E-003;-5.240471800789237E-004;
2.409500000000000E+009;1.775241345167160E-001;-3.129488602280617E-002;2.644368447363377E-003;-6.208900013007224E-004;
2.409666666666667E+009;1.779004335403442E-001;-3.223796933889389E-002;2.736976603046060E-003;-7.128450670279563E-004;
2.409833333333334E+009;1.784988641738892E-001;-3.341475501656532E-002;2.611838513985276E-003;-7.358094444498420E-004;
2.410000000000000E+009;1.789901703596115E-001;-3.445135802030563E-002;2.616665791720152E-003;-7.002316997386515E-004;
2.410166666666667E+009;1.795646250247955E-001;-3.535127639770508E-002;2.626419533044100E-003;-8.155108080245554E-004;
2.410333333333334E+009;1.799667030572891E-001;-3.609748557209969E-002;2.626869594678283E-003;-8.375935140065849E-004;
2.410500000000000E+009;1.803230047225952E-001;-3.684233129024506E-002;2.604244742542505E-003;-8.735020528547466E-004;
2.410666666666667E+009;1.807813048362732E-001;-3.771023079752922E-002;2.486384939402342E-003;-9.290007292293012E-004;
2.410833333333334E+009;1.810490489006043E-001;-3.824618458747864E-002;2.600275212898850E-003;-1.047375495545566E-003;
2.411000000000000E+009;1.812925785779953E-001;-3.873239457607269E-002;2.721754368394613E-003;-1.098314183764160E-003;
2.411166666666667E+009;1.816184669733048E-001;-3.925806656479836E-002;2.791470149531961E-003;-1.190903130918741E-003;
2.411333333333334E+009;1.817236840724945E-001;-3.974092751741409E-002;2.812850754708052E-003;-1.208138302899897E-003;
2.411500000000000E+009;1.818204820156097E-001;-4.019027948379517E-002;2.796053187921643E-003;-1.248489017598331E-003;
2.411666666666667E+009;1.820335835218430E-001;-4.063722118735313E-002;2.788217039778829E-003;-1.488587586209178E-003;
2.411833333333334E+009;1.816109269857407E-001;-4.105001688003540E-002;2.942376304417849E-003;-1.525141648016870E-003;
2.412000000000000E+009;1.816440671682358E-001;-4.122327640652657E-002;2.733175642788410E-003;-1.748633454553783E-003;
2.412166666666667E+009;1.812534779310226E-001;-4.167901352047920E-002;2.677238546311855E-003;-1.772376126609743E-003;
2.412333333333334E+009;1.811354607343674E-001;-4.181855171918869E-002;2.738997805863619E-003;-1.966274576261640E-003;
2.412500000000000E+009;1.804489642381668E-001;-4.210957512259483E-002;2.730094827711582E-003;-2.122547244653106E-003;
2.412666666666667E+009;1.800773441791534E-001;-4.262055829167366E-002;2.561717061325908E-003;-2.293360652402043E-003;
2.412833333333334E+009;1.793259978294373E-001;-4.306437447667122E-002;2.494178945198655E-003;-2.485567238181830E-003;
2.413000000000000E+009;1.785690933465958E-001;-4.314625635743141E-002;2.269244752824307E-003;-2.612082986161113E-003;
2.413166666666667E+009;1.778919845819473E-001;-4.368199035525322E-002;2.207653131335974E-003;-2.789983991533518E-003;
2.413333333333334E+009;1.767569631338120E-001;-4.410164430737495E-002;2.205593744292855E-003;-2.756145317107439E-003;
2.413500000000000E+009;1.759589612483978E-001;-4.456183314323425E-002;2.056937897577882E-003;-2.982248086482287E-003;
2.413666666666667E+009;1.747903972864151E-001;-4.509518295526505E-002;1.953669823706150E-003;-3.025186713784933E-003;
2.413833333333334E+009;1.737178862094879E-001;-4.573619365692139E-002;1.495150616392493E-003;-3.169553587213159E-003;
2.414000000000000E+009;1.724205315113068E-001;-4.639462009072304E-002;1.513450988568366E-003;-3.071595449000597E-003;
2.414166666666667E+009;1.714982986450195E-001;-4.703522101044655E-002;1.226199790835381E-003;-3.159131389111280E-003;
2.414333333333334E+009;1.701506823301315E-001;-4.789226129651070E-002;1.143843517638743E-003;-3.083402756601572E-003;
2.414500000000000E+009;1.690851002931595E-001;-4.873663932085037E-002;9.996300796046853E-004;-3.200962441042066E-003;
2.414666666666667E+009;1.677076518535614E-001;-4.960173740983009E-002;7.952846935950220E-004;-3.169464645907283E-003;
2.414833333333334E+009;1.665865927934647E-001;-5.064946785569191E-002;7.290575886145234E-004;-3.081677248701453E-003;
2.415000000000000E+009;1.652780324220657E-001;-5.180136859416962E-002;4.056957841385156E-004;-2.851803321391344E-003;
2.415166666666667E+009;1.639868617057800E-001;-5.305395647883415E-002;3.649424179457128E-004;-2.758453134447336E-003;
2.415333333333334E+009;1.628544181585312E-001;-5.440047010779381E-002;3.144394140690565E-004;-2.613984979689121E-003;
2.415500000000000E+009;1.617559790611267E-001;-5.577459931373596E-002;2.320364874321967E-004;-2.534418134018779E-003;
2.415666666666667E+009;1.604912281036377E-001;-5.725341290235519E-002;1.280959113501012E-004;-2.558856969699264E-003;
2.415833333333334E+009;1.596025228500366E-001;-5.876835063099861E-002;1.718463317956775E-004;-2.420202596113086E-003;
2.416000000000000E+009;1.582231819629669E-001;-6.046535074710846E-002;3.343539719935507E-004;-2.295408397912979E-003;
2.416166666666667E+009;1.574382781982422E-001;-6.229925900697708E-002;3.259996301494539E-004;-2.214480191469193E-003;
2.416333333333334E+009;1.564289033412933E-001;-6.396929919719696E-002;3.544617502484471E-004;-2.282197121530771E-003;
2.416500000000000E+009;1.554957777261734E-001;-6.597986072301865E-002;4.988398868590593E-004;-2.205279655754566E-003;
2.416666666666667E+009;1.546245813369751E-001;-6.766725331544876E-002;5.751705612055957E-004;-2.045261673629284E-003;
2.416833333333334E+009;1.537623852491379E-001;-6.970544159412384E-002;5.785428802482784E-004;-2.181327901780605E-003;
2.417000000000000E+009;1.529263108968735E-001;-7.176502794027329E-002;5.584777100011706E-004;-2.232568571344018E-003;
2.417166666666667E+009;1.523111164569855E-001;-7.352577894926071E-002;5.529611953534186E-004;-2.302475739270449E-003;
2.417333333333334E+009;1.517454236745834E-001;-7.552453875541687E-002;6.056046695448458E-004;-2.502083079889417E-003;
2.417500000000000E+009;1.511995792388916E-001;-7.759536802768707E-002;7.002423517405987E-004;-2.488391706719995E-003;
2.417666666666667E+009;1.507967412471771E-001;-7.921581715345383E-002;7.279819110408425E-004;-2.621977822855115E-003;
2.417833333333334E+009;1.503282487392426E-001;-8.123905956745148E-002;7.047243998385966E-004;-2.733011730015278E-003;
2.418000000000000E+009;1.499738544225693E-001;-8.304814994335175E-002;6.683656829409301E-004;-2.806743606925011E-003;
2.418166666666667E+009;1.495390534400940E-001;-8.468624204397202E-002;5.611240630969405E-004;-2.912962110713124E-003;
2.418333333333334E+009;1.496587097644806E-001;-8.646880090236664E-002;5.148131749592722E-004;-2.976206596940756E-003;
2.418500000000000E+009;1.495242863893509E-001;-8.817305415868759E-002;3.982908674515784E-004;-3.018834162503481E-003;
2.418666666666667E+009;1.493865102529526E-001;-8.982574194669724E-002;4.059139173477888E-004;-3.200450679287314E-003;
2.418833333333334E+009;1.493228077888489E-001;-9.121349453926086E-002;2.826357376761735E-004;-3.234415780752897E-003;
2.419000000000000E+009;1.494573503732681E-001;-9.258349239826202E-002;9.289793524658307E-005;-3.493191208690405E-003;
2.419166666666667E+009;1.495931744575501E-001;-9.381750226020813E-002;1.498771598562598E-004;-3.463310888037086E-003;
2.419333333333334E+009;1.495139300823212E-001;-9.491407126188278E-002;-1.421008928446099E-004;-3.424783702939749E-003;
2.419500000000000E+009;1.498172730207443E-001;-9.608662128448486E-002;-2.002890396397561E-004;-3.595164977014065E-003;
2.419666666666667E+009;1.501324772834778E-001;-9.706415981054306E-002;-3.427245828788728E-004;-3.605590667575598E-003;
2.419833333333334E+009;1.501187682151794E-001;-9.767452627420425E-002;-4.785530909430236E-004;-3.754329401999712E-003;
2.420000000000000E+009;1.507500559091568E-001;-9.842176735401154E-002;-5.616161506623030E-004;-3.698760177940130E-003;
2.420166666666667E+009;1.509984582662582E-001;-9.883216768503189E-002;-7.180665852501988E-004;-3.622298594564199E-003;
2.420333333333334E+009;1.513526290655136E-001;-9.944555908441544E-002;-8.968514739535749E-004;-3.709672950208187E-003;
2.420500000000000E+009;1.516302227973938E-001;-9.964494407176971E-002;-9.639568743295968E-004;-3.885497106239200E-003;
2.420666666666667E+009;1.518292427062988E-001;-9.984242171049118E-002;-1.123200985603035E-003;-3.848058404400945E-003;
2.420833333333334E+009;1.522150933742523E-001;-1.002145335078239E-001;-1.240510726347566E-003;-3.936818800866604E-003;
2.421000000000000E+009;1.524574458599091E-001;-1.003691107034683E-001;-1.425480120815337E-003;-3.943132702261210E-003;
2.421166666666667E+009;1.526748538017273E-001;-1.001909300684929E-001;-1.539370859973133E-003;-3.968109842389822E-003;
2.421333333333334E+009;1.530172824859619E-001;-1.002132967114449E-001;-1.810475718230009E-003;-4.062151536345482E-003;
2.421500000000000E+009;1.530296951532364E-001;-1.000570580363274E-001;-1.977398991584778E-003;-4.002735950052738E-003;
2.421666666666667E+009;1.530462801456451E-001;-9.993204474449158E-002;-2.240384928882122E-003;-4.095593001693487E-003;
2.421833333333334E+009;1.529957801103592E-001;-9.970097988843918E-002;-2.478965558111668E-003;-4.139659460633993E-003;
2.422000000000000E+009;1.527435481548309E-001;-9.961032122373581E-002;-2.430373802781105E-003;-4.081174265593290E-003;
2.422166666666667E+009;1.527104973793030E-001;-9.939396381378174E-002;-2.787827514111996E-003;-3.984357230365276E-003;
2.422333333333334E+009;1.523037999868393E-001;-9.893330186605454E-002;-3.045948920771480E-003;-3.955200780183077E-003;
2.422500000000000E+009;1.519526392221451E-001;-9.852453321218491E-002;-3.457701997831464E-003;-3.929094411432743E-003;
2.422666666666667E+009;1.512945145368576E-001;-9.832880645990372E-002;-3.610388142988086E-003;-3.984432667493820E-003;
2.422833333333334E+009;1.507629603147507E-001;-9.799670428037643E-002;-4.001356661319733E-003;-3.768353490158916E-003;
2.423000000000000E+009;1.498027443885803E-001;-9.759818762540817E-002;-4.293829202651978E-003;-3.825722960755229E-003;
2.423166666666667E+009;1.489343047142029E-001;-9.725879132747650E-002;-4.614481236785650E-003;-3.480514977127314E-003;
2.423333333333334E+009;1.480818092823029E-001;-9.682641178369522E-002;-4.894587211310864E-003;-3.373480169102550E-003;
2.423500000000000E+009;1.469368934631348E-001;-9.660775959491730E-002;-5.172600504010916E-003;-3.130935365334153E-003;
2.423666666666667E+009;1.455344259738922E-001;-9.630866348743439E-002;-5.482500419020653E-003;-2.648288151249290E-003;
2.423833333333334E+009;1.444272398948669E-001;-9.600765258073807E-002;-5.525101441890001E-003;-2.416478004306555E-003;
2.424000000000000E+009;1.430422216653824E-001;-9.565639495849609E-002;-5.831399001181126E-003;-2.164904726669192E-003;
2.424166666666667E+009;1.416464447975159E-001;-9.557045251131058E-002;-6.128300912678242E-003;-1.652185688726604E-003;
2.424333333333334E+009;1.402344256639481E-001;-9.534286707639694E-002;-5.912011023610830E-003;-1.517554046586156E-003;
2.424500000000000E+009;1.388494521379471E-001;-9.550427645444870E-002;-5.949621554464102E-003;-1.156620914116502E-003;
2.424666666666667E+009;1.374435424804688E-001;-9.536514431238174E-002;-6.415244657546282E-003;-6.989958928897977E-004;
2.424833333333334E+009;1.356771737337112E-001;-9.557454288005829E-002;-6.122462917119265E-003;-4.287897027097642E-004;
2.425000000000000E+009;1.342283040285111E-001;-9.590322524309158E-002;-6.266195792704821E-003;2.862321889551822E-005;
2.425166666666667E+009;1.325867176055908E-001;-9.626656025648117E-002;-6.162060424685478E-003;4.329177900217474E-004;
2.425333333333334E+009;1.311991214752197E-001;-9.664694219827652E-002;-6.096319761127234E-003;6.757030496373773E-004;
2.425500000000000E+009;1.297164261341095E-001;-9.743052721023560E-002;-5.967229139059782E-003;1.017115660943091E-003;
2.425666666666667E+009;1.280645877122879E-001;-9.806384891271591E-002;-5.835346877574921E-003;1.355087850242853E-003;
2.425833333333334E+009;1.266810148954392E-001;-9.886975586414337E-002;-5.703967995941639E-003;1.773938536643982E-003;
2.426000000000000E+009;1.251780688762665E-001;-9.997464716434479E-002;-5.587578285485506E-003;1.982825575396419E-003;
2.426166666666667E+009;1.239927038550377E-001;-1.010470017790794E-001;-5.473685450851917E-003;2.290254924446344E-003;
2.426333333333334E+009;1.225194856524468E-001;-1.022230237722397E-001;-5.226357840001583E-003;2.431099535897374E-003;
2.426500000000000E+009;1.212839111685753E-001;-1.035200282931328E-001;-4.907111637294292E-003;2.585550770163536E-003;
2.426666666666667E+009;1.202602088451386E-001;-1.047950088977814E-001;-4.790900275111198E-003;2.868694253265858E-003;
2.426833333333334E+009;1.190456748008728E-001;-1.063511669635773E-001;-4.494641441851854E-003;3.044201061129570E-003;
2.427000000000000E+009;1.178369671106339E-001;-1.079213693737984E-001;-4.244672134518623E-003;3.159101819619536E-003;
2.427166666666667E+009;1.168902814388275E-001;-1.093822270631790E-001;-3.959496505558491E-003;3.361979266628623E-003;
2.427333333333334E+009;1.159375160932541E-001;-1.111528947949410E-001;-3.773604286834598E-003;3.495210548862815E-003;
2.427500000000000E+009;1.153339445590973E-001;-1.129611209034920E-001;-3.398712025955319E-003;3.432315308600664E-003;
2.427666666666667E+009;1.144254505634308E-001;-1.146797314286232E-001;-3.284060861915350E-003;3.647449426352978E-003;
