# Version 1.00
#
freq[Hz];re:Trc1_S11;im:Trc1_S11;re:Trc2_S21;im:Trc2_S21;
2.400000000000000E+009;1.562426239252091E-001;1.113333627581596E-001;8.841787930577993E-004;6.771828047931194E-003;
2.400166666666667E+009;1.558244526386261E-001;1.089974120259285E-001;1.154678873717785E-003;6.517330650240183E-003;
2.400333333333334E+009;1.554866284132004E-001;1.068501099944115E-001;1.431793323718011E-003;6.469935644418001E-003;
2.400500000000000E+009;1.551024168729782E-001;1.040272191166878E-001;1.625149510800839E-003;6.333813536912203E-003;
2.400666666666667E+009;1.548355966806412E-001;1.015690192580223E-001;2.022625645622611E-003;6.206110119819641E-003;
2.400833333333334E+009;1.545246243476868E-001;9.871823340654373E-002;2.125872066244483E-003;5.949121899902821E-003;
2.401000000000000E+009;1.543659716844559E-001;9.588458389043808E-002;2.197851194068790E-003;5.768566858023405E-003;
2.401166666666667E+009;1.543094217777252E-001;9.303686022758484E-002;2.329764654859901E-003;5.661976523697376E-003;
2.401333333333334E+009;1.541838049888611E-001;9.008918702602387E-002;2.325725974515081E-003;5.384296644479036E-003;
2.401500000000000E+009;1.545266807079315E-001;8.708820492029190E-002;2.612294163554907E-003;5.351820494979620E-003;
2.401666666666667E+009;1.545628160238266E-001;8.409275859594345E-002;2.642232226207852E-003;5.147739313542843E-003;
2.401833333333334E+009;1.550055146217346E-001;8.116655051708221E-002;2.764594741165638E-003;5.100019741803408E-003;
2.402000000000000E+009;1.556165814399719E-001;7.820238173007965E-002;2.903469605371356E-003;5.076107569038868E-003;
2.402166666666667E+009;1.562215834856033E-001;7.551242411136627E-002;3.014326328411698E-003;4.925373941659927E-003;
2.402333333333334E+009;1.569148898124695E-001;7.240935415029526E-002;3.168676281347871E-003;4.962156526744366E-003;
2.402500000000000E+009;1.579812318086624E-001;6.973194330930710E-002;3.180038882419467E-003;4.881920758634806E-003;
2.402666666666667E+009;1.588789969682694E-001;6.717046350240707E-002;3.367401892319322E-003;4.709109663963318E-003;
2.402833333333334E+009;1.602310389280319E-001;6.455903500318527E-002;3.743518842384219E-003;4.807724151760340E-003;
2.403000000000000E+009;1.617262810468674E-001;6.172828003764153E-002;3.732688957825303E-003;4.736930597573519E-003;
2.403166666666667E+009;1.634124964475632E-001;5.945780873298645E-002;4.147403873503208E-003;4.550770856440067E-003;
2.403333333333334E+009;1.647314876317978E-001;5.671804398298264E-002;4.291817545890808E-003;4.364428576081991E-003;
2.403500000000000E+009;1.665764451026917E-001;5.435686931014061E-002;4.635457880795002E-003;4.152025096118450E-003;
2.403666666666667E+009;1.683050841093063E-001;5.218438431620598E-002;4.868565127253532E-003;4.083410836756229E-003;
2.403833333333334E+009;1.701129823923111E-001;5.030193179845810E-002;5.086091347038746E-003;3.698968328535557E-003;
2.404000000000000E+009;1.716683357954025E-001;4.829061776399612E-002;5.343813449144363E-003;3.447551978752017E-003;
2.404166666666667E+009;1.735972911119461E-001;4.644001647830010E-002;5.414044950157404E-003;3.125747665762901E-003;
2.404333333333334E+009;1.753665059804916E-001;4.465387016534805E-002;5.441448185592890E-003;2.514662453904748E-003;
2.404500000000000E+009;1.771454662084580E-001;4.309908300638199E-002;5.235034972429276E-003;2.412227680906653E-003;
2.404666666666667E+009;1.790311336517334E-001;4.181934893131256E-002;5.518008023500443E-003;1.941596157848835E-003;
2.404833333333334E+009;1.808900088071823E-001;4.042581096291542E-002;5.254258867353201E-003;1.700807013548911E-003;
2.405000000000000E+009;1.824796795845032E-001;3.988791629672051E-002;5.466777365654707E-003;1.452908851206303E-003;
2.405166666666667E+009;1.841399371623993E-001;3.911973908543587E-002;5.383114796131849E-003;1.218834193423390E-003;
2.405333333333334E+009;1.858458369970322E-001;3.840175643563271E-002;5.301244556903839E-003;1.065991586074233E-003;
2.405500000000000E+009;1.875322610139847E-001;3.788631036877632E-002;5.033365916460753E-003;8.205187041312456E-004;
2.405666666666667E+009;1.890118718147278E-001;3.760340437293053E-002;4.861546680331230E-003;7.199227693490684E-004;
2.405833333333334E+009;1.906210780143738E-001;3.738000616431236E-002;4.882732406258583E-003;3.927619836758822E-004;
2.406000000000000E+009;1.918726116418839E-001;3.731697425246239E-002;4.695369396358728E-003;2.892411721404642E-004;
2.406166666666667E+009;1.931217163801193E-001;3.709587827324867E-002;4.645513370633125E-003;1.805726351449266E-004;
2.406333333333334E+009;1.943019926548004E-001;3.725929558277130E-002;4.506026394665241E-003;1.089372744900174E-004;
2.406500000000000E+009;1.953667104244232E-001;3.727169334888458E-002;4.293795209378004E-003;-1.366550131933764E-004;
2.406666666666667E+009;1.963380575180054E-001;3.744662180542946E-002;4.309679381549358E-003;-7.005972292972729E-005;
2.406833333333334E+009;1.969441771507263E-001;3.764605149626732E-002;4.249486606568098E-003;-6.620318163186312E-005;
2.407000000000000E+009;1.975142806768417E-001;3.804130479693413E-002;3.902070224285126E-003;-1.847742387326434E-004;
2.407166666666667E+009;1.981225311756134E-001;3.801519423723221E-002;4.003976471722126E-003;-2.401679230388254E-004;
2.407333333333334E+009;1.983761191368103E-001;3.840257972478867E-002;3.858478972688317E-003;-1.561179233249277E-004;
2.407500000000000E+009;1.983545720577240E-001;3.871093317866325E-002;3.727401373907924E-003;-3.773291246034205E-004;
2.407666666666667E+009;1.986202746629715E-001;3.891488164663315E-002;3.715706523507834E-003;-2.955481468234211E-004;
2.407833333333334E+009;1.982730925083160E-001;3.908514976501465E-002;3.742460627108812E-003;-3.164962399750948E-004;
2.408000000000000E+009;1.982244253158569E-001;3.923608362674713E-002;3.686783835291863E-003;-2.312880678800866E-004;
2.408166666666667E+009;1.975494772195816E-001;3.913644701242447E-002;3.745693480595946E-003;-1.607908925507218E-004;
2.408333333333334E+009;1.973027884960175E-001;3.919798135757446E-002;3.654785454273224E-003;-3.430734795983881E-004;
2.408500000000000E+009;1.965665221214294E-001;3.901177644729614E-002;3.703807713463903E-003;-3.368240722920746E-004;
2.408666666666667E+009;1.959994882345200E-001;3.874040022492409E-002;3.688507946208119E-003;-2.226679935120046E-004;
2.408833333333334E+009;1.951867789030075E-001;3.845712915062904E-002;3.727219533175230E-003;-2.483765128999949E-004;
2.409000000000000E+009;1.942698657512665E-001;3.776569664478302E-002;3.742193803191185E-003;-3.147827228531241E-004;
2.409166666666667E+009;1.931145340204239E-001;3.722998499870300E-002;3.984219860285521E-003;-3.591036947909743E-004;
2.409333333333334E+009;1.920732855796814E-001;3.655100613832474E-002;4.009720869362354E-003;-3.606083919294179E-004;
2.409500000000000E+009;1.908917278051376E-001;3.549503535032272E-002;3.967056050896645E-003;-3.989698598161340E-004;
2.409666666666667E+009;1.896141618490219E-001;3.436105698347092E-002;4.087045788764954E-003;-4.912031581625342E-004;
2.409833333333334E+009;1.882998198270798E-001;3.320240601897240E-002;4.187388345599175E-003;-6.341837579384446E-004;
2.410000000000000E+009;1.872456520795822E-001;3.185159340500832E-002;4.210317507386208E-003;-8.229454397223890E-004;
2.410166666666667E+009;1.858255118131638E-001;3.026723302900791E-002;4.159744363278151E-003;-9.440019493922591E-004;
2.410333333333334E+009;1.845724135637283E-001;2.853733859956265E-002;4.259998444467783E-003;-1.237791031599045E-003;
2.410500000000000E+009;1.835469454526901E-001;2.694098278880119E-002;4.129941575229168E-003;-1.370013691484928E-003;
2.410666666666667E+009;1.822444647550583E-001;2.472849376499653E-002;4.179036710411310E-003;-1.345445751212537E-003;
2.410833333333334E+009;1.816015243530273E-001;2.265420928597450E-002;4.247419070452452E-003;-1.663239207118750E-003;
2.411000000000000E+009;1.804717630147934E-001;2.059199847280979E-002;4.141868557780981E-003;-1.668424578383565E-003;
2.411166666666667E+009;1.795616894960403E-001;1.842494867742062E-002;3.909559920430183E-003;-1.933271414600313E-003;
2.411333333333334E+009;1.789033412933350E-001;1.605443097651005E-002;4.017998930066824E-003;-1.869688509032130E-003;
2.411500000000000E+009;1.782691627740860E-001;1.355697866529226E-002;3.840974532067776E-003;-2.016143407672644E-003;
2.411666666666667E+009;1.778285056352615E-001;1.107383985072374E-002;3.749768715351820E-003;-1.995796803385019E-003;
2.411833333333334E+009;1.772992908954620E-001;8.643718436360359E-003;3.574521746486425E-003;-2.051119226962328E-003;
2.412000000000000E+009;1.772845834493637E-001;5.833380855619907E-003;3.715139115229249E-003;-2.165937330573797E-003;
2.412166666666667E+009;1.769489496946335E-001;3.601642325520515E-003;3.693872364237905E-003;-2.154664602130652E-003;
2.412333333333334E+009;1.770859956741333E-001;7.336987764574587E-004;3.521832404658198E-003;-2.188472775742412E-003;
2.412500000000000E+009;1.774884462356567E-001;-1.696107909083366E-003;3.798010759055615E-003;-2.203165786340833E-003;
2.412666666666667E+009;1.777355670928955E-001;-4.466396290808916E-003;3.687437856569886E-003;-2.321347827091813E-003;
2.412833333333334E+009;1.782616078853607E-001;-7.073762826621532E-003;3.707001917064190E-003;-2.659580437466502E-003;
2.413000000000000E+009;1.789156496524811E-001;-9.649973362684250E-003;3.718121442943811E-003;-2.556507941335440E-003;
2.413166666666667E+009;1.797224879264832E-001;-1.200394053012133E-002;3.742953762412071E-003;-2.799252513796091E-003;
2.413333333333334E+009;1.807897239923477E-001;-1.454272959381342E-002;3.728023264557123E-003;-2.953794319182634E-003;
2.413500000000000E+009;1.816237419843674E-001;-1.717167347669601E-002;3.755799727514386E-003;-3.028718987479806E-003;
2.413666666666667E+009;1.828768998384476E-001;-1.961099542677403E-002;3.848443971946836E-003;-3.141371533274651E-003;
2.413833333333334E+009;1.839130818843842E-001;-2.177741378545761E-002;3.699586028233171E-003;-3.520765108987689E-003;
2.414000000000000E+009;1.850649118423462E-001;-2.403806149959564E-002;3.708994714543223E-003;-3.753714496269822E-003;
2.414166666666667E+009;1.864361763000488E-001;-2.600053139030933E-002;3.679825458675623E-003;-3.955708816647530E-003;
2.414333333333334E+009;1.876699328422546E-001;-2.815607003867626E-002;3.435482271015644E-003;-4.245943855494261E-003;
2.414500000000000E+009;1.891132444143295E-001;-2.987873926758766E-002;3.347167745232582E-003;-4.525873810052872E-003;
2.414666666666667E+009;1.904010325670242E-001;-3.167149797081947E-002;2.986543579027057E-003;-4.849055781960487E-003;
2.414833333333334E+009;1.916577965021133E-001;-3.315514698624611E-002;2.709977794438601E-003;-4.961238242685795E-003;
2.415000000000000E+009;1.931020915508270E-001;-3.453878685832024E-002;2.430423861369491E-003;-5.319504067301750E-003;
2.415166666666667E+009;1.944946199655533E-001;-3.594221919775009E-002;2.133574569597840E-003;-5.330076441168785E-003;
2.415333333333334E+009;1.959825307130814E-001;-3.701041638851166E-002;1.897532842122018E-003;-5.527571775019169E-003;
2.415500000000000E+009;1.974124908447266E-001;-3.786220774054527E-002;1.562792458571494E-003;-5.534076597541571E-003;
2.415666666666667E+009;1.986179798841476E-001;-3.878669068217278E-002;1.394466497004032E-003;-5.688578821718693E-003;
2.415833333333334E+009;1.997753232717514E-001;-3.933342173695564E-002;1.075093867257237E-003;-5.659865681082010E-003;
2.416000000000000E+009;2.009414434432983E-001;-4.017058759927750E-002;7.602237747050822E-004;-5.794931203126907E-003;
2.416166666666667E+009;2.020355612039566E-001;-4.077846184372902E-002;4.308847710490227E-004;-5.512175615876913E-003;
2.416333333333334E+009;2.030063867568970E-001;-4.113530367612839E-002;2.347299887333065E-004;-5.500803235918284E-003;
2.416500000000000E+009;2.037492841482163E-001;-4.144986718893051E-002;-1.144858106272295E-004;-5.451413802802563E-003;
2.416666666666667E+009;2.043844014406204E-001;-4.176279157400131E-002;-4.939718637615442E-004;-5.447801202535629E-003;
2.416833333333334E+009;2.048210948705673E-001;-4.161522164940834E-002;-7.411491824313998E-004;-5.316218361258507E-003;
2.417000000000000E+009;2.052831947803497E-001;-4.174998402595520E-002;-8.390567381866276E-004;-5.241300910711289E-003;
2.417166666666667E+009;2.052423208951950E-001;-4.164988175034523E-002;-9.953575208783150E-004;-4.980356432497501E-003;
2.417333333333334E+009;2.053051888942719E-001;-4.139053076505661E-002;-1.240580459125340E-003;-4.988532513380051E-003;
2.417500000000000E+009;2.053551077842712E-001;-4.129862412810326E-002;-1.474541029892862E-003;-4.822399932891130E-003;
2.417666666666667E+009;2.049614042043686E-001;-4.092033207416534E-002;-1.553602982312441E-003;-4.720555152744055E-003;
2.417833333333334E+009;2.047961503267288E-001;-4.057830944657326E-002;-1.582648255862296E-003;-4.528138320893049E-003;
2.418000000000000E+009;2.043244987726212E-001;-4.012765735387802E-002;-1.762478379532695E-003;-4.454092588275671E-003;
2.418166666666667E+009;2.037213444709778E-001;-3.996726125478745E-002;-1.924387412145734E-003;-4.416963551193476E-003;
2.418333333333334E+009;2.029151916503906E-001;-3.956947848200798E-002;-2.031659474596381E-003;-4.286728799343109E-003;
2.418500000000000E+009;2.020041048526764E-001;-3.928315266966820E-002;-2.178718801587820E-003;-4.143015947192907E-003;
2.418666666666667E+009;2.012027353048325E-001;-3.904854878783226E-002;-2.128301654011011E-003;-4.008182790130377E-003;
2.418833333333334E+009;2.000567615032196E-001;-3.901900723576546E-002;-2.394332783296704E-003;-3.969355486333370E-003;
2.419000000000000E+009;1.987738907337189E-001;-3.893173485994339E-002;-2.516715787351131E-003;-3.771319054067135E-003;
2.419166666666667E+009;1.974778324365616E-001;-3.902291506528854E-002;-2.715276088565588E-003;-3.669655183330178E-003;
2.419333333333334E+009;1.960633397102356E-001;-3.930658474564552E-002;-2.673457609489560E-003;-3.448062809184194E-003;
2.419500000000000E+009;1.946303695440292E-001;-3.958630189299583E-002;-2.716074232012034E-003;-3.302729688584805E-003;
2.419666666666667E+009;1.929620653390884E-001;-4.008347541093826E-002;-2.825850620865822E-003;-3.236804855987430E-003;
2.419833333333334E+009;1.912522017955780E-001;-4.058153182268143E-002;-2.855463884770870E-003;-3.070301376283169E-003;
2.420000000000000E+009;1.895140260457993E-001;-4.119655489921570E-002;-2.932809526100755E-003;-2.822194946929812E-003;
2.420166666666667E+009;1.878470927476883E-001;-4.212294518947601E-002;-2.995730377733707E-003;-2.706080442294478E-003;
2.420333333333334E+009;1.860579997301102E-001;-4.322266951203346E-002;-3.023388795554638E-003;-2.547724405303598E-003;
2.420500000000000E+009;1.841361373662949E-001;-4.415978863835335E-002;-3.014268586412072E-003;-2.295783953741193E-003;
2.420666666666667E+009;1.824560612440109E-001;-4.522738233208656E-002;-2.985552651807666E-003;-2.079099183902144E-003;
2.420833333333334E+009;1.806434094905853E-001;-4.674842581152916E-002;-2.966306405141950E-003;-1.810841495171189E-003;
2.421000000000000E+009;1.791536659002304E-001;-4.828966781497002E-002;-2.740097232162952E-003;-1.755390083417296E-003;
2.421166666666667E+009;1.774955093860626E-001;-4.985139891505241E-002;-2.694086637347937E-003;-1.461447798646987E-003;
2.421333333333334E+009;1.755527108907700E-001;-5.144171416759491E-002;-2.503409981727600E-003;-1.352358958683908E-003;
2.421500000000000E+009;1.739753782749176E-001;-5.347890034317970E-002;-2.421340206637979E-003;-1.284619560465217E-003;
2.421666666666667E+009;1.725685745477676E-001;-5.521677061915398E-002;-2.237487118691206E-003;-1.264602993614972E-003;
2.421833333333334E+009;1.713354289531708E-001;-5.718857795000076E-002;-2.190957311540842E-003;-1.239760546013713E-003;
2.422000000000000E+009;1.699143797159195E-001;-5.919495597481728E-002;-2.108526183292270E-003;-1.411011908203363E-003;
2.422166666666667E+009;1.688859015703201E-001;-6.141056120395660E-002;-1.862883451394737E-003;-1.283499761484563E-003;
2.422333333333334E+009;1.677195280790329E-001;-6.364697217941284E-002;-1.806943677365780E-003;-1.417358289472759E-003;
2.422500000000000E+009;1.666513383388519E-001;-6.582935899496079E-002;-1.840019016526640E-003;-1.579316682182252E-003;
2.422666666666667E+009;1.658062785863876E-001;-6.790940463542938E-002;-1.731035183183849E-003;-1.617375528439879E-003;
2.422833333333334E+009;1.651406288146973E-001;-7.021894305944443E-002;-1.753546181134880E-003;-1.666044816374779E-003;
2.423000000000000E+009;1.644611656665802E-001;-7.256302237510681E-002;-1.869784435257316E-003;-1.816677046008408E-003;
2.423166666666667E+009;1.641301810741425E-001;-7.472719252109528E-002;-1.838291296735406E-003;-1.711868564598262E-003;
2.423333333333334E+009;1.635750085115433E-001;-7.701455801725388E-002;-1.943056005984545E-003;-1.912878942675889E-003;
2.423500000000000E+009;1.636113673448563E-001;-7.899216562509537E-002;-1.994623569771648E-003;-1.859673531726003E-003;
2.423666666666667E+009;1.635205149650574E-001;-8.116760104894638E-002;-1.941591384820640E-003;-1.803492195904255E-003;
2.423833333333334E+009;1.634118854999542E-001;-8.329895138740540E-002;-2.099239267408848E-003;-1.866321661509574E-003;
2.424000000000000E+009;1.636852622032166E-001;-8.521548658609390E-002;-2.234152518212795E-003;-1.838479889556766E-003;
2.424166666666667E+009;1.636135727167130E-001;-8.709134161472321E-002;-2.133040921762586E-003;-1.892520114779472E-003;
2.424333333333334E+009;1.639212220907211E-001;-8.896484971046448E-002;-2.245031064376235E-003;-1.919986680150032E-003;
2.424500000000000E+009;1.642792522907257E-001;-9.090463817119598E-002;-2.213710220530629E-003;-1.880947849713266E-003;
2.424666666666667E+009;1.647009849548340E-001;-9.261126071214676E-002;-2.395754680037499E-003;-1.963457558304071E-003;
2.424833333333334E+009;1.653980910778046E-001;-9.398952126502991E-002;-2.511039841920137E-003;-1.939919544383884E-003;
2.425000000000000E+009;1.657830923795700E-001;-9.557372331619263E-002;-2.627425361424685E-003;-1.931627281010151E-003;
2.425166666666667E+009;1.663455665111542E-001;-9.674108773469925E-002;-2.746197627857328E-003;-1.986769493669272E-003;
2.425333333333334E+009;1.667961925268173E-001;-9.804056584835053E-002;-3.021410433575511E-003;-1.982859568670392E-003;
2.425500000000000E+009;1.674859076738358E-001;-9.913870692253113E-002;-3.002416109666228E-003;-1.895095338113606E-003;
2.425666666666667E+009;1.681551784276962E-001;-1.000284254550934E-001;-3.059909213334322E-003;-1.840542419813573E-003;
2.425833333333334E+009;1.685394942760468E-001;-1.009857878088951E-001;-3.325247438624501E-003;-1.860615331679583E-003;
2.426000000000000E+009;1.691947877407074E-001;-1.016230210661888E-001;-3.377587767317891E-003;-1.782745704986155E-003;
2.426166666666667E+009;1.698155999183655E-001;-1.021370366215706E-001;-3.533551236614585E-003;-1.742445514537394E-003;
2.426333333333334E+009;1.702097207307816E-001;-1.027498766779900E-001;-3.673722501844168E-003;-1.541867619380355E-003;
2.426500000000000E+009;1.708576530218124E-001;-1.031286045908928E-001;-3.918194677680731E-003;-1.213446492329240E-003;
2.426666666666667E+009;1.713175326585770E-001;-1.035093963146210E-001;-3.859586548060179E-003;-1.286822836846113E-003;
2.426833333333334E+009;1.718393564224243E-001;-1.037690043449402E-001;-3.983648028224707E-003;-1.167314709164202E-003;
2.427000000000000E+009;1.720772534608841E-001;-1.040594577789307E-001;-3.977920394390822E-003;-1.081087277270854E-003;
2.427166666666667E+009;1.723113209009171E-001;-1.041857451200485E-001;-4.141369834542275E-003;-9.426159667782486E-004;
2.427333333333334E+009;1.725428104400635E-001;-1.043136194348335E-001;-4.225520882755518E-003;-8.743366342969239E-004;
2.427500000000000E+009;1.725166589021683E-001;-1.044022068381310E-001;-4.200978204607964E-003;-5.924976430833340E-004;
2.427666666666667E+009;1.723260730504990E-001;-1.044124215841293E-001;-4.296794999390841E-003;-7.084087119437754E-004;
