# Version 1.00
#
freq[Hz];re:Trc1_S11;im:Trc1_S11;re:Trc2_S21;im:Trc2_S21;
2.400000000000000E+009;1.562048792839050E-001;1.055879592895508E-001;4.935082513839006E-003;-6.527226418256760E-003;
2.400166666666667E+009;1.563725024461746E-001;1.033861115574837E-001;4.833932034671307E-003;-6.736689712852240E-003;
2.400333333333334E+009;1.566211581230164E-001;1.011073887348175E-001;4.654263146221638E-003;-6.731404457241297E-003;
2.400500000000000E+009;1.567628383636475E-001;9.851021319627762E-002;4.607921466231346E-003;-6.870068144053221E-003;
2.400666666666667E+009;1.569721847772598E-001;9.647480398416519E-002;4.404913168400526E-003;-7.095754612237215E-003;
2.400833333333334E+009;1.576257199048996E-001;9.385762363672257E-002;3.878822317346931E-003;-7.910046726465225E-003;
2.401000000000000E+009;1.574516743421555E-001;9.107966721057892E-002;4.523934330791235E-003;-6.891124881803989E-003;
2.401166666666667E+009;1.580758690834045E-001;8.835988491773605E-002;2.974199829623103E-003;-7.162441965192556E-003;
2.401333333333334E+009;1.583910733461380E-001;8.587948232889175E-002;3.810601541772485E-003;-7.257300894707441E-003;
2.401500000000000E+009;1.588389426469803E-001;8.316282182931900E-002;3.100716974586248E-003;-6.724243517965078E-003;
2.401666666666667E+009;1.594936698675156E-001;8.064762502908707E-002;2.893198980018497E-003;-7.673868909478188E-003;
2.401833333333334E+009;1.599317491054535E-001;7.817767560482025E-002;3.013629699125886E-003;-7.697737310081720E-003;
2.402000000000000E+009;1.607345789670944E-001;7.572852820158005E-002;3.424081718549132E-003;-7.688150275498629E-003;
2.402166666666667E+009;1.617902666330338E-001;7.332728803157806E-002;2.363548381254077E-003;-8.192751556634903E-003;
2.402333333333334E+009;1.626407206058502E-001;7.075019180774689E-002;1.894707093015313E-003;-8.095816709101200E-003;
2.402500000000000E+009;1.638662815093994E-001;6.831791251897812E-002;2.071595983579755E-003;-7.727576885372400E-003;
2.402666666666667E+009;1.644862145185471E-001;6.620687246322632E-002;2.659659134224057E-003;-7.231967989355326E-003;
2.402833333333334E+009;1.662527471780777E-001;6.393795460462570E-002;1.204471220262349E-003;-8.285398595035076E-003;
2.403000000000000E+009;1.674523651599884E-001;6.182887405157089E-002;7.118235807865858E-004;-8.353882469236851E-003;
2.403166666666667E+009;1.688876152038574E-001;5.976313725113869E-002;5.515793454833329E-004;-8.295263163745403E-003;
2.403333333333334E+009;1.700834780931473E-001;5.754259228706360E-002;2.314733719686046E-004;-8.254701271653175E-003;
2.403500000000000E+009;1.717597395181656E-001;5.583270266652107E-002;-4.718733907793649E-005;-8.245915174484253E-003;
2.403666666666667E+009;1.732935905456543E-001;5.402166768908501E-002;-2.105839812429622E-004;-8.155088871717453E-003;
2.403833333333334E+009;1.747885644435883E-001;5.219494923949242E-002;-6.280984962359071E-004;-8.115160278975964E-003;
2.404000000000000E+009;1.759281605482101E-001;5.062485113739967E-002;-9.418861591257155E-004;-8.181751705706120E-003;
2.404166666666667E+009;1.774924099445343E-001;4.906679689884186E-002;-9.854189120233059E-004;-7.953663356602192E-003;
2.404333333333334E+009;1.788591742515564E-001;4.757177084684372E-002;-1.376767526380718E-003;-8.143451064825058E-003;
2.404500000000000E+009;1.803000420331955E-001;4.620559141039848E-002;-1.614428940229118E-003;-7.995585910975933E-003;
2.404666666666667E+009;1.818110942840576E-001;4.516873508691788E-002;-1.758413854986429E-003;-7.801497820764780E-003;
2.404833333333334E+009;1.832611560821533E-001;4.406697675585747E-002;-2.058037091046572E-003;-7.845933549106121E-003;
2.405000000000000E+009;1.842529922723770E-001;4.339757561683655E-002;-2.266584197059274E-003;-7.758226245641708E-003;
2.405166666666667E+009;1.854270249605179E-001;4.256326705217362E-002;-2.513772575184703E-003;-7.573233917355537E-003;
2.405333333333334E+009;1.865082085132599E-001;4.205052554607391E-002;-2.950874622911215E-003;-7.537619210779667E-003;
2.405500000000000E+009;1.878274828195572E-001;4.143493622541428E-002;-2.997453324496746E-003;-7.357411552220583E-003;
2.405666666666667E+009;1.886861622333527E-001;4.095279425382614E-002;-3.382537048310041E-003;-7.146983407437801E-003;
2.405833333333334E+009;1.898934245109558E-001;4.057018458843231E-002;-3.669083351269364E-003;-6.946594454348087E-003;
2.406000000000000E+009;1.906738430261612E-001;4.013403132557869E-002;-3.763748565688729E-003;-6.974781397730112E-003;
2.406166666666667E+009;1.914303153753281E-001;3.988151997327805E-002;-3.953345585614443E-003;-6.805143784731627E-003;
2.406333333333334E+009;1.923039704561234E-001;3.974927216768265E-002;-4.067455418407917E-003;-6.569579243659973E-003;
2.406500000000000E+009;1.928701847791672E-001;3.964589163661003E-002;-4.175933543592691E-003;-6.499264389276505E-003;
2.406666666666667E+009;1.934095919132233E-001;3.942389786243439E-002;-4.310595802962780E-003;-6.288740783929825E-003;
2.406833333333334E+009;1.939874440431595E-001;3.921721503138542E-002;-4.469572566449642E-003;-6.327802315354347E-003;
2.407000000000000E+009;1.940651684999466E-001;3.907592967152596E-002;-4.747643135488033E-003;-6.123017519712448E-003;
2.407166666666667E+009;1.944573223590851E-001;3.881639242172241E-002;-4.917999729514122E-003;-5.846961401402950E-003;
2.407333333333334E+009;1.944689452648163E-001;3.863520175218582E-002;-5.028314422816038E-003;-5.758722312748432E-003;
2.407500000000000E+009;1.943448781967163E-001;3.870887681841850E-002;-5.164661910384893E-003;-5.437655840069056E-003;
2.407666666666667E+009;1.944080740213394E-001;3.823694586753845E-002;-5.362403113394976E-003;-5.390404257923365E-003;
2.407833333333334E+009;1.940310746431351E-001;3.799749538302422E-002;-5.611925851553679E-003;-5.111020989716053E-003;
2.408000000000000E+009;1.939234733581543E-001;3.764929994940758E-002;-5.597792100161314E-003;-5.050616804510355E-003;
2.408166666666667E+009;1.935624629259110E-001;3.726410493254662E-002;-5.524988751858473E-003;-4.962965380400419E-003;
2.408333333333334E+009;1.932578682899475E-001;3.658470883965492E-002;-5.832065362483263E-003;-4.689798690378666E-003;
2.408500000000000E+009;1.927011460065842E-001;3.612069785594940E-002;-5.839846562594175E-003;-4.538604989647865E-003;
2.408666666666667E+009;1.922017782926559E-001;3.542071208357811E-002;-6.042420398443937E-003;-4.318010061979294E-003;
2.408833333333334E+009;1.917376220226288E-001;3.450562432408333E-002;-6.061540450900793E-003;-4.137501120567322E-003;
2.409000000000000E+009;1.909520924091339E-001;3.353990241885185E-002;-6.288807373493910E-003;-4.022009205073118E-003;
2.409166666666667E+009;1.901642829179764E-001;3.243509307503700E-002;-6.042557302862406E-003;-3.698780667036772E-003;
2.409333333333334E+009;1.895739585161209E-001;3.145318478345871E-002;-6.222715135663748E-003;-3.556567011401057E-003;
2.409500000000000E+009;1.886160373687744E-001;3.005263954401016E-002;-6.210729014128447E-003;-3.273929003626108E-003;
2.409666666666667E+009;1.879486441612244E-001;2.867183461785317E-002;-6.194277666509152E-003;-3.288886044174433E-003;
2.409833333333334E+009;1.870646178722382E-001;2.718821540474892E-002;-6.163717247545719E-003;-3.055743873119354E-003;
2.410000000000000E+009;1.863612532615662E-001;2.560436911880970E-002;-6.246013566851616E-003;-2.951838541775942E-003;
2.410166666666667E+009;1.856075972318649E-001;2.382446080446243E-002;-6.195531226694584E-003;-2.762504620477557E-003;
2.410333333333334E+009;1.848783344030380E-001;2.218864671885967E-002;-6.343245506286621E-003;-2.775755943730474E-003;
2.410500000000000E+009;1.840457320213318E-001;2.029229328036308E-002;-6.289423909038305E-003;-2.629755297675729E-003;
2.410666666666667E+009;1.833422034978867E-001;1.826535724103451E-002;-6.295737344771624E-003;-2.551436889916658E-003;
2.410833333333334E+009;1.830046772956848E-001;1.612047664821148E-002;-6.434836890548468E-003;-2.832402242347598E-003;
2.411000000000000E+009;1.825150251388550E-001;1.432878151535988E-002;-6.442980375140905E-003;-2.686275867745280E-003;
2.411166666666667E+009;1.820150762796402E-001;1.203183829784393E-002;-6.614044774323702E-003;-2.596292877569795E-003;
2.411333333333334E+009;1.815687119960785E-001;9.820729494094849E-003;-6.712048780173063E-003;-2.403001999482513E-003;
2.411500000000000E+009;1.811673343181610E-001;7.701261900365353E-003;-6.909428630024195E-003;-2.490546554327011E-003;
2.411666666666667E+009;1.810289025306702E-001;5.589016247540712E-003;-7.069277577102184E-003;-2.254063962027431E-003;
2.411833333333334E+009;1.808529347181320E-001;3.380591748282313E-003;-7.372682914137840E-003;-2.028316492214799E-003;
2.412000000000000E+009;1.812135726213455E-001;9.410285274498165E-004;-7.523936219513416E-003;-1.856563030742109E-003;
2.412166666666667E+009;1.811876446008682E-001;-1.033715205267072E-003;-7.679588161408901E-003;-1.749477582052350E-003;
2.412333333333334E+009;1.814349144697189E-001;-3.187500173225999E-003;-8.017412386834621E-003;-1.554434653371573E-003;
2.412500000000000E+009;1.819400638341904E-001;-5.356985144317150E-003;-8.106228895485401E-003;-1.151335891336203E-003;
2.412666666666667E+009;1.824515163898468E-001;-7.673346437513828E-003;-8.258610032498837E-003;-8.500455296598375E-004;
2.412833333333334E+009;1.830260306596756E-001;-9.673032909631729E-003;-8.463022299110889E-003;-4.674458759836853E-004;
2.413000000000000E+009;1.839154809713364E-001;-1.188386604189873E-002;-8.430185727775097E-003;-2.111996582243592E-004;
2.413166666666667E+009;1.843885183334351E-001;-1.377399079501629E-002;-8.726248517632484E-003;2.014665078604594E-004;
2.413333333333334E+009;1.855348497629166E-001;-1.609022356569767E-002;-8.849222213029862E-003;5.183198372833431E-004;
2.413500000000000E+009;1.862737536430359E-001;-1.795237697660923E-002;-8.652741089463234E-003;8.369202259927988E-004;
2.413666666666667E+009;1.873100847005844E-001;-1.987805962562561E-002;-8.646710775792599E-003;1.396356383338571E-003;
2.413833333333334E+009;1.881618648767471E-001;-2.184621430933476E-002;-8.678905665874481E-003;1.853802124969661E-003;
2.414000000000000E+009;1.892280578613281E-001;-2.347088418900967E-002;-8.634011261165142E-003;2.113080350682139E-003;
2.414166666666667E+009;1.901960968971252E-001;-2.530626952648163E-002;-8.665549568831921E-003;2.545493189245462E-003;
2.414333333333334E+009;1.911383569240570E-001;-2.717331424355507E-002;-8.471576496958733E-003;2.945172134786844E-003;
2.414500000000000E+009;1.923430860042572E-001;-2.849931269884110E-002;-8.183770813047886E-003;3.297681221738458E-003;
2.414666666666667E+009;1.932050883769989E-001;-2.999082021415234E-002;-8.103982545435429E-003;3.674924373626709E-003;
2.414833333333334E+009;1.941646933555603E-001;-3.141127154231072E-002;-7.733403705060482E-003;3.942081239074469E-003;
2.415000000000000E+009;1.951202750205994E-001;-3.265383467078209E-002;-7.757596205919981E-003;4.218740854412317E-003;
2.415166666666667E+009;1.960619688034058E-001;-3.368626162409782E-002;-7.494048681110144E-003;4.607204813510180E-003;
2.415333333333334E+009;1.971306949853897E-001;-3.477155044674873E-002;-7.322944700717926E-003;4.821124486625195E-003;
2.415500000000000E+009;1.979155242443085E-001;-3.539614751935005E-002;-6.972474511712790E-003;5.084194708615542E-003;
2.415666666666667E+009;1.987919509410858E-001;-3.639114648103714E-002;-6.797015666961670E-003;5.327662918716669E-003;
2.415833333333334E+009;1.995169967412949E-001;-3.710069507360458E-002;-6.548297125846148E-003;5.429340526461601E-003;
2.416000000000000E+009;2.000892162322998E-001;-3.783591091632843E-002;-6.262023467570543E-003;5.703587085008621E-003;
2.416166666666667E+009;2.006621658802033E-001;-3.856670111417770E-002;-6.001872010529041E-003;5.785183981060982E-003;
2.416333333333334E+009;2.011837065219879E-001;-3.888506442308426E-002;-5.825161002576351E-003;6.176183000206947E-003;
2.416500000000000E+009;2.014626115560532E-001;-3.936268761754036E-002;-5.427277181297541E-003;6.289751734584570E-003;
2.416666666666667E+009;2.015863806009293E-001;-3.981073945760727E-002;-5.327395163476467E-003;6.539612077176571E-003;
2.416833333333334E+009;2.016184926033020E-001;-4.004843160510063E-002;-5.042118951678276E-003;6.760227028280497E-003;
2.417000000000000E+009;2.017175853252411E-001;-4.042918235063553E-002;-4.831587895751000E-003;6.885517854243517E-003;
2.417166666666667E+009;2.012707144021988E-001;-4.060044512152672E-002;-4.340477287769318E-003;6.807565689086914E-003;
2.417333333333334E+009;2.009459733963013E-001;-4.059151932597160E-002;-4.214529413729906E-003;7.061948999762535E-003;
2.417500000000000E+009;2.007279396057129E-001;-4.077931120991707E-002;-3.876806236803532E-003;7.216831203550100E-003;
2.417666666666667E+009;2.001716494560242E-001;-4.080046713352203E-002;-3.711706493049860E-003;7.220414467155933E-003;
2.417833333333334E+009;1.997750848531723E-001;-4.071208089590073E-002;-3.217751393094659E-003;7.142820861190558E-003;
2.418000000000000E+009;1.991552710533142E-001;-4.067914187908173E-002;-2.815549029037356E-003;7.239381317049265E-003;
2.418166666666667E+009;1.984092444181442E-001;-4.095136374235153E-002;-2.664721338078380E-003;7.370624691247940E-003;
2.418333333333334E+009;1.974288523197174E-001;-4.094341769814491E-002;-2.288518473505974E-003;7.413398008793593E-003;
2.418500000000000E+009;1.965625286102295E-001;-4.116142541170120E-002;-2.140517346560955E-003;7.358715403825045E-003;
2.418666666666667E+009;1.958357095718384E-001;-4.127446934580803E-002;-1.884030527435243E-003;7.471227552741766E-003;
2.418833333333334E+009;1.947005987167358E-001;-4.159597679972649E-002;-1.421630382537842E-003;7.283564191311598E-003;
2.419000000000000E+009;1.935358196496964E-001;-4.185888171195984E-002;-1.252310234121978E-003;7.319336291402578E-003;
2.419166666666667E+009;1.924901604652405E-001;-4.241199046373367E-002;-1.024475554004312E-003;7.197259459644556E-003;
2.419333333333334E+009;1.913309544324875E-001;-4.301380366086960E-002;-8.394186152145267E-004;7.049383129924536E-003;
2.419500000000000E+009;1.898427456617355E-001;-4.358568415045738E-002;-7.234918302856386E-004;6.861552596092224E-003;
2.419666666666667E+009;1.886078864336014E-001;-4.446695744991303E-002;-4.819204332306981E-004;6.809507496654987E-003;
2.419833333333334E+009;1.872117221355438E-001;-4.529250413179398E-002;-4.109937290195376E-004;6.578545086085796E-003;
2.420000000000000E+009;1.858575642108917E-001;-4.605770483613014E-002;-2.936994133051485E-004;6.569538731127977E-003;
2.420166666666667E+009;1.845421046018601E-001;-4.722252488136292E-002;-1.418986648786813E-004;6.442921701818705E-003;
2.420333333333334E+009;1.830082982778549E-001;-4.831015318632126E-002;-8.453899499727413E-005;6.458760239183903E-003;
2.420500000000000E+009;1.816510707139969E-001;-4.970623180270195E-002;3.934619599021971E-005;6.323684472590685E-003;
2.420666666666667E+009;1.802328228950501E-001;-5.060625448822975E-002;2.527052420191467E-004;6.408572196960449E-003;
2.420833333333334E+009;1.789503693580627E-001;-5.205966159701347E-002;2.897198428399861E-004;6.165512837469578E-003;
2.421000000000000E+009;1.774725317955017E-001;-5.359502136707306E-002;2.911311457864940E-004;6.212683860212565E-003;
2.421166666666667E+009;1.763782501220703E-001;-5.526995286345482E-002;5.470638279803097E-004;6.113355048000813E-003;
2.421333333333334E+009;1.748364865779877E-001;-5.649927631020546E-002;6.613112054765225E-004;6.316336803138256E-003;
2.421500000000000E+009;1.737156510353088E-001;-5.843976885080338E-002;8.107828325591981E-004;6.379949394613504E-003;
2.421666666666667E+009;1.726308017969132E-001;-5.993552878499031E-002;8.931577322073281E-004;6.301320623606443E-003;
2.421833333333334E+009;1.716585010290146E-001;-6.171274557709694E-002;8.721643243916333E-004;6.214821245521307E-003;
2.422000000000000E+009;1.707174628973007E-001;-6.349471956491470E-002;1.066439202986658E-003;6.222862750291824E-003;
2.422166666666667E+009;1.699100434780121E-001;-6.525880098342896E-002;1.156416023150086E-003;6.323306355625391E-003;
2.422333333333334E+009;1.690718978643417E-001;-6.713053584098816E-002;1.249402062967420E-003;6.235736422240734E-003;
2.422500000000000E+009;1.682227998971939E-001;-6.889916956424713E-002;1.470270683057606E-003;6.172323599457741E-003;
2.422666666666667E+009;1.676176190376282E-001;-7.077979296445847E-002;1.431118696928024E-003;6.189809180796146E-003;
2.422833333333334E+009;1.672633737325668E-001;-7.277375459671021E-002;1.671393401920795E-003;6.193045992404223E-003;
2.423000000000000E+009;1.665574610233307E-001;-7.459403574466705E-002;1.840247889049351E-003;6.179031450301409E-003;
2.423166666666667E+009;1.663516759872437E-001;-7.634127885103226E-002;1.973068574443460E-003;6.147541105747223E-003;
2.423333333333334E+009;1.660202890634537E-001;-7.811026275157929E-002;2.219006186351180E-003;6.242965348064899E-003;
2.423500000000000E+009;1.659253686666489E-001;-7.974111288785934E-002;2.389565808698535E-003;6.129974965006113E-003;
2.423666666666667E+009;1.658650934696198E-001;-8.143628388643265E-002;2.641591010615230E-003;6.177964620292187E-003;
2.423833333333334E+009;1.657449007034302E-001;-8.305974304676056E-002;2.806039759889245E-003;5.945316981524229E-003;
2.424000000000000E+009;1.658309400081635E-001;-8.467665314674377E-002;3.085468197241426E-003;6.114081013947725E-003;
2.424166666666667E+009;1.657117605209351E-001;-8.619743585586548E-002;3.319474635645747E-003;6.095170974731445E-003;
2.424333333333334E+009;1.658624857664108E-001;-8.776558935642242E-002;3.381920978426933E-003;5.812854506075382E-003;
2.424500000000000E+009;1.660450398921967E-001;-8.942157030105591E-002;3.668078454211354E-003;5.770483519881964E-003;
2.424666666666667E+009;1.662635505199432E-001;-9.056049585342407E-002;4.005245864391327E-003;5.785456392914057E-003;
2.424833333333334E+009;1.666914522647858E-001;-9.187009930610657E-002;4.022458568215370E-003;5.480007734149694E-003;
2.425000000000000E+009;1.668283641338348E-001;-9.297471493482590E-002;4.328719805926085E-003;5.452497862279415E-003;
2.425166666666667E+009;1.670195460319519E-001;-9.409571439027786E-002;4.629895556718111E-003;5.183696281164885E-003;
2.425333333333334E+009;1.672373414039612E-001;-9.503763169050217E-002;4.661179147660732E-003;5.094692576676607E-003;
2.425500000000000E+009;1.675517559051514E-001;-9.613332152366638E-002;4.899229854345322E-003;4.980645608156920E-003;
2.425666666666667E+009;1.677757203578949E-001;-9.666036069393158E-002;5.057106725871563E-003;4.839761182665825E-003;
2.425833333333334E+009;1.679561138153076E-001;-9.771728515625000E-002;5.085615441203117E-003;4.634029231965542E-003;
2.426000000000000E+009;1.682882159948349E-001;-9.813267737627029E-002;5.250981077551842E-003;4.505028948187828E-003;
2.426166666666667E+009;1.685309261083603E-001;-9.878694266080856E-002;5.301877390593290E-003;4.229565151035786E-003;
2.426333333333334E+009;1.685610264539719E-001;-9.946893155574799E-002;5.610040389001370E-003;4.172156564891338E-003;
2.426500000000000E+009;1.689060628414154E-001;-9.984409809112549E-002;5.733642727136612E-003;3.966546617448330E-003;
2.426666666666667E+009;1.690603196620941E-001;-1.003504022955895E-001;5.937304347753525E-003;3.845819504931569E-003;
2.426833333333334E+009;1.692026406526566E-001;-1.006584763526917E-001;6.079333834350109E-003;3.463521366938949E-003;
2.427000000000000E+009;1.691605299711227E-001;-1.011290922760963E-001;6.000729743391275E-003;3.332680324092507E-003;
2.427166666666667E+009;1.691329926252365E-001;-1.013660877943039E-001;6.368993315845728E-003;3.276266856119037E-003;
2.427333333333334E+009;1.690110564231873E-001;-1.018351241946220E-001;6.308243609964848E-003;2.896763850003481E-003;
2.427500000000000E+009;1.687021851539612E-001;-1.023304015398026E-001;6.427197251468897E-003;2.748006954789162E-003;
2.427666666666667E+009;1.684253215789795E-001;-1.025701016187668E-001;6.441169884055853E-003;2.431934000924230E-003;
