# Version 1.00
#
freq[Hz];re:Trc1_S11;im:Trc1_S11;re:Trc2_S21;im:Trc2_S21;
2.400000000000000E+009;1.564823985099793E-001;1.057066321372986E-001;5.055018234997988E-003;-6.780787836760283E-003;
2.400166666666667E+009;1.564403325319290E-001;1.034304499626160E-001;4.799906164407730E-003;-6.763890851289034E-003;
2.400333333333334E+009;1.567812860012054E-001;1.012646034359932E-001;4.752494860440493E-003;-6.913754157721996E-003;
2.400500000000000E+009;1.568234115839005E-001;9.881673753261566E-002;4.549776203930378E-003;-7.016796618700028E-003;
2.400666666666667E+009;1.572481393814087E-001;9.641220420598984E-002;4.411855712532997E-003;-7.080184295773506E-003;
2.400833333333334E+009;1.574401557445526E-001;9.378582239151001E-002;4.145002923905850E-003;-7.132609374821186E-003;
2.401000000000000E+009;1.577279567718506E-001;9.111986309289932E-002;4.072133451700211E-003;-7.455143146216869E-003;
2.401166666666667E+009;1.581126898527145E-001;8.866851776838303E-002;3.962748683989048E-003;-7.585976738482714E-003;
2.401333333333334E+009;1.584936976432800E-001;8.601833879947662E-002;3.696172963827848E-003;-7.808756083250046E-003;
2.401500000000000E+009;1.592302173376083E-001;8.337396383285523E-002;3.435027552768588E-003;-7.840850390493870E-003;
2.401666666666667E+009;1.595316380262375E-001;8.076307922601700E-002;3.278168616816402E-003;-8.060860447585583E-003;
2.401833333333334E+009;1.602046191692352E-001;7.812693715095520E-002;2.945179352536798E-003;-8.226242847740650E-003;
2.402000000000000E+009;1.611336320638657E-001;7.566876709461212E-002;2.428650623187423E-003;-8.264253847301006E-003;
2.402166666666667E+009;1.618019342422485E-001;7.328861951828003E-002;2.328906208276749E-003;-8.332944475114346E-003;
2.402333333333334E+009;1.628527492284775E-001;7.077609002590179E-002;2.026691567152739E-003;-8.422233164310455E-003;
2.402500000000000E+009;1.639024615287781E-001;6.859952956438065E-002;1.812969334423542E-003;-8.438199758529663E-003;
2.402666666666667E+009;1.648332774639130E-001;6.647984683513641E-002;1.472214236855507E-003;-8.480350486934185E-003;
2.402833333333334E+009;1.662009060382843E-001;6.411063671112061E-002;1.040838193148375E-003;-8.592631667852402E-003;
2.403000000000000E+009;1.674818843603134E-001;6.193931400775909E-002;9.120716713368893E-004;-8.627929724752903E-003;
2.403166666666667E+009;1.691660732030869E-001;5.984924361109734E-002;4.655848897527903E-004;-8.478689007461071E-003;
2.403333333333334E+009;1.703443080186844E-001;5.783553794026375E-002;2.332603617105633E-004;-8.425473235547543E-003;
2.403500000000000E+009;1.719190478324890E-001;5.579459667205811E-002;-1.163153283414431E-004;-8.505919948220253E-003;
2.403666666666667E+009;1.734169721603394E-001;5.408012121915817E-002;-2.660354948602617E-004;-8.438139222562313E-003;
2.403833333333334E+009;1.749896109104157E-001;5.240924283862114E-002;-5.148626514710486E-004;-8.326862938702107E-003;
2.404000000000000E+009;1.761184036731720E-001;5.058648437261581E-002;-9.942683391273022E-004;-8.370585739612579E-003;
2.404166666666667E+009;1.778238415718079E-001;4.921196401119232E-002;-8.729549590498209E-004;-8.445116691291332E-003;
2.404333333333334E+009;1.791183501482010E-001;4.778207838535309E-002;-1.515122596174479E-003;-8.077432401478291E-003;
2.404500000000000E+009;1.804754883050919E-001;4.629679024219513E-002;-1.581641263328493E-003;-8.152078837156296E-003;
2.404666666666667E+009;1.817712038755417E-001;4.516695067286491E-002;-1.893977168947458E-003;-8.047549054026604E-003;
2.404833333333334E+009;1.831837743520737E-001;4.409782961010933E-002;-2.267483854666352E-003;-7.914609275758266E-003;
2.405000000000000E+009;1.843851953744888E-001;4.332023113965988E-002;-2.391499234363437E-003;-8.040985092520714E-003;
2.405166666666667E+009;1.855846941471100E-001;4.260858520865440E-002;-2.587209455668926E-003;-7.882700301706791E-003;
2.405333333333334E+009;1.866992413997650E-001;4.201211407780647E-002;-2.879890380427241E-003;-7.765068206936121E-003;
2.405500000000000E+009;1.879482716321945E-001;4.147783666849136E-002;-3.152650780975819E-003;-7.607933133840561E-003;
2.405666666666667E+009;1.889387816190720E-001;4.096131399273872E-002;-3.433172823861241E-003;-7.451748475432396E-003;
2.405833333333334E+009;1.899456083774567E-001;4.067622125148773E-002;-3.520500613376498E-003;-7.324865553528070E-003;
2.406000000000000E+009;1.908731013536453E-001;4.027459770441055E-002;-3.925155382603407E-003;-7.052682340145111E-003;
2.406166666666667E+009;1.917253732681274E-001;3.992902487516403E-002;-4.195168614387512E-003;-6.932439748197794E-003;
2.406333333333334E+009;1.923952698707581E-001;3.982659056782723E-002;-4.279949702322483E-003;-6.888404022902250E-003;
2.406500000000000E+009;1.930532604455948E-001;3.970354422926903E-002;-4.518008325248957E-003;-6.688821129500866E-003;
2.406666666666667E+009;1.935742348432541E-001;3.938563168048859E-002;-4.669324029237032E-003;-6.476837676018477E-003;
2.406833333333334E+009;1.941039562225342E-001;3.917726501822472E-002;-4.731579218059778E-003;-6.403371691703796E-003;
2.407000000000000E+009;1.942893564701080E-001;3.924083337187767E-002;-5.016701761633158E-003;-6.189637351781130E-003;
2.407166666666667E+009;1.946930587291718E-001;3.887554258108139E-002;-5.128532182425261E-003;-5.948550533503294E-003;
2.407333333333334E+009;1.946314573287964E-001;3.870232775807381E-002;-5.287322681397200E-003;-5.764573812484741E-003;
2.407500000000000E+009;1.946176737546921E-001;3.866919130086899E-002;-5.527199711650610E-003;-5.779303610324860E-003;
2.407666666666667E+009;1.947420090436935E-001;3.832690045237541E-002;-5.616251844912767E-003;-5.705672781914473E-003;
2.407833333333334E+009;1.943335384130478E-001;3.820330649614334E-002;-5.724874325096607E-003;-5.239078309386969E-003;
2.408000000000000E+009;1.941909044981003E-001;3.763153403997421E-002;-5.996273830533028E-003;-5.085112061351538E-003;
2.408166666666667E+009;1.937829405069351E-001;3.720719367265701E-002;-5.782961379736662E-003;-4.852098412811756E-003;
2.408333333333334E+009;1.934529393911362E-001;3.651520237326622E-002;-6.074151489883661E-003;-4.640641622245312E-003;
2.408500000000000E+009;1.930270344018936E-001;3.610148280858994E-002;-6.217224523425102E-003;-4.467760678380728E-003;
2.408666666666667E+009;1.925016045570374E-001;3.527539595961571E-002;-6.168620195239782E-003;-4.391266964375973E-003;
2.408833333333334E+009;1.919897198677063E-001;3.453622385859489E-002;-6.322761066257954E-003;-4.138550721108913E-003;
2.409000000000000E+009;1.912319213151932E-001;3.350971639156342E-002;-6.422280333936214E-003;-3.956267610192299E-003;
2.409166666666667E+009;1.904587745666504E-001;3.245614841580391E-002;-6.463939789682627E-003;-3.651794278994203E-003;
2.409333333333334E+009;1.898480951786041E-001;3.134142234921455E-002;-6.549736950546503E-003;-3.520932747051120E-003;
2.409500000000000E+009;1.890653669834137E-001;2.994867973029614E-002;-6.541690323501825E-003;-3.232399700209498E-003;
2.409666666666667E+009;1.881954669952393E-001;2.855775877833366E-002;-6.556547246873379E-003;-3.300533164292574E-003;
2.409833333333334E+009;1.874255090951920E-001;2.716147899627686E-002;-6.563558243215084E-003;-2.976302057504654E-003;
2.410000000000000E+009;1.867845356464386E-001;2.537745423614979E-002;-6.686278618872166E-003;-2.981359604746103E-003;
2.410166666666667E+009;1.860039979219437E-001;2.369775064289570E-002;-6.518578622490168E-003;-2.863981528207660E-003;
2.410333333333334E+009;1.851758807897568E-001;2.189187519252300E-002;-6.676604505628347E-003;-2.703172154724598E-003;
2.410500000000000E+009;1.843790262937546E-001;1.998519711196423E-002;-6.673179566860199E-003;-2.730732783675194E-003;
2.410666666666667E+009;1.837150007486343E-001;1.802170462906361E-002;-6.667454261332750E-003;-2.523357747122645E-003;
2.410833333333334E+009;1.833734363317490E-001;1.590752787888050E-002;-6.680057849735022E-003;-2.494983840733767E-003;
2.411000000000000E+009;1.826103627681732E-001;1.383512932807207E-002;-6.767604500055313E-003;-2.545909024775028E-003;
2.411166666666667E+009;1.821170300245285E-001;1.187086012214422E-002;-6.868387106806040E-003;-2.385217230767012E-003;
2.411333333333334E+009;1.818256676197052E-001;9.468983858823776E-003;-7.036587223410606E-003;-2.343906089663506E-003;
2.411500000000000E+009;1.813518702983856E-001;7.415743079036474E-003;-7.159209810197353E-003;-2.073752693831921E-003;
2.411666666666667E+009;1.814231723546982E-001;5.289850756525993E-003;-7.554002571851015E-003;-1.979341730475426E-003;
2.411833333333334E+009;1.811905652284622E-001;3.034285269677639E-003;-7.574301213026047E-003;-1.774825504980981E-003;
2.412000000000000E+009;1.813414841890335E-001;5.908150924369693E-004;-7.606929168105125E-003;-1.666627009399235E-003;
2.412166666666667E+009;1.813147664070129E-001;-1.314996159635484E-003;-7.909102365374565E-003;-1.410096418112516E-003;
2.412333333333334E+009;1.815403848886490E-001;-3.481853520497680E-003;-8.136883378028870E-003;-1.206693355925381E-003;
2.412500000000000E+009;1.820533424615860E-001;-5.835394375026226E-003;-8.147162385284901E-003;-9.404348675161600E-004;
2.412666666666667E+009;1.824626475572586E-001;-7.892500609159470E-003;-8.450975641608238E-003;-6.730710738338530E-004;
2.412833333333334E+009;1.831788867712021E-001;-9.948985651135445E-003;-8.632329292595387E-003;-3.589053230825812E-004;
2.413000000000000E+009;1.838497072458267E-001;-1.220815535634756E-002;-8.704384788870812E-003;3.712697071023285E-005;
2.413166666666667E+009;1.844092458486557E-001;-1.411702763289213E-002;-8.884327486157417E-003;3.595598100218922E-004;
2.413333333333334E+009;1.854390352964401E-001;-1.635886728763580E-002;-8.875737898051739E-003;8.040767279453576E-004;
2.413500000000000E+009;1.861686259508133E-001;-1.840157248079777E-002;-8.854009211063385E-003;1.126082497648895E-003;
2.413666666666667E+009;1.871533691883087E-001;-2.033388800919056E-002;-8.734534494578838E-003;1.659848028793931E-003;
2.413833333333334E+009;1.882051974534988E-001;-2.209386602044106E-002;-8.741710335016251E-003;1.980080967769027E-003;
2.414000000000000E+009;1.891298890113831E-001;-2.386146783828735E-002;-8.824972435832024E-003;2.349830465391278E-003;
2.414166666666667E+009;1.902398765087128E-001;-2.562898397445679E-002;-8.546399883925915E-003;2.810632577165961E-003;
2.414333333333334E+009;1.912037730216980E-001;-2.753439359366894E-002;-8.366625756025314E-003;3.260072553530335E-003;
2.414500000000000E+009;1.922360956668854E-001;-2.882180921733379E-002;-8.260246366262436E-003;3.596015274524689E-003;
2.414666666666667E+009;1.932083070278168E-001;-3.019794635474682E-002;-8.241197094321251E-003;3.928609658032656E-003;
2.414833333333334E+009;1.942101567983627E-001;-3.163455054163933E-002;-8.024757727980614E-003;4.121597856283188E-003;
2.415000000000000E+009;1.950967162847519E-001;-3.280817344784737E-002;-7.604724727571011E-003;4.419626202434301E-003;
2.415166666666667E+009;1.960699260234833E-001;-3.398355096578598E-002;-7.409199140965939E-003;4.757533781230450E-003;
2.415333333333334E+009;1.970421075820923E-001;-3.502007946372032E-002;-7.380868308246136E-003;5.067434161901474E-003;
2.415500000000000E+009;1.980499774217606E-001;-3.565244004130364E-002;-7.032001391053200E-003;5.281566642224789E-003;
2.415666666666667E+009;1.988587081432343E-001;-3.655189648270607E-002;-6.780547555536032E-003;5.475831218063831E-003;
2.415833333333334E+009;1.995215117931366E-001;-3.733969107270241E-002;-6.575556471943855E-003;5.952841136604548E-003;
2.416000000000000E+009;2.000872343778610E-001;-3.810459002852440E-002;-6.314401049166918E-003;6.029535084962845E-003;
2.416166666666667E+009;2.006816715002060E-001;-3.879155218601227E-002;-5.977872759103775E-003;6.231404840946198E-003;
2.416333333333334E+009;2.010390460491180E-001;-3.926833719015122E-002;-5.679727066308260E-003;6.426233332604170E-003;
2.416500000000000E+009;2.014103680849075E-001;-3.966778144240379E-002;-5.563240498304367E-003;6.618405692279339E-003;
2.416666666666667E+009;2.016450911760330E-001;-4.019636660814285E-002;-5.175306927412748E-003;6.879336200654507E-003;
2.416833333333334E+009;2.015956193208695E-001;-4.032578691840172E-002;-4.996684379875660E-003;7.014565169811249E-003;
2.417000000000000E+009;2.016183137893677E-001;-4.059878736734390E-002;-4.483324009925127E-003;6.994155701249838E-003;
2.417166666666667E+009;2.012492418289185E-001;-4.079325869679451E-002;-4.329416435211897E-003;7.196193095296621E-003;
2.417333333333334E+009;2.010537832975388E-001;-4.085082560777664E-002;-4.076562821865082E-003;7.272193208336830E-003;
2.417500000000000E+009;2.006890922784805E-001;-4.109366238117218E-002;-3.589136991649866E-003;7.453975733369589E-003;
2.417666666666667E+009;2.001612037420273E-001;-4.106492176651955E-002;-3.449097508564591E-003;7.515554782003164E-003;
2.417833333333334E+009;1.997589021921158E-001;-4.111091047525406E-002;-3.064139513298869E-003;7.517222315073013E-003;
2.418000000000000E+009;1.991273909807205E-001;-4.095752537250519E-002;-2.799241105094552E-003;7.560783531516790E-003;
2.418166666666667E+009;1.983423084020615E-001;-4.127654805779457E-002;-2.561525441706181E-003;7.463496178388596E-003;
2.418333333333334E+009;1.974600702524185E-001;-4.124714434146881E-002;-2.180340467020869E-003;7.638551294803619E-003;
2.418500000000000E+009;1.964522600173950E-001;-4.152807593345642E-002;-2.003601286560297E-003;7.484785746783018E-003;
2.418666666666667E+009;1.957665234804153E-001;-4.155365750193596E-002;-1.565051614306867E-003;7.517701946198940E-003;
2.418833333333334E+009;1.946166008710861E-001;-4.192306473851204E-002;-1.277339761145413E-003;7.503575179725885E-003;
2.419000000000000E+009;1.935363560914993E-001;-4.228398948907852E-002;-1.220160513184965E-003;7.357779424637556E-003;
2.419166666666667E+009;1.923626959323883E-001;-4.274124652147293E-002;-8.272207924164832E-004;7.398575078696013E-003;
2.419333333333334E+009;1.911134868860245E-001;-4.337282106280327E-002;-7.286335458047688E-004;7.285825908184052E-003;
2.419500000000000E+009;1.898480802774429E-001;-4.385478422045708E-002;-5.550616770051420E-004;7.078114431351423E-003;
2.419666666666667E+009;1.884531676769257E-001;-4.469506442546845E-002;-3.949715755879879E-004;7.016011513769627E-003;
2.419833333333334E+009;1.871381700038910E-001;-4.531592503190041E-002;-9.969423990696669E-005;6.751854438334703E-003;
2.420000000000000E+009;1.856917142868042E-001;-4.634286090731621E-002;3.139380714856088E-005;6.737071555107832E-003;
2.420166666666667E+009;1.843910813331604E-001;-4.742512479424477E-002;1.575239439262077E-004;6.684275344014168E-003;
2.420333333333334E+009;1.829368174076080E-001;-4.852952435612679E-002;2.028971648542211E-004;6.582544185221195E-003;
2.420500000000000E+009;1.814634203910828E-001;-4.977191239595413E-002;2.336285397177562E-004;6.501974537968636E-003;
2.420666666666667E+009;1.800829917192459E-001;-5.096917971968651E-002;4.868676187470555E-004;6.454885937273502E-003;
2.420833333333334E+009;1.787091493606567E-001;-5.252873152494431E-002;5.922988639213145E-004;6.483017001301050E-003;
2.421000000000000E+009;1.774238049983978E-001;-5.383997410535812E-002;5.656929570250213E-004;6.598262581974268E-003;
2.421166666666667E+009;1.762935668230057E-001;-5.543171614408493E-002;6.729683955200017E-004;6.357557140290737E-003;
2.421333333333334E+009;1.746719330549240E-001;-5.671048909425736E-002;7.909083506092429E-004;6.410275585949421E-003;
2.421500000000000E+009;1.735689043998718E-001;-5.877070873975754E-002;9.462839807383716E-004;6.452161818742752E-003;
2.421666666666667E+009;1.724008172750473E-001;-6.021616607904434E-002;9.871182264760137E-004;6.461001001298428E-003;
2.421833333333334E+009;1.715337187051773E-001;-6.204090267419815E-002;1.116682193242014E-003;6.342069245874882E-003;
2.422000000000000E+009;1.704661995172501E-001;-6.364902853965759E-002;1.312406500801444E-003;6.416814401745796E-003;
2.422166666666667E+009;1.698101162910461E-001;-6.565944850444794E-002;1.310202642343938E-003;6.315527483820915E-003;
2.422333333333334E+009;1.688569933176041E-001;-6.742998212575913E-002;1.585231628268957E-003;6.380716338753700E-003;
2.422500000000000E+009;1.679057925939560E-001;-6.915402412414551E-002;1.742148771882057E-003;6.242243573069572E-003;
2.422666666666667E+009;1.674741208553314E-001;-7.092484086751938E-002;1.932696090079844E-003;6.298536900430918E-003;
2.422833333333334E+009;1.668608784675598E-001;-7.286870479583740E-002;1.885817153379321E-003;6.355461198836565E-003;
2.423000000000000E+009;1.664870679378510E-001;-7.478427886962891E-002;2.208686433732510E-003;6.288787350058556E-003;
2.423166666666667E+009;1.660412251949310E-001;-7.655584812164307E-002;2.332243137061596E-003;6.340399384498596E-003;
2.423333333333334E+009;1.657698899507523E-001;-7.826536148786545E-002;2.511242404580116E-003;6.244009826332331E-003;
2.423500000000000E+009;1.656854003667831E-001;-7.997372746467590E-002;2.636776305735111E-003;6.208659615367651E-003;
2.423666666666667E+009;1.656207144260407E-001;-8.175759017467499E-002;2.885479945689440E-003;6.301705259829760E-003;
2.423833333333334E+009;1.655180603265762E-001;-8.330748230218887E-002;3.232755698263645E-003;6.132182199507952E-003;
2.424000000000000E+009;1.655371934175491E-001;-8.494101464748383E-002;3.377212444320321E-003;6.129857618361712E-003;
2.424166666666667E+009;1.655433923006058E-001;-8.641034364700317E-002;3.588993335142732E-003;5.957406014204025E-003;
2.424333333333334E+009;1.656662672758102E-001;-8.790140599012375E-002;3.804004052653909E-003;5.897714290767908E-003;
2.424500000000000E+009;1.658828109502792E-001;-8.945262432098389E-002;4.144164733588696E-003;5.725689232349396E-003;
2.424666666666667E+009;1.660818606615067E-001;-9.068892151117325E-002;4.321136511862278E-003;5.616510752588511E-003;
2.424833333333334E+009;1.663796454668045E-001;-9.204690158367157E-002;4.483353346586227E-003;5.503056105226278E-003;
2.425000000000000E+009;1.665054410696030E-001;-9.303145855665207E-002;4.593587946146727E-003;5.397845059633255E-003;
2.425166666666667E+009;1.667590290307999E-001;-9.418671578168869E-002;4.843763541430235E-003;5.067002959549427E-003;
2.425333333333334E+009;1.668894141912460E-001;-9.512655436992645E-002;5.016997922211886E-003;4.869649186730385E-003;
2.425500000000000E+009;1.671587973833084E-001;-9.626443684101105E-002;5.037177819758654E-003;4.797611385583878E-003;
2.425666666666667E+009;1.675612777471542E-001;-9.688272327184677E-002;5.175588186830282E-003;4.605910275131464E-003;
2.425833333333334E+009;1.675818562507629E-001;-9.784527868032455E-002;5.272527225315571E-003;4.469579551368952E-003;
2.426000000000000E+009;1.680451184511185E-001;-9.833224862813950E-002;5.577504169195890E-003;4.367158748209477E-003;
2.426166666666667E+009;1.682837307453156E-001;-9.890025854110718E-002;5.639177747070789E-003;4.125753883272409E-003;
2.426333333333334E+009;1.681834012269974E-001;-9.958382695913315E-002;5.827875342220068E-003;3.904406214132905E-003;
2.426500000000000E+009;1.685377210378647E-001;-1.000302731990814E-001;5.868211388587952E-003;3.767201676964760E-003;
2.426666666666667E+009;1.687343716621399E-001;-1.004833802580833E-001;5.949188023805618E-003;3.580641467124224E-003;
2.426833333333334E+009;1.687388867139816E-001;-1.008076071739197E-001;6.087930873036385E-003;3.345774719491601E-003;
2.427000000000000E+009;1.687418073415756E-001;-1.012909412384033E-001;6.320122163742781E-003;3.118051216006279E-003;
2.427166666666667E+009;1.687308996915817E-001;-1.014969125390053E-001;6.280449219048023E-003;2.839281922206283E-003;
2.427333333333334E+009;1.686901152133942E-001;-1.019375994801521E-001;6.225236691534519E-003;2.753339009359479E-003;
2.427500000000000E+009;1.683808863162994E-001;-1.022946238517761E-001;6.421969272196293E-003;2.576258033514023E-003;
2.427666666666667E+009;1.680808812379837E-001;-1.025165095925331E-001;6.528620608150959E-003;2.144329017028213E-003;
