# Version 1.00
#
freq[Hz];re:Trc1_S11;im:Trc1_S11;re:Trc2_S21;im:Trc2_S21;
2.400000000000000E+009;1.565682440996170E-001;1.057572066783905E-001;5.229736212641001E-003;-6.787784863263369E-003;
2.400166666666667E+009;1.565815657377243E-001;1.033698692917824E-001;4.972429480403662E-003;-6.784622091799974E-003;
2.400333333333334E+009;1.568560004234314E-001;1.012502759695053E-001;4.854833241552115E-003;-6.807424128055573E-003;
2.400500000000000E+009;1.570355445146561E-001;9.866102039813995E-002;4.725424572825432E-003;-6.829260848462582E-003;
2.400666666666667E+009;1.572598665952683E-001;9.631878137588501E-002;4.520998802036047E-003;-7.063590455800295E-003;
2.400833333333334E+009;1.574579328298569E-001;9.361420571804047E-002;4.376513417810202E-003;-7.175226695835590E-003;
2.401000000000000E+009;1.577485799789429E-001;9.106548875570297E-002;4.356337245553732E-003;-7.337568793445826E-003;
2.401166666666667E+009;1.580636352300644E-001;8.848766982555389E-002;4.186335951089859E-003;-7.577860262244940E-003;
2.401333333333334E+009;1.587183177471161E-001;8.583367615938187E-002;3.861078526824713E-003;-7.749135605990887E-003;
2.401500000000000E+009;1.591467112302780E-001;8.322241157293320E-002;3.722526365891099E-003;-7.854418829083443E-003;
2.401666666666667E+009;1.595482379198074E-001;8.058309555053711E-002;3.429111326113343E-003;-8.118731901049614E-003;
2.401833333333334E+009;1.602066606283188E-001;7.811025530099869E-002;3.206556197255850E-003;-8.182171732187271E-003;
2.402000000000000E+009;1.611284464597702E-001;7.557368278503418E-002;3.052467247471213E-003;-8.369391784071922E-003;
2.402166666666667E+009;1.618563085794449E-001;7.320320606231690E-002;2.563469344750047E-003;-8.420767262578011E-003;
2.402333333333334E+009;1.628416031599045E-001;7.064333558082581E-002;2.097568009048700E-003;-8.459266275167465E-003;
2.402500000000000E+009;1.638856828212738E-001;6.829798221588135E-002;2.020977903157473E-003;-8.476819843053818E-003;
2.402666666666667E+009;1.650570482015610E-001;6.620568037033081E-002;1.639754627831280E-003;-8.656773716211319E-003;
2.402833333333334E+009;1.661918163299561E-001;6.408756226301193E-002;1.407967065460980E-003;-8.689463138580322E-003;
2.403000000000000E+009;1.674435138702393E-001;6.175465136766434E-002;9.216022444888949E-004;-8.837328292429447E-003;
2.403166666666667E+009;1.690665632486343E-001;5.960413068532944E-002;7.221115520223975E-004;-8.667946793138981E-003;
2.403333333333334E+009;1.704221516847611E-001;5.764334276318550E-002;4.299913125578314E-004;-8.852847851812840E-003;
2.403500000000000E+009;1.716590374708176E-001;5.574520677328110E-002;2.216547873103991E-004;-8.669385686516762E-003;
2.403666666666667E+009;1.734432578086853E-001;5.393699929118156E-002;-1.939034991664812E-004;-8.673857897520065E-003;
2.403833333333334E+009;1.749154031276703E-001;5.208717286586762E-002;-4.576839855872095E-004;-8.620729669928551E-003;
2.404000000000000E+009;1.761571317911148E-001;5.056693032383919E-002;-8.141054422594607E-004;-8.442074060440064E-003;
2.404166666666667E+009;1.776904612779617E-001;4.898320510983467E-002;-7.643530843779445E-004;-8.475308306515217E-003;
2.404333333333334E+009;1.790964007377625E-001;4.755725339055061E-002;-1.295782160013914E-003;-8.635344915091991E-003;
2.404500000000000E+009;1.805096566677094E-001;4.624902456998825E-002;-1.612905529327691E-003;-8.358564227819443E-003;
2.404666666666667E+009;1.818091869354248E-001;4.499978572130203E-002;-1.819537137635052E-003;-8.504700846970081E-003;
2.404833333333334E+009;1.832843124866486E-001;4.385508224368095E-002;-2.067779423668981E-003;-8.319236338138580E-003;
2.405000000000000E+009;1.843571662902832E-001;4.314657673239708E-002;-2.411191351711750E-003;-8.228967897593975E-003;
2.405166666666667E+009;1.855900287628174E-001;4.241020604968071E-002;-2.560183638706803E-003;-8.216468617320061E-003;
2.405333333333334E+009;1.868323236703873E-001;4.176971316337585E-002;-2.982987556606531E-003;-7.951342500746250E-003;
2.405500000000000E+009;1.879778653383255E-001;4.120527580380440E-002;-3.190717194229364E-003;-7.776187267154455E-003;
2.405666666666667E+009;1.888701617717743E-001;4.067707434296608E-002;-3.479647450149059E-003;-7.615411654114723E-003;
2.405833333333334E+009;1.899823546409607E-001;4.034724459052086E-002;-3.501548664644361E-003;-7.408944424241781E-003;
2.406000000000000E+009;1.908909380435944E-001;3.995902463793755E-002;-3.913060296326876E-003;-7.284681312739849E-003;
2.406166666666667E+009;1.916345953941345E-001;3.954699262976646E-002;-3.896159585565329E-003;-7.362451869994402E-003;
2.406333333333334E+009;1.924825012683868E-001;3.945663198828697E-002;-4.228850826621056E-003;-7.009602151811123E-003;
2.406500000000000E+009;1.930862665176392E-001;3.924423456192017E-002;-4.613262135535479E-003;-6.909420248121023E-003;
2.406666666666667E+009;1.934091895818710E-001;3.906555101275444E-002;-4.765020683407784E-003;-6.840899121016264E-003;
2.406833333333334E+009;1.939046978950501E-001;3.883216157555580E-002;-4.790476523339748E-003;-6.620762869715691E-003;
2.407000000000000E+009;1.942021399736404E-001;3.887307271361351E-002;-5.169299896806479E-003;-6.288446951657534E-003;
2.407166666666667E+009;1.945628076791763E-001;3.845302388072014E-002;-5.349241662770510E-003;-6.080219056457281E-003;
2.407333333333334E+009;1.945708394050598E-001;3.856049105525017E-002;-5.413404665887356E-003;-6.070514675229788E-003;
2.407500000000000E+009;1.944997757673264E-001;3.833218663930893E-002;-5.708046723157167E-003;-5.859512835741043E-003;
2.407666666666667E+009;1.944038122892380E-001;3.791930899024010E-002;-5.775819998234510E-003;-5.793120712041855E-003;
2.407833333333334E+009;1.941412389278412E-001;3.764234483242035E-002;-5.882925353944302E-003;-5.381592549383640E-003;
2.408000000000000E+009;1.941021829843521E-001;3.733249381184578E-002;-6.004060152918100E-003;-5.224465858191252E-003;
2.408166666666667E+009;1.935819685459137E-001;3.693809732794762E-002;-6.073075346648693E-003;-5.048872902989388E-003;
2.408333333333334E+009;1.932733058929443E-001;3.618764877319336E-002;-6.165333092212677E-003;-4.976049065589905E-003;
2.408500000000000E+009;1.927209049463272E-001;3.568669408559799E-002;-6.270189303904772E-003;-4.757240880280733E-003;
2.408666666666667E+009;1.923621296882629E-001;3.509956970810890E-002;-6.425304338335991E-003;-4.580516368150711E-003;
2.408833333333334E+009;1.918360888957977E-001;3.416632860898972E-002;-6.456957664340735E-003;-4.283064510673285E-003;
2.409000000000000E+009;1.909938305616379E-001;3.307083994150162E-002;-6.451211869716644E-003;-3.821733640506864E-003;
2.409166666666667E+009;1.901885569095612E-001;3.204804658889771E-002;-6.630023475736380E-003;-3.840256016701460E-003;
2.409333333333334E+009;1.896619945764542E-001;3.113297186791897E-002;-6.662820465862751E-003;-3.770854789763689E-003;
2.409500000000000E+009;1.887567639350891E-001;2.976375073194504E-002;-6.618064362555742E-003;-3.430331125855446E-003;
2.409666666666667E+009;1.879143863916397E-001;2.838601544499397E-002;-6.660779938101769E-003;-3.327492624521256E-003;
2.409833333333334E+009;1.870761066675186E-001;2.687332220375538E-002;-6.718452554196119E-003;-3.102267393842340E-003;
2.410000000000000E+009;1.863934844732285E-001;2.533505484461784E-002;-6.704436615109444E-003;-3.040973329916596E-003;
2.410166666666667E+009;1.856754720211029E-001;2.342713996767998E-002;-6.699487101286650E-003;-2.891066484153271E-003;
2.410333333333334E+009;1.846920698881149E-001;2.184842526912689E-002;-6.761357188224793E-003;-2.666770247742534E-003;
2.410500000000000E+009;1.840165406465530E-001;2.012819796800613E-002;-6.726554129272699E-003;-2.548584947362542E-003;
2.410666666666667E+009;1.834941059350967E-001;1.782394945621491E-002;-6.718609947711229E-003;-2.661400008946657E-003;
2.410833333333334E+009;1.831716299057007E-001;1.585016585886478E-002;-6.929437164217234E-003;-2.606666879728437E-003;
2.411000000000000E+009;1.822106242179871E-001;1.392408367246389E-002;-6.877039093524218E-003;-2.499613445252180E-003;
2.411166666666667E+009;1.818671822547913E-001;1.186218671500683E-002;-7.193352095782757E-003;-2.396858064457774E-003;
2.411333333333334E+009;1.814439892768860E-001;9.531212970614433E-003;-7.240467704832554E-003;-2.312870463356376E-003;
2.411500000000000E+009;1.811065822839737E-001;7.351493462920189E-003;-7.277293130755425E-003;-2.127570798620582E-003;
2.411666666666667E+009;1.808225661516190E-001;5.088042002171278E-003;-7.571871392428875E-003;-2.042050007730722E-003;
2.411833333333334E+009;1.808315217494965E-001;3.117481246590614E-003;-7.780806627124548E-003;-1.852324348874390E-003;
2.412000000000000E+009;1.809672713279724E-001;6.896671256981790E-004;-8.015767671167851E-003;-1.769019174389541E-003;
2.412166666666667E+009;1.811354011297226E-001;-1.177894766442478E-003;-8.090531453490257E-003;-1.473347889259458E-003;
2.412333333333334E+009;1.810256987810135E-001;-3.477474907413125E-003;-8.287188597023487E-003;-1.118984888307750E-003;
2.412500000000000E+009;1.818027049303055E-001;-5.689827259629965E-003;-8.442103862762451E-003;-9.711025049909949E-004;
2.412666666666667E+009;1.821775734424591E-001;-7.858673110604286E-003;-8.630490861833096E-003;-5.343869561329484E-004;
2.412833333333334E+009;1.828411966562271E-001;-9.975994005799294E-003;-8.781421929597855E-003;-3.786753804888576E-004;
2.413000000000000E+009;1.833293735980988E-001;-1.220244355499744E-002;-8.769307285547257E-003;3.846572872134857E-005;
2.413166666666667E+009;1.842266023159027E-001;-1.414956618100405E-002;-9.129750542342663E-003;4.309559008106589E-004;
2.413333333333334E+009;1.851286143064499E-001;-1.616370119154453E-002;-9.134864434599876E-003;7.151304162107408E-004;
2.413500000000000E+009;1.860231757164002E-001;-1.812005788087845E-002;-9.201698936522007E-003;1.347641809843481E-003;
2.413666666666667E+009;1.870225220918655E-001;-2.036166004836559E-002;-8.914097212255001E-003;1.620186259970069E-003;
2.413833333333334E+009;1.879293769598007E-001;-2.210815995931625E-002;-8.909285999834538E-003;2.072052331641316E-003;
2.414000000000000E+009;1.887094974517822E-001;-2.399125881493092E-002;-8.925790898501873E-003;2.433824352920055E-003;
2.414166666666667E+009;1.899122595787048E-001;-2.556499652564526E-002;-8.854642510414124E-003;2.886625006794930E-003;
2.414333333333334E+009;1.909529715776444E-001;-2.721545845270157E-002;-8.644589222967625E-003;3.126328345388174E-003;
2.414500000000000E+009;1.919255107641220E-001;-2.881667390465736E-002;-8.510366082191467E-003;3.599877934902906E-003;
2.414666666666667E+009;1.930752694606781E-001;-3.026026301085949E-002;-8.285623043775559E-003;3.849245142191649E-003;
2.414833333333334E+009;1.939110904932022E-001;-3.152118623256683E-002;-8.016430772840977E-003;4.271971527487040E-003;
2.415000000000000E+009;1.949344873428345E-001;-3.267864882946014E-002;-7.718651089817286E-003;4.628575406968594E-003;
2.415166666666667E+009;1.958991438150406E-001;-3.398558124899864E-002;-7.728398777544498E-003;4.779288545250893E-003;
2.415333333333334E+009;1.969645172357559E-001;-3.482585027813911E-002;-7.485851179808378E-003;5.225958302617073E-003;
2.415500000000000E+009;1.977616846561432E-001;-3.554369136691093E-002;-7.255688775330782E-003;5.473478231579065E-003;
2.415666666666667E+009;1.985688209533691E-001;-3.661269322037697E-002;-6.905270740389824E-003;5.793031770735979E-003;
2.415833333333334E+009;1.991983652114868E-001;-3.720027208328247E-002;-6.712144240736961E-003;5.926685407757759E-003;
2.416000000000000E+009;1.998260319232941E-001;-3.796071931719780E-002;-6.433878559619188E-003;6.041884422302246E-003;
2.416166666666667E+009;2.005022466182709E-001;-3.866078332066536E-002;-6.071176845580339E-003;6.310943514108658E-003;
2.416333333333334E+009;2.008665204048157E-001;-3.895699232816696E-002;-5.850079935044050E-003;6.411849521100521E-003;
2.416500000000000E+009;2.011179327964783E-001;-3.952274471521378E-002;-5.651173181831837E-003;6.712931673973799E-003;
2.416666666666667E+009;2.014058232307434E-001;-3.999411314725876E-002;-5.184199195355177E-003;6.933585740625858E-003;
2.416833333333334E+009;2.014357745647430E-001;-4.024324938654900E-002;-4.921828396618366E-003;7.018967531621456E-003;
2.417000000000000E+009;2.014610618352890E-001;-4.052129387855530E-002;-4.773344844579697E-003;7.157579530030489E-003;
2.417166666666667E+009;2.010871767997742E-001;-4.075473174452782E-002;-4.353022202849388E-003;7.411276921629906E-003;
2.417333333333334E+009;2.007546126842499E-001;-4.063874483108521E-002;-4.164905287325382E-003;7.414764259010553E-003;
2.417500000000000E+009;2.004239559173584E-001;-4.100293293595314E-002;-3.817792516201735E-003;7.352817803621292E-003;
2.417666666666667E+009;1.998899281024933E-001;-4.092461615800858E-002;-3.544989507645369E-003;7.536593824625015E-003;
2.417833333333334E+009;1.994783282279968E-001;-4.096985235810280E-002;-3.031986067071557E-003;7.488825358450413E-003;
2.418000000000000E+009;1.988912224769592E-001;-4.093144834041596E-002;-2.775280270725489E-003;7.494131103157997E-003;
2.418166666666667E+009;1.981399059295654E-001;-4.109694436192513E-002;-2.598011400550604E-003;7.599910721182823E-003;
2.418333333333334E+009;1.972149461507797E-001;-4.113563150167465E-002;-2.287016483023763E-003;7.583410013467073E-003;
2.418500000000000E+009;1.962937563657761E-001;-4.135898128151894E-002;-2.036323538050056E-003;7.695529609918594E-003;
2.418666666666667E+009;1.955583095550537E-001;-4.136897623538971E-002;-1.622885814867914E-003;7.619840092957020E-003;
2.418833333333334E+009;1.943445503711700E-001;-4.176635295152664E-002;-1.358732813969255E-003;7.675038184970617E-003;
2.419000000000000E+009;1.931912899017334E-001;-4.201721027493477E-002;-1.197010744363070E-003;7.619091775268316E-003;
2.419166666666667E+009;1.920640021562576E-001;-4.259543865919113E-002;-9.297081269323826E-004;7.385867647826672E-003;
2.419333333333334E+009;1.908715814352036E-001;-4.312803968787193E-002;-7.558649522252381E-004;7.243047468364239E-003;
2.419500000000000E+009;1.895022541284561E-001;-4.369462281465530E-002;-6.077146390452981E-004;7.228642702102661E-003;
2.419666666666667E+009;1.881756186485291E-001;-4.456362128257752E-002;-2.851324097719044E-004;7.018808741122484E-003;
2.419833333333334E+009;1.867486536502838E-001;-4.523650929331780E-002;-1.804248895496130E-004;6.916936486959457E-003;
2.420000000000000E+009;1.855032742023468E-001;-4.615517333149910E-002;1.100220106309280E-005;6.825503427535296E-003;
2.420166666666667E+009;1.840089559555054E-001;-4.710561037063599E-002;6.050789306755178E-005;6.745262071490288E-003;
2.420333333333334E+009;1.826336085796356E-001;-4.833136498928070E-002;1.478900321671972E-005;6.756489630788565E-003;
2.420500000000000E+009;1.812859326601028E-001;-4.950508847832680E-002;1.942569506354630E-004;6.580783985555172E-003;
2.420666666666667E+009;1.798873692750931E-001;-5.060878023505211E-002;2.959050179924816E-004;6.563054863363504E-003;
2.420833333333334E+009;1.784280240535736E-001;-5.231479927897453E-002;3.566037339624018E-004;6.588314194232225E-003;
2.421000000000000E+009;1.772598922252655E-001;-5.358286574482918E-002;4.300431464798749E-004;6.453032139688730E-003;
2.421166666666667E+009;1.760342270135880E-001;-5.513856559991837E-002;6.391193019226193E-004;6.496402900665999E-003;
2.421333333333334E+009;1.745079904794693E-001;-5.658586695790291E-002;7.226525922305882E-004;6.463055964559317E-003;
2.421500000000000E+009;1.734265536069870E-001;-5.826088786125183E-002;9.915371192619205E-004;6.483173463493586E-003;
2.421666666666667E+009;1.721518933773041E-001;-5.996308848261833E-002;1.100675086490810E-003;6.551865953952074E-003;
2.421833333333334E+009;1.712158024311066E-001;-6.169206276535988E-002;1.162609434686601E-003;6.507894489914179E-003;
2.422000000000000E+009;1.704173088073731E-001;-6.339296698570252E-002;1.310988678596914E-003;6.544980686157942E-003;
2.422166666666667E+009;1.695434153079987E-001;-6.531127542257309E-002;1.508164452388883E-003;6.500151939690113E-003;
2.422333333333334E+009;1.687844842672348E-001;-6.723514944314957E-002;1.485720626078546E-003;6.313881836831570E-003;
2.422500000000000E+009;1.679136902093887E-001;-6.881338357925415E-002;1.803383231163025E-003;6.476209498941898E-003;
2.422666666666667E+009;1.672745794057846E-001;-7.076101005077362E-002;1.841208082623780E-003;6.330818869173527E-003;
2.422833333333334E+009;1.667593270540237E-001;-7.257673889398575E-002;1.976047409698367E-003;6.456538569182158E-003;
2.423000000000000E+009;1.663919985294342E-001;-7.433660328388214E-002;2.238230314105749E-003;6.341484840959311E-003;
2.423166666666667E+009;1.659561395645142E-001;-7.624155282974243E-002;2.446312224492431E-003;6.223830860108137E-003;
2.423333333333334E+009;1.656765639781952E-001;-7.792508602142334E-002;2.592388540506363E-003;6.354698911309242E-003;
2.423500000000000E+009;1.655367016792297E-001;-7.945679128170013E-002;2.844583708792925E-003;6.253995932638645E-003;
2.423666666666667E+009;1.655847877264023E-001;-8.137987554073334E-002;2.995509654283524E-003;6.285157985985279E-003;
2.423833333333334E+009;1.654052734375000E-001;-8.287151157855988E-002;3.363867755979300E-003;6.322455126792193E-003;
2.424000000000000E+009;1.655416637659073E-001;-8.468902856111527E-002;3.538552671670914E-003;6.048096343874931E-003;
2.424166666666667E+009;1.653383225202560E-001;-8.604006469249725E-002;3.752608783543110E-003;6.040351465344429E-003;
2.424333333333334E+009;1.656178683042526E-001;-8.745042234659195E-002;3.891031723469496E-003;5.872960202395916E-003;
2.424500000000000E+009;1.658380180597305E-001;-8.918363600969315E-002;4.095252603292465E-003;5.781790707260370E-003;
2.424666666666667E+009;1.658864021301270E-001;-9.043692052364349E-002;4.327432718127966E-003;5.613432265818119E-003;
2.424833333333334E+009;1.663523167371750E-001;-9.164088219404221E-002;4.671278409659863E-003;5.642203614115715E-003;
2.425000000000000E+009;1.664668321609497E-001;-9.282382577657700E-002;4.820374306291342E-003;5.289514549076557E-003;
2.425166666666667E+009;1.666528135538101E-001;-9.378051757812500E-002;4.880158696323633E-003;5.082305520772934E-003;
2.425333333333334E+009;1.667990684509277E-001;-9.491816163063049E-002;4.945672117173672E-003;4.916314966976643E-003;
2.425500000000000E+009;1.671569198369980E-001;-9.569272398948669E-002;5.343015305697918E-003;4.791272338479757E-003;
2.425666666666667E+009;1.674749106168747E-001;-9.647564589977264E-002;5.335946101695299E-003;4.738971590995789E-003;
2.425833333333334E+009;1.676668822765350E-001;-9.738034009933472E-002;5.571007728576660E-003;4.483410622924566E-003;
2.426000000000000E+009;1.679470688104630E-001;-9.786728769540787E-002;5.528619978576899E-003;4.265751689672470E-003;
2.426166666666667E+009;1.681445837020874E-001;-9.839486330747604E-002;5.874408874660730E-003;4.117980599403381E-003;
2.426333333333334E+009;1.682311743497849E-001;-9.910544008016586E-002;5.888686981052160E-003;3.885583253577352E-003;
2.426500000000000E+009;1.685538887977600E-001;-9.943561255931854E-002;6.062951870262623E-003;3.676194231957197E-003;
2.426666666666667E+009;1.686541289091110E-001;-9.999566525220871E-002;6.158867850899696E-003;3.544781357049942E-003;
2.426833333333334E+009;1.689647585153580E-001;-1.003827974200249E-001;6.373513489961624E-003;3.286586375907064E-003;
2.427000000000000E+009;1.688088327646256E-001;-1.007990911602974E-001;6.383031141012907E-003;3.033342305570841E-003;
2.427166666666667E+009;1.688310950994492E-001;-1.010837182402611E-001;6.445372477173805E-003;2.793343970552087E-003;
2.427333333333334E+009;1.686643511056900E-001;-1.015441194176674E-001;6.748378742486239E-003;2.839455148205161E-003;
2.427500000000000E+009;1.685167849063873E-001;-1.018700674176216E-001;6.558798719197512E-003;2.451567444950342E-003;
2.427666666666667E+009;1.682183742523193E-001;-1.020367965102196E-001;6.787223275750876E-003;2.244653878733516E-003;
