# Version 1.00
#
freq[Hz];re:Trc1_S11;im:Trc1_S11;re:Trc2_S21;im:Trc2_S21;
2.400000000000000E+009;1.553708016872406E-001;1.066157370805740E-001;4.781756433658302E-004;6.794746732339263E-004;
2.400166666666667E+009;1.550791412591934E-001;1.043044626712799E-001;3.517716249916703E-004;7.789390510879457E-004;
2.400333333333334E+009;1.551502794027329E-001;1.020276993513107E-001;5.988173652440310E-004;7.881204946897924E-004;
2.400500000000000E+009;1.550382226705551E-001;9.919077157974243E-002;6.290852325037122E-004;9.532088297419250E-004;
2.400666666666667E+009;1.550908237695694E-001;9.667836129665375E-002;8.693417184986174E-004;1.135850674472749E-003;
2.400833333333334E+009;1.550842374563217E-001;9.389295428991318E-002;8.558061090297997E-004;1.202891813591123E-003;
2.401000000000000E+009;1.551969945430756E-001;9.107690304517746E-002;1.147468807175756E-003;1.304879435338080E-003;
2.401166666666667E+009;1.550969034433365E-001;8.826635777950287E-002;1.333650783635676E-003;1.239039003849030E-003;
2.401333333333334E+009;1.556783616542816E-001;8.544570207595825E-002;1.425307127647102E-003;1.265141298063099E-003;
2.401500000000000E+009;1.560907065868378E-001;8.245421946048737E-002;1.666200929321349E-003;1.129073323681951E-003;
2.401666666666667E+009;1.562911719083786E-001;7.949347048997879E-002;1.770874485373497E-003;1.002810429781675E-003;
2.401833333333334E+009;1.569493561983109E-001;7.672615349292755E-002;1.969316974282265E-003;8.495963411405683E-004;
2.402000000000000E+009;1.576968431472778E-001;7.411549240350723E-002;2.088367473334074E-003;7.603933918289840E-004;
2.402166666666667E+009;1.585504859685898E-001;7.154052704572678E-002;2.351330360397697E-003;6.838629487901926E-004;
2.402333333333334E+009;1.595450937747955E-001;6.871236115694046E-002;2.280981978401542E-003;3.640169743448496E-004;
2.402500000000000E+009;1.606278568506241E-001;6.617879867553711E-002;2.220597350969911E-003;3.313222259748727E-004;
2.402666666666667E+009;1.616041511297226E-001;6.386706978082657E-002;2.325156470760703E-003;7.402490155072883E-005;
2.402833333333334E+009;1.630638688802719E-001;6.139031797647476E-002;2.204740885645151E-003;-7.136232306947932E-005;
2.403000000000000E+009;1.645074933767319E-001;5.909798666834831E-002;2.043641870841384E-003;-2.158006100216880E-004;
2.403166666666667E+009;1.661642938852310E-001;5.680393055081368E-002;1.964890398085117E-003;-1.695389655651525E-004;
2.403333333333334E+009;1.678381115198135E-001;5.469351634383202E-002;2.003292320296168E-003;-3.465365443844348E-004;
2.403500000000000E+009;1.694141328334808E-001;5.266507714986801E-002;2.001917688176036E-003;-3.331203479319811E-004;
2.403666666666667E+009;1.711587756872177E-001;5.078734830021858E-002;1.997001934796572E-003;-4.347461217548698E-004;
2.403833333333334E+009;1.729861646890640E-001;4.899607598781586E-002;1.859949901700020E-003;-4.176306829322130E-004;
2.404000000000000E+009;1.742700189352036E-001;4.707295820116997E-002;1.875709043815732E-003;-2.523757575545460E-004;
2.404166666666667E+009;1.762358546257019E-001;4.554224386811256E-002;2.048986731097102E-003;-3.211483417544514E-004;
2.404333333333334E+009;1.778586655855179E-001;4.405418038368225E-002;2.006220165640116E-003;-5.492644268088043E-004;
2.404500000000000E+009;1.795121580362320E-001;4.271615669131279E-002;1.972785685211420E-003;-5.975400563329458E-004;
2.404666666666667E+009;1.811607778072357E-001;4.149199649691582E-002;1.951470389030874E-003;-5.614073015749455E-004;
2.404833333333334E+009;1.828412711620331E-001;4.051134362816811E-002;2.182950731366873E-003;-6.498532020486891E-004;
2.405000000000000E+009;1.842444390058518E-001;3.991003334522247E-002;1.948243705555797E-003;-8.601804729551077E-004;
2.405166666666667E+009;1.858039349317551E-001;3.915262594819069E-002;1.943521900102496E-003;-9.230708237737417E-004;
2.405333333333334E+009;1.871055960655212E-001;3.854367882013321E-002;2.033408498391509E-003;-9.580250480212271E-004;
2.405500000000000E+009;1.885115951299667E-001;3.814917430281639E-002;1.870349748060107E-003;-9.285752312280238E-004;
2.405666666666667E+009;1.898175925016403E-001;3.780277445912361E-002;1.832303241826594E-003;-1.179929240606725E-003;
2.405833333333334E+009;1.911278665065765E-001;3.759203478693962E-002;1.755709177814424E-003;-1.318655326031148E-003;
2.406000000000000E+009;1.922226399183273E-001;3.744434937834740E-002;1.671221689321101E-003;-1.324988435953856E-003;
2.406166666666667E+009;1.931731104850769E-001;3.725033998489380E-002;1.556976116262376E-003;-1.236448413692415E-003;
2.406333333333334E+009;1.939409524202347E-001;3.730491921305656E-002;1.571448519825935E-003;-1.413672813214362E-003;
2.406500000000000E+009;1.947799026966095E-001;3.730958327651024E-002;1.402794616296887E-003;-1.340781804174185E-003;
2.406666666666667E+009;1.954888999462128E-001;3.729730844497681E-002;1.363326678983867E-003;-1.114000915549696E-003;
2.406833333333334E+009;1.957921236753464E-001;3.735505416989327E-002;1.398058841004968E-003;-1.175747020170093E-003;
2.407000000000000E+009;1.962346881628037E-001;3.761875629425049E-002;1.338520902208984E-003;-1.290011801756918E-003;
2.407166666666667E+009;1.966518163681030E-001;3.739240393042564E-002;1.300407107919455E-003;-1.366705750115216E-003;
2.407333333333334E+009;1.965753734111786E-001;3.765593469142914E-002;1.408281386829913E-003;-1.238218508660793E-003;
2.407500000000000E+009;1.964126378297806E-001;3.775981441140175E-002;1.404454465955496E-003;-1.256569521501660E-003;
2.407666666666667E+009;1.963859796524048E-001;3.756792098283768E-002;1.393875456415117E-003;-1.171147101558745E-003;
2.407833333333334E+009;1.959467828273773E-001;3.762570768594742E-002;1.475542550906539E-003;-1.467738184146583E-003;
2.408000000000000E+009;1.957753300666809E-001;3.745517134666443E-002;1.297552953474224E-003;-1.327026053331792E-003;
2.408166666666667E+009;1.951981186866760E-001;3.714678063988686E-002;1.272239256650209E-003;-1.397521700710058E-003;
2.408333333333334E+009;1.946711242198944E-001;3.666693717241287E-002;1.350634149275720E-003;-1.397693878971040E-003;
2.408500000000000E+009;1.940717846155167E-001;3.636381030082703E-002;1.426576403900981E-003;-1.310508581809700E-003;
2.408666666666667E+009;1.932382285594940E-001;3.597840294241905E-002;1.272729481570423E-003;-1.384254661388695E-003;
2.408833333333334E+009;1.925839632749558E-001;3.522916883230209E-002;1.713318168185651E-003;-1.432543038390577E-003;
2.409000000000000E+009;1.915829479694367E-001;3.421570733189583E-002;1.370758167468011E-003;-1.478681573644280E-003;
2.409166666666667E+009;1.906280070543289E-001;3.341460600495338E-002;1.299211522564292E-003;-1.658101333305240E-003;
2.409333333333334E+009;1.896001845598221E-001;3.230917081236839E-002;1.307095284573734E-003;-1.717826235108078E-003;
2.409500000000000E+009;1.885058283805847E-001;3.104764781892300E-002;1.316610374487937E-003;-1.757918740622699E-003;
2.409666666666667E+009;1.875378787517548E-001;2.960824407637119E-002;1.300863805226982E-003;-1.726144575513899E-003;
2.409833333333334E+009;1.863433271646500E-001;2.804037928581238E-002;1.187168527394533E-003;-1.967491349205375E-003;
2.410000000000000E+009;1.854107677936554E-001;2.651963755488396E-002;1.353892730548978E-003;-2.046179492026568E-003;
2.410166666666667E+009;1.842038482427597E-001;2.471419051289558E-002;1.369840814732015E-003;-2.017410239204764E-003;
2.410333333333334E+009;1.832983642816544E-001;2.296706847846508E-002;1.134517602622509E-003;-2.013213466852903E-003;
2.410500000000000E+009;1.823149323463440E-001;2.108810655772686E-002;1.197519479319453E-003;-2.120619872584939E-003;
2.410666666666667E+009;1.813843399286270E-001;1.888929307460785E-002;1.256379764527082E-003;-2.147019840776920E-003;
2.410833333333334E+009;1.806753277778626E-001;1.658860780298710E-002;1.160348649136722E-003;-2.160309348255396E-003;
2.411000000000000E+009;1.798573136329651E-001;1.452467497438192E-002;1.243600621819496E-003;-2.041522879153490E-003;
2.411166666666667E+009;1.793522983789444E-001;1.205014344304800E-002;1.165146357379854E-003;-2.277843188494444E-003;
2.411333333333334E+009;1.788119673728943E-001;9.841741062700748E-003;1.098820357583463E-003;-2.306886715814471E-003;
2.411500000000000E+009;1.783217638731003E-001;7.273686118423939E-003;1.134904799982905E-003;-2.437026705592871E-003;
2.411666666666667E+009;1.781950294971466E-001;4.833993036299944E-003;9.887913474813104E-004;-2.631426323205233E-003;
2.411833333333334E+009;1.780400276184082E-001;2.734548179432750E-003;1.117784064263105E-003;-2.817486645653844E-003;
2.412000000000000E+009;1.779039949178696E-001;5.050547406426631E-005;9.468307835049927E-004;-2.821736270561814E-003;
2.412166666666667E+009;1.780005991458893E-001;-2.325257053598762E-003;9.656105539761484E-004;-2.912510419264436E-003;
2.412333333333334E+009;1.781834810972214E-001;-4.994609393179417E-003;7.773980032652617E-004;-3.203098895028234E-003;
2.412500000000000E+009;1.787811517715454E-001;-7.150995079427958E-003;6.971752736717463E-004;-3.256465075537562E-003;
2.412666666666667E+009;1.791715472936630E-001;-9.792058728635311E-003;5.042582633905113E-004;-3.225692780688405E-003;
2.412833333333334E+009;1.799903512001038E-001;-1.217275205999613E-002;2.583833411335945E-004;-3.418067703023553E-003;
2.413000000000000E+009;1.807790398597717E-001;-1.447413768619299E-002;-6.250205478863791E-005;-3.430478740483522E-003;
2.413166666666667E+009;1.814027130603790E-001;-1.682173088192940E-002;-5.848491127835587E-005;-3.557919990271330E-003;
2.413333333333334E+009;1.823983341455460E-001;-1.917579397559166E-002;-3.582515928428620E-004;-3.431117860600352E-003;
2.413500000000000E+009;1.832467019557953E-001;-2.143223211169243E-002;-4.345818015281111E-004;-3.428030293434858E-003;
2.413666666666667E+009;1.845189034938812E-001;-2.359599433839321E-002;-6.380996201187372E-004;-3.363216063007712E-003;
2.413833333333334E+009;1.856347024440765E-001;-2.550503425300121E-002;-7.866654195822775E-004;-3.314027097076178E-003;
2.414000000000000E+009;1.867030113935471E-001;-2.742885425686836E-002;-1.043813070282340E-003;-3.208347829058766E-003;
2.414166666666667E+009;1.881851255893707E-001;-2.927447855472565E-002;-9.814209770411253E-004;-3.100079251453280E-003;
2.414333333333334E+009;1.891394108533859E-001;-3.136599063873291E-002;-1.271482440643013E-003;-2.951850881800056E-003;
2.414500000000000E+009;1.903509646654129E-001;-3.276913985610008E-002;-1.273383037187159E-003;-2.994869370013475E-003;
2.414666666666667E+009;1.915753483772278E-001;-3.412976115942001E-002;-1.389467972330749E-003;-2.824099035933614E-003;
2.414833333333334E+009;1.927963048219681E-001;-3.544843196868897E-002;-1.340927672572434E-003;-2.704463666304946E-003;
2.415000000000000E+009;1.938985884189606E-001;-3.679190948605537E-002;-1.477469690144062E-003;-2.907103626057506E-003;
2.415166666666667E+009;1.952061951160431E-001;-3.784962743520737E-002;-1.621985225938261E-003;-2.868263749405742E-003;
2.415333333333334E+009;1.963117122650147E-001;-3.875911980867386E-002;-1.437945291399956E-003;-2.824511844664812E-003;
2.415500000000000E+009;1.974016427993774E-001;-3.952083364129067E-002;-1.695956336334348E-003;-2.605260349810123E-003;
2.415666666666667E+009;1.985739320516586E-001;-4.023251682519913E-002;-1.803273684345186E-003;-2.648687921464443E-003;
2.415833333333334E+009;1.993457674980164E-001;-4.086358472704887E-002;-1.798611716367304E-003;-2.766238525509834E-003;
2.416000000000000E+009;2.001454383134842E-001;-4.155083373188973E-002;-1.891550957225263E-003;-2.471960149705410E-003;
2.416166666666667E+009;2.009141445159912E-001;-4.197697713971138E-002;-2.104928484186530E-003;-2.413894515484572E-003;
2.416333333333334E+009;2.015198618173599E-001;-4.213683679699898E-002;-2.064884873107076E-003;-2.449623774737120E-003;
2.416500000000000E+009;2.020923644304276E-001;-4.240734130144119E-002;-2.121960278600454E-003;-2.264942973852158E-003;
2.416666666666667E+009;2.024015337228775E-001;-4.279992356896401E-002;-2.199045149609447E-003;-2.113053342327476E-003;
2.416833333333334E+009;2.025704234838486E-001;-4.284399747848511E-002;-2.194218104705215E-003;-2.173081040382385E-003;
2.417000000000000E+009;2.027212530374527E-001;-4.299446195363998E-002;-2.283162437379360E-003;-1.951989950612187E-003;
2.417166666666667E+009;2.023915648460388E-001;-4.289802163839340E-002;-2.233143663033843E-003;-2.018491271883249E-003;
2.417333333333334E+009;2.022001445293427E-001;-4.252753779292107E-002;-2.327758120372891E-003;-1.975930994376540E-003;
2.417500000000000E+009;2.020194530487061E-001;-4.269277676939964E-002;-2.225689822807908E-003;-1.999797066673636E-003;
2.417666666666667E+009;2.014688700437546E-001;-4.245522990822792E-002;-2.326405374333262E-003;-1.959566958248615E-003;
2.417833333333334E+009;2.009063959121704E-001;-4.223189502954483E-002;-2.267083153128624E-003;-1.798223587684333E-003;
2.418000000000000E+009;2.003860026597977E-001;-4.201843217015266E-002;-2.425824990496039E-003;-1.826276653446257E-003;
2.418166666666667E+009;1.994170397520065E-001;-4.194063320755959E-002;-2.440961310639978E-003;-1.613697269931436E-003;
2.418333333333334E+009;1.985299140214920E-001;-4.181498661637306E-002;-2.454320900142193E-003;-1.573071349412203E-003;
2.418500000000000E+009;1.975752711296082E-001;-4.167447984218597E-002;-2.474606269970536E-003;-1.534276758320630E-003;
2.418666666666667E+009;1.966098099946976E-001;-4.163699224591255E-002;-2.585431793704629E-003;-1.584543846547604E-003;
2.418833333333334E+009;1.952764242887497E-001;-4.192926362156868E-002;-2.619420178234577E-003;-1.560480450280011E-003;
2.419000000000000E+009;1.939521580934525E-001;-4.203912615776062E-002;-2.489942125976086E-003;-1.611792482435703E-003;
2.419166666666667E+009;1.926967650651932E-001;-4.225843399763107E-002;-2.656265161931515E-003;-1.628566067665815E-003;
2.419333333333334E+009;1.913267374038696E-001;-4.293873533606529E-002;-2.607696224004030E-003;-1.599637907929719E-003;
2.419500000000000E+009;1.897801756858826E-001;-4.327208176255226E-002;-2.693911315873265E-003;-1.690299599431455E-003;
2.419666666666667E+009;1.881474703550339E-001;-4.388552904129028E-002;-2.764883218333125E-003;-1.651811762712896E-003;
2.419833333333334E+009;1.864857524633408E-001;-4.474317654967308E-002;-2.850899007171392E-003;-1.718586427159607E-003;
2.420000000000000E+009;1.849102675914764E-001;-4.539075493812561E-002;-2.929060719907284E-003;-1.553648267872632E-003;
2.420166666666667E+009;1.832935959100723E-001;-4.644154012203217E-002;-2.997095230966806E-003;-1.547303982079029E-003;
2.420333333333334E+009;1.816759854555130E-001;-4.776106029748917E-002;-3.158213105052710E-003;-1.414419268257916E-003;
2.420500000000000E+009;1.798828244209290E-001;-4.891207441687584E-002;-3.266872139647603E-003;-1.497659366577864E-003;
2.420666666666667E+009;1.783589124679565E-001;-5.005893483757973E-002;-3.318965202197433E-003;-1.402262365445495E-003;
2.420833333333334E+009;1.767149567604065E-001;-5.157991126179695E-002;-3.642076393589377E-003;-1.340766204521060E-003;
2.421000000000000E+009;1.753501147031784E-001;-5.312580242753029E-002;-3.653412917628884E-003;-1.164563233032823E-003;
2.421166666666667E+009;1.739121079444885E-001;-5.476526916027069E-002;-3.735658712685108E-003;-1.129173324443400E-003;
2.421333333333334E+009;1.721716225147247E-001;-5.627381429076195E-002;-3.873466281220317E-003;-9.087161161005497E-004;
2.421500000000000E+009;1.708189845085144E-001;-5.824978277087212E-002;-3.886150429025292E-003;-7.823895430192351E-004;
2.421666666666667E+009;1.696783602237701E-001;-5.993190407752991E-002;-4.121617879718542E-003;-7.907793042249978E-004;
2.421833333333334E+009;1.683561205863953E-001;-6.184809282422066E-002;-4.161985125392675E-003;-5.577054689638317E-004;
2.422000000000000E+009;1.672972440719605E-001;-6.392840296030045E-002;-4.123790189623833E-003;-4.584953130688518E-004;
2.422166666666667E+009;1.666220128536224E-001;-6.599573791027069E-002;-4.173052962869406E-003;-2.478655951563269E-004;
2.422333333333334E+009;1.655372083187103E-001;-6.797882914543152E-002;-4.274703562259674E-003;-2.316588361281902E-004;
2.422500000000000E+009;1.648372113704681E-001;-6.983552128076553E-002;-4.236297216266394E-003;-2.255566414532950E-006;
2.422666666666667E+009;1.640748828649521E-001;-7.202776521444321E-002;-4.308294039219618E-003;2.199283917434514E-004;
2.422833333333334E+009;1.635795384645462E-001;-7.407943159341812E-002;-4.355369135737419E-003;3.694633778650314E-004;
2.423000000000000E+009;1.631750315427780E-001;-7.592908293008804E-002;-4.494674969464541E-003;5.425491835922003E-004;
2.423166666666667E+009;1.627334654331207E-001;-7.797361910343170E-002;-4.300208296626806E-003;7.498753257095814E-004;
2.423333333333334E+009;1.626527756452560E-001;-8.013470470905304E-002;-4.445552360266447E-003;8.697360754013062E-004;
2.423500000000000E+009;1.625678390264511E-001;-8.181938529014587E-002;-4.504819866269827E-003;1.137962448410690E-003;
2.423666666666667E+009;1.626782119274139E-001;-8.382078260183334E-002;-4.412349313497543E-003;1.310497289523482E-003;
2.423833333333334E+009;1.624679565429688E-001;-8.548383414745331E-002;-4.566602874547243E-003;1.548144966363907E-003;
2.424000000000000E+009;1.626436859369278E-001;-8.725371211767197E-002;-4.347179085016251E-003;1.719743479043245E-003;
2.424166666666667E+009;1.628220528364182E-001;-8.879023045301437E-002;-4.295659717172384E-003;1.959986053407192E-003;
2.424333333333334E+009;1.631088554859161E-001;-9.030281752347946E-002;-4.332971293479204E-003;2.107413951307535E-003;
2.424500000000000E+009;1.634054780006409E-001;-9.206647425889969E-002;-4.119297489523888E-003;2.282674191519618E-003;
2.424666666666667E+009;1.637012511491776E-001;-9.341982007026672E-002;-3.925618715584278E-003;2.634295262396336E-003;
2.424833333333334E+009;1.642940193414688E-001;-9.468697011470795E-002;-3.801792161539197E-003;2.741874195635319E-003;
2.425000000000000E+009;1.646937727928162E-001;-9.589105099439621E-002;-3.680556546896696E-003;2.944076666608453E-003;
2.425166666666667E+009;1.649885326623917E-001;-9.694754332304001E-002;-3.552056150510907E-003;3.101047361269593E-003;
2.425333333333334E+009;1.653744578361511E-001;-9.792272746562958E-002;-3.313055960461497E-003;3.111985744908452E-003;
2.425500000000000E+009;1.657200306653976E-001;-9.895168989896774E-002;-3.258755197748542E-003;3.102446440607309E-003;
2.425666666666667E+009;1.663317531347275E-001;-9.957885742187500E-002;-3.260756609961391E-003;3.234406933188438E-003;
2.425833333333334E+009;1.666774153709412E-001;-1.003415733575821E-001;-2.992915222421289E-003;3.438601735979319E-003;
2.426000000000000E+009;1.670779883861542E-001;-1.008858308196068E-001;-2.973004942759872E-003;3.488505026325584E-003;
2.426166666666667E+009;1.675198227167130E-001;-1.013535037636757E-001;-2.584282308816910E-003;3.447698429226875E-003;
2.426333333333334E+009;1.675753891468048E-001;-1.017996743321419E-001;-2.492550527676940E-003;3.539101686328650E-003;
2.426500000000000E+009;1.680341660976410E-001;-1.020911633968353E-001;-2.405253704637289E-003;3.563317237421870E-003;
2.426666666666667E+009;1.683172583580017E-001;-1.023800149559975E-001;-2.244576346129179E-003;3.696280065923929E-003;
2.426833333333334E+009;1.686362922191620E-001;-1.026379168033600E-001;-2.199542010203004E-003;3.658661153167486E-003;
2.427000000000000E+009;1.685497164726257E-001;-1.028609201312065E-001;-2.069265814498067E-003;3.550398163497448E-003;
2.427166666666667E+009;1.686687171459198E-001;-1.029705926775932E-001;-1.765865366905928E-003;3.683533519506455E-003;
2.427333333333334E+009;1.685891896486282E-001;-1.031806543469429E-001;-1.824637991376221E-003;3.814336843788624E-003;
2.427500000000000E+009;1.682660877704620E-001;-1.032525226473808E-001;-1.720550470054150E-003;3.873597597703338E-003;
2.427666666666667E+009;1.679356992244721E-001;-1.033616513013840E-001;-1.530602457933128E-003;3.788213012740016E-003;
