# Version 1.00
#
freq[Hz];re:Trc1_S11;im:Trc1_S11;re:Trc2_S21;im:Trc2_S21;
2.400000000000000E+009;1.550242602825165E-001;1.065804362297058E-001;5.311149288900197E-004;9.178199106827378E-004;
2.400166666666667E+009;1.548174321651459E-001;1.042300090193749E-001;5.807460402138531E-004;8.677350124344230E-004;
2.400333333333334E+009;1.547294706106186E-001;1.018529012799263E-001;4.437052702996880E-004;8.027869625948370E-004;
2.400500000000000E+009;1.547597348690033E-001;9.925032407045364E-002;5.325288511812687E-004;1.009311177767813E-003;
2.400666666666667E+009;1.548347473144531E-001;9.676115959882736E-002;7.430914556607604E-004;9.701056405901909E-004;
2.400833333333334E+009;1.546792238950729E-001;9.383556246757507E-002;8.629291551187635E-004;1.174393924884498E-003;
2.401000000000000E+009;1.550443470478058E-001;9.096932411193848E-002;1.023096730932593E-003;1.172652002424002E-003;
2.401166666666667E+009;1.550103425979614E-001;8.822920918464661E-002;1.246337313205004E-003;1.312277396209538E-003;
2.401333333333334E+009;1.553316116333008E-001;8.533973991870880E-002;1.431370037607849E-003;1.147283706814051E-003;
2.401500000000000E+009;1.557584404945374E-001;8.258445560932159E-002;1.556774717755616E-003;1.198356738314033E-003;
2.401666666666667E+009;1.560544520616531E-001;7.969165593385696E-002;1.879283576272428E-003;9.212736040353775E-004;
2.401833333333334E+009;1.567370444536209E-001;7.708372920751572E-002;1.952898921445012E-003;7.945683319121599E-004;
2.402000000000000E+009;1.575225889682770E-001;7.415025681257248E-002;2.089886693283916E-003;7.478195475414395E-004;
2.402166666666667E+009;1.583504080772400E-001;7.171447575092316E-002;2.230226993560791E-003;5.755868041887879E-004;
2.402333333333334E+009;1.593836098909378E-001;6.886817514896393E-002;2.112361602485180E-003;4.099352809134871E-004;
2.402500000000000E+009;1.605494916439056E-001;6.647542864084244E-002;2.293044934049249E-003;3.569988766685128E-004;
2.402666666666667E+009;1.617004275321960E-001;6.400339305400848E-002;2.087460597977042E-003;2.303471774212085E-006;
2.402833333333334E+009;1.628513634204865E-001;6.146588549017906E-002;2.075998578220606E-003;-3.696228077387787E-006;
2.403000000000000E+009;1.645343154668808E-001;5.907438695430756E-002;2.114019123837352E-003;-1.771078968886286E-004;
2.403166666666667E+009;1.661696583032608E-001;5.687919259071350E-002;2.032224554568529E-003;-2.056473022093996E-004;
2.403333333333334E+009;1.676406413316727E-001;5.488670617341995E-002;1.991042867302895E-003;-2.445814898237586E-004;
2.403500000000000E+009;1.693444401025772E-001;5.265733599662781E-002;1.776525285094976E-003;-3.085286298301071E-004;
2.403666666666667E+009;1.711895018815994E-001;5.079896003007889E-002;1.893572974950075E-003;-3.319576208014041E-004;
2.403833333333334E+009;1.728471815586090E-001;4.900334402918816E-002;1.774382079020143E-003;-3.006877959705889E-004;
2.404000000000000E+009;1.744205057621002E-001;4.731861501932144E-002;1.876307302154601E-003;-4.780111485160887E-004;
2.404166666666667E+009;1.762384921312332E-001;4.555674642324448E-002;1.813348848372698E-003;-2.896082587540150E-004;
2.404333333333334E+009;1.778679937124252E-001;4.415450990200043E-002;1.931253820657730E-003;-4.036408499814570E-004;
2.404500000000000E+009;1.793911606073380E-001;4.269178584218025E-002;1.942176953889430E-003;-4.159144009463489E-004;
2.404666666666667E+009;1.810875833034515E-001;4.162075743079186E-002;2.065444365143776E-003;-4.890455747954547E-004;
2.404833333333334E+009;1.826851367950440E-001;4.058831557631493E-002;1.961349043995142E-003;-7.439852342940867E-004;
2.405000000000000E+009;1.840814799070358E-001;3.997521102428436E-002;2.028056653216481E-003;-7.484684465453029E-004;
2.405166666666667E+009;1.854823827743530E-001;3.920363262295723E-002;1.987152500078082E-003;-8.393685566261411E-004;
2.405333333333334E+009;1.870007067918778E-001;3.878644853830338E-002;1.871822169050574E-003;-9.470338700339198E-004;
2.405500000000000E+009;1.884835660457611E-001;3.832260891795158E-002;1.817196956835687E-003;-1.042258343659341E-003;
2.405666666666667E+009;1.897059231996536E-001;3.786360099911690E-002;1.814615447074175E-003;-1.041211769916117E-003;
2.405833333333334E+009;1.909065693616867E-001;3.770573809742928E-002;1.673441729508340E-003;-1.112294965423644E-003;
2.406000000000000E+009;1.918835937976837E-001;3.753674775362015E-002;1.644226023927331E-003;-1.210725866258144E-003;
2.406166666666667E+009;1.930353939533234E-001;3.741898760199547E-002;1.674359897151589E-003;-1.334378146566451E-003;
2.406333333333334E+009;1.938226222991943E-001;3.741046041250229E-002;1.302646356634796E-003;-1.394839375279844E-003;
2.406500000000000E+009;1.946171969175339E-001;3.752791136503220E-002;1.429031137377024E-003;-1.208818168379366E-003;
2.406666666666667E+009;1.951781362295151E-001;3.753915801644325E-002;1.457459176890552E-003;-1.279467134736478E-003;
2.406833333333334E+009;1.957477331161499E-001;3.756418079137802E-002;1.311454805545509E-003;-1.274446723982692E-003;
2.407000000000000E+009;1.959743648767471E-001;3.774140775203705E-002;1.384896924719214E-003;-1.336839166469872E-003;
2.407166666666667E+009;1.964622735977173E-001;3.763520345091820E-002;1.373423496261239E-003;-1.224914449267089E-003;
2.407333333333334E+009;1.962680667638779E-001;3.779778257012367E-002;1.422992208972573E-003;-1.185143948532641E-003;
2.407500000000000E+009;1.963212341070175E-001;3.792205080389977E-002;1.395249040797353E-003;-1.248516375198960E-003;
2.407666666666667E+009;1.962832510471344E-001;3.779279068112373E-002;1.289689098484814E-003;-1.400534529238939E-003;
2.407833333333334E+009;1.958870142698288E-001;3.772696480154991E-002;1.293471781536937E-003;-1.274418784305453E-003;
2.408000000000000E+009;1.956656575202942E-001;3.763988241553307E-002;1.304202713072300E-003;-1.389127923175693E-003;
2.408166666666667E+009;1.950599104166031E-001;3.739753738045692E-002;1.375397434458137E-003;-1.304428558796644E-003;
2.408333333333334E+009;1.947486698627472E-001;3.682841733098030E-002;1.309411483816803E-003;-1.324121491052210E-003;
2.408500000000000E+009;1.937925368547440E-001;3.655508160591126E-002;1.320661394856870E-003;-1.407670089974999E-003;
2.408666666666667E+009;1.932718157768250E-001;3.603528067469597E-002;1.477316254749894E-003;-1.409830991178751E-003;
2.408833333333334E+009;1.924791932106018E-001;3.543560206890106E-002;1.392866601236165E-003;-1.652148785069585E-003;
2.409000000000000E+009;1.915294229984283E-001;3.449045121669769E-002;1.400455948896706E-003;-1.403375179506838E-003;
2.409166666666667E+009;1.905250400304794E-001;3.349261730909348E-002;1.516023068688810E-003;-1.570091699250042E-003;
2.409333333333334E+009;1.897417902946472E-001;3.251853957772255E-002;1.294442452490330E-003;-1.591305132023990E-003;
2.409500000000000E+009;1.885002702474594E-001;3.111622855067253E-002;1.421159831807017E-003;-1.699940301477909E-003;
2.409666666666667E+009;1.874709874391556E-001;2.982116676867008E-002;1.306438469327986E-003;-1.932102954015136E-003;
2.409833333333334E+009;1.864811033010483E-001;2.835235185921192E-002;1.423148903995752E-003;-1.831654109992087E-003;
2.410000000000000E+009;1.853783279657364E-001;2.659158036112785E-002;1.319500734098256E-003;-1.857607858255506E-003;
2.410166666666667E+009;1.843229383230209E-001;2.491085790097714E-002;1.257862779311836E-003;-1.897250651381910E-003;
2.410333333333334E+009;1.834437698125839E-001;2.309043519198895E-002;1.266900799237192E-003;-2.030250150710344E-003;
2.410500000000000E+009;1.822841316461563E-001;2.121477201581001E-002;1.101244124583900E-003;-2.073334297165275E-003;
2.410666666666667E+009;1.814552694559097E-001;1.899645105004311E-002;1.303757773712277E-003;-2.102692378684878E-003;
2.410833333333334E+009;1.808502972126007E-001;1.667738705873489E-002;1.226271968334913E-003;-2.124491846188903E-003;
2.411000000000000E+009;1.799543201923370E-001;1.454297360032797E-002;1.195462304167450E-003;-2.235224237665534E-003;
2.411166666666667E+009;1.793890297412872E-001;1.231918856501579E-002;1.285787206143141E-003;-2.346639754250646E-003;
2.411333333333334E+009;1.788340955972672E-001;9.884477593004704E-003;1.149375224485993E-003;-2.406983403488994E-003;
2.411500000000000E+009;1.783953756093979E-001;7.348773535341024E-003;1.164833898656070E-003;-2.497678389772773E-003;
2.411666666666667E+009;1.782256364822388E-001;5.138332024216652E-003;1.102696754969657E-003;-2.519157947972417E-003;
2.411833333333334E+009;1.779972016811371E-001;2.773066051304340E-003;9.535437566228211E-004;-2.552896272391081E-003;
2.412000000000000E+009;1.779647618532181E-001;2.921852283179760E-004;1.023494056425989E-003;-2.861680695787072E-003;
2.412166666666667E+009;1.781959533691406E-001;-2.227363642305136E-003;9.310419554822147E-004;-2.991304732859135E-003;
2.412333333333334E+009;1.784361302852631E-001;-4.722832702100277E-003;8.260761387646198E-004;-3.060791175812483E-003;
2.412500000000000E+009;1.789217889308929E-001;-7.256579585373402E-003;6.215863977558911E-004;-3.220034064725041E-003;
2.412666666666667E+009;1.793474256992340E-001;-9.700661525130272E-003;5.168237257748842E-004;-3.371182363480330E-003;
2.412833333333334E+009;1.799995899200440E-001;-1.212598476558924E-002;3.843139274977148E-004;-3.483549458906055E-003;
2.413000000000000E+009;1.808046400547028E-001;-1.454886328428984E-002;1.001404089038260E-004;-3.431809600442648E-003;
2.413166666666667E+009;1.816591322422028E-001;-1.684004440903664E-002;-9.669377504906151E-006;-3.517561359331012E-003;
2.413333333333334E+009;1.826324462890625E-001;-1.903288625180721E-002;-3.102154296357185E-004;-3.402812406420708E-003;
2.413500000000000E+009;1.833378076553345E-001;-2.142945863306522E-002;-5.516716046258807E-004;-3.684764262288809E-003;
2.413666666666667E+009;1.846797168254852E-001;-2.344605326652527E-002;-6.454645190387964E-004;-3.284447127953172E-003;
2.413833333333334E+009;1.857132613658905E-001;-2.553506568074226E-002;-9.142230264842510E-004;-3.282439429312944E-003;
2.414000000000000E+009;1.867508292198181E-001;-2.758043818175793E-002;-8.735977462492883E-004;-3.194966353476048E-003;
2.414166666666667E+009;1.881927102804184E-001;-2.930881269276142E-002;-1.080713234841824E-003;-3.144748043268919E-003;
2.414333333333334E+009;1.893022060394287E-001;-3.132765367627144E-002;-1.142844557762146E-003;-3.044729819521308E-003;
2.414500000000000E+009;1.906685531139374E-001;-3.266855329275131E-002;-1.209849258884788E-003;-2.964048879221082E-003;
2.414666666666667E+009;1.916843354701996E-001;-3.425951674580574E-002;-1.338460482656956E-003;-2.891847398132086E-003;
2.414833333333334E+009;1.928918361663818E-001;-3.554819524288178E-002;-1.343036186881363E-003;-2.822122536599636E-003;
2.415000000000000E+009;1.938825994729996E-001;-3.678166493773460E-002;-1.405837014317513E-003;-2.777594374492765E-003;
2.415166666666667E+009;1.952280104160309E-001;-3.780581057071686E-002;-1.493238611146808E-003;-2.809234661981463E-003;
2.415333333333334E+009;1.964178383350372E-001;-3.875666111707687E-002;-1.464433269575238E-003;-2.678581513464451E-003;
2.415500000000000E+009;1.975467205047607E-001;-3.948704525828362E-002;-1.743822707794607E-003;-2.638420090079308E-003;
2.415666666666667E+009;1.985651254653931E-001;-4.036452621221542E-002;-1.820822013542056E-003;-2.750791609287262E-003;
2.415833333333334E+009;1.994381099939346E-001;-4.091543331742287E-002;-1.929845777340233E-003;-2.674438292160630E-003;
2.416000000000000E+009;2.002736330032349E-001;-4.141239076852799E-002;-2.026995643973351E-003;-2.537627704441547E-003;
2.416166666666667E+009;2.009905129671097E-001;-4.206355288624764E-002;-1.985765993595123E-003;-2.536187414079905E-003;
2.416333333333334E+009;2.015523612499237E-001;-4.229519143700600E-002;-2.124264137819409E-003;-2.267886651679874E-003;
2.416500000000000E+009;2.020943760871887E-001;-4.241318255662918E-002;-2.058824291452766E-003;-2.225115429610014E-003;
2.416666666666667E+009;2.023875117301941E-001;-4.288791492581368E-002;-2.223557559773326E-003;-2.218558685854077E-003;
2.416833333333334E+009;2.025935053825378E-001;-4.275163635611534E-002;-2.303600544109941E-003;-2.070365473628044E-003;
2.417000000000000E+009;2.027717530727387E-001;-4.291820526123047E-002;-2.229538280516863E-003;-2.076282165944576E-003;
2.417166666666667E+009;2.024707049131393E-001;-4.276145622134209E-002;-2.215594053268433E-003;-1.914838794618845E-003;
2.417333333333334E+009;2.022760361433029E-001;-4.253489524126053E-002;-2.277637599036098E-003;-1.952771446667612E-003;
2.417500000000000E+009;2.020594030618668E-001;-4.255453869700432E-002;-2.424299018457532E-003;-1.822002464905381E-003;
2.417666666666667E+009;2.014372497797012E-001;-4.241575300693512E-002;-2.284295158460736E-003;-1.924559590406716E-003;
2.417833333333334E+009;2.009877562522888E-001;-4.218179732561112E-002;-2.407288411632180E-003;-1.708834897726774E-003;
2.418000000000000E+009;2.003446221351624E-001;-4.184417426586151E-002;-2.488128840923309E-003;-1.723402878269553E-003;
2.418166666666667E+009;1.995620727539063E-001;-4.184403270483017E-002;-2.499463269487023E-003;-1.657224958762527E-003;
2.418333333333334E+009;1.986202448606491E-001;-4.164846986532211E-002;-2.548230346292257E-003;-1.679656561464071E-003;
2.418500000000000E+009;1.975577771663666E-001;-4.166334122419357E-002;-2.574345795437694E-003;-1.648382400162518E-003;
2.418666666666667E+009;1.966608464717865E-001;-4.155756160616875E-002;-2.582721412181854E-003;-1.579345553182066E-003;
2.418833333333334E+009;1.953060030937195E-001;-4.174917936325073E-002;-2.505040029063821E-003;-1.495602307841182E-003;
2.419000000000000E+009;1.940048635005951E-001;-4.200493171811104E-002;-2.707100007683039E-003;-1.604227581992745E-003;
2.419166666666667E+009;1.928399801254273E-001;-4.220249876379967E-002;-2.482290146872401E-003;-1.642169314436615E-003;
2.419333333333334E+009;1.914468556642532E-001;-4.284393042325974E-002;-2.706596162170172E-003;-1.532206428237259E-003;
2.419500000000000E+009;1.898380219936371E-001;-4.313804954290390E-002;-2.664470579475164E-003;-1.593639608472586E-003;
2.419666666666667E+009;1.882504671812058E-001;-4.389790445566177E-002;-2.662400016561151E-003;-1.610064529813826E-003;
2.419833333333334E+009;1.865980625152588E-001;-4.456192627549171E-002;-2.779652364552021E-003;-1.737753977067769E-003;
2.420000000000000E+009;1.851090639829636E-001;-4.539357870817184E-002;-3.018399933353066E-003;-1.526271807961166E-003;
2.420166666666667E+009;1.835055351257324E-001;-4.631113260984421E-002;-3.039784962311387E-003;-1.699082087725401E-003;
2.420333333333334E+009;1.818238049745560E-001;-4.759624227881432E-002;-3.101652022451162E-003;-1.427517505362630E-003;
2.420500000000000E+009;1.801646798849106E-001;-4.884709417819977E-002;-3.412423888221383E-003;-1.507736858911812E-003;
2.420666666666667E+009;1.783765703439713E-001;-4.994061216711998E-002;-3.516477299854159E-003;-1.401582499966025E-003;
2.420833333333334E+009;1.767575591802597E-001;-5.139809474349022E-002;-3.574770409613848E-003;-1.457295962609351E-003;
2.421000000000000E+009;1.753772050142288E-001;-5.312232673168182E-002;-3.822211641818285E-003;-1.295375172048807E-003;
2.421166666666667E+009;1.739384233951569E-001;-5.469567701220512E-002;-3.754679113626480E-003;-1.091511687263846E-003;
2.421333333333334E+009;1.722607910633087E-001;-5.632172524929047E-002;-3.832282498478890E-003;-1.079272944480181E-003;
2.421500000000000E+009;1.710084974765778E-001;-5.818312242627144E-002;-4.061499144881964E-003;-7.372636464424431E-004;
2.421666666666667E+009;1.697739511728287E-001;-5.988168716430664E-002;-4.135601222515106E-003;-7.017205934971571E-004;
2.421833333333334E+009;1.686090677976608E-001;-6.170047074556351E-002;-4.201594274491072E-003;-4.428043903317303E-004;
2.422000000000000E+009;1.677012145519257E-001;-6.363640725612640E-002;-4.113242030143738E-003;-4.106671258341521E-004;
2.422166666666667E+009;1.666511148214340E-001;-6.595881283283234E-002;-4.330578260123730E-003;-6.865613249829039E-005;
2.422333333333334E+009;1.657753288745880E-001;-6.806834042072296E-002;-4.286160226911306E-003;-8.370180876227096E-005;
2.422500000000000E+009;1.649323403835297E-001;-6.969235092401505E-002;-4.236400127410889E-003;8.650238305563107E-005;
2.422666666666667E+009;1.642065644264221E-001;-7.186057418584824E-002;-4.236222244799137E-003;1.287740888074040E-004;
2.422833333333334E+009;1.638815850019455E-001;-7.398390024900436E-002;-4.359614569693804E-003;3.546448715496808E-004;
2.423000000000000E+009;1.633865833282471E-001;-7.612226903438568E-002;-4.426500760018826E-003;6.194541929289699E-004;
2.423166666666667E+009;1.630072444677353E-001;-7.803065329790115E-002;-4.391614813357592E-003;6.959330639801920E-004;
2.423333333333334E+009;1.626663208007813E-001;-7.997806370258331E-002;-4.378159530460835E-003;1.031275023706257E-003;
2.423500000000000E+009;1.626798063516617E-001;-8.177224546670914E-002;-4.503648262470961E-003;1.022928976453841E-003;
2.423666666666667E+009;1.628028452396393E-001;-8.368586748838425E-002;-4.512480925768614E-003;1.405161223374307E-003;
2.423833333333334E+009;1.625467687845230E-001;-8.556750416755676E-002;-4.394981078803539E-003;1.450507901608944E-003;
2.424000000000000E+009;1.629674732685089E-001;-8.727111667394638E-002;-4.421291407197714E-003;1.848196610808373E-003;
2.424166666666667E+009;1.629878580570221E-001;-8.887709677219391E-002;-4.297815263271332E-003;2.028175862506032E-003;
2.424333333333334E+009;1.631855368614197E-001;-9.051685780286789E-002;-4.251333419233561E-003;2.181731397286058E-003;
2.424500000000000E+009;1.635894179344177E-001;-9.225210547447205E-002;-4.084487911313772E-003;2.415551105514169E-003;
2.424666666666667E+009;1.638962477445602E-001;-9.350845217704773E-002;-3.985493909567595E-003;2.693040296435356E-003;
2.424833333333334E+009;1.645072996616364E-001;-9.483989328145981E-002;-3.779699094593525E-003;2.628233982250094E-003;
2.425000000000000E+009;1.649340838193893E-001;-9.603592753410339E-002;-3.849793458357453E-003;2.918643644079566E-003;
2.425166666666667E+009;1.651750802993774E-001;-9.709373861551285E-002;-3.464944427832961E-003;2.861091168597341E-003;
2.425333333333334E+009;1.654955744743347E-001;-9.798962622880936E-002;-3.444336121901870E-003;3.069117432460189E-003;
2.425500000000000E+009;1.660434305667877E-001;-9.913203120231628E-002;-3.034593770280480E-003;3.110960824415088E-003;
2.425666666666667E+009;1.664591580629349E-001;-9.971284866333008E-002;-3.226450178772211E-003;3.333336906507611E-003;
2.425833333333334E+009;1.667541563510895E-001;-1.005320772528648E-001;-2.894070930778980E-003;3.344948636367917E-003;
2.426000000000000E+009;1.672542542219162E-001;-1.008939892053604E-001;-2.843765541911125E-003;3.440381493419409E-003;
2.426166666666667E+009;1.676254123449326E-001;-1.015331670641899E-001;-2.784943906590343E-003;3.383947536349297E-003;
2.426333333333334E+009;1.677167117595673E-001;-1.018933281302452E-001;-2.618434606119990E-003;3.585200756788254E-003;
2.426500000000000E+009;1.680877804756165E-001;-1.021621748805046E-001;-2.415432827547193E-003;3.538565244525671E-003;
2.426666666666667E+009;1.683936864137650E-001;-1.024756357073784E-001;-2.341061364859343E-003;3.522122045978904E-003;
2.426833333333334E+009;1.686041057109833E-001;-1.027541533112526E-001;-2.236068481579423E-003;3.555689007043839E-003;
2.427000000000000E+009;1.685515344142914E-001;-1.029385402798653E-001;-2.010144060477614E-003;3.718535415828228E-003;
2.427166666666667E+009;1.686882525682449E-001;-1.029873415827751E-001;-2.085256623104215E-003;3.637320362031460E-003;
2.427333333333334E+009;1.684896051883698E-001;-1.032190918922424E-001;-1.894284621812403E-003;3.782101208344102E-003;
2.427500000000000E+009;1.682494580745697E-001;-1.033337786793709E-001;-1.627091900445521E-003;3.736834740266204E-003;
2.427666666666667E+009;1.680225580930710E-001;-1.034106090664864E-001;-1.599756418727338E-003;3.805046435445547E-003;
