# Version 1.00
#
freq[Hz];re:Trc1_S11;im:Trc1_S11;re:Trc2_S21;im:Trc2_S21;
2.400000000000000E+009;1.552394777536392E-001;1.067383885383606E-001;3.641972143668681E-004;7.399494643323124E-004;
2.400166666666667E+009;1.550070196390152E-001;1.043177545070648E-001;5.102541763335466E-004;7.377834408544004E-004;
2.400333333333334E+009;1.549384146928787E-001;1.018779724836350E-001;5.426125135272741E-004;8.198875584639609E-004;
2.400500000000000E+009;1.548653095960617E-001;9.927076101303101E-002;5.590012879110873E-004;9.244229295291007E-004;
2.400666666666667E+009;1.551137119531632E-001;9.668265283107758E-002;8.002048707567155E-004;1.128904754295945E-003;
2.400833333333334E+009;1.547905355691910E-001;9.393015503883362E-002;9.894755203276873E-004;1.048451173119247E-003;
2.401000000000000E+009;1.550457328557968E-001;9.104993939399719E-002;1.113720238208771E-003;1.227157888934016E-003;
2.401166666666667E+009;1.550634205341339E-001;8.824587613344193E-002;1.209197100251913E-003;1.195848453789949E-003;
2.401333333333334E+009;1.553568840026856E-001;8.547905832529068E-002;1.695815706625581E-003;1.121283508837223E-003;
2.401500000000000E+009;1.559953540563583E-001;8.250594884157181E-002;1.568750827573240E-003;1.190103124827147E-003;
2.401666666666667E+009;1.563973128795624E-001;7.950995862483978E-002;1.762064755894244E-003;9.250883595086634E-004;
2.401833333333334E+009;1.567034274339676E-001;7.694408297538757E-002;1.864844583906233E-003;8.389815920963883E-004;
2.402000000000000E+009;1.574986279010773E-001;7.420523464679718E-002;2.046398352831602E-003;7.548498688265681E-004;
2.402166666666667E+009;1.583194136619568E-001;7.159709930419922E-002;2.179909963160753E-003;5.402746028266847E-004;
2.402333333333334E+009;1.594154089689255E-001;6.888223439455032E-002;2.194419968873262E-003;4.501614603213966E-004;
2.402500000000000E+009;1.605688482522965E-001;6.629587709903717E-002;2.246811520308256E-003;3.707419091369957E-004;
2.402666666666667E+009;1.615688502788544E-001;6.385449320077896E-002;2.307310467585921E-003;2.246658696094528E-004;
2.402833333333334E+009;1.630235016345978E-001;6.149476394057274E-002;2.235254505649209E-003;-1.323892593063647E-005;
2.403000000000000E+009;1.644792556762695E-001;5.907486751675606E-002;2.141611184924841E-003;-3.041711752302945E-004;
2.403166666666667E+009;1.662853658199310E-001;5.691268295049667E-002;2.164053730666637E-003;-2.467730955686420E-004;
2.403333333333334E+009;1.675309091806412E-001;5.482149869203568E-002;2.065078122541308E-003;-3.337208472657949E-004;
2.403500000000000E+009;1.694211214780808E-001;5.266535654664040E-002;1.848507672548294E-003;-3.579702752176672E-004;
2.403666666666667E+009;1.712235361337662E-001;5.072960257530212E-002;1.964185154065490E-003;-4.432260466273874E-004;
2.403833333333334E+009;1.728418022394180E-001;4.890372604131699E-002;1.819148426875472E-003;-4.452202701941133E-004;
2.404000000000000E+009;1.743118166923523E-001;4.709022492170334E-002;1.750409952364862E-003;-4.304238827899098E-004;
2.404166666666667E+009;1.759897917509079E-001;4.554620385169983E-002;1.738601364195347E-003;-3.700376255437732E-004;
2.404333333333334E+009;1.775963604450226E-001;4.398485273122788E-002;1.905989018268883E-003;-5.005653365515173E-004;
2.404500000000000E+009;1.792796105146408E-001;4.263154044747353E-002;2.002573804929853E-003;-5.210404051467776E-004;
2.404666666666667E+009;1.809860169887543E-001;4.171198233962059E-002;2.011588076129556E-003;-4.655384400393814E-004;
2.404833333333334E+009;1.827010363340378E-001;4.038880765438080E-002;2.072013914585114E-003;-6.428701453842223E-004;
2.405000000000000E+009;1.841192543506622E-001;3.980859741568565E-002;1.993564423173666E-003;-7.375188288278878E-004;
2.405166666666667E+009;1.854693889617920E-001;3.913695737719536E-002;1.984462607651949E-003;-1.002416713163257E-003;
2.405333333333334E+009;1.869877874851227E-001;3.877299278974533E-002;1.873606001026928E-003;-9.524524211883545E-004;
2.405500000000000E+009;1.884086281061173E-001;3.823520243167877E-002;1.934572821483016E-003;-1.158031751401722E-003;
2.405666666666667E+009;1.895853281021118E-001;3.784786537289619E-002;1.849750988185406E-003;-1.223012455739081E-003;
2.405833333333334E+009;1.907696127891541E-001;3.773672506213188E-002;1.630373182706535E-003;-1.327354460954666E-003;
2.406000000000000E+009;1.918374598026276E-001;3.754315525293350E-002;1.653181621804833E-003;-1.295978087000549E-003;
2.406166666666667E+009;1.928984075784683E-001;3.731745854020119E-002;1.505966647528112E-003;-1.229489804245532E-003;
2.406333333333334E+009;1.938899010419846E-001;3.745849058032036E-002;1.585942809469998E-003;-1.207329682074487E-003;
2.406500000000000E+009;1.946920007467270E-001;3.746251761913300E-002;1.380928675644100E-003;-1.279064337722957E-003;
2.406666666666667E+009;1.952708810567856E-001;3.752269223332405E-002;1.286452519707382E-003;-1.240020617842674E-003;
2.406833333333334E+009;1.958440989255905E-001;3.746335208415985E-002;1.458912389352918E-003;-1.267425715923309E-003;
2.407000000000000E+009;1.961576193571091E-001;3.769152238965035E-002;1.203970867209137E-003;-1.241054618731141E-003;
2.407166666666667E+009;1.964786797761917E-001;3.751632943749428E-002;1.352841500192881E-003;-1.289895153604448E-003;
2.407333333333334E+009;1.965149790048599E-001;3.766854479908943E-002;1.303065568208695E-003;-1.274417387321591E-003;
2.407500000000000E+009;1.962431371212006E-001;3.780808299779892E-002;1.301952055655420E-003;-1.227238564752042E-003;
2.407666666666667E+009;1.963512152433395E-001;3.778544813394547E-002;1.373015460558236E-003;-1.204263651743531E-003;
2.407833333333334E+009;1.957841217517853E-001;3.772217035293579E-002;1.237418735399842E-003;-1.226218184456229E-003;
2.408000000000000E+009;1.957405805587769E-001;3.760392591357231E-002;1.419397536665201E-003;-1.323351170867682E-003;
2.408166666666667E+009;1.950901299715042E-001;3.733061999082565E-002;1.287551247514784E-003;-1.457934966310859E-003;
2.408333333333334E+009;1.947069466114044E-001;3.669900819659233E-002;1.291880267672241E-003;-1.384926610626280E-003;
2.408500000000000E+009;1.939276903867722E-001;3.655828535556793E-002;1.285503385588527E-003;-1.390136894769967E-003;
2.408666666666667E+009;1.933250725269318E-001;3.606474027037621E-002;1.381048699840903E-003;-1.351864892058075E-003;
2.408833333333334E+009;1.924437284469605E-001;3.528070077300072E-002;1.310203806497157E-003;-1.370926736854017E-003;
2.409000000000000E+009;1.916356384754181E-001;3.441879898309708E-002;1.278195530176163E-003;-1.699645305052400E-003;
2.409166666666667E+009;1.905180215835571E-001;3.338324651122093E-002;1.394428662024438E-003;-1.492290408350527E-003;
2.409333333333334E+009;1.896722763776779E-001;3.241368755698204E-002;1.289680134505034E-003;-1.685214694589376E-003;
2.409500000000000E+009;1.885656565427780E-001;3.122806921601296E-002;1.234947936609387E-003;-1.638986286707223E-003;
2.409666666666667E+009;1.874556690454483E-001;2.987936511635780E-002;1.320018549449742E-003;-1.680286950431764E-003;
2.409833333333334E+009;1.864024400711060E-001;2.833046950399876E-002;1.386728603392839E-003;-1.962196081876755E-003;
2.410000000000000E+009;1.854690760374069E-001;2.666547149419785E-002;1.436898601241410E-003;-1.809730543754995E-003;
2.410166666666667E+009;1.842966377735138E-001;2.496072836220264E-002;1.212007482536137E-003;-1.903713098727167E-003;
2.410333333333334E+009;1.833994686603546E-001;2.319164201617241E-002;1.203674590215087E-003;-1.983440713956952E-003;
2.410500000000000E+009;1.824543327093124E-001;2.123445272445679E-002;1.347202691249549E-003;-2.057202160358429E-003;
2.410666666666667E+009;1.815492808818817E-001;1.901046000421047E-002;1.239046105183661E-003;-2.113125985488296E-003;
2.410833333333334E+009;1.808621883392334E-001;1.660999096930027E-002;1.139254192821682E-003;-2.091864822432399E-003;
2.411000000000000E+009;1.800062209367752E-001;1.453765481710434E-002;1.190715469419956E-003;-2.199860988184810E-003;
2.411166666666667E+009;1.793790310621262E-001;1.227982249110937E-002;1.162095926702023E-003;-2.356193261221051E-003;
2.411333333333334E+009;1.788324564695358E-001;9.840598329901695E-003;1.028034137561917E-003;-2.491499762982130E-003;
2.411500000000000E+009;1.784857064485550E-001;7.545410189777613E-003;1.068132813088596E-003;-2.409601584076881E-003;
2.411666666666667E+009;1.782026588916779E-001;5.133912898600102E-003;1.038983580656350E-003;-2.558474894613028E-003;
2.411833333333334E+009;1.777704805135727E-001;2.667660359293222E-003;1.025130390189588E-003;-2.737609902396798E-003;
2.412000000000000E+009;1.781782656908035E-001;1.018628245219588E-004;9.572682902216911E-004;-2.880392130464315E-003;
2.412166666666667E+009;1.781158000230789E-001;-2.136617898941040E-003;8.608627831563354E-004;-2.869539195671678E-003;
2.412333333333334E+009;1.783617287874222E-001;-4.830706864595413E-003;8.476977818645537E-004;-3.034127177670598E-003;
2.412500000000000E+009;1.788634806871414E-001;-7.106723729521036E-003;6.382368737831712E-004;-3.109266282990575E-003;
2.412666666666667E+009;1.792865991592407E-001;-9.689602069556713E-003;4.962789244018495E-004;-3.235036972910166E-003;
2.412833333333334E+009;1.798851042985916E-001;-1.202694699168205E-002;3.290375752840191E-004;-3.379292786121368E-003;
2.413000000000000E+009;1.807000190019608E-001;-1.444740593433380E-002;7.790778181515634E-005;-3.393839346244931E-003;
2.413166666666667E+009;1.814316213130951E-001;-1.667857170104981E-002;-1.110039011109620E-004;-3.428023774176836E-003;
2.413333333333334E+009;1.825464516878128E-001;-1.892187818884850E-002;-3.213028539903462E-004;-3.331464016810060E-003;
2.413500000000000E+009;1.833333373069763E-001;-2.126453444361687E-002;-4.824714269489050E-004;-3.483797656372190E-003;
2.413666666666667E+009;1.846407800912857E-001;-2.346232533454895E-002;-6.618547486141324E-004;-3.241913160309196E-003;
2.413833333333334E+009;1.857390552759171E-001;-2.546893991529942E-002;-8.933103526942432E-004;-3.245001193135977E-003;
2.414000000000000E+009;1.868761330842972E-001;-2.745707705616951E-002;-1.075690146535635E-003;-3.223112551495433E-003;
2.414166666666667E+009;1.880338490009308E-001;-2.914181537926197E-002;-1.079006236977875E-003;-3.077257890254259E-003;
2.414333333333334E+009;1.892998516559601E-001;-3.105825185775757E-002;-1.162874745205045E-003;-2.959144767373800E-003;
2.414500000000000E+009;1.904417276382446E-001;-3.275059908628464E-002;-1.334012602455914E-003;-2.804762450978160E-003;
2.414666666666667E+009;1.916817277669907E-001;-3.409564867615700E-002;-1.267576124519110E-003;-2.817917848005891E-003;
2.414833333333334E+009;1.927614808082581E-001;-3.541408851742744E-002;-1.394472084939480E-003;-2.843921072781086E-003;
2.415000000000000E+009;1.940006911754608E-001;-3.664909303188324E-002;-1.556406961753964E-003;-2.827306510880590E-003;
2.415166666666667E+009;1.952620297670364E-001;-3.777796775102615E-002;-1.563650788739324E-003;-2.768938895314932E-003;
2.415333333333334E+009;1.963006108999252E-001;-3.867138177156448E-002;-1.425157184712589E-003;-2.796696731820703E-003;
2.415500000000000E+009;1.974274069070816E-001;-3.929222375154495E-002;-1.604602788574994E-003;-2.660255646333098E-003;
2.415666666666667E+009;1.984994560480118E-001;-4.014895111322403E-002;-1.713774865493178E-003;-2.602195832878351E-003;
2.415833333333334E+009;1.993723511695862E-001;-4.067246243357658E-002;-1.679832465015352E-003;-2.557814586907625E-003;
2.416000000000000E+009;2.001984119415283E-001;-4.136557877063751E-002;-1.870554755441845E-003;-2.554595703259111E-003;
2.416166666666667E+009;2.010046690702438E-001;-4.189378023147583E-002;-2.034576842561364E-003;-2.495488850399852E-003;
2.416333333333334E+009;2.016955316066742E-001;-4.206467047333717E-002;-1.961521571502090E-003;-2.445285674184561E-003;
2.416500000000000E+009;2.020945698022842E-001;-4.237921908497810E-002;-2.111220965161920E-003;-2.152614993974567E-003;
2.416666666666667E+009;2.023911774158478E-001;-4.267338290810585E-002;-2.004592679440975E-003;-2.309883944690228E-003;
2.416833333333334E+009;2.026068121194840E-001;-4.255024343729019E-002;-2.319889608770609E-003;-2.065240405499935E-003;
2.417000000000000E+009;2.027814686298370E-001;-4.273134842514992E-002;-2.135996241122484E-003;-2.058603800833225E-003;
2.417166666666667E+009;2.026536017656326E-001;-4.262542724609375E-002;-2.289489610120654E-003;-1.919251168146730E-003;
2.417333333333334E+009;2.023402899503708E-001;-4.252763465046883E-002;-2.126482082530856E-003;-2.011491451412439E-003;
2.417500000000000E+009;2.020969390869141E-001;-4.251230880618095E-002;-2.193775260820985E-003;-1.982175745069981E-003;
2.417666666666667E+009;2.014583349227905E-001;-4.232195019721985E-002;-2.247337484732270E-003;-1.738186925649643E-003;
2.417833333333334E+009;2.010149210691452E-001;-4.211761057376862E-002;-2.439556876197457E-003;-1.732618198730052E-003;
2.418000000000000E+009;2.004481405019760E-001;-4.181738570332527E-002;-2.485469682142139E-003;-1.782663515768945E-003;
2.418166666666667E+009;1.996849328279495E-001;-4.179093241691589E-002;-2.479390474036336E-003;-1.594613422639668E-003;
2.418333333333334E+009;1.986703127622604E-001;-4.165099561214447E-002;-2.489607781171799E-003;-1.605462864972651E-003;
2.418500000000000E+009;1.976842135190964E-001;-4.159858822822571E-002;-2.586212940514088E-003;-1.533030415885150E-003;
2.418666666666667E+009;1.967808604240418E-001;-4.150781780481339E-002;-2.425464568659663E-003;-1.588178100064397E-003;
2.418833333333334E+009;1.955232471227646E-001;-4.172914847731590E-002;-2.507102675735951E-003;-1.534260809421539E-003;
2.419000000000000E+009;1.941710114479065E-001;-4.190472140908241E-002;-2.553984755650163E-003;-1.499931793659926E-003;
2.419166666666667E+009;1.929413676261902E-001;-4.207809269428253E-002;-2.550619887188077E-003;-1.522897393442690E-003;
2.419333333333334E+009;1.914030760526657E-001;-4.267862811684609E-002;-2.460956340655685E-003;-1.501415972597897E-003;
2.419500000000000E+009;1.900426447391510E-001;-4.308040067553520E-002;-2.621024847030640E-003;-1.445975736714900E-003;
2.419666666666667E+009;1.882965415716171E-001;-4.390865564346314E-002;-2.681464655324817E-003;-1.672073500230908E-003;
2.419833333333334E+009;1.866943836212158E-001;-4.455523192882538E-002;-2.823967253789306E-003;-1.533215865492821E-003;
2.420000000000000E+009;1.850584000349045E-001;-4.562239348888397E-002;-3.003042656928301E-003;-1.528939465060830E-003;
2.420166666666667E+009;1.835428327322006E-001;-4.633625969290733E-002;-3.039623145014048E-003;-1.555856666527689E-003;
2.420333333333334E+009;1.819690018892288E-001;-4.761350527405739E-002;-3.276079194620252E-003;-1.559741678647697E-003;
2.420500000000000E+009;1.802484095096588E-001;-4.894307255744934E-002;-3.283857367932797E-003;-1.468300120905042E-003;
2.420666666666667E+009;1.785926073789597E-001;-5.002066865563393E-002;-3.415972692891955E-003;-1.409489777870476E-003;
2.420833333333334E+009;1.768780350685120E-001;-5.145039781928062E-002;-3.368693171069026E-003;-1.273708068765700E-003;
2.421000000000000E+009;1.753906160593033E-001;-5.314403772354126E-002;-3.536965698003769E-003;-1.274920534342527E-003;
2.421166666666667E+009;1.739843338727951E-001;-5.483492091298103E-002;-3.789181821048260E-003;-1.057499437592924E-003;
2.421333333333334E+009;1.723210662603378E-001;-5.641431361436844E-002;-3.842842066660523E-003;-9.862952865660191E-004;
2.421500000000000E+009;1.710218936204910E-001;-5.833372846245766E-002;-4.060556646436453E-003;-9.195926832035184E-004;
2.421666666666667E+009;1.697740107774735E-001;-6.011806428432465E-002;-3.960094414651394E-003;-6.670228322036564E-004;
2.421833333333334E+009;1.687736064195633E-001;-6.203558295965195E-002;-4.136584699153900E-003;-4.141797835472971E-004;
2.422000000000000E+009;1.676989495754242E-001;-6.390320509672165E-002;-4.241299815475941E-003;-5.436518695205450E-004;
2.422166666666667E+009;1.668610721826553E-001;-6.596288084983826E-002;-4.063919186592102E-003;-2.703186182770878E-004;
2.422333333333334E+009;1.657669693231583E-001;-6.810146570205689E-002;-4.162350669503212E-003;-6.378418765962124E-005;
2.422500000000000E+009;1.651746034622192E-001;-7.005130499601364E-002;-4.229639191180468E-003;1.038312038872391E-004;
2.422666666666667E+009;1.641957908868790E-001;-7.203616946935654E-002;-4.352219868451357E-003;5.723369031329639E-005;
2.422833333333334E+009;1.638811528682709E-001;-7.394795864820480E-002;-4.285522736608982E-003;3.286538121756166E-004;
2.423000000000000E+009;1.631879508495331E-001;-7.616591453552246E-002;-4.259846173226833E-003;5.551037611439824E-004;
2.423166666666667E+009;1.630006879568100E-001;-7.821615785360336E-002;-4.431087989360094E-003;6.655515171587467E-004;
2.423333333333334E+009;1.626848131418228E-001;-8.006794005632401E-002;-4.446883685886860E-003;8.355383761227131E-004;
2.423500000000000E+009;1.626909226179123E-001;-8.197929710149765E-002;-4.385360050946474E-003;1.078231493011117E-003;
2.423666666666667E+009;1.627119034528732E-001;-8.392325043678284E-002;-4.427596461027861E-003;1.195871154777706E-003;
2.423833333333334E+009;1.626441478729248E-001;-8.558607101440430E-002;-4.423755221068859E-003;1.458484679460526E-003;
2.424000000000000E+009;1.628147810697556E-001;-8.740867674350739E-002;-4.422233439981937E-003;1.843720907345414E-003;
2.424166666666667E+009;1.628371775150299E-001;-8.894065767526627E-002;-4.337018355727196E-003;2.024522982537746E-003;
2.424333333333334E+009;1.631760150194168E-001;-9.052465111017227E-002;-4.046329297125340E-003;2.162635093554854E-003;
2.424500000000000E+009;1.636982560157776E-001;-9.222394973039627E-002;-4.199438728392124E-003;2.337286248803139E-003;
2.424666666666667E+009;1.637216955423355E-001;-9.366503357887268E-002;-3.979107830673456E-003;2.604019828140736E-003;
2.424833333333334E+009;1.643754839897156E-001;-9.490321576595306E-002;-3.783186431974173E-003;2.675547264516354E-003;
2.425000000000000E+009;1.646963804960251E-001;-9.611013531684876E-002;-3.620115341618657E-003;2.921754261478782E-003;
2.425166666666667E+009;1.651748716831207E-001;-9.709995239973068E-002;-3.411855082958937E-003;2.996566472575069E-003;
2.425333333333334E+009;1.654220819473267E-001;-9.815060347318649E-002;-3.386433701962233E-003;3.205767134204507E-003;
2.425500000000000E+009;1.659258008003235E-001;-9.912497550249100E-002;-3.292628331109881E-003;3.202511463314295E-003;
2.425666666666667E+009;1.664454936981201E-001;-9.971256554126740E-002;-2.978515345603228E-003;3.353451844304800E-003;
2.425833333333334E+009;1.666418164968491E-001;-1.005122438073158E-001;-2.997445641085506E-003;3.252738155424595E-003;
2.426000000000000E+009;1.671945154666901E-001;-1.009599193930626E-001;-2.741394564509392E-003;3.414051374420524E-003;
2.426166666666667E+009;1.675126999616623E-001;-1.014602631330490E-001;-2.747987862676382E-003;3.503611311316490E-003;
2.426333333333334E+009;1.677666157484055E-001;-1.019824147224426E-001;-2.451246604323387E-003;3.515777876600623E-003;
2.426500000000000E+009;1.681245565414429E-001;-1.021811068058014E-001;-2.466179430484772E-003;3.577711759135127E-003;
2.426666666666667E+009;1.682523041963577E-001;-1.025056615471840E-001;-2.356778830289841E-003;3.649366786703467E-003;
2.426833333333334E+009;1.686477214097977E-001;-1.028842180967331E-001;-2.200254937633872E-003;3.582496894523501E-003;
2.427000000000000E+009;1.686703562736511E-001;-1.030028089880943E-001;-2.186384750530124E-003;3.720990149304271E-003;
2.427166666666667E+009;1.686028689146042E-001;-1.030364185571671E-001;-1.919263973832130E-003;3.798170015215874E-003;
2.427333333333334E+009;1.684650331735611E-001;-1.032260954380035E-001;-1.817873213440180E-003;3.815647447481751E-003;
2.427500000000000E+009;1.682910472154617E-001;-1.033896580338478E-001;-1.795492717064917E-003;3.827580250799656E-003;
2.427666666666667E+009;1.680734157562256E-001;-1.034071519970894E-001;-1.528909895569086E-003;3.932327497750521E-003;
