# Version 1.00
#
freq[Hz];re:Trc1_S11;im:Trc1_S11;re:Trc2_S21;im:Trc2_S21;
2.400000000000000E+009;1.572789549827576E-001;6.297998130321503E-002;4.585280257742852E-004;4.886231385171413E-003;
2.400166666666667E+009;1.572837978601456E-001;6.117201596498489E-002;6.214049062691629E-004;4.776482004672289E-003;
2.400333333333334E+009;1.571957767009735E-001;5.913725867867470E-002;8.431726018898189E-004;4.832427948713303E-003;
2.400500000000000E+009;1.571543812751770E-001;5.730959400534630E-002;9.270160226151347E-004;4.764570388942957E-003;
2.400666666666667E+009;1.571791470050812E-001;5.531520396471024E-002;1.202962361276150E-003;4.711841233074665E-003;
2.400833333333334E+009;1.573554277420044E-001;5.340654030442238E-002;1.371621503494680E-003;4.624974913895130E-003;
2.401000000000000E+009;1.573574095964432E-001;5.130080878734589E-002;1.657470129430294E-003;4.666107241064310E-003;
2.401166666666667E+009;1.575769037008286E-001;4.892317950725555E-002;1.784266787581146E-003;4.660059232264757E-003;
2.401333333333334E+009;1.578407287597656E-001;4.694490879774094E-002;1.858899137005210E-003;4.670028574764729E-003;
2.401500000000000E+009;1.584592461585999E-001;4.497366771101952E-002;2.051409566774964E-003;4.515721462666988E-003;
2.401666666666667E+009;1.586683243513107E-001;4.296138137578964E-002;2.214732579886913E-003;4.302620887756348E-003;
2.401833333333334E+009;1.590721160173416E-001;4.071730747818947E-002;2.410453744232655E-003;4.325644113123417E-003;
2.402000000000000E+009;1.593597531318665E-001;3.889109566807747E-002;2.651378978043795E-003;4.229723475873470E-003;
2.402166666666667E+009;1.600208580493927E-001;3.684753179550171E-002;2.839440014213324E-003;3.983100876212120E-003;
2.402333333333334E+009;1.606716960668564E-001;3.485728055238724E-002;2.913500182330608E-003;3.943244460970163E-003;
2.402500000000000E+009;1.614658236503601E-001;3.324257582426071E-002;3.154182806611061E-003;3.876047441735864E-003;
2.402666666666667E+009;1.621910333633423E-001;3.150255233049393E-002;3.464284352958202E-003;3.659101435914636E-003;
2.402833333333334E+009;1.630129963159561E-001;2.982592210173607E-002;3.620670875534415E-003;3.695055842399597E-003;
2.403000000000000E+009;1.637987941503525E-001;2.816200442612171E-002;3.619114169850946E-003;3.522538114339113E-003;
2.403166666666667E+009;1.647795438766480E-001;2.655074931681156E-002;4.003899637609720E-003;3.153013065457344E-003;
2.403333333333334E+009;1.659307032823563E-001;2.526174671947956E-002;3.949515055865049E-003;3.235759446397424E-003;
2.403500000000000E+009;1.665345728397369E-001;2.399983443319798E-002;4.026085603982210E-003;3.060148796066642E-003;
2.403666666666667E+009;1.675975322723389E-001;2.256443910300732E-002;4.279287531971932E-003;2.872404176741839E-003;
2.403833333333334E+009;1.686125397682190E-001;2.131628431379795E-002;4.379309248179197E-003;2.295507350936532E-003;
2.404000000000000E+009;1.696467250585556E-001;2.027116902172566E-002;4.353011026978493E-003;2.302215201780200E-003;
2.404166666666667E+009;1.704811006784439E-001;1.909678801894188E-002;4.420300479978323E-003;2.159944735467434E-003;
2.404333333333334E+009;1.714816838502884E-001;1.822143793106079E-002;4.677277524024248E-003;1.873399131000042E-003;
2.404500000000000E+009;1.724134683609009E-001;1.746534369885922E-002;4.484774544835091E-003;1.430795760825276E-003;
2.404666666666667E+009;1.735598146915436E-001;1.656925678253174E-002;4.498292692005634E-003;1.256244140677154E-003;
2.404833333333334E+009;1.743513345718384E-001;1.578112505376339E-002;4.833830520510674E-003;1.159846084192395E-003;
2.405000000000000E+009;1.750891059637070E-001;1.511343009769917E-002;4.749696236103773E-003;9.632961591705680E-004;
2.405166666666667E+009;1.759569495916367E-001;1.451366581022739E-002;4.557088948786259E-003;5.117232794873416E-004;
2.405333333333334E+009;1.769560128450394E-001;1.396031863987446E-002;4.678102210164070E-003;4.435816663317382E-004;
2.405500000000000E+009;1.775377094745636E-001;1.348630432039499E-002;4.553481936454773E-003;2.464751014485955E-004;
2.405666666666667E+009;1.779538691043854E-001;1.326178852468729E-002;4.614857491105795E-003;-1.345175114693120E-004;
2.405833333333334E+009;1.784567385911942E-001;1.281638629734516E-002;4.632560070604086E-003;-8.575613173888996E-005;
2.406000000000000E+009;1.791749149560928E-001;1.238458324223757E-002;4.519694019109011E-003;-4.331358068156987E-004;
2.406166666666667E+009;1.794717162847519E-001;1.219450589269400E-002;4.189120139926672E-003;-4.399794270284474E-004;
2.406333333333334E+009;1.800535023212433E-001;1.192017178982496E-002;4.310546908527613E-003;-8.311727433465421E-004;
2.406500000000000E+009;1.801047921180725E-001;1.154204551130533E-002;4.097837489098311E-003;-7.963547832332552E-004;
2.406666666666667E+009;1.802672445774078E-001;1.126070320606232E-002;4.013367928564549E-003;-1.082009170204401E-003;
2.406833333333334E+009;1.805225908756256E-001;1.091384701430798E-002;3.930529113858938E-003;-1.134924939833581E-003;
2.407000000000000E+009;1.804190725088120E-001;1.075334474444389E-002;3.879790892824531E-003;-1.299109775573015E-003;
2.407166666666667E+009;1.806560009717941E-001;1.043266057968140E-002;3.749558702111244E-003;-1.227607484906912E-003;
2.407333333333334E+009;1.803145557641983E-001;9.904116392135620E-003;3.656086046248674E-003;-1.463446766138077E-003;
2.407500000000000E+009;1.800636500120163E-001;9.540181607007980E-003;3.484471235424280E-003;-1.729956362396479E-003;
2.407666666666667E+009;1.799748688936234E-001;9.058045223355293E-003;3.459139261394739E-003;-1.730230287648737E-003;
2.407833333333334E+009;1.794162392616272E-001;8.392847143113613E-003;3.193701151758432E-003;-1.715185469947755E-003;
2.408000000000000E+009;1.791246086359024E-001;7.729094941169024E-003;3.140158951282501E-003;-1.841959077864885E-003;
2.408166666666667E+009;1.787207573652268E-001;7.196626160293818E-003;3.076334483921528E-003;-1.862824894487858E-003;
2.408333333333334E+009;1.783467829227448E-001;6.498886737972498E-003;2.999493619427085E-003;-1.974462764337659E-003;
2.408500000000000E+009;1.775982528924942E-001;5.489658564329147E-003;2.946391701698303E-003;-1.967098796740174E-003;
2.408666666666667E+009;1.769023090600967E-001;4.640538245439529E-003;2.901490312069655E-003;-2.009625313803554E-003;
2.408833333333334E+009;1.764168739318848E-001;3.485103370621800E-003;2.807459328323603E-003;-2.109918510541320E-003;
2.409000000000000E+009;1.755127757787705E-001;2.539674052968621E-003;2.561689121648669E-003;-2.095163334161043E-003;
2.409166666666667E+009;1.749462932348251E-001;1.356848981231451E-003;2.602534368634224E-003;-2.155843656510115E-003;
2.409333333333334E+009;1.744001805782318E-001;5.150978722667787E-006;2.563837217167020E-003;-2.327264985069633E-003;
2.409500000000000E+009;1.735400706529617E-001;-1.466511981561780E-003;2.530164318159223E-003;-2.301267581060529E-003;
2.409666666666667E+009;1.727207452058792E-001;-2.734343986958265E-003;2.372398506850004E-003;-2.273370278999209E-003;
2.409833333333334E+009;1.722076535224915E-001;-4.203300923109055E-003;2.183378906920552E-003;-2.405145671218634E-003;
2.410000000000000E+009;1.716396510601044E-001;-5.746618844568729E-003;2.283117501065135E-003;-2.420767676085234E-003;
2.410166666666667E+009;1.709392517805100E-001;-7.319030817598105E-003;1.990005839616060E-003;-2.468533813953400E-003;
2.410333333333334E+009;1.704417318105698E-001;-9.036389179527760E-003;2.029136987403035E-003;-2.523707691580057E-003;
2.410500000000000E+009;1.699066013097763E-001;-1.091157738119364E-002;1.952564693056047E-003;-2.630248665809631E-003;
2.410666666666667E+009;1.694003939628601E-001;-1.281347591429949E-002;1.858982141129673E-003;-2.608802169561386E-003;
2.410833333333334E+009;1.689851731061935E-001;-1.446090266108513E-002;1.793494098819792E-003;-2.617598744109273E-003;
2.411000000000000E+009;1.685700267553330E-001;-1.655321754515171E-002;1.712344354018569E-003;-2.700258977711201E-003;
2.411166666666667E+009;1.683825850486755E-001;-1.829252764582634E-002;1.440289895981550E-003;-2.861919812858105E-003;
2.411333333333334E+009;1.681577861309052E-001;-2.020200341939926E-002;1.438579289242625E-003;-2.771280705928803E-003;
2.411500000000000E+009;1.677248030900955E-001;-2.223912626504898E-002;1.444959314540029E-003;-2.856892533600330E-003;
2.411666666666667E+009;1.680262535810471E-001;-2.416965179145336E-002;1.323629636317492E-003;-2.956320997327566E-003;
2.411833333333334E+009;1.679183393716812E-001;-2.614623121917248E-002;1.199566991999745E-003;-3.031468717381358E-003;
2.412000000000000E+009;1.680619865655899E-001;-2.801616676151753E-002;9.725861600600183E-004;-3.175580641254783E-003;
2.412166666666667E+009;1.681048274040222E-001;-3.006109967827797E-002;6.965348729863763E-004;-3.085684264078736E-003;
2.412333333333334E+009;1.685319542884827E-001;-3.188328444957733E-002;8.044386631809175E-004;-3.143457928672433E-003;
2.412500000000000E+009;1.685900092124939E-001;-3.367378562688828E-002;5.666086799465120E-004;-3.198364051058888E-003;
2.412666666666667E+009;1.690490096807480E-001;-3.564257919788361E-002;3.797306853812188E-004;-3.212278010323644E-003;
2.412833333333334E+009;1.696394234895706E-001;-3.747940063476563E-002;3.407935437280685E-004;-3.156642196699977E-003;
2.413000000000000E+009;1.698437482118607E-001;-3.921968117356300E-002;2.042308042291552E-004;-3.086415352299810E-003;
2.413166666666667E+009;1.705402731895447E-001;-4.091750085353851E-002;5.182111635804176E-005;-3.102963790297508E-003;
2.413333333333334E+009;1.708253324031830E-001;-4.271950572729111E-002;-4.018765685032122E-005;-3.033363493159413E-003;
2.413500000000000E+009;1.714362949132919E-001;-4.419641569256783E-002;-8.987190085463226E-005;-3.146913833916187E-003;
2.413666666666667E+009;1.720440089702606E-001;-4.563494771718979E-002;-4.988297587260604E-004;-2.876015147194266E-003;
2.413833333333334E+009;1.724899858236313E-001;-4.719340428709984E-002;-3.379256522748619E-004;-2.988473046571016E-003;
2.414000000000000E+009;1.731818467378616E-001;-4.850424826145172E-002;-6.580404005944729E-004;-2.801661612465978E-003;
2.414166666666667E+009;1.736592948436737E-001;-4.994347319006920E-002;-6.683889660052955E-004;-2.865188755095005E-003;
2.414333333333334E+009;1.742420643568039E-001;-5.094820633530617E-002;-8.322045323438942E-004;-2.730086445808411E-003;
2.414500000000000E+009;1.749957203865051E-001;-5.199766531586647E-002;-8.535382803529501E-004;-2.464974764734507E-003;
2.414666666666667E+009;1.753691881895065E-001;-5.314455553889275E-002;-1.037563430145383E-003;-2.583287889137864E-003;
2.414833333333334E+009;1.758533567190170E-001;-5.407272279262543E-002;-1.210589776746929E-003;-2.396583324298263E-003;
2.415000000000000E+009;1.764765232801437E-001;-5.489569902420044E-002;-1.235326286405325E-003;-2.315472345799208E-003;
2.415166666666667E+009;1.768552809953690E-001;-5.559990555047989E-002;-1.284233061596751E-003;-2.203434007242322E-003;
2.415333333333334E+009;1.771606653928757E-001;-5.632968246936798E-002;-1.218546763993800E-003;-2.097739372402430E-003;
2.415500000000000E+009;1.774104088544846E-001;-5.692812055349350E-002;-1.320169423706830E-003;-2.016165526583791E-003;
2.415666666666667E+009;1.777249276638031E-001;-5.729624256491661E-002;-1.389997079968453E-003;-1.906050252728164E-003;
2.415833333333334E+009;1.780532300472260E-001;-5.779873952269554E-002;-1.603726414032280E-003;-1.787105458788574E-003;
2.416000000000000E+009;1.779169142246246E-001;-5.829113349318504E-002;-1.595473848283291E-003;-1.813706941902638E-003;
2.416166666666667E+009;1.781798303127289E-001;-5.866742134094238E-002;-1.473438926041126E-003;-1.576180802658200E-003;
2.416333333333334E+009;1.780348122119904E-001;-5.889933183789253E-002;-1.607833663001657E-003;-1.499281846918166E-003;
2.416500000000000E+009;1.780100315809250E-001;-5.926294624805450E-002;-1.525910571217537E-003;-1.330138882622123E-003;
2.416666666666667E+009;1.775780618190765E-001;-5.947490409016609E-002;-1.398640568368137E-003;-1.156991813331842E-003;
2.416833333333334E+009;1.774037033319473E-001;-5.985443666577339E-002;-1.376429339870811E-003;-1.053531537763774E-003;
2.417000000000000E+009;1.768252104520798E-001;-6.004199385643005E-002;-1.318400725722313E-003;-1.045673736371100E-003;
2.417166666666667E+009;1.764762997627258E-001;-5.996527522802353E-002;-1.330467523075640E-003;-7.539669750258327E-004;
2.417333333333334E+009;1.758714616298676E-001;-6.032071262598038E-002;-1.438354258425534E-003;-7.839397876523435E-004;
2.417500000000000E+009;1.751696616411209E-001;-6.070070341229439E-002;-1.311914762482047E-003;-7.333318935707212E-004;
2.417666666666667E+009;1.745969951152802E-001;-6.083067879080772E-002;-1.303864410147071E-003;-6.199416238814592E-004;
2.417833333333334E+009;1.737643182277679E-001;-6.096516177058220E-002;-1.136902137659490E-003;-6.187093676999211E-004;
2.418000000000000E+009;1.728114336729050E-001;-6.152372062206268E-002;-1.175198820419610E-003;-5.579691496677697E-004;
2.418166666666667E+009;1.718737632036209E-001;-6.172672659158707E-002;-1.088332501240075E-003;-3.758860402740538E-004;
2.418333333333334E+009;1.710648238658905E-001;-6.216327846050263E-002;-1.166173256933689E-003;-4.563998081721366E-004;
2.418500000000000E+009;1.699461191892624E-001;-6.252563744783402E-002;-9.937732247635722E-004;-4.352022078819573E-004;
2.418666666666667E+009;1.688537299633026E-001;-6.313256174325943E-002;-1.048214151524007E-003;-3.694901533890516E-004;
2.418833333333334E+009;1.674707382917404E-001;-6.379075348377228E-002;-9.603800717741251E-004;-3.740865795407444E-004;
2.419000000000000E+009;1.663592308759689E-001;-6.427875161170960E-002;-7.435973384417594E-004;-3.949165693484247E-004;
2.419166666666667E+009;1.652770191431046E-001;-6.513899564743042E-002;-7.581400568597019E-004;-2.564153983257711E-004;
2.419333333333334E+009;1.640168875455856E-001;-6.568841636180878E-002;-5.337603506632149E-004;-4.122889949940145E-004;
2.419500000000000E+009;1.627919524908066E-001;-6.678976118564606E-002;-6.342917331494391E-004;-2.643629559315741E-004;
2.419666666666667E+009;1.616501063108444E-001;-6.760995835065842E-002;-4.460575291886926E-004;-3.186608664691448E-004;
2.419833333333334E+009;1.604050993919373E-001;-6.858684867620468E-002;-3.727903822436929E-004;-4.396633012220264E-004;
2.420000000000000E+009;1.593017429113388E-001;-6.978391855955124E-002;-5.313510191626847E-004;-3.856932453345507E-004;
2.420166666666667E+009;1.581388115882874E-001;-7.085187733173370E-002;-3.276806091889739E-004;-4.298692801967263E-004;
2.420333333333334E+009;1.571787148714066E-001;-7.218107581138611E-002;-2.860985987354070E-004;-5.905902362428606E-004;
2.420500000000000E+009;1.562193036079407E-001;-7.334531098604202E-002;-2.026686270255595E-004;-6.757210940122604E-004;
2.420666666666667E+009;1.552845388650894E-001;-7.462902367115021E-002;-2.939488040283322E-004;-6.915042758919299E-004;
2.420833333333334E+009;1.542719751596451E-001;-7.604417949914932E-002;-3.019165305886418E-004;-6.668844725936651E-004;
2.421000000000000E+009;1.535083055496216E-001;-7.759296894073486E-002;-2.687009691726416E-004;-6.775108631700277E-004;
2.421166666666667E+009;1.527939289808273E-001;-7.895266264677048E-002;-2.723561483435333E-004;-7.585579296573997E-004;
2.421333333333334E+009;1.521751135587692E-001;-8.065418154001236E-002;-2.356781478738412E-004;-7.979102665558457E-004;
2.421500000000000E+009;1.514399498701096E-001;-8.218900859355927E-002;-2.410792367300019E-004;-9.177853935398161E-004;
2.421666666666667E+009;1.510602831840515E-001;-8.389572799205780E-002;-2.306751412106678E-004;-1.147497678175569E-003;
2.421833333333334E+009;1.507628560066223E-001;-8.540757000446320E-002;-1.799571182345972E-004;-8.398807840421796E-004;
2.422000000000000E+009;1.502540260553360E-001;-8.715150505304337E-002;-2.328351984033361E-004;-1.227894681505859E-003;
2.422166666666667E+009;1.502712666988373E-001;-8.904158324003220E-002;-3.731865144800395E-004;-1.119261607527733E-003;
2.422333333333334E+009;1.500092893838882E-001;-9.067808091640472E-002;-3.560704062692821E-004;-1.238333643414080E-003;
2.422500000000000E+009;1.497645527124405E-001;-9.218932688236237E-002;-4.730490909423679E-004;-1.276957569643855E-003;
2.422666666666667E+009;1.498738974332809E-001;-9.399063140153885E-002;-5.723183276131749E-004;-1.457048114389181E-003;
2.422833333333334E+009;1.500251144170761E-001;-9.568860381841660E-002;-6.013193633407354E-004;-1.370146055705845E-003;
2.423000000000000E+009;1.502829641103745E-001;-9.715709090232849E-002;-8.304842049255967E-004;-1.518361619673669E-003;
2.423166666666667E+009;1.504332423210144E-001;-9.883821755647659E-002;-8.060981635935605E-004;-1.495526987127960E-003;
2.423333333333334E+009;1.507477015256882E-001;-1.003530472517014E-001;-9.520783787593246E-004;-1.802183338440955E-003;
2.423500000000000E+009;1.511005461215973E-001;-1.019277423620224E-001;-1.040793955326080E-003;-1.630996353924274E-003;
2.423666666666667E+009;1.511973887681961E-001;-1.034014001488686E-001;-1.128508127294481E-003;-1.712515717372298E-003;
2.423833333333334E+009;1.520125716924667E-001;-1.049147322773933E-001;-1.251565059646964E-003;-1.477116602472961E-003;
2.424000000000000E+009;1.521492749452591E-001;-1.060565784573555E-001;-1.421158085577190E-003;-1.426271861419082E-003;
2.424166666666667E+009;1.525233983993530E-001;-1.074280068278313E-001;-1.613545813597739E-003;-1.557189505547285E-003;
2.424333333333334E+009;1.532228440046310E-001;-1.084617227315903E-001;-1.531797461211681E-003;-1.479425700381398E-003;
2.424500000000000E+009;1.537015736103058E-001;-1.097039878368378E-001;-1.707155606709421E-003;-1.376320840790868E-003;
2.424666666666667E+009;1.543565392494202E-001;-1.104845628142357E-001;-1.796051161363721E-003;-1.278627896681428E-003;
2.424833333333334E+009;1.546031087636948E-001;-1.115561947226524E-001;-1.881382544524968E-003;-1.250179833732545E-003;
2.425000000000000E+009;1.550334990024567E-001;-1.124437153339386E-001;-2.018588595092297E-003;-1.019281684421003E-003;
2.425166666666667E+009;1.553145498037338E-001;-1.133104339241982E-001;-2.055030781775713E-003;-1.179341808892787E-003;
2.425333333333334E+009;1.557998359203339E-001;-1.139028817415237E-001;-2.041349653154612E-003;-8.639919687993825E-004;
2.425500000000000E+009;1.562046110630035E-001;-1.147011443972588E-001;-2.187254838645458E-003;-8.291764534078538E-004;
2.425666666666667E+009;1.562145501375198E-001;-1.152722164988518E-001;-2.300722524523735E-003;-8.769221021793783E-004;
2.425833333333334E+009;1.565696746110916E-001;-1.157860904932022E-001;-2.244854345917702E-003;-4.873910802416503E-004;
2.426000000000000E+009;1.566542685031891E-001;-1.163535565137863E-001;-2.313220640644431E-003;-3.933059342671186E-004;
2.426166666666667E+009;1.570214778184891E-001;-1.166101172566414E-001;-2.291835378855467E-003;-5.791711737401784E-004;
2.426333333333334E+009;1.568772941827774E-001;-1.169549524784088E-001;-2.474409760907292E-003;-3.347882593516260E-004;
2.426500000000000E+009;1.568357348442078E-001;-1.172185018658638E-001;-2.419457072392106E-003;-2.914748911280185E-004;
2.426666666666667E+009;1.568376272916794E-001;-1.173083037137985E-001;-2.459059702232480E-003;-1.066823024302721E-004;
2.426833333333334E+009;1.565410941839218E-001;-1.175721064209938E-001;-2.372564282268286E-003;-1.173783821286634E-004;
2.427000000000000E+009;1.561069935560226E-001;-1.177962645888329E-001;-2.451270353049040E-003;-3.629667480709031E-005;
2.427166666666667E+009;1.556755602359772E-001;-1.177992448210716E-001;-2.413549926131964E-003;4.669438931159675E-005;
2.427333333333334E+009;1.552038639783859E-001;-1.180060207843781E-001;-2.486582146957517E-003;1.100134904845618E-004;
2.427500000000000E+009;1.546624898910523E-001;-1.180943548679352E-001;-2.254289574921131E-003;2.751316933427006E-004;
2.427666666666667E+009;1.538358479738236E-001;-1.181600540876389E-001;-2.358286175876856E-003;1.978290092665702E-004;
