# Version 1.00
#
freq[Hz];re:Trc1_S11;im:Trc1_S11;re:Trc2_S21;im:Trc2_S21;
2.400000000000000E+009;1.572845727205277E-001;6.277929246425629E-002;4.786766367033124E-004;4.797688219696283E-003;
2.400166666666667E+009;1.570637971162796E-001;6.127448007464409E-002;7.288994383998215E-004;4.822668153792620E-003;
2.400333333333334E+009;1.571976393461227E-001;5.916874110698700E-002;8.857555221766233E-004;4.807534627616406E-003;
2.400500000000000E+009;1.570788621902466E-001;5.720713362097740E-002;1.018215087242425E-003;4.811187274754047E-003;
2.400666666666667E+009;1.570623070001602E-001;5.526130273938179E-002;1.288759289309382E-003;4.590319003909826E-003;
2.400833333333334E+009;1.571425646543503E-001;5.340483039617539E-002;1.299874158576131E-003;4.736136645078659E-003;
2.401000000000000E+009;1.574123650789261E-001;5.122321099042893E-002;1.481042359955609E-003;4.604992456734181E-003;
2.401166666666667E+009;1.577203422784805E-001;4.899984970688820E-002;1.713888952508569E-003;4.670128226280212E-003;
2.401333333333334E+009;1.578406095504761E-001;4.709259793162346E-002;1.927955541759729E-003;4.593099001795054E-003;
2.401500000000000E+009;1.583089530467987E-001;4.491316899657250E-002;2.064751228317618E-003;4.583507310599089E-003;
2.401666666666667E+009;1.585851162672043E-001;4.290821403264999E-002;2.292442368343473E-003;4.420395009219647E-003;
2.401833333333334E+009;1.591519713401794E-001;4.078984633088112E-002;2.385923173278570E-003;4.279104527086020E-003;
2.402000000000000E+009;1.594762057065964E-001;3.895979374647141E-002;2.694186987355351E-003;4.051463678479195E-003;
2.402166666666667E+009;1.600776016712189E-001;3.673349320888519E-002;2.839359687641263E-003;4.339974373579025E-003;
2.402333333333334E+009;1.605608910322189E-001;3.511941805481911E-002;2.906604902818799E-003;4.009734839200974E-003;
2.402500000000000E+009;1.614605486392975E-001;3.330979496240616E-002;3.161236643791199E-003;3.728138050064445E-003;
2.402666666666667E+009;1.622071415185928E-001;3.156198188662529E-002;3.325109835714102E-003;3.803234547376633E-003;
2.402833333333334E+009;1.629998683929443E-001;2.979867346584797E-002;3.518295707181096E-003;3.571066539734602E-003;
2.403000000000000E+009;1.638711839914322E-001;2.823989652097225E-002;3.700927132740617E-003;3.571529872715473E-003;
2.403166666666667E+009;1.648165434598923E-001;2.685951627790928E-002;3.745935857295990E-003;3.192842472344637E-003;
2.403333333333334E+009;1.658114939928055E-001;2.525088191032410E-002;3.889411455020309E-003;3.080549882724881E-003;
2.403500000000000E+009;1.666910052299500E-001;2.400967106223106E-002;4.183277487754822E-003;2.841584617272019E-003;
2.403666666666667E+009;1.676600128412247E-001;2.263330854475498E-002;4.202557727694511E-003;2.642526058480144E-003;
2.403833333333334E+009;1.685869991779327E-001;2.130891196429730E-002;4.158345982432365E-003;2.511790255084634E-003;
2.404000000000000E+009;1.695852279663086E-001;2.028062380850315E-002;4.352800082415342E-003;2.248428994789720E-003;
2.404166666666667E+009;1.705680787563324E-001;1.914560981094837E-002;4.463084507733584E-003;1.967639662325382E-003;
2.404333333333334E+009;1.716265529394150E-001;1.823792979121208E-002;4.568994976580143E-003;1.684207352809608E-003;
2.404500000000000E+009;1.724207848310471E-001;1.727302558720112E-002;4.702831152826548E-003;1.539730001240969E-003;
2.404666666666667E+009;1.734256297349930E-001;1.651435159146786E-002;4.710747860372067E-003;1.388169592246413E-003;
2.404833333333334E+009;1.742437928915024E-001;1.577457599341869E-002;4.569159355014563E-003;1.150481984950602E-003;
2.405000000000000E+009;1.752263605594635E-001;1.510227005928755E-002;4.638683050870895E-003;9.110360406339169E-004;
2.405166666666667E+009;1.759784370660782E-001;1.446447521448135E-002;4.672076553106308E-003;6.674607866443694E-004;
2.405333333333334E+009;1.766836494207382E-001;1.393259968608618E-002;4.608799237757921E-003;4.619500832632184E-004;
2.405500000000000E+009;1.774923801422119E-001;1.349442824721336E-002;4.412915557622910E-003;1.147716320701875E-004;
2.405666666666667E+009;1.780994832515717E-001;1.319196633994579E-002;4.530578386038542E-003;-3.993120117229410E-005;
2.405833333333334E+009;1.785287857055664E-001;1.291132252663374E-002;4.384525585919619E-003;-1.543337566545233E-004;
2.406000000000000E+009;1.792217791080475E-001;1.241018623113632E-002;4.386176820844412E-003;-3.081115428358316E-004;
2.406166666666667E+009;1.794630885124207E-001;1.219725608825684E-002;4.351288545876741E-003;-5.691614933311939E-004;
2.406333333333334E+009;1.798618584871292E-001;1.184756681323052E-002;4.227184690535069E-003;-7.689842605032027E-004;
2.406500000000000E+009;1.801775246858597E-001;1.162807643413544E-002;3.975014202296734E-003;-8.427139837294817E-004;
2.406666666666667E+009;1.802698820829392E-001;1.132545433938503E-002;3.996354527771473E-003;-9.130169055424631E-004;
2.406833333333334E+009;1.805191636085510E-001;1.094039622694254E-002;3.956705797463656E-003;-1.114366226829588E-003;
2.407000000000000E+009;1.805042177438736E-001;1.064821146428585E-002;3.704189090058208E-003;-1.385181676596403E-003;
2.407166666666667E+009;1.805928945541382E-001;1.026327256113291E-002;3.714927006512880E-003;-1.287300954572856E-003;
2.407333333333334E+009;1.803317219018936E-001;9.761984460055828E-003;3.470952622592449E-003;-1.290367799811065E-003;
2.407500000000000E+009;1.801044940948486E-001;9.432549588382244E-003;3.515229327604175E-003;-1.586919417604804E-003;
2.407666666666667E+009;1.798628717660904E-001;9.060876443982124E-003;3.426352050155401E-003;-1.480867154896259E-003;
2.407833333333334E+009;1.793533414602280E-001;8.307599462568760E-003;3.338058479130268E-003;-1.642464892938733E-003;
2.408000000000000E+009;1.791591495275497E-001;7.693388033658266E-003;3.219479927793145E-003;-1.744428765960038E-003;
2.408166666666667E+009;1.785948574542999E-001;7.223785854876041E-003;3.146988805383444E-003;-1.918550231494010E-003;
2.408333333333334E+009;1.783008873462677E-001;6.459241267293692E-003;3.003066172823310E-003;-2.018623752519488E-003;
2.408500000000000E+009;1.775316894054413E-001;5.637289956212044E-003;2.784767653793097E-003;-2.125154947862029E-003;
2.408666666666667E+009;1.769997924566269E-001;4.491929430514574E-003;2.690117340534926E-003;-2.025135559961200E-003;
2.408833333333334E+009;1.763223558664322E-001;3.667080542072654E-003;2.944139763712883E-003;-2.106177387759090E-003;
2.409000000000000E+009;1.755075007677078E-001;2.518126741051674E-003;2.639880403876305E-003;-2.060974016785622E-003;
2.409166666666667E+009;1.749260127544403E-001;1.329798134975135E-003;2.560073044151068E-003;-2.149861771613360E-003;
2.409333333333334E+009;1.742649823427200E-001;-1.365627122140722E-005;2.364748390391469E-003;-2.194659784436226E-003;
2.409500000000000E+009;1.735376119613648E-001;-1.327629201114178E-003;2.350138034671545E-003;-2.345540095120668E-003;
2.409666666666667E+009;1.728507280349731E-001;-2.797298831865192E-003;2.288666320964694E-003;-2.259092871099711E-003;
2.409833333333334E+009;1.721100360155106E-001;-4.069762304425240E-003;2.183652250096202E-003;-2.397283213213086E-003;
2.410000000000000E+009;1.716922670602799E-001;-5.746767856180668E-003;2.248210366815329E-003;-2.380028134211898E-003;
2.410166666666667E+009;1.710184961557388E-001;-7.332743611186743E-003;2.000964712351561E-003;-2.457979368045926E-003;
2.410333333333334E+009;1.703487932682037E-001;-8.982283994555473E-003;1.985185779631138E-003;-2.567371120676398E-003;
2.410500000000000E+009;1.699427515268326E-001;-1.067239698022604E-002;1.883917720988393E-003;-2.563069574534893E-003;
2.410666666666667E+009;1.692332178354263E-001;-1.275509223341942E-002;1.746589667163789E-003;-2.641544677317143E-003;
2.410833333333334E+009;1.689984053373337E-001;-1.440965756773949E-002;1.864238991402090E-003;-2.783042844384909E-003;
2.411000000000000E+009;1.685254722833633E-001;-1.639863103628159E-002;1.709324773401022E-003;-2.654862357303500E-003;
2.411166666666667E+009;1.681904345750809E-001;-1.843079552054405E-002;1.565018901601434E-003;-2.894799457862973E-003;
2.411333333333334E+009;1.681768000125885E-001;-2.037005126476288E-002;1.425486523658037E-003;-2.876313403248787E-003;
2.411500000000000E+009;1.679837256669998E-001;-2.245492488145828E-002;1.311974483542144E-003;-2.891439711675048E-003;
2.411666666666667E+009;1.678240895271301E-001;-2.415809594094753E-002;1.219991478137672E-003;-2.992507535964251E-003;
2.411833333333334E+009;1.679084450006485E-001;-2.600048854947090E-002;1.218429300934076E-003;-3.113623475655913E-003;
2.412000000000000E+009;1.681043356657028E-001;-2.814025245606899E-002;1.017209957353771E-003;-3.026152495294809E-003;
2.412166666666667E+009;1.682239770889282E-001;-2.994917705655098E-002;9.022806189022958E-004;-3.175094490870833E-003;
2.412333333333334E+009;1.685342341661453E-001;-3.180315718054771E-002;7.889707922004163E-004;-3.187824739143252E-003;
2.412500000000000E+009;1.685924082994461E-001;-3.365818783640862E-002;6.818333058618009E-004;-3.148160642012954E-003;
2.412666666666667E+009;1.690417528152466E-001;-3.567314893007278E-002;3.432375669945031E-004;-3.295718925073743E-003;
2.412833333333334E+009;1.694691330194473E-001;-3.747520223259926E-002;3.675471816677600E-004;-3.157223109155893E-003;
2.413000000000000E+009;1.698871999979019E-001;-3.920111432671547E-002;1.658375404076651E-004;-2.958657220005989E-003;
2.413166666666667E+009;1.702764332294464E-001;-4.093896225094795E-002;6.783835124224424E-005;-3.190970281139016E-003;
2.413333333333334E+009;1.707409471273422E-001;-4.258622601628304E-002;-1.593745691934601E-004;-3.027008846402168E-003;
2.413500000000000E+009;1.713327765464783E-001;-4.411143437027931E-002;-2.831264573615044E-004;-2.870505675673485E-003;
2.413666666666667E+009;1.719753742218018E-001;-4.574327915906906E-002;-3.290260792709887E-004;-3.011235501617193E-003;
2.413833333333334E+009;1.724361181259155E-001;-4.719358682632446E-002;-3.130112309008837E-004;-2.985045313835144E-003;
2.414000000000000E+009;1.728958487510681E-001;-4.866817593574524E-002;-6.768586463294923E-004;-2.855277387425304E-003;
2.414166666666667E+009;1.737583577632904E-001;-4.973809421062470E-002;-5.907560698688030E-004;-2.935065655037761E-003;
2.414333333333334E+009;1.743330806493759E-001;-5.097053945064545E-002;-7.781371241435409E-004;-2.825235482305288E-003;
2.414500000000000E+009;1.748711913824081E-001;-5.208308249711990E-002;-9.049227228388190E-004;-2.637332770973444E-003;
2.414666666666667E+009;1.753810048103333E-001;-5.304807052016258E-002;-9.564537322148681E-004;-2.554536564275622E-003;
2.414833333333334E+009;1.759915947914124E-001;-5.394680798053742E-002;-1.126124989241362E-003;-2.498507499694824E-003;
2.415000000000000E+009;1.762565970420837E-001;-5.470208823680878E-002;-1.245489111170173E-003;-2.457291120663285E-003;
2.415166666666667E+009;1.767939180135727E-001;-5.567340552806854E-002;-1.233128714375198E-003;-2.242761198431253E-003;
2.415333333333334E+009;1.770697385072708E-001;-5.624913424253464E-002;-1.322283176705241E-003;-2.054393058642745E-003;
2.415500000000000E+009;1.774643361568451E-001;-5.686234310269356E-002;-1.308617531321943E-003;-1.905616256408393E-003;
2.415666666666667E+009;1.776869893074036E-001;-5.728346109390259E-002;-1.308728707954288E-003;-1.953371101990342E-003;
2.415833333333334E+009;1.780554056167603E-001;-5.791405215859413E-002;-1.423780689947307E-003;-1.741242711432278E-003;
2.416000000000000E+009;1.779299229383469E-001;-5.827697739005089E-002;-1.503696548752487E-003;-1.746676512993872E-003;
2.416166666666667E+009;1.782011240720749E-001;-5.865572020411491E-002;-1.567626022733748E-003;-1.548146130517125E-003;
2.416333333333334E+009;1.780160367488861E-001;-5.883238464593887E-002;-1.398450462147594E-003;-1.479879370890558E-003;
2.416500000000000E+009;1.779257506132126E-001;-5.924014374613762E-002;-1.535961288027465E-003;-1.303356490097940E-003;
2.416666666666667E+009;1.776498854160309E-001;-5.940841883420944E-002;-1.471745898015797E-003;-1.201864797621965E-003;
2.416833333333334E+009;1.774111539125443E-001;-5.972398445010185E-002;-1.608890481293201E-003;-1.198045210912824E-003;
2.417000000000000E+009;1.769627481698990E-001;-5.994923040270805E-002;-1.332106767222285E-003;-1.031747786328197E-003;
2.417166666666667E+009;1.765902042388916E-001;-6.002981215715408E-002;-1.418210566043854E-003;-8.297424647025764E-004;
2.417333333333334E+009;1.759286224842072E-001;-6.029848009347916E-002;-1.397127402015030E-003;-9.221770451404154E-004;
2.417500000000000E+009;1.751966029405594E-001;-6.074351817369461E-002;-1.289223437197506E-003;-8.116914541460574E-004;
2.417666666666667E+009;1.746306866407394E-001;-6.077881529927254E-002;-1.266527106054127E-003;-7.421470363624394E-004;
2.417833333333334E+009;1.737462133169174E-001;-6.099257990717888E-002;-1.293233362957835E-003;-7.701795548200607E-004;
2.418000000000000E+009;1.727520823478699E-001;-6.147345900535584E-002;-1.158647122792900E-003;-4.579367523547262E-004;
2.418166666666667E+009;1.718545854091644E-001;-6.169513240456581E-002;-1.225577085278928E-003;-4.780762828886509E-004;
2.418333333333334E+009;1.710584014654160E-001;-6.217148154973984E-002;-1.132137840613723E-003;-4.906757967546582E-004;
2.418500000000000E+009;1.698600500822067E-001;-6.246231496334076E-002;-1.050453749485314E-003;-5.389314610511065E-004;
2.418666666666667E+009;1.688922345638275E-001;-6.310568004846573E-002;-8.449212764389813E-004;-4.707931366283447E-004;
2.418833333333334E+009;1.676707863807678E-001;-6.379496306180954E-002;-8.273660787381232E-004;-2.936791570391506E-004;
2.419000000000000E+009;1.663937270641327E-001;-6.434226036071777E-002;-8.996083051897585E-004;-3.629769198596478E-004;
2.419166666666667E+009;1.652137190103531E-001;-6.501851230859757E-002;-7.883838261477649E-004;-3.234011528547853E-004;
2.419333333333334E+009;1.638725847005844E-001;-6.560283154249191E-002;-9.234886383637786E-004;-3.670003497973084E-004;
2.419500000000000E+009;1.627912372350693E-001;-6.669534742832184E-002;-5.678603192791343E-004;-3.646289114840329E-004;
2.419666666666667E+009;1.616784632205963E-001;-6.765747815370560E-002;-4.985386040061712E-004;-3.623127413447946E-004;
2.419833333333334E+009;1.604179739952087E-001;-6.855278462171555E-002;-6.157497991807759E-004;-3.190976276528090E-004;
2.420000000000000E+009;1.593532264232636E-001;-6.958756595849991E-002;-4.611186159309000E-004;-3.986746014561504E-004;
2.420166666666667E+009;1.582265198230743E-001;-7.078105211257935E-002;-4.464704834390432E-004;-5.764107918366790E-004;
2.420333333333334E+009;1.571411639451981E-001;-7.203278690576553E-002;-4.144342965446413E-004;-4.953505704179406E-004;
2.420500000000000E+009;1.562822163105011E-001;-7.329093664884567E-002;-4.858929314650595E-004;-5.730796256102622E-004;
2.420666666666667E+009;1.551432758569717E-001;-7.452876120805740E-002;-2.716229355428368E-004;-6.514181732200086E-004;
2.420833333333334E+009;1.543217003345490E-001;-7.598004490137100E-002;-3.386693424545229E-004;-5.775767494924367E-004;
2.421000000000000E+009;1.534757763147354E-001;-7.759983837604523E-002;-2.156666741939262E-004;-6.201267824508250E-004;
2.421166666666667E+009;1.528468728065491E-001;-7.906747609376907E-002;-2.656776923686266E-004;-8.408332942053676E-004;
2.421333333333334E+009;1.522179543972015E-001;-8.068549633026123E-002;-3.291095781605691E-004;-8.303763461299241E-004;
2.421500000000000E+009;1.514613330364227E-001;-8.218233287334442E-002;-2.608507347758859E-004;-8.322912617586553E-004;
2.421666666666667E+009;1.510148197412491E-001;-8.381485939025879E-002;-2.823402755893767E-004;-9.542983607389033E-004;
2.421833333333334E+009;1.506547629833221E-001;-8.551390469074249E-002;-3.787911555264145E-004;-1.080177491530776E-003;
2.422000000000000E+009;1.503395885229111E-001;-8.713708072900772E-002;-2.262911439174786E-004;-1.208136323839426E-003;
2.422166666666667E+009;1.501396298408508E-001;-8.897726237773895E-002;-3.728755982592702E-004;-1.174162258394063E-003;
2.422333333333334E+009;1.501123756170273E-001;-9.067907929420471E-002;-6.210458232089877E-004;-1.258502481505275E-003;
2.422500000000000E+009;1.499387174844742E-001;-9.229897707700729E-002;-5.025090649724007E-004;-1.433352706953883E-003;
2.422666666666667E+009;1.498538106679916E-001;-9.388773143291473E-002;-5.506746820174158E-004;-1.429295982234180E-003;
2.422833333333334E+009;1.500864475965500E-001;-9.580463171005249E-002;-5.839734803885222E-004;-1.332464511506259E-003;
2.423000000000000E+009;1.501564830541611E-001;-9.716895967721939E-002;-8.498841198161244E-004;-1.414998434484005E-003;
2.423166666666667E+009;1.504085659980774E-001;-9.882768243551254E-002;-9.164619841612876E-004;-1.523602753877640E-003;
2.423333333333334E+009;1.507537215948105E-001;-1.001603975892067E-001;-1.035208813846111E-003;-1.492293085902929E-003;
2.423500000000000E+009;1.510909050703049E-001;-1.018621250987053E-001;-1.110777375288308E-003;-1.532525988295674E-003;
2.423666666666667E+009;1.512023061513901E-001;-1.033926457166672E-001;-1.149459276348352E-003;-1.685390016064048E-003;
2.423833333333334E+009;1.519903242588043E-001;-1.048145815730095E-001;-1.340317539870739E-003;-1.505082356743515E-003;
2.424000000000000E+009;1.522673219442368E-001;-1.060146018862724E-001;-1.299408380873501E-003;-1.456558704376221E-003;
2.424166666666667E+009;1.526039540767670E-001;-1.074250265955925E-001;-1.671535777859390E-003;-1.350886886939406E-003;
2.424333333333334E+009;1.532869040966034E-001;-1.084294617176056E-001;-1.570155029185116E-003;-1.356892636977136E-003;
2.424500000000000E+009;1.537056714296341E-001;-1.096898764371872E-001;-1.735021709464490E-003;-1.217858167365193E-003;
2.424666666666667E+009;1.542246788740158E-001;-1.104371473193169E-001;-1.857782830484211E-003;-1.341291470453143E-003;
2.424833333333334E+009;1.546284407377243E-001;-1.115526035428047E-001;-1.882024458609521E-003;-1.021910342387855E-003;
2.425000000000000E+009;1.551217734813690E-001;-1.125033274292946E-001;-2.041144529357553E-003;-1.171966781839728E-003;
2.425166666666667E+009;1.553988009691238E-001;-1.133314967155457E-001;-2.110269153490663E-003;-9.178871405310929E-004;
2.425333333333334E+009;1.558034867048264E-001;-1.140010580420494E-001;-2.101554302498698E-003;-9.014682145789266E-004;
2.425500000000000E+009;1.563035547733307E-001;-1.147370859980583E-001;-2.125034341588616E-003;-8.687322260811925E-004;
2.425666666666667E+009;1.563571542501450E-001;-1.153295859694481E-001;-2.192680956795812E-003;-7.625193684361875E-004;
2.425833333333334E+009;1.565779000520706E-001;-1.157888323068619E-001;-2.390523441135883E-003;-6.875073304399848E-004;
2.426000000000000E+009;1.568251252174377E-001;-1.163315623998642E-001;-2.380493097007275E-003;-4.826692747883499E-004;
2.426166666666667E+009;1.570542007684708E-001;-1.166214942932129E-001;-2.291639102622867E-003;-4.107044951524586E-004;
2.426333333333334E+009;1.570112705230713E-001;-1.169179156422615E-001;-2.476844238117337E-003;-2.031283074757084E-004;
2.426500000000000E+009;1.570379585027695E-001;-1.172129884362221E-001;-2.359815407544375E-003;-1.400982146151364E-004;
2.426666666666667E+009;1.569346636533737E-001;-1.173397451639175E-001;-2.361995633691549E-003;-5.647517536999658E-005;
2.426833333333334E+009;1.564981639385223E-001;-1.175629645586014E-001;-2.531690057367086E-003;3.427955016377382E-005;
2.427000000000000E+009;1.562354713678360E-001;-1.177218183875084E-001;-2.357047284021974E-003;1.088585122488439E-004;
2.427166666666667E+009;1.557524949312210E-001;-1.178174540400505E-001;-2.305076457560062E-003;4.263027949491516E-005;
2.427333333333334E+009;1.550911962985992E-001;-1.179414093494415E-001;-2.444958547130227E-003;2.422599354758859E-004;
2.427500000000000E+009;1.547210961580277E-001;-1.180537045001984E-001;-2.333511598408222E-003;4.437195020727813E-004;
2.427666666666667E+009;1.539582610130310E-001;-1.182670965790749E-001;-2.215305110439658E-003;3.310282772872597E-004;
