# Version 1.00
#
freq[Hz];re:Trc1_S11;im:Trc1_S11;re:Trc2_S21;im:Trc2_S21;
2.400000000000000E+009;1.575244218111038E-001;6.286694854497910E-002;9.176678140647709E-004;-2.664080355316401E-003;
2.400166666666667E+009;1.574162095785141E-001;6.131872534751892E-002;8.111590868793428E-004;-2.696308773010969E-003;
2.400333333333334E+009;1.572110950946808E-001;5.965827777981758E-002;8.798429626040161E-004;-2.809979487210512E-003;
2.400500000000000E+009;1.573374420404434E-001;5.746458470821381E-002;6.414651870727539E-004;-2.766682300716639E-003;
2.400666666666667E+009;1.571195125579834E-001;5.546856671571732E-002;6.858314154669642E-004;-2.822568640112877E-003;
2.400833333333334E+009;1.573618650436401E-001;5.364452302455902E-002;7.763634785078466E-004;-2.787139033898711E-003;
2.401000000000000E+009;1.574402898550034E-001;5.155055224895477E-002;6.890451186336577E-004;-2.926536137238145E-003;
2.401166666666667E+009;1.576809883117676E-001;4.941414669156075E-002;7.488733972422779E-004;-3.104355651885271E-003;
2.401333333333334E+009;1.577607095241547E-001;4.705743864178658E-002;5.724349757656455E-004;-2.929741051048040E-003;
2.401500000000000E+009;1.581786870956421E-001;4.494639113545418E-002;3.538633172865957E-004;-3.022994846105576E-003;
2.401666666666667E+009;1.584677100181580E-001;4.312836751341820E-002;3.776407102122903E-004;-3.106304211542010E-003;
2.401833333333334E+009;1.589048504829407E-001;4.091968759894371E-002;2.622552856337279E-004;-3.144266316667199E-003;
2.402000000000000E+009;1.592582613229752E-001;3.887363523244858E-002;2.254964056191966E-004;-3.302732016891241E-003;
2.402166666666667E+009;1.599897146224976E-001;3.679871186614037E-002;1.817731026676484E-005;-3.206318244338036E-003;
2.402333333333334E+009;1.605709046125412E-001;3.494073078036308E-002;-4.277051993994974E-005;-3.238616045564413E-003;
2.402500000000000E+009;1.615505665540695E-001;3.316925838589668E-002;-1.345021737506613E-004;-3.332904307171702E-003;
2.402666666666667E+009;1.620296984910965E-001;3.124444931745529E-002;-2.855329366866499E-004;-3.319693263620138E-003;
2.402833333333334E+009;1.626088917255402E-001;2.966842241585255E-002;-3.572381974663585E-004;-3.386265598237515E-003;
2.403000000000000E+009;1.636778563261032E-001;2.799194306135178E-002;-3.697717911563814E-004;-3.244196996092796E-003;
2.403166666666667E+009;1.646668612957001E-001;2.633870765566826E-002;-6.862547015771270E-004;-3.542243968695402E-003;
2.403333333333334E+009;1.655857712030411E-001;2.505544573068619E-002;-6.105434731580317E-004;-3.606288693845272E-003;
2.403500000000000E+009;1.665180623531342E-001;2.353396266698837E-002;-8.234295528382063E-004;-3.404238494113088E-003;
2.403666666666667E+009;1.672929972410202E-001;2.211345545947552E-002;-1.091349753551185E-003;-3.443659981712699E-003;
2.403833333333334E+009;1.685020178556442E-001;2.090460807085037E-002;-1.257953816093504E-003;-3.370629390701652E-003;
2.404000000000000E+009;1.694424748420715E-001;1.960519701242447E-002;-1.380529487505555E-003;-3.226975211873651E-003;
2.404166666666667E+009;1.704910844564438E-001;1.858163811266422E-002;-1.470963237807155E-003;-3.349267179146409E-003;
2.404333333333334E+009;1.714036166667938E-001;1.767168752849102E-002;-1.530488603748381E-003;-3.113765968009830E-003;
2.404500000000000E+009;1.722725331783295E-001;1.655442640185356E-002;-1.708343508653343E-003;-3.156186314299703E-003;
2.404666666666667E+009;1.732646971940994E-001;1.584677025675774E-002;-1.829445827752352E-003;-3.109775483608246E-003;
2.404833333333334E+009;1.741962134838104E-001;1.494035497307777E-002;-1.833554473705590E-003;-3.076941240578890E-003;
2.405000000000000E+009;1.751349568367004E-001;1.436744723469019E-002;-2.025622874498367E-003;-2.897894708439708E-003;
2.405166666666667E+009;1.759427040815353E-001;1.372160669416189E-002;-2.154116053134203E-003;-2.908883150666952E-003;
2.405333333333334E+009;1.768103986978531E-001;1.303102448582649E-002;-2.269120654091239E-003;-2.811607206240296E-003;
2.405500000000000E+009;1.774896681308746E-001;1.292017102241516E-002;-2.422909019514918E-003;-2.632369752973318E-003;
2.405666666666667E+009;1.782228499650955E-001;1.231680903583765E-002;-2.329763257876039E-003;-2.493436215445399E-003;
2.405833333333334E+009;1.785364151000977E-001;1.207931712269783E-002;-2.493087667971849E-003;-2.391384681686759E-003;
2.406000000000000E+009;1.792823523283005E-001;1.162151806056500E-002;-2.628027927130461E-003;-2.464371966198087E-003;
2.406166666666667E+009;1.796574294567108E-001;1.148283295333386E-002;-2.763878554105759E-003;-2.379932207986713E-003;
2.406333333333334E+009;1.802376061677933E-001;1.116217114031315E-002;-2.845671260729432E-003;-2.186270896345377E-003;
2.406500000000000E+009;1.804585009813309E-001;1.085791923105717E-002;-2.904344117268920E-003;-1.957311062142253E-003;
2.406666666666667E+009;1.804282963275909E-001;1.055909041315317E-002;-2.986253239214420E-003;-2.136565977707505E-003;
2.406833333333334E+009;1.806459426879883E-001;1.040256861597300E-002;-2.987604588270187E-003;-1.813247101381421E-003;
2.407000000000000E+009;1.807921975851059E-001;1.013078540563583E-002;-3.034222638234496E-003;-1.762916566804051E-003;
2.407166666666667E+009;1.808912158012390E-001;9.695627726614475E-003;-2.948563545942307E-003;-1.605744822882116E-003;
2.407333333333334E+009;1.804656386375427E-001;9.423279203474522E-003;-3.119344357401133E-003;-1.576591283082962E-003;
2.407500000000000E+009;1.805151104927063E-001;9.045060724020004E-003;-3.079466288909316E-003;-1.410710159689188E-003;
2.407666666666667E+009;1.801755577325821E-001;8.602540940046310E-003;-3.156522521749139E-003;-1.448424183763564E-003;
2.407833333333334E+009;1.797347962856293E-001;7.990619167685509E-003;-3.095711581408978E-003;-1.179763232357800E-003;
2.408000000000000E+009;1.794821918010712E-001;7.314940448850393E-003;-3.228603862226009E-003;-1.074222731404007E-003;
2.408166666666667E+009;1.790177971124649E-001;6.925371941179037E-003;-3.170785028487444E-003;-1.003956072963774E-003;
2.408333333333334E+009;1.785939037799835E-001;6.040735170245171E-003;-3.346559358760715E-003;-8.124414598569274E-004;
2.408500000000000E+009;1.778768748044968E-001;5.241017788648605E-003;-3.136761486530304E-003;-7.737737032584846E-004;
2.408666666666667E+009;1.772533059120178E-001;4.351701121777296E-003;-3.267850028350949E-003;-6.161150522530079E-004;
2.408833333333334E+009;1.765399277210236E-001;3.417603205889463E-003;-3.241490805521607E-003;-4.881035129074007E-004;
2.409000000000000E+009;1.758015751838684E-001;2.401064615696669E-003;-3.214631928130984E-003;-3.459949803072959E-004;
2.409166666666667E+009;1.752160191535950E-001;1.389969256706536E-003;-3.080352908000350E-003;-4.515713953878731E-004;
2.409333333333334E+009;1.747120022773743E-001;-5.574210808845237E-005;-3.085212316364050E-003;-2.998776326421648E-004;
2.409500000000000E+009;1.738453954458237E-001;-1.548980362713337E-003;-3.179905703291297E-003;-2.154765243176371E-004;
2.409666666666667E+009;1.731419712305069E-001;-2.696944866329432E-003;-3.088189754635096E-003;-1.423803478246555E-004;
2.409833333333334E+009;1.724189221858978E-001;-4.041299223899841E-003;-3.022474469617009E-003;2.524210140109062E-005;
2.410000000000000E+009;1.717662066221237E-001;-5.608635954558849E-003;-2.961080987006426E-003;5.986479209241225E-006;
2.410166666666667E+009;1.711350679397583E-001;-7.314176298677921E-003;-3.070756793022156E-003;-2.773783853626810E-005;
2.410333333333334E+009;1.704371422529221E-001;-9.053047746419907E-003;-3.033612621948123E-003;5.069766484666616E-005;
2.410500000000000E+009;1.700494140386581E-001;-1.060958020389080E-002;-3.047373844310641E-003;2.882480330299586E-004;
2.410666666666667E+009;1.692809015512466E-001;-1.256723515689373E-002;-3.037670860067010E-003;2.863704285118729E-004;
2.410833333333334E+009;1.689933836460114E-001;-1.441782899200916E-002;-3.100627334788442E-003;3.645459946710616E-004;
2.411000000000000E+009;1.686298698186874E-001;-1.618462800979614E-002;-2.868857001885772E-003;3.515890857670456E-004;
2.411166666666667E+009;1.683127284049988E-001;-1.832701079547405E-002;-2.990744542330504E-003;3.391451900824904E-004;
2.411333333333334E+009;1.678295582532883E-001;-2.027999982237816E-002;-3.056325949728489E-003;4.520169168245047E-004;
2.411500000000000E+009;1.678021103143692E-001;-2.238215506076813E-002;-3.033455228433013E-003;4.351749375928193E-004;
2.411666666666667E+009;1.678358912467957E-001;-2.432015351951122E-002;-3.048174083232880E-003;6.220762152224779E-004;
2.411833333333334E+009;1.677416115999222E-001;-2.619091235101223E-002;-2.979610115289688E-003;6.872102385386825E-004;
2.412000000000000E+009;1.678086370229721E-001;-2.801801823079586E-002;-2.986457431688905E-003;7.370524108409882E-004;
2.412166666666667E+009;1.679543703794479E-001;-3.025575540959835E-002;-2.988386433571577E-003;8.148192428052425E-004;
2.412333333333334E+009;1.683868020772934E-001;-3.196578472852707E-002;-3.067121375352144E-003;9.805320296436548E-004;
2.412500000000000E+009;1.683134585618973E-001;-3.392540290951729E-002;-3.128521377220750E-003;8.909471798688173E-004;
2.412666666666667E+009;1.688635200262070E-001;-3.601781278848648E-002;-3.066764911636710E-003;1.144821872003377E-003;
2.412833333333334E+009;1.691809892654419E-001;-3.787604346871376E-002;-3.045270917937160E-003;1.120281638577581E-003;
2.413000000000000E+009;1.696337163448334E-001;-3.949137404561043E-002;-3.131226869300008E-003;1.291122171096504E-003;
2.413166666666667E+009;1.701293885707855E-001;-4.127487540245056E-002;-3.235508454963565E-003;1.429085736162961E-003;
2.413333333333334E+009;1.704615205526352E-001;-4.306162521243095E-002;-3.003704594448209E-003;1.373980776406825E-003;
2.413500000000000E+009;1.710841059684753E-001;-4.458515718579292E-002;-3.021388780325651E-003;1.646192860789597E-003;
2.413666666666667E+009;1.717714220285416E-001;-4.619263112545013E-002;-2.926899353042245E-003;1.642858260311186E-003;
2.413833333333334E+009;1.723376214504242E-001;-4.776571691036224E-002;-2.923900960013270E-003;1.879126997664571E-003;
2.414000000000000E+009;1.727793812751770E-001;-4.912970587611198E-002;-2.941135549917817E-003;2.017759019508958E-003;
2.414166666666667E+009;1.734516769647598E-001;-5.037499219179153E-002;-2.877681050449610E-003;2.056638477370143E-003;
2.414333333333334E+009;1.739645004272461E-001;-5.167704820632935E-002;-2.800076268613339E-003;2.274201484397054E-003;
2.414500000000000E+009;1.747591048479080E-001;-5.270567163825035E-002;-2.655304968357086E-003;2.286092378199101E-003;
2.414666666666667E+009;1.752538084983826E-001;-5.381762236356735E-002;-2.654360374435782E-003;2.453134628012776E-003;
2.414833333333334E+009;1.756494343280792E-001;-5.480511486530304E-002;-2.678046002984047E-003;2.455411013215780E-003;
2.415000000000000E+009;1.760268062353134E-001;-5.557355284690857E-002;-2.613184973597527E-003;2.510319231078029E-003;
2.415166666666667E+009;1.765727847814560E-001;-5.627303943037987E-002;-2.497243229299784E-003;2.781326184049249E-003;
2.415333333333334E+009;1.771062463521957E-001;-5.717765167355537E-002;-2.426095306873322E-003;2.770994324237108E-003;
2.415500000000000E+009;1.772799640893936E-001;-5.760764330625534E-002;-2.299344865605235E-003;2.851169090718031E-003;
2.415666666666667E+009;1.777415424585342E-001;-5.815951898694038E-002;-2.098203171044588E-003;3.123915521427989E-003;
2.415833333333334E+009;1.779342889785767E-001;-5.858106538653374E-002;-2.198725705966353E-003;3.087460529059172E-003;
2.416000000000000E+009;1.779424548149109E-001;-5.900349095463753E-002;-2.093993360176683E-003;3.180795582011342E-003;
2.416166666666667E+009;1.782199442386627E-001;-5.944773182272911E-002;-1.852759392932057E-003;3.139676293358207E-003;
2.416333333333334E+009;1.781461685895920E-001;-5.973955243825913E-002;-1.748497830703855E-003;3.204833483323455E-003;
2.416500000000000E+009;1.780892163515091E-001;-5.997897684574127E-002;-1.775868935510516E-003;3.297412768006325E-003;
2.416666666666667E+009;1.778159141540527E-001;-6.007692217826843E-002;-1.640363479964435E-003;3.531142836436629E-003;
2.416833333333334E+009;1.776227951049805E-001;-6.039614230394363E-002;-1.379408175125718E-003;3.542075864970684E-003;
2.417000000000000E+009;1.771647632122040E-001;-6.073114648461342E-002;-1.154919387772679E-003;3.510956186801195E-003;
2.417166666666667E+009;1.766142398118973E-001;-6.079482287168503E-002;-1.083757844753563E-003;3.556461771950126E-003;
2.417333333333334E+009;1.760971844196320E-001;-6.086970493197441E-002;-8.038007072173059E-004;3.521160688251257E-003;
2.417500000000000E+009;1.754456758499146E-001;-6.127263605594635E-002;-9.063287288881838E-004;3.714852733537555E-003;
2.417666666666667E+009;1.747235953807831E-001;-6.129516661167145E-002;-7.901428616605699E-004;3.741799155250192E-003;
2.417833333333334E+009;1.740056276321411E-001;-6.161829084157944E-002;-6.394088850356638E-004;3.704268252477050E-003;
2.418000000000000E+009;1.730012148618698E-001;-6.203064695000649E-002;-3.995233273599297E-004;3.751101437956095E-003;
2.418166666666667E+009;1.720325350761414E-001;-6.209427863359451E-002;-3.788004396483302E-004;3.745296737179160E-003;
2.418333333333334E+009;1.712798625230789E-001;-6.257969886064529E-002;-1.196252560475841E-004;3.650397993624210E-003;
2.418500000000000E+009;1.700716614723206E-001;-6.303493678569794E-002;-5.525835513253696E-005;3.751558251678944E-003;
2.418666666666667E+009;1.690883636474609E-001;-6.348139047622681E-002;8.902289118850604E-005;3.653796622529626E-003;
2.418833333333334E+009;1.677612215280533E-001;-6.400708854198456E-002;2.215050772065297E-004;3.789071924984455E-003;
2.419000000000000E+009;1.665957868099213E-001;-6.463897973299027E-002;2.184614422731102E-004;3.832351649180055E-003;
2.419166666666667E+009;1.653146147727966E-001;-6.528397649526596E-002;4.183247801847756E-004;3.729483345523477E-003;
2.419333333333334E+009;1.639906316995621E-001;-6.575790792703629E-002;5.219231825321913E-004;3.664701944217086E-003;
2.419500000000000E+009;1.628007590770721E-001;-6.688501685857773E-002;6.399853155016899E-004;3.668416058644652E-003;
2.419666666666667E+009;1.616911143064499E-001;-6.767944991588593E-002;7.514280732721090E-004;3.503815969452262E-003;
2.419833333333334E+009;1.603632122278214E-001;-6.854145228862763E-002;6.493380060419440E-004;3.656273474916816E-003;
2.420000000000000E+009;1.592388004064560E-001;-6.960287690162659E-002;1.052853418514133E-003;3.580868709832430E-003;
2.420166666666667E+009;1.581142842769623E-001;-7.087884098291397E-002;9.620473138056696E-004;3.484037471935153E-003;
2.420333333333334E+009;1.570991575717926E-001;-7.207662612199783E-002;1.083851442672312E-003;3.428473602980375E-003;
2.420500000000000E+009;1.561975628137589E-001;-7.324568182229996E-002;1.160608022473753E-003;3.457366023212671E-003;
2.420666666666667E+009;1.550913155078888E-001;-7.441597431898117E-002;1.289656036533415E-003;3.354517044499517E-003;
2.420833333333334E+009;1.541032046079636E-001;-7.612264901399612E-002;1.408830867148936E-003;3.349805716425180E-003;
2.421000000000000E+009;1.533230990171433E-001;-7.738494127988815E-002;1.546468818560243E-003;3.277546493336558E-003;
2.421166666666667E+009;1.525015532970429E-001;-7.894983887672424E-002;1.585081103257835E-003;3.158938605338335E-003;
2.421333333333334E+009;1.519333273172379E-001;-8.051290363073349E-002;1.549928099848330E-003;3.235823707655072E-003;
2.421500000000000E+009;1.510808914899826E-001;-8.213295042514801E-002;1.654282212257385E-003;2.991448389366269E-003;
2.421666666666667E+009;1.507812887430191E-001;-8.387398719787598E-002;1.820613630115986E-003;3.080765483900905E-003;
2.421833333333334E+009;1.501700133085251E-001;-8.538358658552170E-002;1.772418501786888E-003;3.012391738593578E-003;
2.422000000000000E+009;1.498445123434067E-001;-8.725098520517349E-002;1.883575110696256E-003;2.942531369626522E-003;
2.422166666666667E+009;1.496876329183579E-001;-8.911565691232681E-002;1.935019041411579E-003;2.673305105417967E-003;
2.422333333333334E+009;1.496123373508453E-001;-9.079968184232712E-002;2.056408207863569E-003;2.875482430681586E-003;
2.422500000000000E+009;1.493650972843170E-001;-9.244974702596664E-002;2.223721006885171E-003;2.817360218614340E-003;
2.422666666666667E+009;1.493050754070282E-001;-9.419671446084976E-002;2.108588814735413E-003;2.744583180174232E-003;
2.422833333333334E+009;1.494105309247971E-001;-9.597288072109222E-002;2.394740236923099E-003;2.578941872343421E-003;
2.423000000000000E+009;1.493028998374939E-001;-9.750039130449295E-002;2.268371637910605E-003;2.727609127759934E-003;
2.423166666666667E+009;1.497679650783539E-001;-9.918779134750366E-002;2.328029600903392E-003;2.620963845402002E-003;
2.423333333333334E+009;1.499371230602264E-001;-1.005997136235237E-001;2.495612716302276E-003;2.602888969704509E-003;
2.423500000000000E+009;1.502081006765366E-001;-1.022743731737137E-001;2.533064689487219E-003;2.547055017203093E-003;
2.423666666666667E+009;1.505700796842575E-001;-1.038711518049240E-001;2.455778652802110E-003;2.524935640394688E-003;
2.423833333333334E+009;1.512671560049057E-001;-1.052503883838654E-001;2.561434870585799E-003;2.408366184681654E-003;
2.424000000000000E+009;1.514515280723572E-001;-1.065002754330635E-001;2.634350443258882E-003;2.432825509458780E-003;
2.424166666666667E+009;1.519270390272141E-001;-1.078154370188713E-001;2.741960808634758E-003;2.219792455434799E-003;
2.424333333333334E+009;1.524809300899506E-001;-1.090181693434715E-001;2.864008303731680E-003;2.197789493948221E-003;
2.424500000000000E+009;1.531144678592682E-001;-1.102225631475449E-001;3.011101391166449E-003;2.140086144208908E-003;
2.424666666666667E+009;1.536709368228912E-001;-1.110990941524506E-001;3.195733064785600E-003;2.181549090892077E-003;
2.424833333333334E+009;1.540125012397766E-001;-1.121819093823433E-001;3.222599392756820E-003;2.253024140372872E-003;
2.425000000000000E+009;1.544852703809738E-001;-1.131872832775116E-001;3.283372148871422E-003;2.064570318907499E-003;
2.425166666666667E+009;1.549127995967865E-001;-1.138878837227821E-001;3.369826823472977E-003;1.836161362007260E-003;
2.425333333333334E+009;1.553246676921845E-001;-1.146286427974701E-001;3.369493875652552E-003;1.858440926298499E-003;
2.425500000000000E+009;1.558412164449692E-001;-1.152587309479713E-001;3.636946668848395E-003;1.790233771316707E-003;
2.425666666666667E+009;1.560059785842896E-001;-1.158465743064880E-001;3.637460991740227E-003;1.676465850323439E-003;
2.425833333333334E+009;1.563186347484589E-001;-1.164500415325165E-001;3.843979211524129E-003;1.509634661488235E-003;
2.426000000000000E+009;1.565029174089432E-001;-1.168946027755737E-001;3.879900323227048E-003;1.513560069724917E-003;
2.426166666666667E+009;1.568514406681061E-001;-1.172884702682495E-001;3.957058303058147E-003;1.370464917272329E-003;
2.426333333333334E+009;1.567589342594147E-001;-1.175733134150505E-001;4.120226018130779E-003;1.154961646534503E-003;
2.426500000000000E+009;1.568779945373535E-001;-1.177908554673195E-001;4.148790612816811E-003;1.049543614499271E-003;
2.426666666666667E+009;1.568723469972611E-001;-1.179795712232590E-001;4.116206429898739E-003;9.512162068858743E-004;
2.426833333333334E+009;1.566873192787170E-001;-1.180786415934563E-001;4.372798372060061E-003;6.653454620391130E-004;
2.427000000000000E+009;1.563708484172821E-001;-1.184168979525566E-001;4.296390339732170E-003;7.404159405268729E-004;
2.427166666666667E+009;1.559890359640122E-001;-1.184080094099045E-001;4.375007003545761E-003;3.519286983646452E-004;
2.427333333333334E+009;1.554872840642929E-001;-1.184750124812126E-001;4.336240235716105E-003;2.067108434857801E-004;
2.427500000000000E+009;1.549316346645355E-001;-1.185366287827492E-001;4.373017232865095E-003;2.044964639935643E-004;
2.427666666666667E+009;1.542006433010101E-001;-1.187255382537842E-001;4.444093443453312E-003;2.230363134003710E-005;
