# Version 1.00
#
freq[Hz];re:Trc1_S11;im:Trc1_S11;re:Trc2_S21;im:Trc2_S21;
2.400000000000000E+009;1.614232957363129E-001;5.830159783363342E-002;4.263282753527165E-003;4.518956877291203E-003;
2.400166666666667E+009;1.614648103713989E-001;5.673591047525406E-002;4.205143544822931E-003;4.345071967691183E-003;
2.400333333333334E+009;1.614154279232025E-001;5.502393096685410E-002;4.480533767491579E-003;4.297670442610979E-003;
2.400500000000000E+009;1.614073961973190E-001;5.319853872060776E-002;4.553890321403742E-003;4.154534544795752E-003;
2.400666666666667E+009;1.615272760391235E-001;5.152166262269020E-002;4.665629938244820E-003;4.069956485182047E-003;
2.400833333333334E+009;1.616588383913040E-001;4.963242262601852E-002;4.801148083060980E-003;3.925537690520287E-003;
2.401000000000000E+009;1.615994572639465E-001;4.765482991933823E-002;4.963333718478680E-003;3.596731927245855E-003;
2.401166666666667E+009;1.620313674211502E-001;4.561483487486839E-002;5.022323690354824E-003;3.600052557885647E-003;
2.401333333333334E+009;1.619896143674851E-001;4.369777068495750E-002;5.154647864401341E-003;3.421286121010780E-003;
2.401500000000000E+009;1.623749881982803E-001;4.170301184058189E-002;5.175861064344645E-003;3.088440513238311E-003;
2.401666666666667E+009;1.627009510993958E-001;4.004481062293053E-002;5.390238482505083E-003;2.974547445774078E-003;
2.401833333333334E+009;1.628733128309250E-001;3.814374282956123E-002;5.409953650087118E-003;2.755228430032730E-003;
2.402000000000000E+009;1.631458401679993E-001;3.620741516351700E-002;5.512427538633347E-003;2.582975663244724E-003;
2.402166666666667E+009;1.636161655187607E-001;3.422673419117928E-002;5.535202566534281E-003;2.489377278834581E-003;
2.402333333333334E+009;1.639360636472702E-001;3.262163698673248E-002;5.472115706652403E-003;2.245091833174229E-003;
2.402500000000000E+009;1.644487977027893E-001;3.086524456739426E-002;5.593900568783283E-003;1.846160972490907E-003;
2.402666666666667E+009;1.649603843688965E-001;2.929669618606567E-002;5.677309818565846E-003;1.839963486418128E-003;
2.402833333333334E+009;1.656764000654221E-001;2.757572755217552E-002;5.701784510165453E-003;1.534505980089307E-003;
2.403000000000000E+009;1.663499176502228E-001;2.593483217060566E-002;5.650202278047800E-003;1.287628663703799E-003;
2.403166666666667E+009;1.669214218854904E-001;2.444737590849400E-002;5.615150090306997E-003;1.179517828859389E-003;
2.403333333333334E+009;1.676026880741119E-001;2.313323132693768E-002;5.629007238894701E-003;1.012690016068518E-003;
2.403500000000000E+009;1.681351065635681E-001;2.162381261587143E-002;5.637256894260645E-003;9.789929026737809E-004;
2.403666666666667E+009;1.688929945230484E-001;2.044889889657497E-002;5.550587084144354E-003;7.034289883449674E-004;
2.403833333333334E+009;1.695577651262283E-001;1.908075809478760E-002;5.582872312515974E-003;4.868157266173512E-004;
2.404000000000000E+009;1.705406606197357E-001;1.798153668642044E-002;5.647423677146435E-003;4.038779297843576E-004;
2.404166666666667E+009;1.712504029273987E-001;1.682007312774658E-002;5.568958353251219E-003;1.737989950925112E-004;
2.404333333333334E+009;1.719025969505310E-001;1.580847613513470E-002;5.594260059297085E-003;3.964792995247990E-005;
2.404500000000000E+009;1.725525856018066E-001;1.481713727116585E-002;5.526956636458635E-003;-1.940239453688264E-004;
2.404666666666667E+009;1.732851266860962E-001;1.386392023414373E-002;5.424655508249998E-003;-1.964766415767372E-004;
2.404833333333334E+009;1.739633083343506E-001;1.315985806286335E-002;5.474243313074112E-003;-4.358867590781301E-004;
2.405000000000000E+009;1.747076362371445E-001;1.236677914857864E-002;5.424659233540297E-003;-4.553313192445785E-004;
2.405166666666667E+009;1.753902733325958E-001;1.172290649265051E-002;5.254304036498070E-003;-6.707022548653185E-004;
2.405333333333334E+009;1.759802848100662E-001;1.098895445466042E-002;5.224424879997969E-003;-8.500083349645138E-004;
2.405500000000000E+009;1.765071749687195E-001;1.051687914878130E-002;5.170234479010105E-003;-8.842253591865301E-004;
2.405666666666667E+009;1.769684553146362E-001;9.929518215358257E-003;5.189551040530205E-003;-9.530042298138142E-004;
2.405833333333334E+009;1.773819178342819E-001;9.554146789014339E-003;5.066610872745514E-003;-1.049781334586442E-003;
2.406000000000000E+009;1.777445524930954E-001;8.936711587011814E-003;5.048593506217003E-003;-1.248484826646745E-003;
2.406166666666667E+009;1.780961155891419E-001;8.728028275072575E-003;5.086886696517468E-003;-1.236811396665871E-003;
2.406333333333334E+009;1.785029321908951E-001;8.373470976948738E-003;4.838445223867893E-003;-1.349191996268928E-003;
2.406500000000000E+009;1.786444932222366E-001;7.866215892136097E-003;4.871766082942486E-003;-1.526111038401723E-003;
2.406666666666667E+009;1.786398440599442E-001;7.652825675904751E-003;4.871780052781105E-003;-1.694084377959371E-003;
2.406833333333334E+009;1.788086444139481E-001;7.148955482989550E-003;4.896495491266251E-003;-1.654507243074477E-003;
2.407000000000000E+009;1.789150834083557E-001;6.707503460347652E-003;4.780833143740892E-003;-1.860382268205285E-003;
2.407166666666667E+009;1.789617985486984E-001;6.480284500867128E-003;4.687252920120955E-003;-2.030696021392942E-003;
2.407333333333334E+009;1.786903738975525E-001;5.846319254487753E-003;4.640416242182255E-003;-2.400427591055632E-003;
2.407500000000000E+009;1.786206364631653E-001;5.446625873446465E-003;4.552705679088831E-003;-2.240202389657497E-003;
2.407666666666667E+009;1.785282194614410E-001;4.888871219009161E-003;4.485424607992172E-003;-2.399797318503261E-003;
2.407833333333334E+009;1.779152303934097E-001;4.439372103661299E-003;4.510899074375629E-003;-2.539851237088442E-003;
2.408000000000000E+009;1.777446866035461E-001;3.652936546131969E-003;4.477413836866617E-003;-2.645657863467932E-003;
2.408166666666667E+009;1.772955060005188E-001;3.162371926009655E-003;4.387524444609880E-003;-2.694322960451245E-003;
2.408333333333334E+009;1.770401149988174E-001;2.476549707353115E-003;4.204272758215666E-003;-2.873623510822654E-003;
2.408500000000000E+009;1.763609945774078E-001;1.332052284851670E-003;4.060429986566305E-003;-2.953779883682728E-003;
2.408666666666667E+009;1.758419424295425E-001;4.508336714934558E-004;3.972268663346767E-003;-3.111061174422503E-003;
2.408833333333334E+009;1.753237992525101E-001;-5.085203447379172E-004;3.904233686625958E-003;-3.108380828052759E-003;
2.409000000000000E+009;1.746394783258438E-001;-1.578729948960245E-003;3.918518312275410E-003;-3.247766988351941E-003;
2.409166666666667E+009;1.741722077131271E-001;-2.632845193147659E-003;3.801379119977355E-003;-3.266920568421483E-003;
2.409333333333334E+009;1.735855340957642E-001;-3.840894671157002E-003;3.778031561523676E-003;-3.334941808134317E-003;
2.409500000000000E+009;1.728872209787369E-001;-5.312656983733177E-003;3.585192840546370E-003;-3.426141804084182E-003;
2.409666666666667E+009;1.723402738571167E-001;-6.554550491273403E-003;3.506132867187262E-003;-3.581508761271834E-003;
2.409833333333334E+009;1.716503500938416E-001;-7.848813198506832E-003;3.326589940115809E-003;-3.484708722680807E-003;
2.410000000000000E+009;1.712647825479507E-001;-9.262987412512302E-003;3.288998967036605E-003;-3.639972535893321E-003;
2.410166666666667E+009;1.706048995256424E-001;-1.083470787853003E-002;3.127869684249163E-003;-3.592805471271277E-003;
2.410333333333334E+009;1.700667440891266E-001;-1.259918138384819E-002;3.108665114268661E-003;-3.656926797702909E-003;
2.410500000000000E+009;1.695274263620377E-001;-1.406588684767485E-002;3.011295804753900E-003;-3.743937937542796E-003;
2.410666666666667E+009;1.692213267087936E-001;-1.600215025246143E-002;2.977120690047741E-003;-3.791850060224533E-003;
2.410833333333334E+009;1.688857227563858E-001;-1.756804063916206E-002;2.750366227701306E-003;-3.882783465087414E-003;
2.411000000000000E+009;1.684270352125168E-001;-1.935799606144428E-002;2.852849196642637E-003;-3.980798181146383E-003;
2.411166666666667E+009;1.681187301874161E-001;-2.126068249344826E-002;2.597838640213013E-003;-3.971006721258164E-003;
2.411333333333334E+009;1.679126024246216E-001;-2.294330485165119E-002;2.518358640372753E-003;-3.948472440242767E-003;
2.411500000000000E+009;1.676642745733261E-001;-2.520019747316837E-002;2.507255878299475E-003;-4.057200159877539E-003;
2.411666666666667E+009;1.677497923374176E-001;-2.700961008667946E-002;2.475854707881808E-003;-4.093825817108154E-003;
2.411833333333334E+009;1.676275581121445E-001;-2.888307906687260E-002;2.394051523879170E-003;-4.125013016164303E-003;
2.412000000000000E+009;1.677536666393280E-001;-3.066575899720192E-002;2.186910714954138E-003;-4.379024263471365E-003;
2.412166666666667E+009;1.677375584840775E-001;-3.255243971943855E-002;2.115953480824828E-003;-4.544951487332583E-003;
2.412333333333334E+009;1.680881977081299E-001;-3.444308415055275E-002;2.039857208728790E-003;-4.513656720519066E-003;
2.412500000000000E+009;1.681235581636429E-001;-3.622167557477951E-002;1.919399132020772E-003;-4.678245633840561E-003;
2.412666666666667E+009;1.685376316308975E-001;-3.805714473128319E-002;1.644001342356205E-003;-4.640824161469936E-003;
2.412833333333334E+009;1.688082814216614E-001;-3.995692729949951E-002;1.488157315179706E-003;-4.754031077027321E-003;
2.413000000000000E+009;1.690201163291931E-001;-4.163548350334168E-002;1.568658044561744E-003;-4.716771654784679E-003;
2.413166666666667E+009;1.694156974554062E-001;-4.336226359009743E-002;1.236829557456076E-003;-4.667221568524838E-003;
2.413333333333334E+009;1.698781549930573E-001;-4.503697901964188E-002;1.149465097114444E-003;-4.723741207271814E-003;
2.413500000000000E+009;1.705652475357056E-001;-4.670596122741699E-002;1.038731890730560E-003;-4.822633229196072E-003;
2.413666666666667E+009;1.708939224481583E-001;-4.818823188543320E-002;1.094680861569941E-003;-4.903272725641727E-003;
2.413833333333334E+009;1.712937057018280E-001;-4.952802509069443E-002;9.696477791294456E-004;-4.870338831096888E-003;
2.414000000000000E+009;1.717354506254196E-001;-5.108077824115753E-002;6.713985931128264E-004;-4.833172075450420E-003;
2.414166666666667E+009;1.725763380527496E-001;-5.225525423884392E-002;6.912325043231249E-004;-4.989469423890114E-003;
2.414333333333334E+009;1.729111373424530E-001;-5.347023531794548E-002;3.909513470716775E-004;-4.859387874603272E-003;
2.414500000000000E+009;1.736351698637009E-001;-5.463995039463043E-002;3.210364666301757E-004;-4.836553707718849E-003;
2.414666666666667E+009;1.740473955869675E-001;-5.554002523422241E-002;1.587861916050315E-004;-4.977844655513763E-003;
2.414833333333334E+009;1.743598878383637E-001;-5.658896639943123E-002;2.030169343925081E-005;-4.844539798796177E-003;
2.415000000000000E+009;1.748258024454117E-001;-5.747277662158012E-002;7.833831477910280E-005;-5.020418204367161E-003;
2.415166666666667E+009;1.753271520137787E-001;-5.828137695789337E-002;6.239231151994318E-005;-4.922285676002502E-003;
2.415333333333334E+009;1.756589859724045E-001;-5.905184894800186E-002;-1.341012393822894E-004;-4.962027072906494E-003;
2.415500000000000E+009;1.759939342737198E-001;-5.957961082458496E-002;-5.047513404861093E-004;-4.923447035253048E-003;
2.415666666666667E+009;1.762733608484268E-001;-6.019352376461029E-002;-5.445612478069961E-004;-4.934282507747412E-003;
2.415833333333334E+009;1.764685362577438E-001;-6.047058105468750E-002;-5.460736574605107E-004;-4.838426131755114E-003;
2.416000000000000E+009;1.763480603694916E-001;-6.105993688106537E-002;-8.589216740801930E-004;-4.866323899477720E-003;
2.416166666666667E+009;1.768082082271576E-001;-6.131336092948914E-002;-1.027641934342682E-003;-4.924961365759373E-003;
2.416333333333334E+009;1.766270846128464E-001;-6.166199594736099E-002;-1.038748538121581E-003;-4.770473577082157E-003;
2.416500000000000E+009;1.765840053558350E-001;-6.202609464526177E-002;-1.062153605744243E-003;-4.748680163174868E-003;
2.416666666666667E+009;1.762666106224060E-001;-6.229193508625031E-002;-1.335027045570314E-003;-4.678917117416859E-003;
2.416833333333334E+009;1.762395948171616E-001;-6.252471357584000E-002;-1.363373012281954E-003;-4.642789252102375E-003;
2.417000000000000E+009;1.756492257118225E-001;-6.275334209203720E-002;-1.525883213616908E-003;-4.793989006429911E-003;
2.417166666666667E+009;1.753068864345551E-001;-6.289940327405930E-002;-1.758341677486897E-003;-4.562588408589363E-003;
2.417333333333334E+009;1.747871488332748E-001;-6.300763785839081E-002;-1.886043348349631E-003;-4.441571421921253E-003;
2.417500000000000E+009;1.742193400859833E-001;-6.350079923868179E-002;-1.989386742934585E-003;-4.588203039020300E-003;
2.417666666666667E+009;1.735319048166275E-001;-6.338880956172943E-002;-1.906712772324681E-003;-4.396202974021435E-003;
2.417833333333334E+009;1.728056073188782E-001;-6.365327537059784E-002;-2.097966847941279E-003;-4.504196345806122E-003;
2.418000000000000E+009;1.717973947525024E-001;-6.406524777412415E-002;-2.288740826770663E-003;-4.471286665648222E-003;
2.418166666666667E+009;1.709421724081039E-001;-6.409559398889542E-002;-2.320722909644246E-003;-4.307654220610857E-003;
2.418333333333334E+009;1.701950281858444E-001;-6.456268578767777E-002;-2.431557746604085E-003;-4.268524236977100E-003;
2.418500000000000E+009;1.690306663513184E-001;-6.490468978881836E-002;-2.532675396651030E-003;-4.168937914073467E-003;
2.418666666666667E+009;1.680629104375839E-001;-6.531159579753876E-002;-2.595510799437761E-003;-4.196265712380409E-003;
2.418833333333334E+009;1.667818725109100E-001;-6.591858714818955E-002;-2.729565370827913E-003;-4.044820554554462E-003;
2.419000000000000E+009;1.656704992055893E-001;-6.641720235347748E-002;-2.862998284399509E-003;-3.863016143441200E-003;
2.419166666666667E+009;1.644676774740219E-001;-6.703738123178482E-002;-3.023892873898149E-003;-3.986132796853781E-003;
2.419333333333334E+009;1.631125360727310E-001;-6.756003201007843E-002;-3.043268341571093E-003;-3.918731585144997E-003;
2.419500000000000E+009;1.620674431324005E-001;-6.841496378183365E-002;-3.115126164630055E-003;-3.789368085563183E-003;
2.419666666666667E+009;1.608600467443466E-001;-6.916810572147369E-002;-3.361515467986465E-003;-3.722418332472444E-003;
2.419833333333334E+009;1.594438552856445E-001;-7.004240155220032E-002;-3.206713590770960E-003;-3.535570809617639E-003;
2.420000000000000E+009;1.584194749593735E-001;-7.110613584518433E-002;-3.493153257295489E-003;-3.404940012842417E-003;
2.420166666666667E+009;1.572211384773254E-001;-7.204806804656982E-002;-3.621508600190282E-003;-3.446191782131791E-003;
2.420333333333334E+009;1.560867726802826E-001;-7.324445247650147E-002;-3.713357029482722E-003;-3.262985264882445E-003;
2.420500000000000E+009;1.551686674356461E-001;-7.436693459749222E-002;-3.771052462980151E-003;-3.059827722609043E-003;
2.420666666666667E+009;1.537921130657196E-001;-7.569518685340881E-002;-3.854006994515657E-003;-3.036632435396314E-003;
2.420833333333334E+009;1.528405547142029E-001;-7.711777836084366E-002;-4.003827460110188E-003;-2.929220441728830E-003;
2.421000000000000E+009;1.518643498420715E-001;-7.837305963039398E-002;-4.124693572521210E-003;-2.832793164998293E-003;
2.421166666666667E+009;1.511588841676712E-001;-7.986838370561600E-002;-4.085889551788569E-003;-2.605935325846076E-003;
2.421333333333334E+009;1.504341065883637E-001;-8.144392073154450E-002;-4.101311787962914E-003;-2.340958220884204E-003;
2.421500000000000E+009;1.495928317308426E-001;-8.285232633352280E-002;-4.069653339684010E-003;-2.469854196533561E-003;
2.421666666666667E+009;1.489568054676056E-001;-8.439150452613831E-002;-4.170619416981936E-003;-2.079016761854291E-003;
2.421833333333334E+009;1.484085023403168E-001;-8.612190186977387E-002;-4.299553576856852E-003;-2.021308522671461E-003;
2.422000000000000E+009;1.477237939834595E-001;-8.790125697851181E-002;-4.370432812720537E-003;-1.904161530546844E-003;
2.422166666666667E+009;1.473707854747772E-001;-8.986353129148483E-002;-4.234743304550648E-003;-1.851295353844762E-003;
2.422333333333334E+009;1.469770967960358E-001;-9.130892157554627E-002;-4.357448313385248E-003;-1.742047490552068E-003;
2.422500000000000E+009;1.467588841915131E-001;-9.279972314834595E-002;-4.400864243507385E-003;-1.502983854152262E-003;
2.422666666666667E+009;1.464429050683975E-001;-9.485808759927750E-002;-4.315007943660021E-003;-1.515012001618743E-003;
2.422833333333334E+009;1.464222222566605E-001;-9.657413512468338E-002;-4.345029592514038E-003;-1.336120418272913E-003;
2.423000000000000E+009;1.464523971080780E-001;-9.809696674346924E-002;-4.395494237542152E-003;-1.230639521963894E-003;
2.423166666666667E+009;1.466575264930725E-001;-9.996704012155533E-002;-4.423242062330246E-003;-1.162819331511855E-003;
2.423333333333334E+009;1.467812508344650E-001;-1.014253273606300E-001;-4.227081313729286E-003;-1.024190918542445E-003;
2.423500000000000E+009;1.467865705490112E-001;-1.032339781522751E-001;-4.309176001697779E-003;-8.627133211120963E-004;
2.423666666666667E+009;1.469145715236664E-001;-1.047407910227776E-001;-4.380846396088600E-003;-7.944807293824852E-004;
2.423833333333334E+009;1.473366469144821E-001;-1.063018068671227E-001;-4.354842938482761E-003;-5.958412075415254E-004;
2.424000000000000E+009;1.475061923265457E-001;-1.076600253582001E-001;-4.436303395777941E-003;-7.945868419483304E-004;
2.424166666666667E+009;1.478621065616608E-001;-1.090328469872475E-001;-4.437696654349566E-003;-4.982128157280386E-004;
2.424333333333334E+009;1.484760642051697E-001;-1.104375496506691E-001;-4.490507300943136E-003;-3.537946613505483E-004;
2.424500000000000E+009;1.486814171075821E-001;-1.117210313677788E-001;-4.494365304708481E-003;-1.699350541457534E-004;
2.424666666666667E+009;1.491861045360565E-001;-1.127578243613243E-001;-4.482297226786614E-003;-1.885505771497265E-004;
2.424833333333334E+009;1.494648456573486E-001;-1.139282360672951E-001;-4.454628564417362E-003;-4.299874490243383E-005;
2.425000000000000E+009;1.499072015285492E-001;-1.150795370340347E-001;-4.380697850137949E-003;9.536050492897630E-005;
2.425166666666667E+009;1.501210033893585E-001;-1.159401834011078E-001;-4.365057218819857E-003;1.631865889066830E-004;
2.425333333333334E+009;1.506590396165848E-001;-1.169148087501526E-001;-4.402065183967352E-003;3.365250304341316E-004;
2.425500000000000E+009;1.509865522384644E-001;-1.176455989480019E-001;-4.401251208037138E-003;4.082893719896674E-004;
2.425666666666667E+009;1.511406153440476E-001;-1.183624193072319E-001;-4.310722928494215E-003;5.137976258993149E-004;
2.425833333333334E+009;1.514887809753418E-001;-1.189981698989868E-001;-4.405237268656492E-003;7.454329752363265E-004;
2.426000000000000E+009;1.516176909208298E-001;-1.197008788585663E-001;-4.113918635994196E-003;7.547529530711472E-004;
2.426166666666667E+009;1.520901024341583E-001;-1.201891601085663E-001;-4.109448753297329E-003;1.013086060993373E-003;
2.426333333333334E+009;1.519673615694046E-001;-1.205117627978325E-001;-4.066942259669304E-003;1.082104747183621E-003;
2.426500000000000E+009;1.520420610904694E-001;-1.208706647157669E-001;-3.970313817262650E-003;9.949553059414029E-004;
2.426666666666667E+009;1.521490067243576E-001;-1.209915429353714E-001;-4.155206959694624E-003;1.278703915886581E-003;
2.426833333333334E+009;1.518917977809906E-001;-1.213783994317055E-001;-4.083994310349226E-003;1.341637223958969E-003;
2.427000000000000E+009;1.517102122306824E-001;-1.216582357883453E-001;-3.922131378203630E-003;1.255042618140578E-003;
2.427166666666667E+009;1.513564735651016E-001;-1.216977760195732E-001;-3.879682393744588E-003;1.432123011909425E-003;
2.427333333333334E+009;1.509115248918533E-001;-1.219418793916702E-001;-3.858905518427491E-003;1.396362436935306E-003;
2.427500000000000E+009;1.505581438541412E-001;-1.219587251543999E-001;-3.837476018816233E-003;1.635713269934058E-003;
2.427666666666667E+009;1.499827057123184E-001;-1.221565827727318E-001;-3.794236108660698E-003;1.727992435917258E-003;
