# Version 1.00
#
freq[Hz];re:Trc1_S11;im:Trc1_S11;re:Trc2_S21;im:Trc2_S21;
2.400000000000000E+009;1.688677966594696E-001;4.596573486924171E-002;-2.950050635263324E-003;-2.973239636048675E-003;
2.400166666666667E+009;1.698881089687347E-001;4.486806318163872E-002;-2.979529788717628E-003;-2.732247114181519E-003;
2.400333333333334E+009;1.708873808383942E-001;4.360942170023918E-002;-3.013867419213057E-003;-2.695628441870213E-003;
2.400500000000000E+009;1.717795878648758E-001;4.272511601448059E-002;-2.964521758258343E-003;-2.585159381851554E-003;
2.400666666666667E+009;1.727118045091629E-001;4.175644367933273E-002;-3.187576308846474E-003;-2.485937438905239E-003;
2.400833333333334E+009;1.735484153032303E-001;4.105364531278610E-002;-3.122536465525627E-003;-2.567688468843699E-003;
2.401000000000000E+009;1.744361370801926E-001;4.021463543176651E-002;-3.401015885174274E-003;-2.385330386459827E-003;
2.401166666666667E+009;1.752169877290726E-001;3.946374356746674E-002;-3.359503345564008E-003;-2.261216053739190E-003;
2.401333333333334E+009;1.759730577468872E-001;3.882337361574173E-002;-3.554508555680513E-003;-2.236332045868039E-003;
2.401500000000000E+009;1.768681406974793E-001;3.816280141472817E-002;-3.519285703077912E-003;-1.945102005265653E-003;
2.401666666666667E+009;1.774438917636871E-001;3.750748559832573E-002;-3.810615977272391E-003;-1.849869731813669E-003;
2.401833333333334E+009;1.779015809297562E-001;3.684816136956215E-002;-3.738711355254054E-003;-1.745856832712889E-003;
2.402000000000000E+009;1.784236133098602E-001;3.632987663149834E-002;-3.913133870810270E-003;-1.673610880970955E-003;
2.402166666666667E+009;1.787037998437882E-001;3.556345775723457E-002;-3.959447611123323E-003;-1.480415929108858E-003;
2.402333333333334E+009;1.788797378540039E-001;3.501201793551445E-002;-3.954968880861998E-003;-1.179161714389920E-003;
2.402500000000000E+009;1.797122061252594E-001;3.434830158948898E-002;-4.177458584308624E-003;-1.098410692065954E-003;
2.402666666666667E+009;1.796528697013855E-001;3.380400687456131E-002;-4.001468420028687E-003;-8.737189345993102E-004;
2.402833333333334E+009;1.797405928373337E-001;3.317356109619141E-002;-4.074423573911190E-003;-6.409555207937956E-004;
2.403000000000000E+009;1.798211634159088E-001;3.228626400232315E-002;-4.017633385956287E-003;-5.471265758387744E-004;
2.403166666666667E+009;1.798523813486099E-001;3.167179599404335E-002;-3.934236243367195E-003;-2.977263648062944E-004;
2.403333333333334E+009;1.797837466001511E-001;3.095872141420841E-002;-4.005284048616886E-003;-1.519876532256603E-004;
2.403500000000000E+009;1.795795559883118E-001;2.996546588838100E-002;-3.965839743614197E-003;1.298003735428210E-005;
2.403666666666667E+009;1.793877780437470E-001;2.902010269463062E-002;-3.825025632977486E-003;1.091975354938768E-005;
2.403833333333334E+009;1.792121529579163E-001;2.796928957104683E-002;-3.615094115957618E-003;2.141729200957343E-004;
2.404000000000000E+009;1.787474304437637E-001;2.685526572167873E-002;-3.713496029376984E-003;3.589217085391283E-004;
2.404166666666667E+009;1.783146858215332E-001;2.565706335008144E-002;-3.529000096023083E-003;4.055206954944879E-004;
2.404333333333334E+009;1.778053194284439E-001;2.473126165568829E-002;-3.529490903019905E-003;6.764117279089987E-004;
2.404500000000000E+009;1.772337555885315E-001;2.306305989623070E-002;-3.432958386838436E-003;6.866314215585589E-004;
2.404666666666667E+009;1.769289225339890E-001;2.185279317200184E-002;-3.342768875882030E-003;6.745316786691546E-004;
2.404833333333334E+009;1.763821691274643E-001;2.045471034944058E-002;-3.252066904678941E-003;7.113003521226347E-004;
2.405000000000000E+009;1.761397123336792E-001;1.896578632295132E-002;-2.973471302539110E-003;8.253448759205639E-004;
2.405166666666667E+009;1.754337549209595E-001;1.748054102063179E-002;-2.941361628472805E-003;9.442782611586154E-004;
2.405333333333334E+009;1.749723404645920E-001;1.565620303153992E-002;-2.884150017052889E-003;8.997314726002514E-004;
2.405500000000000E+009;1.745927780866623E-001;1.427072100341320E-002;-3.009262029081583E-003;9.279310470446944E-004;
2.405666666666667E+009;1.743460446596146E-001;1.245459076017141E-002;-2.738143783062697E-003;9.578717290423811E-004;
2.405833333333334E+009;1.738167703151703E-001;1.069802604615688E-002;-2.806550823152065E-003;1.101658097468317E-003;
2.406000000000000E+009;1.735673695802689E-001;8.843731135129929E-003;-2.673656679689884E-003;9.831284405663610E-004;
2.406166666666667E+009;1.731638312339783E-001;7.011772133409977E-003;-2.663674065843225E-003;1.084504998289049E-003;
2.406333333333334E+009;1.731569916009903E-001;5.000812467187643E-003;-2.657008124515414E-003;1.017592265270650E-003;
2.406500000000000E+009;1.730158329010010E-001;2.955004107207060E-003;-2.732619876042008E-003;1.014687120914459E-003;
2.406666666666667E+009;1.728591322898865E-001;9.391650673933327E-004;-2.617164980620146E-003;1.067720470018685E-003;
2.406833333333334E+009;1.727704554796219E-001;-1.146227121353149E-003;-2.644723979756236E-003;1.079025678336620E-003;
2.407000000000000E+009;1.728560030460358E-001;-3.210426075384021E-003;-2.603399334475398E-003;1.119778491556644E-003;
2.407166666666667E+009;1.731490194797516E-001;-5.269103683531284E-003;-2.590859774500132E-003;1.115613034926355E-003;
2.407333333333334E+009;1.730307191610336E-001;-7.470171898603439E-003;-2.760111121460795E-003;1.239839475601912E-003;
2.407500000000000E+009;1.733930110931397E-001;-9.548224508762360E-003;-2.648190828040242E-003;1.193712465465069E-003;
2.407666666666667E+009;1.735805124044418E-001;-1.172141823917627E-002;-2.734867157414556E-003;1.330417697317898E-003;
2.407833333333334E+009;1.738549619913101E-001;-1.391561329364777E-002;-2.782840747386217E-003;1.408060546964407E-003;
2.408000000000000E+009;1.742383688688278E-001;-1.598696969449520E-002;-2.771212020888925E-003;1.368824858218432E-003;
2.408166666666667E+009;1.744530498981476E-001;-1.806575804948807E-002;-2.783053088933229E-003;1.574881025590003E-003;
2.408333333333334E+009;1.751396059989929E-001;-2.003627084195614E-002;-2.771928440779448E-003;1.771137933246791E-003;
2.408500000000000E+009;1.753074377775192E-001;-2.202221006155014E-002;-2.935541560873389E-003;1.837191171944141E-003;
2.408666666666667E+009;1.757270693778992E-001;-2.377988211810589E-002;-2.661495003849268E-003;2.075840020552278E-003;
2.408833333333334E+009;1.760061979293823E-001;-2.565536648035049E-002;-2.582085551694036E-003;2.132679102942348E-003;
2.409000000000000E+009;1.764100193977356E-001;-2.730835974216461E-002;-2.441053278744221E-003;2.326375804841518E-003;
2.409166666666667E+009;1.768543273210526E-001;-2.886103093624115E-002;-2.421426353976131E-003;2.310835756361485E-003;
2.409333333333334E+009;1.773676574230194E-001;-3.025966882705689E-002;-2.339950064197183E-003;2.582127694040537E-003;
2.409500000000000E+009;1.776501685380936E-001;-3.162143751978874E-002;-2.259343629702926E-003;2.597607905045152E-003;
2.409666666666667E+009;1.779872328042984E-001;-3.275365754961968E-002;-2.008467214182019E-003;2.780596958473325E-003;
2.409833333333334E+009;1.783121079206467E-001;-3.383851051330566E-002;-2.062057377770543E-003;2.735896734520793E-003;
2.410000000000000E+009;1.789243370294571E-001;-3.501303493976593E-002;-1.960936700925231E-003;2.771454397588968E-003;
2.410166666666667E+009;1.793836951255798E-001;-3.584656864404678E-002;-1.987069845199585E-003;2.739987336099148E-003;
2.410333333333334E+009;1.797120124101639E-001;-3.668474033474922E-002;-1.732624601572752E-003;2.845701761543751E-003;
2.410500000000000E+009;1.802320629358292E-001;-3.742589056491852E-002;-1.575079397298396E-003;2.884822897613049E-003;
2.410666666666667E+009;1.804870367050171E-001;-3.828453272581101E-002;-1.515659969300032E-003;3.026923397555947E-003;
2.410833333333334E+009;1.807824820280075E-001;-3.880726918578148E-002;-1.296665985137224E-003;2.922351937741041E-003;
2.411000000000000E+009;1.811921596527100E-001;-3.934515640139580E-002;-1.269529107958078E-003;2.939295722171664E-003;
2.411166666666667E+009;1.815770268440247E-001;-3.994934633374214E-002;-1.334249973297119E-003;3.118125954642892E-003;
2.411333333333334E+009;1.816539466381073E-001;-4.047501832246780E-002;-1.094934297725558E-003;2.972109243273735E-003;
2.411500000000000E+009;1.816012710332871E-001;-4.097398370504379E-002;-1.062637311406434E-003;3.012612462043762E-003;
2.411666666666667E+009;1.817252784967423E-001;-4.121245816349983E-002;-1.074878149665892E-003;3.083038842305541E-003;
2.411833333333334E+009;1.817292422056198E-001;-4.163895919919014E-002;-7.771198288537562E-004;3.189977258443832E-003;
2.412000000000000E+009;1.815019547939301E-001;-4.201696068048477E-002;-8.354901219718158E-004;3.038803115487099E-003;
2.412166666666667E+009;1.811578869819641E-001;-4.231678694486618E-002;-6.096870638430119E-004;3.165561240166426E-003;
2.412333333333334E+009;1.810379624366760E-001;-4.261627048254013E-002;-5.531428614631295E-004;3.008334897458553E-003;
2.412500000000000E+009;1.803295016288757E-001;-4.298356920480728E-002;-6.648458074778318E-004;3.255757270380855E-003;
2.412666666666667E+009;1.797678768634796E-001;-4.344240576028824E-002;-5.762380897067487E-004;3.072675783187151E-003;
2.412833333333334E+009;1.792373359203339E-001;-4.381689429283142E-002;-4.641092382371426E-004;3.175857942551374E-003;
2.413000000000000E+009;1.784993410110474E-001;-4.415113851428032E-002;-2.251084224553779E-004;3.108786651864648E-003;
2.413166666666667E+009;1.774908453226090E-001;-4.472484067082405E-002;-1.175457146018744E-004;3.150654258206487E-003;
2.413333333333334E+009;1.766057610511780E-001;-4.504127055406570E-002;-7.333755638683215E-005;3.073911415413022E-003;
2.413500000000000E+009;1.757704615592957E-001;-4.555552080273628E-002;1.548012223793194E-004;3.062677802518010E-003;
2.413666666666667E+009;1.749339997768402E-001;-4.604577645659447E-002;1.303137105423957E-004;2.885730238631368E-003;
2.413833333333334E+009;1.736963838338852E-001;-4.672678560018539E-002;1.076426560757682E-004;2.970534609630704E-003;
2.414000000000000E+009;1.723822802305222E-001;-4.740962758660317E-002;1.646952732698992E-004;2.953872783109546E-003;
2.414166666666667E+009;1.713813990354538E-001;-4.800379276275635E-002;1.618718670215458E-004;2.922580344602466E-003;
2.414333333333334E+009;1.702176630496979E-001;-4.873197898268700E-002;1.034261222230271E-004;2.914089709520340E-003;
2.414500000000000E+009;1.691339612007141E-001;-4.949762299656868E-002;1.801965263439342E-004;3.001179080456495E-003;
2.414666666666667E+009;1.680552214384079E-001;-5.030868574976921E-002;1.901284995255992E-004;2.928527537733316E-003;
2.414833333333334E+009;1.666647493839264E-001;-5.159317702054977E-002;2.836516941897571E-004;2.908288734033704E-003;
2.415000000000000E+009;1.654483228921890E-001;-5.263157188892365E-002;1.729315990814939E-004;2.951927483081818E-003;
2.415166666666667E+009;1.644279509782791E-001;-5.387157574295998E-002;2.189904043916613E-004;3.030131105333567E-003;
2.415333333333334E+009;1.632001698017120E-001;-5.518835037946701E-002;2.692745183594525E-004;3.218198195099831E-003;
2.415500000000000E+009;1.620019674301148E-001;-5.657994002103806E-002;4.475530295167118E-004;3.329945029690862E-003;
2.415666666666667E+009;1.608498543500900E-001;-5.813495069742203E-002;5.689475801773369E-004;3.234636737033725E-003;
2.415833333333334E+009;1.600162982940674E-001;-5.949217081069946E-002;6.607400136999786E-004;3.507486311718822E-003;
2.416000000000000E+009;1.587111055850983E-001;-6.120394915342331E-002;7.027594838291407E-004;3.602220676839352E-003;
2.416166666666667E+009;1.578730344772339E-001;-6.295011937618256E-002;8.872448815964162E-004;3.559692995622754E-003;
2.416333333333334E+009;1.568287312984467E-001;-6.474738568067551E-002;1.007712329737842E-003;3.589822212234139E-003;
2.416500000000000E+009;1.557804346084595E-001;-6.657903641462326E-002;1.196546014398336E-003;3.607269842177630E-003;
2.416666666666667E+009;1.549645513296127E-001;-6.830859184265137E-002;1.309905084781349E-003;3.612464526668191E-003;
2.416833333333334E+009;1.542106419801712E-001;-7.036021351814270E-002;1.385111012496054E-003;3.680003806948662E-003;
2.417000000000000E+009;1.531597077846527E-001;-7.237373292446137E-002;1.676950138062239E-003;3.653812222182751E-003;
2.417166666666667E+009;1.525796651840210E-001;-7.406632602214813E-002;1.798549783416092E-003;3.800217062234879E-003;
2.417333333333334E+009;1.520264893770218E-001;-7.594937086105347E-002;1.899939728900790E-003;3.533631097525358E-003;
2.417500000000000E+009;1.513198018074036E-001;-7.810615748167038E-002;2.408194355666637E-003;3.538880962878466E-003;
2.417666666666667E+009;1.508977413177490E-001;-7.975738495588303E-002;2.512893406674266E-003;3.456396050751209E-003;
2.417833333333334E+009;1.503790169954300E-001;-8.164403587579727E-002;2.682730322703719E-003;3.197493962943554E-003;
2.418000000000000E+009;1.500338762998581E-001;-8.359326422214508E-002;2.953659044578672E-003;3.132328391075134E-003;
2.418166666666667E+009;1.498415470123291E-001;-8.525322377681732E-002;3.037343965843320E-003;2.932573202997446E-003;
2.418333333333334E+009;1.497933119535446E-001;-8.689396083354950E-002;2.963041653856635E-003;2.911246148869395E-003;
2.418500000000000E+009;1.494159698486328E-001;-8.835495263338089E-002;3.304525977000594E-003;2.705639461055398E-003;
2.418666666666667E+009;1.495484858751297E-001;-8.999482542276382E-002;3.296172013506293E-003;2.524329116567969E-003;
2.418833333333334E+009;1.492917984724045E-001;-9.152076393365860E-002;3.302209312096238E-003;2.280702348798513E-003;
2.419000000000000E+009;1.491571068763733E-001;-9.267862141132355E-002;3.529700683429837E-003;2.228128723800182E-003;
2.419166666666667E+009;1.493011265993118E-001;-9.391027688980103E-002;3.471068572252989E-003;1.798934652470052E-003;
2.419333333333334E+009;1.492992639541626E-001;-9.475466609001160E-002;3.542191814631224E-003;1.780863734893501E-003;
2.419500000000000E+009;1.495924293994904E-001;-9.604616463184357E-002;3.563785459846258E-003;1.456348458305001E-003;
2.419666666666667E+009;1.498340815305710E-001;-9.702002257108688E-002;3.408919321373105E-003;1.303097000345588E-003;
2.419833333333334E+009;1.499106436967850E-001;-9.761506319046021E-002;3.336052643135190E-003;1.346023636870086E-003;
2.420000000000000E+009;1.502374559640884E-001;-9.839620441198349E-002;3.456474049016833E-003;1.284684403799474E-003;
2.420166666666667E+009;1.505625247955322E-001;-9.886132180690765E-002;3.372365841642022E-003;1.275273971259594E-003;
2.420333333333334E+009;1.508204638957977E-001;-9.936438500881195E-002;3.494282020255923E-003;1.117644365876913E-003;
2.420500000000000E+009;1.512938886880875E-001;-9.959615767002106E-002;3.434065263718367E-003;1.063607051037252E-003;
2.420666666666667E+009;1.515232175588608E-001;-9.979282319545746E-002;3.362644929438829E-003;9.473559330217540E-004;
2.420833333333334E+009;1.517545282840729E-001;-1.001288369297981E-001;3.367642639204860E-003;1.072155078873038E-003;
2.421000000000000E+009;1.521108001470566E-001;-1.001328676939011E-001;3.452436765655875E-003;1.012131571769714E-003;
2.421166666666667E+009;1.522887945175171E-001;-1.002953127026558E-001;3.497742116451263E-003;8.643183973617852E-004;
2.421333333333334E+009;1.524680554866791E-001;-1.002770140767098E-001;3.811343805864453E-003;8.453401969745755E-004;
2.421500000000000E+009;1.524712443351746E-001;-1.001610308885574E-001;3.803441533818841E-003;7.142118993215263E-004;
2.421666666666667E+009;1.524057239294052E-001;-1.000350713729858E-001;3.766142297536135E-003;5.813280004076660E-004;
2.421833333333334E+009;1.524750739336014E-001;-1.000158041715622E-001;3.920444753021002E-003;5.097187240608037E-004;
2.422000000000000E+009;1.523585915565491E-001;-9.976096451282501E-002;4.002890549600124E-003;5.238158046267927E-004;
2.422166666666667E+009;1.520930826663971E-001;-9.961925446987152E-002;4.061788320541382E-003;2.875799837056547E-004;
2.422333333333334E+009;1.516435891389847E-001;-9.931421279907227E-002;4.120974801480770E-003;-1.143555527960416E-005;
2.422500000000000E+009;1.510507911443710E-001;-9.902644902467728E-002;4.102587234228849E-003;-9.478257561568171E-005;
2.422666666666667E+009;1.504643410444260E-001;-9.886375069618225E-002;4.264224786311388E-003;-3.806964086834341E-004;
2.422833333333334E+009;1.498278081417084E-001;-9.849341213703156E-002;4.278482403606176E-003;-5.789119750261307E-004;
2.423000000000000E+009;1.489904075860977E-001;-9.815232455730438E-002;4.097344819456339E-003;-7.020231569185853E-004;
2.423166666666667E+009;1.482304930686951E-001;-9.776013344526291E-002;4.143652971833944E-003;-9.787004673853517E-004;
2.423333333333334E+009;1.472953855991364E-001;-9.736944735050201E-002;4.213565494865179E-003;-1.121423323638737E-003;
2.423500000000000E+009;1.460389494895935E-001;-9.711711108684540E-002;4.222256131470203E-003;-1.273900270462036E-003;
2.423666666666667E+009;1.447739601135254E-001;-9.691104292869568E-002;3.971677273511887E-003;-1.370649435557425E-003;
2.423833333333334E+009;1.435775458812714E-001;-9.667608141899109E-002;4.073660820722580E-003;-1.580542186275125E-003;
2.424000000000000E+009;1.423570364713669E-001;-9.631466865539551E-002;3.904135664924979E-003;-1.513397786766291E-003;
2.424166666666667E+009;1.407517790794373E-001;-9.616314619779587E-002;3.789256326854229E-003;-1.802785322070122E-003;
2.424333333333334E+009;1.396966576576233E-001;-9.596661478281021E-002;3.647409612312913E-003;-1.813377602957189E-003;
2.424500000000000E+009;1.382635086774826E-001;-9.607595205307007E-002;3.589717438444495E-003;-1.954133855178952E-003;
2.424666666666667E+009;1.368371397256851E-001;-9.614079445600510E-002;3.582329954952002E-003;-2.125668339431286E-003;
2.424833333333334E+009;1.353830099105835E-001;-9.635835140943527E-002;3.573907306417823E-003;-2.315926831215620E-003;
2.425000000000000E+009;1.338759511709213E-001;-9.659504890441895E-002;3.411900717765093E-003;-2.465368015691638E-003;
2.425166666666667E+009;1.323204189538956E-001;-9.696358442306519E-002;3.347582416608930E-003;-2.519208006560803E-003;
2.425333333333334E+009;1.308596134185791E-001;-9.746240079402924E-002;3.342724172398448E-003;-2.631861716508865E-003;
2.425500000000000E+009;1.295390427112579E-001;-9.819275140762329E-002;3.087890800088644E-003;-2.886908594518900E-003;
2.425666666666667E+009;1.279833763837814E-001;-9.888165444135666E-002;3.048778045922518E-003;-2.827039221301675E-003;
2.425833333333334E+009;1.266063153743744E-001;-9.986183047294617E-002;2.825875533744693E-003;-3.103441093116999E-003;
2.426000000000000E+009;1.252521127462387E-001;-1.007746458053589E-001;2.878819825127721E-003;-3.249037545174360E-003;
2.426166666666667E+009;1.239882335066795E-001;-1.018320322036743E-001;2.538719214498997E-003;-3.281594952568412E-003;
2.426333333333334E+009;1.226466372609139E-001;-1.032125875353813E-001;2.469474915415049E-003;-3.434042213484645E-003;
2.426500000000000E+009;1.215211525559425E-001;-1.042381823062897E-001;2.290718257427216E-003;-3.373795887455344E-003;
2.426666666666667E+009;1.204713582992554E-001;-1.056011915206909E-001;1.966302283108234E-003;-3.532056231051683E-003;
2.426833333333334E+009;1.192537322640419E-001;-1.069692224264145E-001;1.953436760231853E-003;-3.542954567819834E-003;
2.427000000000000E+009;1.182578727602959E-001;-1.087732017040253E-001;1.647199969738722E-003;-3.606120822951198E-003;
2.427166666666667E+009;1.172369569540024E-001;-1.101628094911575E-001;1.579219708219171E-003;-3.497141646221280E-003;
2.427333333333334E+009;1.162824258208275E-001;-1.117589846253395E-001;1.374447485432029E-003;-3.465094603598118E-003;
2.427500000000000E+009;1.155347451567650E-001;-1.134678795933723E-001;1.347778015770018E-003;-3.553141141310334E-003;
2.427666666666667E+009;1.148605570197105E-001;-1.152443066239357E-001;1.260184333659709E-003;-3.474095137789846E-003;
2.427833333333334E+009;1.141467615962029E-001;-1.168871074914932E-001;1.139570842497051E-003;-3.327801823616028E-003;
