# Version 1.00
#
freq[Hz];re:Trc1_S11;im:Trc1_S11;re:Trc2_S21;im:Trc2_S21;
2.400000000000000E+009;1.550887376070023E-001;1.067250967025757E-001;-1.582800759933889E-003;9.995110303862020E-005;
2.400166666666667E+009;1.548434346914291E-001;1.042370349168778E-001;-1.472312607802451E-003;2.164476318284869E-004;
2.400333333333334E+009;1.548039466142654E-001;1.018503382802010E-001;-1.267690910026431E-003;3.055730776395649E-004;
2.400500000000000E+009;1.548578441143036E-001;9.925930947065353E-002;-1.353330560959876E-003;2.606265770737082E-004;
2.400666666666667E+009;1.550249010324478E-001;9.692477434873581E-002;-1.315614907070994E-003;2.266372612211853E-004;
2.400833333333334E+009;1.550101190805435E-001;9.385570138692856E-002;-1.412050100043416E-003;3.870772779919207E-004;
2.401000000000000E+009;1.551571339368820E-001;9.111844003200531E-002;-1.107281656004489E-003;4.994645132683218E-004;
2.401166666666667E+009;1.554113179445267E-001;8.828311413526535E-002;-1.071156817488372E-003;6.331084878183901E-004;
2.401333333333334E+009;1.558107137680054E-001;8.545976132154465E-002;-9.718195069581270E-004;7.556381169706583E-004;
2.401500000000000E+009;1.563313603401184E-001;8.285346627235413E-002;-9.317424846813083E-004;7.745435577817261E-004;
2.401666666666667E+009;1.565741151571274E-001;7.987121492624283E-002;-7.807057118043304E-004;6.018442800268531E-004;
2.401833333333334E+009;1.572114974260330E-001;7.729709148406982E-002;-7.328595966100693E-004;5.913611967116594E-004;
2.402000000000000E+009;1.580414623022080E-001;7.459100335836411E-002;-8.859732770361006E-004;5.850789020769298E-004;
2.402166666666667E+009;1.587745696306229E-001;7.199841737747192E-002;-6.522717885673046E-004;4.955941112712026E-004;
2.402333333333334E+009;1.598229557275772E-001;6.926550716161728E-002;-6.897535058669746E-004;5.016214563511312E-004;
2.402500000000000E+009;1.611257344484329E-001;6.691198796033859E-002;-7.056631147861481E-004;4.399991012178361E-004;
2.402666666666667E+009;1.623887568712235E-001;6.466189026832581E-002;-8.249233942478895E-004;4.875716695096344E-004;
2.402833333333334E+009;1.636821627616882E-001;6.219820678234100E-002;-8.392029558308423E-004;4.023165674880147E-004;
2.403000000000000E+009;1.649509966373444E-001;5.987186357378960E-002;-9.178792824968696E-004;4.741350712720305E-004;
2.403166666666667E+009;1.667997539043427E-001;5.772034823894501E-002;-8.190743392333388E-004;5.922809359617531E-004;
2.403333333333334E+009;1.680943220853806E-001;5.550884827971458E-002;-9.411859791725874E-004;5.108712357468903E-004;
2.403500000000000E+009;1.699140518903732E-001;5.358748510479927E-002;-8.952625212259591E-004;5.710517289116979E-004;
2.403666666666667E+009;1.716389656066895E-001;5.170888453722000E-002;-9.580880287103355E-004;7.415678701363504E-004;
2.403833333333334E+009;1.733492016792297E-001;4.981044307351112E-002;-1.050472608767450E-003;9.704344556666911E-004;
2.404000000000000E+009;1.748100370168686E-001;4.803445935249329E-002;-1.089614699594677E-003;8.582327864132822E-004;
2.404166666666667E+009;1.767213642597199E-001;4.663969948887825E-002;-8.153294911608100E-004;1.078256871551275E-003;
2.404333333333334E+009;1.782687753438950E-001;4.520337283611298E-002;-8.523861179128289E-004;1.221707556396723E-003;
2.404500000000000E+009;1.802421808242798E-001;4.368917271494865E-002;-8.567293407395482E-004;1.118422718718648E-003;
2.404666666666667E+009;1.814569681882858E-001;4.261638596653938E-002;-6.692578899674118E-004;1.194474636577070E-003;
2.404833333333334E+009;1.827767789363861E-001;4.142218083143234E-002;-4.997461801394820E-004;1.309671904891729E-003;
2.405000000000000E+009;1.843549758195877E-001;4.070905968546867E-002;-5.994711536914110E-004;1.079326146282256E-003;
2.405166666666667E+009;1.858125925064087E-001;4.016804322600365E-002;-2.331290306756273E-004;9.940455202013254E-004;
2.405333333333334E+009;1.870729476213455E-001;3.951184451580048E-002;-3.294508787803352E-004;1.181737519800663E-003;
2.405500000000000E+009;1.886709481477737E-001;3.935663774609566E-002;-2.446969738230109E-004;1.011587562970817E-003;
2.405666666666667E+009;1.897795796394348E-001;3.844083473086357E-002;-3.164368972647935E-004;9.957220172509551E-004;
2.405833333333334E+009;1.910239905118942E-001;3.839071094989777E-002;-3.132358251605183E-004;1.015399000607431E-003;
2.406000000000000E+009;1.919710040092468E-001;3.817158192396164E-002;-3.843319136649370E-004;9.085519122891128E-004;
2.406166666666667E+009;1.930659413337708E-001;3.803148493170738E-002;-1.584674173500389E-004;1.029982115142047E-003;
2.406333333333334E+009;1.937916725873947E-001;3.793142735958099E-002;-3.755879006348550E-004;1.107595278881490E-003;
2.406500000000000E+009;1.946270018815994E-001;3.800326585769653E-002;-2.221152535639703E-004;1.267079613171518E-003;
2.406666666666667E+009;1.950942575931549E-001;3.811801224946976E-002;-1.998686348088086E-004;1.345784752629697E-003;
2.406833333333334E+009;1.955991238355637E-001;3.799537196755409E-002;-1.544141996419057E-004;1.059227157384157E-003;
2.407000000000000E+009;1.959214061498642E-001;3.816793113946915E-002;-2.331402938580141E-004;1.259254873730242E-003;
2.407166666666667E+009;1.963325589895248E-001;3.799437731504440E-002;2.299438165209722E-005;1.140343723818660E-003;
2.407333333333334E+009;1.963221132755280E-001;3.809314221143723E-002;-2.108751141349785E-005;1.341766095720232E-003;
2.407500000000000E+009;1.962497532367706E-001;3.811896964907646E-002;1.868051331257448E-004;1.202074927277863E-003;
2.407666666666667E+009;1.962835043668747E-001;3.814193606376648E-002;1.398628082824871E-004;1.176012912765145E-003;
2.407833333333334E+009;1.956136822700501E-001;3.797546029090881E-002;4.238071851432324E-004;1.175659941509366E-003;
2.408000000000000E+009;1.957195550203323E-001;3.763063624501228E-002;1.778728619683534E-004;1.215824042446911E-003;
2.408166666666667E+009;1.951816976070404E-001;3.711150214076042E-002;1.886462850961834E-004;1.355517306365073E-003;
2.408333333333334E+009;1.948675811290741E-001;3.655963763594627E-002;1.403225323883817E-004;1.315501751378179E-003;
2.408500000000000E+009;1.937960684299469E-001;3.636514768004417E-002;7.217788370326161E-004;1.174163073301315E-003;
2.408666666666667E+009;1.932820528745651E-001;3.553870320320129E-002;4.269155615475029E-004;1.397459302097559E-003;
2.408833333333334E+009;1.925830245018005E-001;3.494808450341225E-002;7.142113172449172E-004;1.038544694893062E-003;
2.409000000000000E+009;1.915016919374466E-001;3.384025022387505E-002;7.293907110579312E-004;1.168325776234269E-003;
2.409166666666667E+009;1.906488090753555E-001;3.289008885622025E-002;7.741555455140770E-004;1.077122986316681E-003;
2.409333333333334E+009;1.898306161165237E-001;3.204390034079552E-002;7.544574327766895E-004;1.256737159565091E-003;
2.409500000000000E+009;1.887250095605850E-001;3.056541644036770E-002;8.772034198045731E-004;9.667123085819185E-004;
2.409666666666667E+009;1.876569092273712E-001;2.895756252110004E-002;1.012973603792489E-003;9.711788734421134E-004;
2.409833333333334E+009;1.866573095321655E-001;2.761558257043362E-002;9.157857275567949E-004;7.993864128366113E-004;
2.410000000000000E+009;1.855674237012863E-001;2.602316811680794E-002;1.057791523635387E-003;7.606069557368755E-004;
2.410166666666667E+009;1.846325844526291E-001;2.410901710391045E-002;9.876075200736523E-004;7.588251610286534E-004;
2.410333333333334E+009;1.837484240531921E-001;2.234843000769615E-002;1.178861013613641E-003;6.644091336056590E-004;
2.410500000000000E+009;1.826933771371841E-001;2.042684890329838E-002;1.077196910046041E-003;5.475432262755930E-004;
2.410666666666667E+009;1.818814873695374E-001;1.812335290014744E-002;1.015771413221955E-003;4.240657726768404E-004;
2.410833333333334E+009;1.812870353460312E-001;1.598691567778587E-002;1.148959039710462E-003;3.695395716931671E-004;
2.411000000000000E+009;1.803069710731506E-001;1.375694386661053E-002;1.070183468982577E-003;3.727636649273336E-004;
2.411166666666667E+009;1.798446327447891E-001;1.143403630703688E-002;9.420043788850308E-004;3.422865120228380E-004;
2.411333333333334E+009;1.794177442789078E-001;8.934912271797657E-003;1.177109428681433E-003;2.272433921461925E-004;
2.411500000000000E+009;1.789614111185074E-001;6.637161597609520E-003;1.063737901858985E-003;1.437854371033609E-004;
2.411666666666667E+009;1.787812858819962E-001;4.359562415629625E-003;9.372625499963760E-004;1.819527387851849E-004;
2.411833333333334E+009;1.785156130790710E-001;1.959942048415542E-003;9.644927922636271E-004;4.103405080968514E-005;
2.412000000000000E+009;1.786402761936188E-001;-4.848906246479601E-004;9.032438392750919E-004;-1.864896330516785E-005;
2.412166666666667E+009;1.788249313831329E-001;-2.905791392549872E-003;8.847255376167595E-004;1.066738786903443E-005;
2.412333333333334E+009;1.789472550153732E-001;-5.221147555857897E-003;8.783815428614616E-004;9.636215509090107E-006;
2.412500000000000E+009;1.793762594461441E-001;-7.748800795525312E-003;6.946487701497972E-004;-1.718300918582827E-004;
2.412666666666667E+009;1.799601167440414E-001;-1.030019484460354E-002;7.976455963216722E-004;-1.725489273667336E-004;
2.412833333333334E+009;1.807686984539032E-001;-1.256364490836859E-002;5.515377852134407E-004;-1.644862932153046E-004;
2.413000000000000E+009;1.811925768852234E-001;-1.506153866648674E-002;6.737097864970565E-004;-2.989236090797931E-004;
2.413166666666667E+009;1.822240501642227E-001;-1.717966236174107E-002;5.709156394004822E-004;-2.359128266107291E-004;
2.413333333333334E+009;1.829399913549423E-001;-1.947866939008236E-002;5.807865527458489E-004;-1.353702245978639E-004;
2.413500000000000E+009;1.840272247791290E-001;-2.171797864139080E-002;3.605459642130882E-004;4.377145160106011E-005;
2.413666666666667E+009;1.851508766412735E-001;-2.379754185676575E-002;3.389446064829826E-004;6.259726069401950E-005;
2.413833333333334E+009;1.861717253923416E-001;-2.579011581838131E-002;3.941418253816664E-004;1.883511868072674E-004;
2.414000000000000E+009;1.872361898422241E-001;-2.779345959424973E-002;4.857381281908602E-004;2.324992528883740E-004;
2.414166666666667E+009;1.884420216083527E-001;-2.952494472265244E-002;4.252617945894599E-004;4.249984049238265E-004;
2.414333333333334E+009;1.895078867673874E-001;-3.129275888204575E-002;5.126116448082030E-004;4.135470371693373E-004;
2.414500000000000E+009;1.906259506940842E-001;-3.270149603486061E-002;6.142904749140143E-004;3.069320518989116E-004;
2.414666666666667E+009;1.918137669563294E-001;-3.418459370732307E-002;7.021724595688283E-004;4.627912130672485E-004;
2.414833333333334E+009;1.929480135440826E-001;-3.558669984340668E-002;9.634724119678140E-004;5.124362069182098E-004;
2.415000000000000E+009;1.939985156059265E-001;-3.676749393343926E-002;1.082165283150971E-003;3.691931779030711E-004;
2.415166666666667E+009;1.951428353786469E-001;-3.787168860435486E-002;1.157822087407112E-003;2.265136863570660E-004;
2.415333333333334E+009;1.964352279901505E-001;-3.880076482892036E-002;1.091654528863728E-003;2.963445149362087E-004;
2.415500000000000E+009;1.973921656608582E-001;-3.941280394792557E-002;1.204457948915660E-003;1.334725675405935E-004;
2.415666666666667E+009;1.983929276466370E-001;-4.024821892380714E-002;1.064003794454038E-003;1.468440896132961E-004;
2.415833333333334E+009;1.991596370935440E-001;-4.078174009919167E-002;1.188419759273529E-003;5.649769809679128E-005;
2.416000000000000E+009;1.999272406101227E-001;-4.141251742839813E-002;1.301629003137350E-003;9.442843293072656E-006;
2.416166666666667E+009;2.006347626447678E-001;-4.201952368021011E-002;1.194993034005165E-003;1.183675408356066E-006;
2.416333333333334E+009;2.012838274240494E-001;-4.233291000127792E-002;1.185870962217450E-003;-6.819586997153238E-005;
2.416500000000000E+009;2.015710473060608E-001;-4.246957600116730E-002;1.227664179168642E-003;-1.325977937085554E-004;
2.416666666666667E+009;2.018802762031555E-001;-4.281987249851227E-002;1.227040775120258E-003;-2.862720866687596E-004;
2.416833333333334E+009;2.020250409841538E-001;-4.276673123240471E-002;1.307111117057502E-003;-2.357101620873436E-004;
2.417000000000000E+009;2.021490931510925E-001;-4.291652888059616E-002;1.281473087146878E-003;-3.007119230460376E-004;
2.417166666666667E+009;2.018458694219589E-001;-4.283835738897324E-002;1.481520477682352E-003;-3.481001767795533E-004;
2.417333333333334E+009;2.015082240104675E-001;-4.259493201971054E-002;1.442605745978653E-003;-4.977689823135734E-004;
2.417500000000000E+009;2.012247443199158E-001;-4.269560799002647E-002;1.439037965610623E-003;-5.939957918599248E-004;
2.417666666666667E+009;2.007652372121811E-001;-4.255257919430733E-002;1.425134949386120E-003;-8.387807174585760E-004;
2.417833333333334E+009;2.002664655447006E-001;-4.225666821002960E-002;1.372789032757282E-003;-9.047409403137863E-004;
2.418000000000000E+009;1.996763944625855E-001;-4.213914275169373E-002;1.448687748052180E-003;-1.002009143121541E-003;
2.418166666666667E+009;1.987036615610123E-001;-4.210270941257477E-002;1.386422547511756E-003;-1.100860070437193E-003;
2.418333333333334E+009;1.979394257068634E-001;-4.189275950193405E-002;1.278526149690151E-003;-1.297113485634327E-003;
2.418500000000000E+009;1.968104094266892E-001;-4.193019121885300E-002;1.183378160931170E-003;-1.176960649900138E-003;
2.418666666666667E+009;1.958467066287994E-001;-4.190257564187050E-002;1.155372010543943E-003;-1.293346984311938E-003;
2.418833333333334E+009;1.946277469396591E-001;-4.211606830358505E-002;1.119472319260240E-003;-1.325948163866997E-003;
2.419000000000000E+009;1.934342831373215E-001;-4.228112101554871E-002;9.485908085480332E-004;-1.516203745268285E-003;
2.419166666666667E+009;1.923124641180039E-001;-4.264977946877480E-002;1.036651548929513E-003;-1.513814670033753E-003;
2.419333333333334E+009;1.907065659761429E-001;-4.305819422006607E-002;8.857268257997930E-004;-1.632600906305015E-003;
2.419500000000000E+009;1.893213242292404E-001;-4.352463409304619E-002;1.010053558275104E-003;-1.589408144354820E-003;
2.419666666666667E+009;1.877353638410568E-001;-4.427681863307953E-002;8.409633883275092E-004;-1.708961091935635E-003;
2.419833333333334E+009;1.861487030982971E-001;-4.509073495864868E-002;8.373037562705576E-004;-1.792390015907586E-003;
2.420000000000000E+009;1.847189962863922E-001;-4.589860141277313E-002;5.975358071736991E-004;-1.932522282004356E-003;
2.420166666666667E+009;1.831529736518860E-001;-4.685594141483307E-002;5.178223946131766E-004;-1.904944540001452E-003;
2.420333333333334E+009;1.814478635787964E-001;-4.805316776037216E-002;5.292578716762364E-004;-2.051655668765307E-003;
2.420500000000000E+009;1.798996478319168E-001;-4.928212612867355E-002;3.620221395976841E-004;-1.920439535751939E-003;
2.420666666666667E+009;1.782774329185486E-001;-5.047192797064781E-002;2.871352480724454E-004;-1.999770058318973E-003;
2.420833333333334E+009;1.766975969076157E-001;-5.198306962847710E-002;6.032031524227932E-005;-2.075554104521871E-003;
2.421000000000000E+009;1.753651648759842E-001;-5.357183888554573E-002;1.217051030835137E-004;-1.982037443667650E-003;
2.421166666666667E+009;1.739671677350998E-001;-5.528012663125992E-002;-5.580576180364005E-005;-2.098821569234133E-003;
2.421333333333334E+009;1.723051965236664E-001;-5.671463534235954E-002;-2.648468653205782E-004;-1.950134057551622E-003;
2.421500000000000E+009;1.711639165878296E-001;-5.868481099605560E-002;-4.434403090272099E-004;-2.043384825810790E-003;
2.421666666666667E+009;1.698395758867264E-001;-6.030011922121048E-002;-5.131494253873825E-004;-2.033930271863937E-003;
2.421833333333334E+009;1.687935888767242E-001;-6.223006173968315E-002;-6.245262920856476E-004;-2.026671543717384E-003;
2.422000000000000E+009;1.676219105720520E-001;-6.399480253458023E-002;-6.337212980724871E-004;-1.966151408851147E-003;
2.422166666666667E+009;1.667868196964264E-001;-6.621627509593964E-002;-7.059519994072616E-004;-1.805807463824749E-003;
2.422333333333334E+009;1.658340841531754E-001;-6.818472594022751E-002;-9.058288997039199E-004;-1.810649642720819E-003;
2.422500000000000E+009;1.651279479265213E-001;-7.022242993116379E-002;-9.842675644904375E-004;-1.694556442089379E-003;
2.422666666666667E+009;1.644391715526581E-001;-7.220800220966339E-002;-1.015434390865266E-003;-1.689192489720881E-003;
2.422833333333334E+009;1.641344130039215E-001;-7.404066622257233E-002;-1.144522684626281E-003;-1.733187120407820E-003;
2.423000000000000E+009;1.635663360357285E-001;-7.615232467651367E-002;-1.036551664583385E-003;-1.616878085769713E-003;
2.423166666666667E+009;1.631721854209900E-001;-7.813356071710587E-002;-1.086691976524890E-003;-1.534029026515782E-003;
2.423333333333334E+009;1.629672348499298E-001;-8.001905679702759E-002;-1.333095249719918E-003;-1.555065042339265E-003;
2.423500000000000E+009;1.627493202686310E-001;-8.181218802928925E-002;-1.400094362907112E-003;-1.583781791850925E-003;
2.423666666666667E+009;1.629687398672104E-001;-8.377423882484436E-002;-1.470830407924950E-003;-1.363677321933210E-003;
2.423833333333334E+009;1.629333645105362E-001;-8.547077327966690E-002;-1.704326947219670E-003;-1.050439546816051E-003;
2.424000000000000E+009;1.630274355411530E-001;-8.716842532157898E-002;-1.503637526184320E-003;-1.205314649268985E-003;
2.424166666666667E+009;1.630256474018097E-001;-8.861867338418961E-002;-1.749892369844019E-003;-9.732529288157821E-004;
2.424333333333334E+009;1.632492542266846E-001;-9.021953493356705E-002;-1.722038141451776E-003;-8.490741602145135E-004;
2.424500000000000E+009;1.636517494916916E-001;-9.185709059238434E-002;-1.790953916497529E-003;-7.147149881348014E-004;
2.424666666666667E+009;1.639165431261063E-001;-9.317532181739807E-002;-1.770006609149277E-003;-8.393542375415564E-004;
2.424833333333334E+009;1.644009649753571E-001;-9.447106719017029E-002;-1.801076112315059E-003;-6.138964672572911E-004;
2.425000000000000E+009;1.647423058748245E-001;-9.572985768318176E-002;-1.819186960346997E-003;-4.992507165297866E-004;
2.425166666666667E+009;1.649645417928696E-001;-9.666515886783600E-002;-1.668246230110526E-003;-5.166906630620360E-004;
2.425333333333334E+009;1.653332561254501E-001;-9.754223376512528E-002;-1.762152416631579E-003;-3.583893412724137E-004;
2.425500000000000E+009;1.658419668674469E-001;-9.846302121877670E-002;-1.730535877868533E-003;-3.024378383997828E-004;
2.425666666666667E+009;1.662754416465759E-001;-9.911829233169556E-002;-1.768524060025811E-003;-4.187782469671220E-004;
2.425833333333334E+009;1.664486378431320E-001;-1.000650450587273E-001;-1.733667333610356E-003;-1.610940234968439E-004;
2.426000000000000E+009;1.669289767742157E-001;-1.003475710749626E-001;-1.787789398804307E-003;-2.462915726937354E-004;
2.426166666666667E+009;1.672648638486862E-001;-1.009305343031883E-001;-1.621165894903243E-003;-1.121779132517986E-004;
2.426333333333334E+009;1.673370748758316E-001;-1.013320833444595E-001;-1.602368778549135E-003;1.001108903437853E-004;
2.426500000000000E+009;1.677423417568207E-001;-1.016292423009872E-001;-1.628347090445459E-003;1.701465043879580E-005;
2.426666666666667E+009;1.678076386451721E-001;-1.019578427076340E-001;-1.662567607127130E-003;1.205520820803940E-004;
2.426833333333334E+009;1.681929975748062E-001;-1.023148894309998E-001;-1.683486509136856E-003;1.067503908416256E-004;
2.427000000000000E+009;1.682300567626953E-001;-1.025236323475838E-001;-1.628980506211519E-003;1.877757749753073E-004;
2.427166666666667E+009;1.682294309139252E-001;-1.025001630187035E-001;-1.688560703769326E-003;2.087581087835133E-004;
2.427333333333334E+009;1.681062281131744E-001;-1.028981804847717E-001;-1.476579695008695E-003;2.340777864446864E-004;
2.427500000000000E+009;1.677704155445099E-001;-1.029878109693527E-001;-1.697658444754779E-003;2.757594047579914E-004;
2.427666666666667E+009;1.674356013536453E-001;-1.030361801385880E-001;-1.341719529591501E-003;3.318320086691529E-004;
2.427833333333334E+009;1.670933216810226E-001;-1.033116430044174E-001;-1.429419615305960E-003;5.388327408581972E-004;
