# Version 1.00
#
freq[Hz];re:Trc1_S11;im:Trc1_S11;re:Trc2_S21;im:Trc2_S21;
2.400000000000000E+009;1.550381630659103E-001;1.066931411623955E-001;-1.415886916220188E-003;3.125228395219892E-004;
2.400166666666667E+009;1.548688709735870E-001;1.043181270360947E-001;-1.428581890650094E-003;3.690915764309466E-004;
2.400333333333334E+009;1.547625362873077E-001;1.019844859838486E-001;-1.300728996284306E-003;3.438277344685048E-004;
2.400500000000000E+009;1.549102365970612E-001;9.922293573617935E-002;-1.461819862015545E-003;3.036248963326216E-004;
2.400666666666667E+009;1.550508588552475E-001;9.681821614503861E-002;-1.221326529048383E-003;4.591207543853670E-004;
2.400833333333334E+009;1.551057696342468E-001;9.385923296213150E-002;-1.394254621118307E-003;4.130839661229402E-004;
2.401000000000000E+009;1.553592979907990E-001;9.116020798683167E-002;-1.105693168938160E-003;6.571630365215242E-004;
2.401166666666667E+009;1.553389430046082E-001;8.841967582702637E-002;-1.097826519981027E-003;5.543220904655755E-004;
2.401333333333334E+009;1.556866019964218E-001;8.567696809768677E-002;-9.682895615696907E-004;5.714154685847461E-004;
2.401500000000000E+009;1.562029868364334E-001;8.287192136049271E-002;-9.362506680190563E-004;6.857822299934924E-004;
2.401666666666667E+009;1.566480398178101E-001;7.998405396938324E-002;-9.048433275893331E-004;6.661376683041453E-004;
2.401833333333334E+009;1.572218090295792E-001;7.733417302370071E-002;-9.005973697640002E-004;6.816030363552272E-004;
2.402000000000000E+009;1.580679863691330E-001;7.452625781297684E-002;-6.996199954301119E-004;3.929398371838033E-004;
2.402166666666667E+009;1.590877324342728E-001;7.206887751817703E-002;-2.021987456828356E-004;1.871982676675543E-004;
2.402333333333334E+009;1.597207188606262E-001;6.932944059371948E-002;-1.239869394339621E-003;3.677481436170638E-004;
2.402500000000000E+009;1.612117588520050E-001;6.694957613945007E-002;-7.152301259338856E-004;-2.979931887239218E-004;
2.402666666666667E+009;1.622101813554764E-001;6.455192714929581E-002;-7.429435499943793E-004;3.086588694714010E-004;
2.402833333333334E+009;1.636198312044144E-001;6.218305230140686E-002;-1.222987892106175E-003;2.109746274072677E-004;
2.403000000000000E+009;1.648928374052048E-001;5.995666235685349E-002;-6.353934295475483E-004;9.044274338521063E-004;
2.403166666666667E+009;1.669558286666870E-001;5.774286761879921E-002;-7.278186967596412E-004;-1.392843259964138E-004;
2.403333333333334E+009;1.684626042842865E-001;5.530144646763802E-002;-1.536032883450389E-003;-3.929946979042143E-004;
2.403500000000000E+009;1.698872745037079E-001;5.385969206690788E-002;-2.981831785291433E-004;1.045957789756358E-003;
2.403666666666667E+009;1.718064397573471E-001;5.148561671376228E-002;-1.483642728999257E-003;6.819986738264561E-004;
2.403833333333334E+009;1.734187602996826E-001;4.989288374781609E-002;-1.612918451428413E-003;1.090574078261852E-003;
2.404000000000000E+009;1.748462319374085E-001;4.817499965429306E-002;-9.353624773211777E-004;8.179331780411303E-004;
2.404166666666667E+009;1.767227202653885E-001;4.660999774932861E-002;-7.395322318188846E-004;9.881701553240418E-004;
2.404333333333334E+009;1.782167106866837E-001;4.509691894054413E-002;-7.545839180238545E-004;1.195753342472017E-003;
2.404500000000000E+009;1.799095273017883E-001;4.365617409348488E-002;-7.640495896339417E-004;1.074580359272659E-003;
2.404666666666667E+009;1.815023422241211E-001;4.260403290390968E-002;-3.575267328415066E-004;1.264806720428169E-003;
2.404833333333334E+009;1.831400096416473E-001;4.145029932260513E-002;-3.625791578087956E-004;1.137571875005961E-003;
2.405000000000000E+009;1.844306886196137E-001;4.085616394877434E-002;-3.664501127786934E-004;1.197312609292567E-003;
2.405166666666667E+009;1.859391480684280E-001;4.008533060550690E-002;-2.793238090816885E-004;1.010829233564436E-003;
2.405333333333334E+009;1.873118132352829E-001;3.964282944798470E-002;-2.140909200534225E-004;1.001434167847037E-003;
2.405500000000000E+009;1.886794418096542E-001;3.917346894741058E-002;-1.247347536263987E-004;9.157486492767930E-004;
2.405666666666667E+009;1.897872537374497E-001;3.867408260703087E-002;-1.990866730920970E-004;9.493905236013234E-004;
2.405833333333334E+009;1.911431998014450E-001;3.834744915366173E-002;-2.142107114195824E-004;8.935619844123721E-004;
2.406000000000000E+009;1.919689029455185E-001;3.819052502512932E-002;-1.021904608933255E-004;9.581291233189404E-004;
2.406166666666667E+009;1.930035054683685E-001;3.797844424843788E-002;-1.813832641346380E-004;1.157681224867702E-003;
2.406333333333334E+009;1.938612163066864E-001;3.796068951487541E-002;-6.442902667913586E-005;1.025593257509172E-003;
2.406500000000000E+009;1.947722136974335E-001;3.802961111068726E-002;-1.093328392016701E-004;1.064976211637259E-003;
2.406666666666667E+009;1.952494382858276E-001;3.810905665159226E-002;9.009688801597804E-005;1.093181315809488E-003;
2.406833333333334E+009;1.957153677940369E-001;3.799845650792122E-002;-8.634996629552916E-005;1.232275040820241E-003;
2.407000000000000E+009;1.961017549037933E-001;3.815841674804688E-002;7.854658178985119E-005;1.087549142539501E-003;
2.407166666666667E+009;1.964754611253738E-001;3.793755546212196E-002;5.436990977614187E-005;1.174363773316145E-003;
2.407333333333334E+009;1.964133828878403E-001;3.811805695295334E-002;1.797798322513700E-004;1.128811738453805E-003;
2.407500000000000E+009;1.961902827024460E-001;3.813184425234795E-002;2.555814862716943E-004;1.104003167711198E-003;
2.407666666666667E+009;1.963219642639160E-001;3.798484802246094E-002;2.976966497953981E-004;1.129012089222670E-003;
2.407833333333334E+009;1.957405507564545E-001;3.784106299281120E-002;3.845383471343666E-004;1.130145275965333E-003;
2.408000000000000E+009;1.957214176654816E-001;3.763286769390106E-002;4.379030724521726E-004;1.282999175600708E-003;
2.408166666666667E+009;1.950204968452454E-001;3.729692474007607E-002;3.657233028206974E-004;1.103301648981869E-003;
2.408333333333334E+009;1.945175081491470E-001;3.667509555816650E-002;3.762506239581853E-004;1.082178787328303E-003;
2.408500000000000E+009;1.939016580581665E-001;3.638075664639473E-002;4.389078821986914E-004;1.279523945413530E-003;
2.408666666666667E+009;1.932775825262070E-001;3.580864518880844E-002;4.507624544203281E-004;1.062760013155639E-003;
2.408833333333334E+009;1.925878375768662E-001;3.499709814786911E-002;6.832164945080876E-004;1.126642106100917E-003;
2.409000000000000E+009;1.916972249746323E-001;3.402616828680039E-002;6.472792592830956E-004;1.032661530189216E-003;
2.409166666666667E+009;1.906924098730087E-001;3.297180682420731E-002;6.713139591738582E-004;9.680704097263515E-004;
2.409333333333334E+009;1.898685097694397E-001;3.201796114444733E-002;7.964301621541381E-004;1.006359932944179E-003;
2.409500000000000E+009;1.887415051460266E-001;3.050098754465580E-002;7.896733004599810E-004;9.199771448038518E-004;
2.409666666666667E+009;1.877782940864563E-001;2.926670014858246E-002;9.900829754769802E-004;7.179601234383881E-004;
2.409833333333334E+009;1.867220699787140E-001;2.763579599559307E-002;9.580407058820128E-004;7.618297240696847E-004;
2.410000000000000E+009;1.857087612152100E-001;2.603050507605076E-002;1.000387826934457E-003;5.306210368871689E-004;
2.410166666666667E+009;1.846801787614822E-001;2.418866008520126E-002;9.920471347868443E-004;5.391135928221047E-004;
2.410333333333334E+009;1.836463063955307E-001;2.245483733713627E-002;1.067193457856774E-003;5.701034097000957E-004;
2.410500000000000E+009;1.828829795122147E-001;2.029325626790524E-002;1.088476041331887E-003;3.361666167620570E-004;
2.410666666666667E+009;1.819456070661545E-001;1.814289204776287E-002;9.692563326098025E-004;3.335833607707173E-004;
2.410833333333334E+009;1.812522113323212E-001;1.587663218379021E-002;8.033081539906561E-004;3.410488716326654E-004;
2.411000000000000E+009;1.806927919387817E-001;1.382286753505468E-002;1.107071293517947E-003;2.176970447180793E-004;
2.411166666666667E+009;1.801328063011169E-001;1.167490612715483E-002;1.058113528415561E-003;2.135608374373987E-004;
2.411333333333334E+009;1.793384104967117E-001;9.213672019541264E-003;9.902610909193754E-004;2.200748713221401E-004;
2.411500000000000E+009;1.790129393339157E-001;6.607779767364264E-003;9.432842489331961E-004;2.015087957261130E-004;
2.411666666666667E+009;1.788717657327652E-001;4.321902059018612E-003;1.078379107639194E-003;2.060550650639925E-005;
2.411833333333334E+009;1.786153316497803E-001;2.001009183004499E-003;9.906986961141229E-004;8.167409396264702E-005;
2.412000000000000E+009;1.788058727979660E-001;-5.393702886067331E-004;1.026140875183046E-003;-1.466703688492999E-004;
2.412166666666667E+009;1.788815259933472E-001;-2.773143118247390E-003;9.248899878002703E-004;1.951086051121820E-005;
2.412333333333334E+009;1.789779216051102E-001;-5.321564618498087E-003;9.134064894169569E-004;-1.131095486925915E-004;
2.412500000000000E+009;1.796464771032333E-001;-7.814151234924793E-003;6.811259081587195E-004;-1.615215005585924E-004;
2.412666666666667E+009;1.801070570945740E-001;-1.010684855282307E-002;6.681876257061958E-004;-2.420527598587796E-004;
2.412833333333334E+009;1.806396692991257E-001;-1.249827444553375E-002;6.587557145394385E-004;-2.160574513254687E-004;
2.413000000000000E+009;1.814520806074143E-001;-1.494675967842341E-002;5.796934128738940E-004;-2.663115446921438E-004;
2.413166666666667E+009;1.821945458650589E-001;-1.707760430872440E-002;4.102980019524694E-004;-2.524989249650389E-004;
2.413333333333334E+009;1.832627952098846E-001;-1.929783448576927E-002;3.632618754636496E-004;-1.372125552734360E-004;
2.413500000000000E+009;1.838993579149246E-001;-2.163891308009625E-002;2.406206331215799E-004;-1.006179954856634E-004;
2.413666666666667E+009;1.852723062038422E-001;-2.374039217829704E-002;1.812535338103771E-004;3.108468081336469E-005;
2.413833333333334E+009;1.860895156860352E-001;-2.573742344975472E-002;2.101406716974452E-004;1.273863308597356E-004;
2.414000000000000E+009;1.873385608196259E-001;-2.776453271508217E-002;4.066838882863522E-004;8.700804755790159E-005;
2.414166666666667E+009;1.885264217853546E-001;-2.948185801506043E-002;4.042217333335429E-004;4.485495446715504E-004;
2.414333333333334E+009;1.895583420991898E-001;-3.147485852241516E-002;4.836162261199206E-004;4.147332510910928E-004;
2.414500000000000E+009;1.907503902912140E-001;-3.269809111952782E-002;5.590849905274808E-004;4.250618221703917E-004;
2.414666666666667E+009;1.919075697660446E-001;-3.429231420159340E-002;6.641867803409696E-004;3.569482942111790E-004;
2.414833333333334E+009;1.930411010980606E-001;-3.557865694165230E-002;7.265175227075815E-004;2.884873829316348E-004;
2.415000000000000E+009;1.941089183092117E-001;-3.689678758382797E-002;9.096008725464344E-004;2.933044743258506E-004;
2.415166666666667E+009;1.952164471149445E-001;-3.788474202156067E-002;1.054703840054572E-003;1.813592971302569E-004;
2.415333333333334E+009;1.964365839958191E-001;-3.887381404638290E-002;1.067874371074140E-003;5.153552410774864E-005;
2.415500000000000E+009;1.975266933441162E-001;-3.945294767618179E-002;1.062564551830292E-003;5.999486529617570E-005;
2.415666666666667E+009;1.984395980834961E-001;-4.039814323186874E-002;1.142711611464620E-003;1.739122380968183E-004;
2.415833333333334E+009;1.992724239826202E-001;-4.091503098607063E-002;1.045431010425091E-003;-7.403853669529781E-005;
2.416000000000000E+009;2.000150084495544E-001;-4.141050204634666E-002;1.093761413358152E-003;-1.058939506037859E-005;
2.416166666666667E+009;2.007993459701538E-001;-4.210102930665016E-002;1.072621322236955E-003;-6.106759246904403E-005;
2.416333333333334E+009;2.013425827026367E-001;-4.229509085416794E-002;1.142457243986428E-003;-1.069416102836840E-004;
2.416500000000000E+009;2.017352283000946E-001;-4.250666871666908E-002;1.152509823441505E-003;-1.439372281311080E-004;
2.416666666666667E+009;2.020414024591446E-001;-4.288275167346001E-002;1.203640247695148E-003;-1.348852965747938E-004;
2.416833333333334E+009;2.022103518247604E-001;-4.295622929930687E-002;1.343764713965356E-003;-1.738206192385405E-004;
2.417000000000000E+009;2.022933065891266E-001;-4.314310848712921E-002;1.299653784371913E-003;-3.457236452959478E-004;
2.417166666666667E+009;2.019346654415131E-001;-4.300421103835106E-002;1.392082544043660E-003;-4.571210592985153E-004;
2.417333333333334E+009;2.017082422971726E-001;-4.276490211486816E-002;1.330118160694838E-003;-5.011254106648266E-004;
2.417500000000000E+009;2.013821750879288E-001;-4.282718896865845E-002;1.427964190952480E-003;-5.799528444185853E-004;
2.417666666666667E+009;2.008520811796188E-001;-4.266427829861641E-002;1.282028970308602E-003;-8.103356813080609E-004;
2.417833333333334E+009;2.003972530364990E-001;-4.244767501950264E-002;1.367568504065275E-003;-8.146553300321102E-004;
2.418000000000000E+009;1.996468156576157E-001;-4.224082827568054E-002;1.240702113136649E-003;-8.456578361801803E-004;
2.418166666666667E+009;1.988480836153030E-001;-4.218372702598572E-002;1.246800762601197E-003;-1.068943762220442E-003;
2.418333333333334E+009;1.978869885206223E-001;-4.195202887058258E-002;1.312090898863971E-003;-1.141278771683574E-003;
2.418500000000000E+009;1.969143450260162E-001;-4.209279641509056E-002;1.132760779000819E-003;-1.184365712106228E-003;
2.418666666666667E+009;1.959534287452698E-001;-4.202801734209061E-002;1.074157073162496E-003;-1.321108778938651E-003;
2.418833333333334E+009;1.947938948869705E-001;-4.209535196423531E-002;1.128063304349780E-003;-1.324694254435599E-003;
2.419000000000000E+009;1.934636384248734E-001;-4.244521260261536E-002;1.044410630129278E-003;-1.401102053932846E-003;
2.419166666666667E+009;1.922008991241455E-001;-4.268654063344002E-002;8.808534475974739E-004;-1.525298459455371E-003;
2.419333333333334E+009;1.908216625452042E-001;-4.322026669979096E-002;9.202212677337229E-004;-1.569214975461364E-003;
2.419500000000000E+009;1.893872916698456E-001;-4.355062171816826E-002;8.601527661085129E-004;-1.664847484789789E-003;
2.419666666666667E+009;1.877509057521820E-001;-4.450619593262672E-002;7.136518834158778E-004;-1.672493410296738E-003;
2.419833333333334E+009;1.862087994813919E-001;-4.509346932172775E-002;5.158163839951158E-004;-1.712799770757556E-003;
2.420000000000000E+009;1.847427636384964E-001;-4.599064588546753E-002;5.447110161185265E-004;-1.848398242145777E-003;
2.420166666666667E+009;1.831712573766708E-001;-4.695538803935051E-002;4.688990011345595E-004;-1.917324610985816E-003;
2.420333333333334E+009;1.814921647310257E-001;-4.819036647677422E-002;4.146597348153591E-004;-1.965767005458474E-003;
2.420500000000000E+009;1.798333525657654E-001;-4.951306805014610E-002;1.499025238445029E-004;-2.040888415649533E-003;
2.420666666666667E+009;1.782660484313965E-001;-5.053745955228806E-002;6.941928586456925E-005;-1.949654892086983E-003;
2.420833333333334E+009;1.766814440488815E-001;-5.228229984641075E-002;-2.908985698013566E-005;-1.997904619202018E-003;
2.421000000000000E+009;1.752588450908661E-001;-5.362009629607201E-002;-1.157862643594854E-004;-1.941494061611593E-003;
2.421166666666667E+009;1.738312840461731E-001;-5.531863868236542E-002;-4.750218649860472E-004;-2.079087775200605E-003;
2.421333333333334E+009;1.721520721912384E-001;-5.680026859045029E-002;-4.234343359712511E-004;-1.893195207230747E-003;
2.421500000000000E+009;1.711166054010391E-001;-5.882457643747330E-002;-4.579725791700184E-004;-1.944434246979654E-003;
2.421666666666667E+009;1.698038727045059E-001;-6.055254116654396E-002;-4.467212129384279E-004;-1.976449741050601E-003;
2.421833333333334E+009;1.687809228897095E-001;-6.251640617847443E-002;-7.651908090338111E-004;-1.898973365314305E-003;
2.422000000000000E+009;1.677018851041794E-001;-6.449946761131287E-002;-7.394133717752993E-004;-1.860998338088393E-003;
2.422166666666667E+009;1.666762530803680E-001;-6.638294458389282E-002;-8.427218999713659E-004;-1.835234230384231E-003;
2.422333333333334E+009;1.657098382711411E-001;-6.848589330911636E-002;-9.603766957297921E-004;-1.695967162959278E-003;
2.422500000000000E+009;1.650317758321762E-001;-7.027877867221832E-002;-1.033295178785920E-003;-1.604025135748088E-003;
2.422666666666667E+009;1.644278615713120E-001;-7.236995548009872E-002;-1.024885685183108E-003;-1.553404261358082E-003;
2.422833333333334E+009;1.637946963310242E-001;-7.433804124593735E-002;-1.123998197726905E-003;-1.500343671068549E-003;
2.423000000000000E+009;1.635509729385376E-001;-7.628941535949707E-002;-1.176973339170218E-003;-1.505928114056587E-003;
2.423166666666667E+009;1.631390154361725E-001;-7.813268899917603E-002;-1.471815165132284E-003;-1.498288591392338E-003;
2.423333333333334E+009;1.628905385732651E-001;-8.023509383201599E-002;-1.197708770632744E-003;-1.469974638894200E-003;
2.423500000000000E+009;1.629027128219605E-001;-8.208142220973969E-002;-1.444874680601060E-003;-1.279051182791591E-003;
2.423666666666667E+009;1.628295332193375E-001;-8.384596556425095E-002;-1.502782106399536E-003;-1.291435793973506E-003;
2.423833333333334E+009;1.627513766288757E-001;-8.552964031696320E-002;-1.567283412441611E-003;-1.153613906353712E-003;
2.424000000000000E+009;1.628955006599426E-001;-8.728394657373428E-002;-1.770974486134946E-003;-1.049281097948551E-003;
2.424166666666667E+009;1.629823446273804E-001;-8.885573595762253E-002;-1.621276955120266E-003;-8.951778872869909E-004;
2.424333333333334E+009;1.632345318794251E-001;-9.029351174831390E-002;-1.692585647106171E-003;-8.026757277548313E-004;
2.424500000000000E+009;1.636172235012054E-001;-9.201513975858688E-002;-1.678798696957529E-003;-7.904670201241970E-004;
2.424666666666667E+009;1.637897640466690E-001;-9.320220351219177E-002;-1.584418234415352E-003;-6.186051759868860E-004;
2.424833333333334E+009;1.644105166196823E-001;-9.450298547744751E-002;-1.697691157460213E-003;-4.488301055971533E-004;
2.425000000000000E+009;1.646966934204102E-001;-9.563463926315308E-002;-1.706423936411738E-003;-3.535006835591048E-004;
2.425166666666667E+009;1.648642867803574E-001;-9.673429280519486E-002;-1.536393887363374E-003;-3.837316180579364E-004;
2.425333333333334E+009;1.652570813894272E-001;-9.756709635257721E-002;-1.580262556672096E-003;-1.944427058333531E-004;
2.425500000000000E+009;1.657108217477799E-001;-9.853989630937576E-002;-1.617608126252890E-003;-1.935212931130081E-004;
2.425666666666667E+009;1.660576164722443E-001;-9.930197149515152E-002;-1.587358885444701E-003;-2.795280888676643E-004;
2.425833333333334E+009;1.663548797369003E-001;-1.001183539628983E-001;-1.549690961837769E-003;-1.489139976911247E-004;
2.426000000000000E+009;1.667425930500031E-001;-1.004967838525772E-001;-1.586658181622624E-003;-1.185034416266717E-004;
2.426166666666667E+009;1.671793609857559E-001;-1.010312065482140E-001;-1.596637186594307E-003;-4.328442082623951E-005;
2.426333333333334E+009;1.672335863113403E-001;-1.014070883393288E-001;-1.578825176693499E-003;1.118764776038006E-004;
2.426500000000000E+009;1.676787137985230E-001;-1.017429083585739E-001;-1.657756743952632E-003;-1.099586734198965E-004;
2.426666666666667E+009;1.678794026374817E-001;-1.020541936159134E-001;-1.563361729495227E-003;1.551849418319762E-004;
2.426833333333334E+009;1.680799871683121E-001;-1.023209691047669E-001;-1.581019256263971E-003;2.107384789269418E-004;
2.427000000000000E+009;1.680626124143601E-001;-1.025041565299034E-001;-1.546491985209286E-003;3.246058768127114E-004;
2.427166666666667E+009;1.680302768945694E-001;-1.027015596628189E-001;-1.468110363930464E-003;3.450068761594594E-004;
2.427333333333334E+009;1.679433733224869E-001;-1.029330119490624E-001;-1.430457108654082E-003;4.020853375550360E-004;
2.427500000000000E+009;1.677533835172653E-001;-1.031188815832138E-001;-1.510748057626188E-003;4.008691757917404E-004;
2.427666666666667E+009;1.674304604530335E-001;-1.030755564570427E-001;-1.444570138119161E-003;4.555307968985289E-004;
2.427833333333334E+009;1.670593321323395E-001;-1.032521799206734E-001;-1.321949763223529E-003;4.767224600072950E-004;
