# Version 1.00
#
freq[Hz];re:Trc1_S11;im:Trc1_S11;re:Trc2_S21;im:Trc2_S21;
2.400000000000000E+009;1.549518704414368E-001;1.065249070525169E-001;-1.368213444948196E-003;1.471129507990554E-005;
2.400166666666667E+009;1.548957675695419E-001;1.043818742036820E-001;-1.369980745948851E-003;1.738065038807690E-004;
2.400333333333334E+009;1.548035591840744E-001;1.019757241010666E-001;-1.279517193324864E-003;3.385006275493652E-004;
2.400500000000000E+009;1.549467593431473E-001;9.927984327077866E-002;-1.381585490889847E-003;3.773728967644274E-004;
2.400666666666667E+009;1.550155133008957E-001;9.664540737867355E-002;-1.264803344383836E-003;4.581962130032480E-004;
2.400833333333334E+009;1.552326977252960E-001;9.398353844881058E-002;-1.177625381387770E-003;5.568644264712930E-004;
2.401000000000000E+009;1.552376449108124E-001;9.102537482976914E-002;-1.065194723196328E-003;4.946303088217974E-004;
2.401166666666667E+009;1.554126888513565E-001;8.847425878047943E-002;-1.107837888412178E-003;4.898501210846007E-004;
2.401333333333334E+009;1.558043062686920E-001;8.557068556547165E-002;-9.375970694236457E-004;6.690880982205272E-004;
2.401500000000000E+009;1.563492864370346E-001;8.281705528497696E-002;-9.112778934650123E-004;5.766095709986985E-004;
2.401666666666667E+009;1.565491408109665E-001;8.010154217481613E-002;-8.399153593927622E-004;6.219419301487505E-004;
2.401833333333334E+009;1.570035368204117E-001;7.741685956716538E-002;-6.493925466202200E-004;6.226892583072186E-004;
2.402000000000000E+009;1.578098535537720E-001;7.475355267524719E-002;-7.753573008812964E-004;2.744210651144385E-004;
2.402166666666667E+009;1.592098921537399E-001;7.221648097038269E-002;-1.051279483363032E-003;7.191791664808989E-004;
2.402333333333334E+009;1.595741212368012E-001;6.945291161537170E-002;-7.449932745657861E-004;-7.476378959836438E-005;
2.402500000000000E+009;1.608552932739258E-001;6.680970638990402E-002;-7.981150993146002E-004;2.300819469382986E-004;
2.402666666666667E+009;1.619548946619034E-001;6.421419233083725E-002;3.850100256386213E-005;5.141486763022840E-004;
2.402833333333334E+009;1.639064550399780E-001;6.183398142457008E-002;-6.073032855056226E-004;1.071345293894410E-003;
2.403000000000000E+009;1.654731184244156E-001;5.985817685723305E-002;-1.177661120891571E-003;8.218984585255384E-004;
2.403166666666667E+009;1.665249317884445E-001;5.776351690292358E-002;-6.916115526109934E-004;4.650127375498414E-004;
2.403333333333334E+009;1.686508357524872E-001;5.585790053009987E-002;-1.885441131889820E-003;7.397097651846707E-004;
2.403500000000000E+009;1.700406968593597E-001;5.344776064157486E-002;-1.000669668428600E-003;8.193020476028323E-004;
2.403666666666667E+009;1.716312468051910E-001;5.174664407968521E-002;-9.523278567939997E-004;8.037165389396250E-004;
2.403833333333334E+009;1.733905225992203E-001;4.983751103281975E-002;-9.285918204113841E-004;7.934637833386660E-004;
2.404000000000000E+009;1.748160868883133E-001;4.802077263593674E-002;-1.090290956199169E-003;8.578927372582257E-004;
2.404166666666667E+009;1.766584962606430E-001;4.655460268259049E-002;-8.378791972063482E-004;1.074096304364502E-003;
2.404333333333334E+009;1.782858818769455E-001;4.493331164121628E-002;-6.232074229046702E-004;1.036823145113885E-003;
2.404500000000000E+009;1.797752380371094E-001;4.362807050347328E-002;-6.092245457693934E-004;1.026687328703702E-003;
2.404666666666667E+009;1.816661208868027E-001;4.245940968394280E-002;-3.462191671133041E-004;1.134624588303268E-003;
2.404833333333334E+009;1.832225173711777E-001;4.139007255434990E-002;-4.356852441560477E-004;1.142564229667187E-003;
2.405000000000000E+009;1.845215111970902E-001;4.085970669984818E-002;-4.442436620593071E-004;1.031870953738689E-003;
2.405166666666667E+009;1.860192418098450E-001;3.997064754366875E-002;-3.493287949822843E-004;1.054529449902475E-003;
2.405333333333334E+009;1.872773468494415E-001;3.951397910714150E-002;-2.166756166843697E-004;9.700450464151800E-004;
2.405500000000000E+009;1.887402683496475E-001;3.909958153963089E-002;-2.165298501495272E-004;1.081916852854192E-003;
2.405666666666667E+009;1.899469345808029E-001;3.864438086748123E-002;-1.859184849308804E-004;1.040102913975716E-003;
2.405833333333334E+009;1.912221163511276E-001;3.839004412293434E-002;-2.262610214529559E-004;8.081453270278871E-004;
2.406000000000000E+009;1.920560747385025E-001;3.820012509822846E-002;-2.532173821236938E-004;1.011847867630422E-003;
2.406166666666667E+009;1.931128054857254E-001;3.800208494067192E-002;-2.280561602674425E-004;1.072293613106012E-003;
2.406333333333334E+009;1.938962638378143E-001;3.793552890419960E-002;-2.047651796601713E-004;1.096448628231883E-003;
2.406500000000000E+009;1.945354789495468E-001;3.802002221345902E-002;-5.685340875061229E-005;1.134032267145813E-003;
2.406666666666667E+009;1.952308714389801E-001;3.794486820697784E-002;-1.000666670734063E-004;1.124266535043716E-003;
2.406833333333334E+009;1.958674639463425E-001;3.801634907722473E-002;-1.936892840603832E-005;1.279782620258629E-003;
2.407000000000000E+009;1.959936022758484E-001;3.816346824169159E-002;-3.926198405679315E-005;1.132167293690145E-003;
2.407166666666667E+009;1.964763104915619E-001;3.796724975109100E-002;7.525036198785529E-005;1.147856353782117E-003;
2.407333333333334E+009;1.962995827198029E-001;3.802439942955971E-002;2.392672031419352E-004;1.237972755916417E-003;
2.407500000000000E+009;1.962403506040573E-001;3.808792680501938E-002;9.062071330845356E-005;1.236115931533277E-003;
2.407666666666667E+009;1.962147355079651E-001;3.789287433028221E-002;2.992974186781794E-004;1.237137243151665E-003;
2.407833333333334E+009;1.958077549934387E-001;3.777453675866127E-002;2.700231852941215E-004;1.195846009068191E-003;
2.408000000000000E+009;1.957089155912399E-001;3.760564699769020E-002;2.595120458863676E-004;1.140505890361965E-003;
2.408166666666667E+009;1.951512098312378E-001;3.727508708834648E-002;3.009959182236344E-004;1.112681813538075E-003;
2.408333333333334E+009;1.946407109498978E-001;3.654365614056587E-002;4.733571549877524E-004;1.132234814576805E-003;
2.408500000000000E+009;1.937801390886307E-001;3.625014051795006E-002;5.789459100924432E-004;1.120187342166901E-003;
2.408666666666667E+009;1.932550370693207E-001;3.565837070345879E-002;4.983497201465070E-004;1.120466389693320E-003;
2.408833333333334E+009;1.925365030765533E-001;3.490306437015533E-002;5.338602350093424E-004;1.010443083941937E-003;
2.409000000000000E+009;1.915439516305924E-001;3.398442268371582E-002;6.807722966186702E-004;9.313112823292613E-004;
2.409166666666667E+009;1.907313615083695E-001;3.297410160303116E-002;7.024708902463317E-004;1.023401739075780E-003;
2.409333333333334E+009;1.899193972349167E-001;3.196320682764053E-002;8.395218173973262E-004;1.139968517236412E-003;
2.409500000000000E+009;1.887422353029251E-001;3.048316389322281E-002;9.259913931600750E-004;9.251727024093270E-004;
2.409666666666667E+009;1.877480149269104E-001;2.913437597453594E-002;9.373259381391108E-004;9.626696119084954E-004;
2.409833333333334E+009;1.866356879472733E-001;2.761077322065830E-002;9.843844454735518E-004;8.410339360125363E-004;
2.410000000000000E+009;1.857039630413055E-001;2.599696628749371E-002;1.199988531880081E-003;7.410516263917089E-004;
2.410166666666667E+009;1.846948117017746E-001;2.405062317848206E-002;1.071288832463324E-003;7.196827209554613E-004;
2.410333333333334E+009;1.838594228029251E-001;2.232931926846504E-002;1.163536100648344E-003;5.649827071465552E-004;
2.410500000000000E+009;1.827921569347382E-001;2.050271071493626E-002;1.069460413418710E-003;5.905767320655286E-004;
2.410666666666667E+009;1.819379627704620E-001;1.797783747315407E-002;9.856258984655142E-004;3.484256158117205E-004;
2.410833333333334E+009;1.813429892063141E-001;1.594160497188568E-002;9.501344757154584E-004;3.828032640740275E-004;
2.411000000000000E+009;1.806908100843430E-001;1.368677150458098E-002;1.070953905582428E-003;3.553311689756811E-004;
2.411166666666667E+009;1.800423711538315E-001;1.147092133760452E-002;9.847939945757389E-004;2.449956373311579E-004;
2.411333333333334E+009;1.795002073049545E-001;8.971492759883404E-003;8.910738397389650E-004;2.224548225058243E-004;
2.411500000000000E+009;1.789026856422424E-001;6.711584050208330E-003;9.659122442826629E-004;1.169129318441264E-004;
2.411666666666667E+009;1.787700206041336E-001;4.276339896023274E-003;1.026747631840408E-003;1.785009080776945E-004;
2.411833333333334E+009;1.785318106412888E-001;2.034250413998961E-003;9.143096394836903E-004;-3.662131712189876E-005;
2.412000000000000E+009;1.786113530397415E-001;-6.051965756341815E-004;1.035384251736105E-003;-3.366794408066198E-005;
2.412166666666667E+009;1.788670271635056E-001;-2.788565121591091E-003;9.034748654812574E-004;-6.858048436697573E-005;
2.412333333333334E+009;1.789507716894150E-001;-5.440999753773212E-003;8.072282653301954E-004;1.968268043128774E-005;
2.412500000000000E+009;1.793267577886581E-001;-7.877637632191181E-003;9.544744389131665E-004;-1.269343920284882E-004;
2.412666666666667E+009;1.799457520246506E-001;-1.034436188638210E-002;8.321980712935329E-004;-2.096854877891019E-004;
2.412833333333334E+009;1.806171238422394E-001;-1.268493104726076E-002;6.544861244037747E-004;-2.336503966944292E-004;
2.413000000000000E+009;1.815228164196014E-001;-1.498618815094233E-002;4.664267471525818E-004;-1.925824763020501E-004;
2.413166666666667E+009;1.821728795766830E-001;-1.720677502453327E-002;5.393092287704349E-004;-1.317671267315745E-004;
2.413333333333334E+009;1.831079423427582E-001;-1.947667077183723E-002;4.085971158929169E-004;-1.137816725531593E-004;
2.413500000000000E+009;1.838882118463516E-001;-2.161707542836666E-002;3.354985965415835E-004;-1.068201381713152E-004;
2.413666666666667E+009;1.853380650281906E-001;-2.390253543853760E-002;2.751447900664061E-004;1.014583176583983E-004;
2.413833333333334E+009;1.861746460199356E-001;-2.569720894098282E-002;4.182281263638288E-004;1.557063224026933E-004;
2.414000000000000E+009;1.873415559530258E-001;-2.772172540426254E-002;3.727016155607998E-004;3.182850778102875E-004;
2.414166666666667E+009;1.885291188955307E-001;-2.946271747350693E-002;4.674328083638102E-004;2.653580741025508E-004;
2.414333333333334E+009;1.895419359207153E-001;-3.115610219538212E-002;4.724043828900904E-004;3.484708722680807E-004;
2.414500000000000E+009;1.905887126922607E-001;-3.274099156260490E-002;6.658593192696571E-004;3.123971691820771E-004;
2.414666666666667E+009;1.919611692428589E-001;-3.421409055590630E-002;8.163644815795124E-004;5.115349777042866E-004;
2.414833333333334E+009;1.929995417594910E-001;-3.561845049262047E-002;6.902274326421320E-004;3.638196794781834E-004;
2.415000000000000E+009;1.940756589174271E-001;-3.666348382830620E-002;9.532745461910963E-004;3.709600714500994E-004;
2.415166666666667E+009;1.951919794082642E-001;-3.781307488679886E-002;1.134870224632323E-003;4.325707268435508E-004;
2.415333333333334E+009;1.963853836059570E-001;-3.872561454772949E-002;1.076245913282037E-003;3.154057776555419E-004;
2.415500000000000E+009;1.973798871040344E-001;-3.955718502402306E-002;1.229074085131288E-003;1.579218514962122E-004;
2.415666666666667E+009;1.983931064605713E-001;-4.019381478428841E-002;1.116645638830960E-003;1.801970065571368E-004;
2.415833333333334E+009;1.992355734109879E-001;-4.084711894392967E-002;1.161318039521575E-003;5.307411265675910E-005;
2.416000000000000E+009;2.000534087419510E-001;-4.138338565826416E-002;1.043517957441509E-003;2.454464811307844E-005;
2.416166666666667E+009;2.006363272666931E-001;-4.202072322368622E-002;1.143474713899195E-003;-1.394087303197011E-004;
2.416333333333334E+009;2.011460810899735E-001;-4.227575659751892E-002;1.259308657608926E-003;-1.651375059736893E-004;
2.416500000000000E+009;2.017069458961487E-001;-4.243971407413483E-002;1.184802851639688E-003;-8.716496813576669E-005;
2.416666666666667E+009;2.018837481737137E-001;-4.283999279141426E-002;1.407528528943658E-003;-1.604724675416946E-004;
2.416833333333334E+009;2.020481675863266E-001;-4.282058030366898E-002;1.318392925895751E-003;-1.221820857608691E-004;
2.417000000000000E+009;2.021452337503433E-001;-4.293760284781456E-002;1.422792091034353E-003;-1.374267012579367E-004;
2.417166666666667E+009;2.018352448940277E-001;-4.292501136660576E-002;1.381354988552630E-003;-2.528153709135950E-004;
2.417333333333334E+009;2.016691863536835E-001;-4.281231015920639E-002;1.398765947669745E-003;-6.365979788824916E-004;
2.417500000000000E+009;2.011837363243103E-001;-4.274064302444458E-002;1.486270339228213E-003;-5.971775972284377E-004;
2.417666666666667E+009;2.007112056016922E-001;-4.261238500475884E-002;1.471357652917504E-003;-7.869142573326826E-004;
2.417833333333334E+009;2.003035098314285E-001;-4.241301119327545E-002;1.375137479044497E-003;-9.257003548555076E-004;
2.418000000000000E+009;1.996627002954483E-001;-4.222467541694641E-002;1.412559882737696E-003;-8.590889046899974E-004;
2.418166666666667E+009;1.988465487957001E-001;-4.208153486251831E-002;1.250238390639424E-003;-1.140644308179617E-003;
2.418333333333334E+009;1.978962123394013E-001;-4.196063056588173E-002;1.290202140808106E-003;-1.172536518424749E-003;
2.418500000000000E+009;1.969122588634491E-001;-4.204616695642471E-002;1.336535671725869E-003;-1.229157671332359E-003;
2.418666666666667E+009;1.959684044122696E-001;-4.208814725279808E-002;1.233547460287809E-003;-1.342748408205807E-003;
2.418833333333334E+009;1.947139799594879E-001;-4.209234565496445E-002;1.065726042725146E-003;-1.412161393091083E-003;
2.419000000000000E+009;1.933545768260956E-001;-4.234548285603523E-002;1.183615997433662E-003;-1.355280401185155E-003;
2.419166666666667E+009;1.920502036809921E-001;-4.265555739402771E-002;1.068074372597039E-003;-1.550676301121712E-003;
2.419333333333334E+009;1.907192319631577E-001;-4.312805831432343E-002;7.950424333103001E-004;-1.578781870193780E-003;
2.419500000000000E+009;1.893223524093628E-001;-4.360499978065491E-002;8.114630472846329E-004;-1.761041581630707E-003;
2.419666666666667E+009;1.877209246158600E-001;-4.430588707327843E-002;8.053036872297525E-004;-1.827694708481431E-003;
2.419833333333334E+009;1.861000061035156E-001;-4.507605731487274E-002;6.642189691774547E-004;-1.743693137541413E-003;
2.420000000000000E+009;1.845789998769760E-001;-4.599996656179428E-002;6.544074858538806E-004;-1.904543489217758E-003;
2.420166666666667E+009;1.828643679618835E-001;-4.692284762859345E-002;5.315867019817233E-004;-1.915216795168817E-003;
2.420333333333334E+009;1.813936680555344E-001;-4.804193601012230E-002;3.349128819536418E-004;-1.946963253431022E-003;
2.420500000000000E+009;1.797752082347870E-001;-4.936103150248528E-002;2.956125536002219E-004;-1.966105541214347E-003;
2.420666666666667E+009;1.782176345586777E-001;-5.052689835429192E-002;2.155215188395232E-004;-2.047372516244650E-003;
2.420833333333334E+009;1.765825003385544E-001;-5.196802318096161E-002;3.493576150503941E-005;-2.065883018076420E-003;
2.421000000000000E+009;1.751519739627838E-001;-5.365076288580895E-002;-4.393609196995385E-005;-2.151622204110026E-003;
2.421166666666667E+009;1.739159822463989E-001;-5.520129576325417E-002;-1.223575964104384E-004;-2.167986473068595E-003;
2.421333333333334E+009;1.722929924726486E-001;-5.681176856160164E-002;-2.929653855971992E-004;-1.940793707035482E-003;
2.421500000000000E+009;1.709903329610825E-001;-5.870231986045837E-002;-4.139296361245215E-004;-2.201864030212164E-003;
2.421666666666667E+009;1.697566360235214E-001;-6.057588383555412E-002;-4.231896891724318E-004;-1.889960141852498E-003;
2.421833333333334E+009;1.687969565391541E-001;-6.222080811858177E-002;-5.744480295106769E-004;-1.984585542231798E-003;
2.422000000000000E+009;1.675959378480911E-001;-6.430017948150635E-002;-6.261516828089953E-004;-1.865460653789341E-003;
2.422166666666667E+009;1.669148951768875E-001;-6.622716784477234E-002;-7.742983289062977E-004;-1.915435539558530E-003;
2.422333333333334E+009;1.658914685249329E-001;-6.821742653846741E-002;-8.915234939195216E-004;-1.823200844228268E-003;
2.422500000000000E+009;1.651018410921097E-001;-7.014755904674530E-002;-8.778663468547165E-004;-1.776521559804678E-003;
2.422666666666667E+009;1.643764525651932E-001;-7.219854742288590E-002;-9.152169222943485E-004;-1.636743429116905E-003;
2.422833333333334E+009;1.639784723520279E-001;-7.427677512168884E-002;-1.189594855532050E-003;-1.596902264282107E-003;
2.423000000000000E+009;1.634282469749451E-001;-7.610733062028885E-002;-1.092202146537602E-003;-1.549987238831818E-003;
2.423166666666667E+009;1.630918681621552E-001;-7.805287837982178E-002;-1.365419127978385E-003;-1.622724696062505E-003;
2.423333333333334E+009;1.629739552736282E-001;-8.015684038400650E-002;-1.394247170537710E-003;-1.685766503214836E-003;
2.423500000000000E+009;1.628388315439224E-001;-8.199762552976608E-002;-1.422872883267701E-003;-1.242998288944364E-003;
2.423666666666667E+009;1.629073768854141E-001;-8.375196903944016E-002;-1.596085610799491E-003;-1.330423285253346E-003;
2.423833333333334E+009;1.627865582704544E-001;-8.535152673721314E-002;-1.569771906360984E-003;-1.293352805078030E-003;
2.424000000000000E+009;1.629076749086380E-001;-8.714201301336289E-002;-1.556278672069311E-003;-1.074939267709851E-003;
2.424166666666667E+009;1.631247550249100E-001;-8.881874382495880E-002;-1.661192742176354E-003;-1.026027253828943E-003;
2.424333333333334E+009;1.633145064115524E-001;-9.023232758045197E-002;-1.800542813725770E-003;-8.164876489900053E-004;
2.424500000000000E+009;1.636754125356674E-001;-9.177279472351074E-002;-1.575758331455290E-003;-7.095301989465952E-004;
2.424666666666667E+009;1.639666706323624E-001;-9.317532926797867E-002;-1.793529838323593E-003;-7.171392790041864E-004;
2.424833333333334E+009;1.643854230642319E-001;-9.438248723745346E-002;-1.764487358741462E-003;-6.007201736792922E-004;
2.425000000000000E+009;1.646144092082977E-001;-9.567470103502274E-002;-1.711839926429093E-003;-6.448350613936782E-004;
2.425166666666667E+009;1.650968939065933E-001;-9.657875448465347E-002;-1.791396876797080E-003;-6.655045435763896E-004;
2.425333333333334E+009;1.654502451419830E-001;-9.756218641996384E-002;-1.585532329045236E-003;-4.563254187814891E-004;
2.425500000000000E+009;1.658129096031189E-001;-9.849838167428970E-002;-1.591824810020626E-003;-2.777760673779994E-004;
2.425666666666667E+009;1.661616712808609E-001;-9.917665272951126E-002;-1.502205268479884E-003;-1.731753436615691E-004;
2.425833333333334E+009;1.665965020656586E-001;-1.000228747725487E-001;-1.693931524641812E-003;-1.812324771890417E-004;
2.426000000000000E+009;1.669368892908096E-001;-1.004385873675346E-001;-1.796227414160967E-003;-1.257695694221184E-004;
2.426166666666667E+009;1.671889722347260E-001;-1.009384542703629E-001;-1.633779960684478E-003;-2.435320930089802E-004;
2.426333333333334E+009;1.674080938100815E-001;-1.013578921556473E-001;-1.721177482977510E-003;-5.135042010806501E-005;
2.426500000000000E+009;1.677888631820679E-001;-1.016656607389450E-001;-1.751159667037427E-003;2.964105988212396E-005;
2.426666666666667E+009;1.678964346647263E-001;-1.020279154181480E-001;-1.685913302935660E-003;1.669803459662944E-004;
2.426833333333334E+009;1.681018024682999E-001;-1.022973433136940E-001;-1.677657011896372E-003;1.635833468753845E-004;
2.427000000000000E+009;1.681279540061951E-001;-1.024998426437378E-001;-1.685972325503826E-003;2.356890763621777E-004;
2.427166666666667E+009;1.681582480669022E-001;-1.025636866688728E-001;-1.612930791452527E-003;1.087963973986916E-004;
2.427333333333334E+009;1.680573970079422E-001;-1.028292924165726E-001;-1.642650575377047E-003;2.942017454188317E-004;
2.427500000000000E+009;1.677628755569458E-001;-1.030435785651207E-001;-1.447270857170224E-003;5.034461501054466E-004;
2.427666666666667E+009;1.674736589193344E-001;-1.030970290303230E-001;-1.443425077013671E-003;4.065966058988124E-004;
2.427833333333334E+009;1.670420765876770E-001;-1.031598001718521E-001;-1.543110818602145E-003;5.418582586571574E-004;
