# Version 1.00
#
freq[Hz];re:Trc1_S11;im:Trc1_S11;re:Trc2_S21;im:Trc2_S21;
2.400000000000000E+009;1.551730632781982E-001;1.064235717058182E-001;-1.372210681438446E-003;3.171536081936210E-004;
2.400166666666667E+009;1.550136804580689E-001;1.039702966809273E-001;-1.501903170719743E-003;4.352676623966545E-004;
2.400333333333334E+009;1.551471352577210E-001;1.018451601266861E-001;-1.281536184251308E-003;2.766170946415514E-004;
2.400500000000000E+009;1.550001353025436E-001;9.897251427173615E-002;-1.241029356606305E-003;4.661549755837768E-004;
2.400666666666667E+009;1.552194654941559E-001;9.649191051721573E-002;-1.221357146278024E-003;4.990121233277023E-004;
2.400833333333334E+009;1.550818830728531E-001;9.382066875696182E-002;-1.328111626207829E-003;5.776669713668525E-004;
2.401000000000000E+009;1.554532051086426E-001;9.100196510553360E-002;-1.289129024371505E-003;5.461003747768700E-004;
2.401166666666667E+009;1.554976701736450E-001;8.814352005720139E-002;-1.051004976034164E-003;6.522157345898449E-004;
2.401333333333334E+009;1.559860110282898E-001;8.529784530401230E-002;-9.228680864907801E-004;6.800745031796396E-004;
2.401500000000000E+009;1.563520729541779E-001;8.242741227149963E-002;-8.835660992190242E-004;6.064520566724241E-004;
2.401666666666667E+009;1.566956043243408E-001;7.970968633890152E-002;-3.478855651337653E-004;3.659014182630926E-004;
2.401833333333334E+009;1.573615968227387E-001;7.738426327705383E-002;3.584640799090266E-004;5.325586535036564E-004;
2.402000000000000E+009;1.580253243446350E-001;7.447514683008194E-002;-3.933783154934645E-004;1.262650126591325E-003;
2.402166666666667E+009;1.588950157165527E-001;7.175466418266296E-002;-6.464241305366159E-004;5.688138189725578E-004;
2.402333333333334E+009;1.599800139665604E-001;6.926419585943222E-002;1.272070512641221E-004;5.391224403865635E-004;
2.402500000000000E+009;1.613573133945465E-001;6.666000187397003E-002;-8.867156575433910E-004;-3.880770818796009E-004;
2.402666666666667E+009;1.621683239936829E-001;6.435140222311020E-002;-8.527273894287646E-004;1.451381715014577E-003;
2.402833333333334E+009;1.636222153902054E-001;6.202686578035355E-002;3.930910315830261E-004;-3.688654105644673E-004;
2.403000000000000E+009;1.648956984281540E-001;5.969502031803131E-002;-1.039378228597343E-003;1.306630438193679E-003;
2.403166666666667E+009;1.667407304048538E-001;5.767483264207840E-002;-7.190728792920709E-004;1.394306193105876E-003;
2.403333333333334E+009;1.681783050298691E-001;5.522796884179115E-002;-1.038301968947053E-003;1.029067905619741E-003;
2.403500000000000E+009;1.700688153505325E-001;5.326521769165993E-002;-9.437340777367353E-004;6.426384788937867E-004;
2.403666666666667E+009;1.717301458120346E-001;5.143465846776962E-002;-9.808255126699805E-004;7.260215934365988E-004;
2.403833333333334E+009;1.733218729496002E-001;4.962355270981789E-002;-9.457543492317200E-004;8.184242178685963E-004;
2.404000000000000E+009;1.749529242515564E-001;4.775364324450493E-002;-8.817740017548204E-004;1.070515252649784E-003;
2.404166666666667E+009;1.767415404319763E-001;4.640267044305801E-002;-7.264180458150804E-004;1.193123520351946E-003;
2.404333333333334E+009;1.782356947660446E-001;4.473419114947319E-002;-8.353475132025778E-004;1.165147637948394E-003;
2.404500000000000E+009;1.799271255731583E-001;4.326221346855164E-002;-5.003497935831547E-004;1.245872699655592E-003;
2.404666666666667E+009;1.814039349555969E-001;4.236785694956780E-002;-3.346668963786215E-004;1.137314247898758E-003;
2.404833333333334E+009;1.831014603376389E-001;4.126719385385513E-002;-4.352942341938615E-004;1.051759696565568E-003;
2.405000000000000E+009;1.845264136791229E-001;4.062745347619057E-002;-2.695110160857439E-004;1.159742008894682E-003;
2.405166666666667E+009;1.858118325471878E-001;3.979090601205826E-002;-2.701622724998742E-004;1.313038752414286E-003;
2.405333333333334E+009;1.871753931045532E-001;3.933826833963394E-002;-1.523517130408436E-004;1.196923083625734E-003;
2.405500000000000E+009;1.886029839515686E-001;3.881449252367020E-002;-1.894793240353465E-004;1.098986249417067E-003;
2.405666666666667E+009;1.898430287837982E-001;3.855592757463455E-002;-1.243833685293794E-004;1.003933139145374E-003;
2.405833333333334E+009;1.910829097032547E-001;3.820531815290451E-002;-2.153924833692145E-005;1.046112854965031E-003;
2.406000000000000E+009;1.919163018465042E-001;3.803271055221558E-002;-1.060649883584119E-004;9.920608717948198E-004;
2.406166666666667E+009;1.929525285959244E-001;3.782072290778160E-002;-8.890041499398649E-005;1.134331803768873E-003;
2.406333333333334E+009;1.938276737928391E-001;3.770148381590843E-002;-1.352891558781266E-004;1.083848765119910E-003;
2.406500000000000E+009;1.945488750934601E-001;3.784364089369774E-002;-1.628527970751748E-004;1.113145612180233E-003;
2.406666666666667E+009;1.951469928026199E-001;3.772298246622086E-002;-7.026828825473785E-005;1.055974396876991E-003;
2.406833333333334E+009;1.956299394369125E-001;3.778951987624168E-002;-9.855772077571601E-005;1.086250995285809E-003;
2.407000000000000E+009;1.959170401096344E-001;3.798767179250717E-002;5.918935130466707E-005;1.194700365886092E-003;
2.407166666666667E+009;1.962624043226242E-001;3.771920874714851E-002;1.559337106300518E-004;1.196188386529684E-003;
2.407333333333334E+009;1.962409019470215E-001;3.794447705149651E-002;2.067347522825003E-004;1.174111268483102E-003;
2.407500000000000E+009;1.960725486278534E-001;3.793017193675041E-002;2.325189125258476E-004;1.097905682399869E-003;
2.407666666666667E+009;1.961066871881485E-001;3.774700686335564E-002;3.370706399437040E-004;1.101108267903328E-003;
2.407833333333334E+009;1.956078410148621E-001;3.766690939664841E-002;3.087957738898695E-004;1.296899165026844E-003;
2.408000000000000E+009;1.955915540456772E-001;3.729470446705818E-002;3.859389689750969E-004;1.098720589652658E-003;
2.408166666666667E+009;1.948844343423843E-001;3.722677007317543E-002;5.079751717858017E-004;1.188386930152774E-003;
2.408333333333334E+009;1.944831907749176E-001;3.657766059041023E-002;3.807588655035943E-004;1.019144430756569E-003;
2.408500000000000E+009;1.937868595123291E-001;3.618898242712021E-002;4.863810900133103E-004;1.055330503731966E-003;
2.408666666666667E+009;1.931570172309876E-001;3.550178930163384E-002;5.043975543230772E-004;1.142004737630487E-003;
2.408833333333334E+009;1.924243122339249E-001;3.472202271223068E-002;6.843059672974050E-004;1.162218279205263E-003;
2.409000000000000E+009;1.913927346467972E-001;3.385299071669579E-002;8.201373857446015E-004;9.460355504415929E-004;
2.409166666666667E+009;1.905317753553391E-001;3.272075578570366E-002;8.300375775434077E-004;1.053784508258104E-003;
2.409333333333334E+009;1.897611618041992E-001;3.176343441009522E-002;9.777933591976762E-004;9.129514219239354E-004;
2.409500000000000E+009;1.886401921510696E-001;3.033967688679695E-002;9.503596229478717E-004;9.800191037356854E-004;
2.409666666666667E+009;1.875185370445252E-001;2.901300415396690E-002;1.035065273754299E-003;9.372400818392634E-004;
2.409833333333334E+009;1.865333169698715E-001;2.754169702529907E-002;1.024708733893931E-003;8.681316976435483E-004;
2.410000000000000E+009;1.855245083570480E-001;2.571856230497360E-002;1.112933503463864E-003;7.299318094737828E-004;
2.410166666666667E+009;1.844928711652756E-001;2.389005944132805E-002;1.051670522429049E-003;7.036959286779165E-004;
2.410333333333334E+009;1.835183948278427E-001;2.222288213670254E-002;1.076470944099128E-003;4.804053169209510E-004;
2.410500000000000E+009;1.827150434255600E-001;2.025488764047623E-002;1.142755732871592E-003;4.829366225749254E-004;
2.410666666666667E+009;1.818366795778275E-001;1.796662993729115E-002;1.081747119314969E-003;4.428474640008062E-004;
2.410833333333334E+009;1.810557395219803E-001;1.587226241827011E-002;1.134838326834142E-003;2.805448020808399E-004;
2.411000000000000E+009;1.802781671285629E-001;1.375183090567589E-002;1.053724903613329E-003;1.311470987275243E-004;
2.411166666666667E+009;1.797813773155212E-001;1.156535744667053E-002;9.775653015822172E-004;2.646079519763589E-004;
2.411333333333334E+009;1.791582256555557E-001;8.954362012445927E-003;1.139911008067429E-003;1.985306153073907E-004;
2.411500000000000E+009;1.785974949598312E-001;6.512060295790434E-003;1.026430167257786E-003;1.834578288253397E-004;
2.411666666666667E+009;1.787852495908737E-001;4.442766308784485E-003;9.838680271059275E-004;7.029612606856972E-005;
2.411833333333334E+009;1.785047054290772E-001;1.862144563347101E-003;9.716499480418861E-004;4.385413558338769E-005;
2.412000000000000E+009;1.786697208881378E-001;-7.383876945823431E-004;8.463514386676252E-004;-1.866160891950131E-004;
2.412166666666667E+009;1.786182522773743E-001;-2.924671862274408E-003;7.854857249185443E-004;-8.887045987648889E-005;
2.412333333333334E+009;1.787980198860169E-001;-5.478878971189261E-003;7.856463198550046E-004;-3.241606464143843E-004;
2.412500000000000E+009;1.793457865715027E-001;-7.792119402438402E-003;7.371114334091544E-004;-3.275018825661391E-004;
2.412666666666667E+009;1.797666102647781E-001;-1.039771270006895E-002;8.483629790134728E-004;-1.988457806874067E-004;
2.412833333333334E+009;1.804337352514267E-001;-1.261636149138212E-002;6.106232758611441E-004;-2.069326437776908E-004;
2.413000000000000E+009;1.812608689069748E-001;-1.485856901854277E-002;5.979951238259673E-004;-3.562057681847364E-004;
2.413166666666667E+009;1.820152848958969E-001;-1.714303530752659E-002;5.152488010935485E-004;-4.330034134909511E-004;
2.413333333333334E+009;1.828371733427048E-001;-1.939621381461620E-002;5.084067233838141E-004;-3.021628945134580E-004;
2.413500000000000E+009;1.838089227676392E-001;-2.171387895941734E-002;3.573063586372882E-004;-2.180675655836240E-004;
2.413666666666667E+009;1.848822385072708E-001;-2.385078743100166E-002;2.986486651934683E-004;-2.331460927962326E-005;
2.413833333333334E+009;1.859946399927139E-001;-2.572072856128216E-002;2.291107666678727E-004;1.118651052820496E-004;
2.414000000000000E+009;1.870419681072235E-001;-2.767418697476387E-002;3.915521083399653E-004;1.311952219111845E-004;
2.414166666666667E+009;1.882455199956894E-001;-2.950163744390011E-002;4.371799295768142E-004;2.335805620532483E-004;
2.414333333333334E+009;1.893467456102371E-001;-3.138175979256630E-002;4.984624101780355E-004;2.541746653150767E-004;
2.414500000000000E+009;1.905812919139862E-001;-3.277335315942764E-002;5.219031008891761E-004;2.929040929302573E-004;
2.414666666666667E+009;1.915619224309921E-001;-3.422110900282860E-002;6.615405436605215E-004;3.030449443031102E-004;
2.414833333333334E+009;1.928010433912277E-001;-3.555835783481598E-002;6.108038360252976E-004;3.418687556404620E-004;
2.415000000000000E+009;1.939324438571930E-001;-3.671080246567726E-002;9.737022337503731E-004;1.971032761503011E-004;
2.415166666666667E+009;1.951411962509155E-001;-3.787657991051674E-002;8.481821860186756E-004;1.775746495695785E-004;
2.415333333333334E+009;1.961626112461090E-001;-3.867209330201149E-002;1.032026251778007E-003;1.284094469156116E-004;
2.415500000000000E+009;1.973215639591217E-001;-3.945666551589966E-002;1.044640433974564E-003;1.327183999819681E-004;
2.415666666666667E+009;1.982285231351852E-001;-4.015644639730454E-002;1.038710121065378E-003;-6.062095417291857E-005;
2.415833333333334E+009;1.991459429264069E-001;-4.083930328488350E-002;1.129288808442652E-003;4.990574325347552E-006;
2.416000000000000E+009;1.998565047979355E-001;-4.139446467161179E-002;1.140035921707749E-003;-3.544156788848341E-005;
2.416166666666667E+009;2.004463076591492E-001;-4.189239442348480E-002;1.145698013715446E-003;-2.133152447640896E-004;
2.416333333333334E+009;2.011845558881760E-001;-4.218643531203270E-002;1.125686918385327E-003;-1.816959993448108E-004;
2.416500000000000E+009;2.015488892793655E-001;-4.239903017878532E-002;1.231142901815474E-003;-1.436320890206844E-004;
2.416666666666667E+009;2.017421573400497E-001;-4.266051948070526E-002;1.232582377269864E-003;-2.481798292137682E-004;
2.416833333333334E+009;2.019554376602173E-001;-4.276484996080399E-002;1.421484048478305E-003;-2.937800600193441E-004;
2.417000000000000E+009;2.020117640495300E-001;-4.279909282922745E-002;1.284036552533507E-003;-2.411260356893763E-004;
2.417166666666667E+009;2.016785144805908E-001;-4.276652261614800E-002;1.275202957913280E-003;-4.306400078348815E-004;
2.417333333333334E+009;2.014313638210297E-001;-4.267753660678864E-002;1.402636058628559E-003;-3.541188198141754E-004;
2.417500000000000E+009;2.012009173631668E-001;-4.272983223199844E-002;1.421879976987839E-003;-6.896632257848978E-004;
2.417666666666667E+009;2.006692439317703E-001;-4.245954379439354E-002;1.306479214690626E-003;-7.720260764472187E-004;
2.417833333333334E+009;2.001457065343857E-001;-4.224678874015808E-002;1.325105899013579E-003;-8.325786329805851E-004;
2.418000000000000E+009;1.995788961648941E-001;-4.206383600831032E-002;1.319043105468154E-003;-8.821032242849469E-004;
2.418166666666667E+009;1.985943019390106E-001;-4.206063225865364E-002;1.270674867555499E-003;-9.840936399996281E-004;
2.418333333333334E+009;1.978638470172882E-001;-4.188351705670357E-002;1.218578661791980E-003;-1.035168999806047E-003;
2.418500000000000E+009;1.967471987009049E-001;-4.192403703927994E-002;1.178252277895808E-003;-1.246205414645374E-003;
2.418666666666667E+009;1.957361996173859E-001;-4.190012440085411E-002;1.093316590413451E-003;-1.315697561949492E-003;
2.418833333333334E+009;1.944605857133865E-001;-4.205983877182007E-002;1.002431265078485E-003;-1.263896701857448E-003;
2.419000000000000E+009;1.932715922594070E-001;-4.221269860863686E-002;9.406472672708333E-004;-1.394169637933374E-003;
2.419166666666667E+009;1.920000463724136E-001;-4.253858327865601E-002;8.854833431541920E-004;-1.425595837645233E-003;
2.419333333333334E+009;1.907227039337158E-001;-4.306211695075035E-002;9.250846342183650E-004;-1.530135050415993E-003;
2.419500000000000E+009;1.891856342554092E-001;-4.348481819033623E-002;8.198107825592160E-004;-1.680495101027191E-003;
2.419666666666667E+009;1.877313554286957E-001;-4.426534473896027E-002;7.560703670606017E-004;-1.758444355800748E-003;
2.419833333333334E+009;1.860948801040649E-001;-4.512203112244606E-002;5.695727886632085E-004;-1.873334636911750E-003;
2.420000000000000E+009;1.845530718564987E-001;-4.587464779615402E-002;5.556262331083417E-004;-1.924769254401326E-003;
2.420166666666667E+009;1.830091476440430E-001;-4.677899554371834E-002;3.761965781450272E-004;-1.915140543133020E-003;
2.420333333333334E+009;1.814160048961639E-001;-4.800266027450562E-002;3.602768701966852E-004;-1.870298874564469E-003;
2.420500000000000E+009;1.798670291900635E-001;-4.919850453734398E-002;2.336772886337712E-004;-2.062188694253564E-003;
2.420666666666667E+009;1.781868636608124E-001;-5.046368390321732E-002;8.131199865601957E-005;-1.911442261189222E-003;
2.420833333333334E+009;1.767240911722183E-001;-5.200566351413727E-002;-1.227877655765042E-004;-1.953343627974391E-003;
2.421000000000000E+009;1.751524955034256E-001;-5.348315834999085E-002;-5.093859363114461E-005;-2.016907557845116E-003;
2.421166666666667E+009;1.738858371973038E-001;-5.513384193181992E-002;-1.505101972725242E-004;-1.918081543408334E-003;
2.421333333333334E+009;1.722926795482636E-001;-5.662586167454720E-002;-4.092456656508148E-004;-1.920223119668663E-003;
2.421500000000000E+009;1.710005253553391E-001;-5.871147289872170E-002;-5.322159850038588E-004;-1.964186551049352E-003;
2.421666666666667E+009;1.698175370693207E-001;-6.033227965235710E-002;-4.611804033629596E-004;-2.093365648761392E-003;
2.421833333333334E+009;1.687673479318619E-001;-6.220319122076035E-002;-7.323027821257711E-004;-1.948365243151784E-003;
2.422000000000000E+009;1.676819771528244E-001;-6.414980441331863E-002;-7.604049169458449E-004;-1.768694608472288E-003;
2.422166666666667E+009;1.668636500835419E-001;-6.617184728384018E-002;-9.043963509611785E-004;-1.903333002701402E-003;
2.422333333333334E+009;1.657095849514008E-001;-6.810522079467773E-002;-9.922091849148274E-004;-1.854611560702324E-003;
2.422500000000000E+009;1.651481240987778E-001;-7.014952600002289E-002;-9.545542998239398E-004;-1.743371365591884E-003;
2.422666666666667E+009;1.643769294023514E-001;-7.211083918809891E-002;-1.049772719852626E-003;-1.832410460337997E-003;
2.422833333333334E+009;1.640246212482452E-001;-7.406569272279739E-002;-1.089637982659042E-003;-1.480633509345353E-003;
2.423000000000000E+009;1.634609401226044E-001;-7.608345896005631E-002;-1.162404310889542E-003;-1.601692521944642E-003;
2.423166666666667E+009;1.630655080080032E-001;-7.797747105360031E-002;-1.288183731958270E-003;-1.473084790632129E-003;
2.423333333333334E+009;1.630048304796219E-001;-7.999745011329651E-002;-1.275946153327823E-003;-1.502203056588769E-003;
2.423500000000000E+009;1.628946214914322E-001;-8.164017647504807E-002;-1.533798524178565E-003;-1.271659624762833E-003;
2.423666666666667E+009;1.628763526678085E-001;-8.363822847604752E-002;-1.518589211627841E-003;-1.323376782238483E-003;
2.423833333333334E+009;1.627607494592667E-001;-8.524987101554871E-002;-1.649995567277074E-003;-1.110268291085959E-003;
2.424000000000000E+009;1.629949510097504E-001;-8.705700933933258E-002;-1.620032009668648E-003;-1.265399390831590E-003;
2.424166666666667E+009;1.630380749702454E-001;-8.858692646026611E-002;-1.727738999761641E-003;-1.028812606818974E-003;
2.424333333333334E+009;1.631752103567123E-001;-8.998533338308334E-002;-1.783226616680622E-003;-7.925384561531246E-004;
2.424500000000000E+009;1.636084318161011E-001;-9.177735447883606E-002;-1.747301546856761E-003;-8.175365510396659E-004;
2.424666666666667E+009;1.637881845235825E-001;-9.314280748367310E-002;-1.715416787192226E-003;-6.472721579484642E-004;
2.424833333333334E+009;1.643351614475250E-001;-9.427158534526825E-002;-1.733449636958540E-003;-6.236787885427475E-004;
2.425000000000000E+009;1.647592037916184E-001;-9.552408754825592E-002;-1.580595271661878E-003;-4.777307040058076E-004;
2.425166666666667E+009;1.650456935167313E-001;-9.661189466714859E-002;-1.695765764452517E-003;-4.732407396659255E-004;
2.425333333333334E+009;1.653670519590378E-001;-9.744960814714432E-002;-1.632970874197781E-003;-3.332328051328659E-004;
2.425500000000000E+009;1.658454835414887E-001;-9.844233840703964E-002;-1.681978697888553E-003;-2.840776287484914E-004;
2.425666666666667E+009;1.662973761558533E-001;-9.902809560298920E-002;-1.556649571284652E-003;-2.263448259327561E-004;
2.425833333333334E+009;1.664275825023651E-001;-9.991429001092911E-002;-1.711579272523522E-003;-2.878819650504738E-004;
2.426000000000000E+009;1.668300628662109E-001;-1.003734394907951E-001;-1.708628376945853E-003;-6.177931209094822E-005;
2.426166666666667E+009;1.672630906105042E-001;-1.008072420954704E-001;-1.604117103852332E-003;1.007890114124166E-005;
2.426333333333334E+009;1.673500984907150E-001;-1.013711318373680E-001;-1.723157824017108E-003;-7.898864168964792E-006;
2.426500000000000E+009;1.677456796169281E-001;-1.014941260218620E-001;-1.672654063440859E-003;1.720125437714160E-004;
2.426666666666667E+009;1.679113805294037E-001;-1.019429713487625E-001;-1.640162547118962E-003;8.297577005578205E-005;
2.426833333333334E+009;1.681485474109650E-001;-1.021733283996582E-001;-1.770926988683641E-003;3.333321947138757E-004;
2.427000000000000E+009;1.681061536073685E-001;-1.023753806948662E-001;-1.569528598338366E-003;3.521982289385051E-004;
2.427166666666667E+009;1.681620925664902E-001;-1.024271696805954E-001;-1.568936393596232E-003;2.349045244045556E-004;
2.427333333333334E+009;1.679475754499435E-001;-1.027945876121521E-001;-1.579354400746524E-003;3.354640793986619E-004;
2.427500000000000E+009;1.678523421287537E-001;-1.029741093516350E-001;-1.580481999553740E-003;4.609652678482235E-004;
2.427666666666667E+009;1.674569696187973E-001;-1.029829308390617E-001;-1.483388594351709E-003;4.734411486424506E-004;
2.427833333333334E+009;1.671398133039475E-001;-1.030777692794800E-001;-1.412888406775892E-003;4.775507259182632E-004;
