# Version 1.00
#
freq[Hz];re:Trc1_S11;im:Trc1_S11;re:Trc2_S21;im:Trc2_S21;
2.400000000000000E+009;1.550479829311371E-001;1.067222803831101E-001;-1.408918527886272E-003;1.719910796964541E-004;
2.400166666666667E+009;1.548732966184616E-001;1.042793467640877E-001;-1.351402956061065E-003;3.401243302505463E-004;
2.400333333333334E+009;1.549435555934906E-001;1.019015163183212E-001;-1.206549815833569E-003;3.029579529538751E-004;
2.400500000000000E+009;1.548632085323334E-001;9.930388629436493E-002;-1.248045708052814E-003;3.028659848496318E-004;
2.400666666666667E+009;1.550171822309494E-001;9.694873541593552E-002;-1.279845484532416E-003;4.641242267098278E-004;
2.400833333333334E+009;1.549954861402512E-001;9.394620358943939E-002;-1.215864438563585E-003;4.676593525800854E-004;
2.401000000000000E+009;1.553187221288681E-001;9.118431061506271E-002;-1.123313093557954E-003;6.232871091924608E-004;
2.401166666666667E+009;1.553672105073929E-001;8.839330077171326E-002;-1.102579059079289E-003;6.555233267135918E-004;
2.401333333333334E+009;1.559301912784576E-001;8.567490428686142E-002;-1.017791684716940E-003;6.807446479797363E-004;
2.401500000000000E+009;1.563235819339752E-001;8.276741951704025E-002;-8.366677793674171E-004;5.921662086620927E-004;
2.401666666666667E+009;1.567016839981079E-001;7.987262308597565E-002;-9.268273715861142E-004;5.833829054608941E-004;
2.401833333333334E+009;1.571486145257950E-001;7.724487781524658E-002;-6.821306888014078E-004;6.099778693169355E-004;
2.402000000000000E+009;1.580469608306885E-001;7.457306236028671E-002;-5.940507980994880E-004;6.148906541056931E-004;
2.402166666666667E+009;1.588845252990723E-001;7.216492295265198E-002;-5.307306419126689E-004;5.884236888960004E-004;
2.402333333333334E+009;1.600101888179779E-001;6.946466118097305E-002;-7.897089817561209E-004;6.426292820833623E-004;
2.402500000000000E+009;1.610043644905090E-001;6.693518161773682E-002;-8.413727045990527E-004;5.736984312534332E-004;
2.402666666666667E+009;1.623806655406952E-001;6.468587368726730E-002;-6.965101347304881E-004;3.235100884921849E-004;
2.402833333333334E+009;1.635335534811020E-001;6.224532797932625E-002;-7.142285467125475E-004;3.877866838593036E-004;
2.403000000000000E+009;1.649517118930817E-001;5.989793315529823E-002;-8.472808985970914E-004;4.541948728729039E-004;
2.403166666666667E+009;1.667530834674835E-001;5.790899321436882E-002;-8.647529757581651E-004;5.296129966154695E-004;
2.403333333333334E+009;1.682220995426178E-001;5.573528259992600E-002;-1.040219794958830E-003;6.035887636244297E-004;
2.403500000000000E+009;1.699514389038086E-001;5.361603572964668E-002;-1.099958666600287E-003;5.856572533957660E-004;
2.403666666666667E+009;1.716641336679459E-001;5.170643329620361E-002;-1.158536295406520E-003;6.552745471708477E-004;
2.403833333333334E+009;1.732274889945984E-001;4.980121925473213E-002;-8.851636084727943E-004;9.585124207660556E-004;
2.404000000000000E+009;1.747918277978897E-001;4.803631082177162E-002;-1.027839491143823E-003;8.662265609018505E-004;
2.404166666666667E+009;1.766168773174286E-001;4.678679630160332E-002;-8.754769223742187E-004;1.074384897947311E-003;
2.404333333333334E+009;1.781276017427445E-001;4.496482759714127E-002;-7.756776758469641E-004;1.107593998312950E-003;
2.404500000000000E+009;1.798323839902878E-001;4.366129636764526E-002;-8.007313008420169E-004;1.030107727274299E-003;
2.404666666666667E+009;1.814682334661484E-001;4.264516010880470E-002;-7.199714891612530E-004;1.026423415169120E-003;
2.404833333333334E+009;1.831773966550827E-001;4.158609732985497E-002;-5.496031371876597E-004;1.197354402393103E-003;
2.405000000000000E+009;1.844023764133453E-001;4.102415964007378E-002;-2.884966961573809E-004;1.060717157088220E-003;
2.405166666666667E+009;1.857768893241882E-001;4.013332724571228E-002;-3.811537753790617E-004;1.159462379291654E-003;
2.405333333333334E+009;1.871882081031799E-001;3.965577483177185E-002;-3.299964591860771E-004;1.132385339587927E-003;
2.405500000000000E+009;1.886115521192551E-001;3.913839906454086E-002;-1.636293309275061E-004;1.056788139976561E-003;
2.405666666666667E+009;1.898469924926758E-001;3.885824978351593E-002;-2.570363867562264E-004;1.094155362807214E-003;
2.405833333333334E+009;1.911331117153168E-001;3.846970573067665E-002;-2.741048228926957E-004;1.114666578359902E-003;
2.406000000000000E+009;1.920540779829025E-001;3.839113563299179E-002;-2.578627900220454E-004;9.992417180910707E-004;
2.406166666666667E+009;1.930934637784958E-001;3.809152916073799E-002;-2.287538518430665E-004;9.974740678444505E-004;
2.406333333333334E+009;1.939311921596527E-001;3.809621185064316E-002;-3.104510833509266E-004;1.143516157753766E-003;
2.406500000000000E+009;1.947685331106186E-001;3.812259435653687E-002;-2.209426893386990E-004;1.120956963859499E-003;
2.406666666666667E+009;1.951477378606796E-001;3.815090283751488E-002;-1.735813712002710E-004;1.174731878563762E-003;
2.406833333333334E+009;1.957289725542069E-001;3.807460889220238E-002;-2.477962989360094E-004;1.184424734674394E-003;
2.407000000000000E+009;1.960503309965134E-001;3.820719942450523E-002;-7.571364221803378E-006;9.294840274378657E-004;
2.407166666666667E+009;1.963291317224503E-001;3.802092000842094E-002;-4.431984780239873E-005;1.088833087123931E-003;
2.407333333333334E+009;1.963551640510559E-001;3.813553228974342E-002;1.028273836709559E-004;1.096835243515670E-003;
2.407500000000000E+009;1.962487995624542E-001;3.823798522353172E-002;9.642580698709935E-005;1.320767449215055E-003;
2.407666666666667E+009;1.962606012821198E-001;3.801363334059715E-002;1.855687442002818E-004;1.208947622217238E-003;
2.407833333333334E+009;1.957954019308090E-001;3.783827275037766E-002;2.118919801432639E-004;1.178636332042515E-003;
2.408000000000000E+009;1.957037448883057E-001;3.756478801369667E-002;4.058213380631059E-004;1.210532383993268E-003;
2.408166666666667E+009;1.949620097875595E-001;3.722738474607468E-002;4.115155606996268E-004;1.026560319587588E-003;
2.408333333333334E+009;1.945439875125885E-001;3.671588376164436E-002;4.164189158473164E-004;1.277250470593572E-003;
2.408500000000000E+009;1.938462108373642E-001;3.632351383566856E-002;3.416662511881441E-004;1.279411255382001E-003;
2.408666666666667E+009;1.933736801147461E-001;3.574390336871147E-002;5.108112236484885E-004;1.107386080548167E-003;
2.408833333333334E+009;1.925879567861557E-001;3.501889482140541E-002;6.836134707555175E-004;1.186502398923039E-003;
2.409000000000000E+009;1.917203664779663E-001;3.403404355049133E-002;6.614508456550539E-004;1.231744652613998E-003;
2.409166666666667E+009;1.907146275043488E-001;3.295749053359032E-002;6.783480057492852E-004;1.132612815126777E-003;
2.409333333333334E+009;1.897995322942734E-001;3.198148310184479E-002;9.012341033667326E-004;1.108542666770518E-003;
2.409500000000000E+009;1.886474341154099E-001;3.067346476018429E-002;9.578320896252990E-004;9.137880988419056E-004;
2.409666666666667E+009;1.877246499061585E-001;2.916964702308178E-002;8.932196069508791E-004;9.389643673785031E-004;
2.409833333333334E+009;1.867037117481232E-001;2.765498496592045E-002;1.058608992025256E-003;8.175729890353978E-004;
2.410000000000000E+009;1.857461184263229E-001;2.608674950897694E-002;1.066380296833813E-003;6.963587366044521E-004;
2.410166666666667E+009;1.846509873867035E-001;2.401591651141644E-002;1.081761904060841E-003;4.959024372510612E-004;
2.410333333333334E+009;1.836635321378708E-001;2.243525534868240E-002;1.027824124321342E-003;5.442352849058807E-004;
2.410500000000000E+009;1.828364133834839E-001;2.031255885958672E-002;1.122163375839591E-003;5.017520161345601E-004;
2.410666666666667E+009;1.818713247776032E-001;1.818457804620266E-002;1.139783416874707E-003;4.166292201261967E-004;
2.410833333333334E+009;1.812342554330826E-001;1.605166681110859E-002;1.045686542056501E-003;4.963135579600930E-004;
2.411000000000000E+009;1.804732084274292E-001;1.367437466979027E-002;9.995524305850267E-004;3.659750218503177E-004;
2.411166666666667E+009;1.799350231885910E-001;1.152488775551319E-002;9.774725185707212E-004;2.051620976999402E-004;
2.411333333333334E+009;1.794859766960144E-001;9.107027202844620E-003;9.196074679493904E-004;1.707616029307246E-004;
2.411500000000000E+009;1.792069971561432E-001;6.802422925829887E-003;9.591474081389606E-004;1.166350411949679E-004;
2.411666666666667E+009;1.789128035306931E-001;4.441154189407826E-003;9.676987538114190E-004;1.245290623046458E-004;
2.411833333333334E+009;1.787209510803223E-001;1.992598408833146E-003;8.925037691369653E-004;1.329142396571115E-004;
2.412000000000000E+009;1.789312809705734E-001;-5.503539578057826E-004;1.007172628305852E-003;3.868682688334957E-005;
2.412166666666667E+009;1.788336783647537E-001;-2.830951241776347E-003;9.105978533625603E-004;-1.676313841016963E-004;
2.412333333333334E+009;1.791047155857086E-001;-5.251419730484486E-003;8.351458236575127E-004;-7.519304199377075E-005;
2.412500000000000E+009;1.795799583196640E-001;-7.715988904237747E-003;8.416214841417968E-004;-2.023322304012254E-004;
2.412666666666667E+009;1.801241338253021E-001;-1.024352293461561E-002;7.785611087456346E-004;-2.082082064589486E-004;
2.412833333333334E+009;1.807819753885269E-001;-1.257586851716042E-002;6.791753112338483E-004;-6.822961586294696E-005;
2.413000000000000E+009;1.815474331378937E-001;-1.486098393797875E-002;5.932531203143299E-004;-2.086817112285644E-004;
2.413166666666667E+009;1.822539418935776E-001;-1.721252501010895E-002;5.198647268116474E-004;-2.166492049582303E-004;
2.413333333333334E+009;1.833325177431107E-001;-1.945338957011700E-002;4.097431956324726E-004;-6.562852649949491E-005;
2.413500000000000E+009;1.841038465499878E-001;-2.149232476949692E-002;3.395506355445832E-004;-5.979058551019989E-005;
2.413666666666667E+009;1.852590292692184E-001;-2.358631975948811E-002;3.337086236570031E-004;9.218826562573668E-006;
2.413833333333334E+009;1.863423883914948E-001;-2.567475102841854E-002;3.969852696172893E-004;1.430908887414262E-004;
2.414000000000000E+009;1.872332543134689E-001;-2.766908705234528E-002;4.104804829694331E-004;2.714538131840527E-004;
2.414166666666667E+009;1.885896623134613E-001;-2.945662476122379E-002;4.439097247086465E-004;4.171891778241843E-004;
2.414333333333334E+009;1.896522492170334E-001;-3.127393499016762E-002;4.787631041835994E-004;4.964602412655950E-004;
2.414500000000000E+009;1.909344345331192E-001;-3.281134366989136E-002;7.159138331189752E-004;4.840625624638051E-004;
2.414666666666667E+009;1.920361965894699E-001;-3.434604406356812E-002;7.618326344527304E-004;3.223025705665350E-004;
2.414833333333334E+009;1.930065304040909E-001;-3.538215905427933E-002;8.107289322651923E-004;4.739742144010961E-004;
2.415000000000000E+009;1.941451728343964E-001;-3.679071366786957E-002;9.991241386160255E-004;4.778655711561441E-004;
2.415166666666667E+009;1.953612565994263E-001;-3.787431865930557E-002;9.783320128917694E-004;3.741883556358516E-004;
2.415333333333334E+009;1.965961754322052E-001;-3.891099244356155E-002;9.783436544239521E-004;2.601235173642635E-004;
2.415500000000000E+009;1.975060254335403E-001;-3.945324942469597E-002;1.109509263187647E-003;1.367297809338197E-004;
2.415666666666667E+009;1.984867751598358E-001;-4.034518450498581E-002;1.164297456853092E-003;1.110579542000778E-004;
2.415833333333334E+009;1.991744339466095E-001;-4.081993550062180E-002;1.177080092020333E-003;-4.112883834750392E-005;
2.416000000000000E+009;2.000705152750015E-001;-4.147151857614517E-002;1.195533666759729E-003;2.227892036898993E-005;
2.416166666666667E+009;2.007294148206711E-001;-4.204000905156136E-002;1.222563674673438E-003;-1.052095976774581E-004;
2.416333333333334E+009;2.013228535652161E-001;-4.234100133180618E-002;1.106153940781951E-003;-1.173890268546529E-004;
2.416500000000000E+009;2.018218934535980E-001;-4.257481545209885E-002;1.196392462588847E-003;-7.422947237500921E-005;
2.416666666666667E+009;2.020481079816818E-001;-4.277381673455238E-002;1.236601150594652E-003;-1.829525281209499E-004;
2.416833333333334E+009;2.021966129541397E-001;-4.286344721913338E-002;1.298270304687321E-003;-3.040112496819347E-004;
2.417000000000000E+009;2.022680938243866E-001;-4.295180365443230E-002;1.282513723708689E-003;-2.516357635613531E-004;
2.417166666666667E+009;2.019201219081879E-001;-4.289643839001656E-002;1.320470357313752E-003;-3.836446558125317E-004;
2.417333333333334E+009;2.017168551683426E-001;-4.279342666268349E-002;1.504838350228965E-003;-4.244954325258732E-004;
2.417500000000000E+009;2.014200240373612E-001;-4.280060529708862E-002;1.382138812914491E-003;-7.195160724222660E-004;
2.417666666666667E+009;2.009006142616272E-001;-4.247944056987763E-002;1.362382317893207E-003;-6.981308106333017E-004;
2.417833333333334E+009;2.002822309732437E-001;-4.248544201254845E-002;1.364322146400809E-003;-9.055152768269181E-004;
2.418000000000000E+009;1.997914463281632E-001;-4.214863479137421E-002;1.304537407122552E-003;-1.042353920638561E-003;
2.418166666666667E+009;1.989045888185501E-001;-4.216219484806061E-002;1.258709002286196E-003;-1.008433289825916E-003;
2.418333333333334E+009;1.979404240846634E-001;-4.203942045569420E-002;1.295536640100181E-003;-1.236407668329775E-003;
2.418500000000000E+009;1.969264149665833E-001;-4.203893989324570E-002;1.118576736189425E-003;-1.401747576892376E-003;
2.418666666666667E+009;1.960575878620148E-001;-4.198003560304642E-002;1.046917284838855E-003;-1.312739448621869E-003;
2.418833333333334E+009;1.946542412042618E-001;-4.210500791668892E-002;1.087269396521151E-003;-1.382865128107369E-003;
2.419000000000000E+009;1.933711618185043E-001;-4.235544428229332E-002;9.276130003854632E-004;-1.411220757290721E-003;
2.419166666666667E+009;1.922262459993362E-001;-4.260280355811119E-002;9.453757666051388E-004;-1.391093945130706E-003;
2.419333333333334E+009;1.908772736787796E-001;-4.324570298194885E-002;8.814745815470815E-004;-1.602263539098203E-003;
2.419500000000000E+009;1.892748028039932E-001;-4.370588436722755E-002;9.333897032774985E-004;-1.611182582564652E-003;
2.419666666666667E+009;1.877407729625702E-001;-4.440992325544357E-002;8.215025300160050E-004;-1.656292122788727E-003;
2.419833333333334E+009;1.862856149673462E-001;-4.515693336725235E-002;6.982994382269681E-004;-1.934074913151562E-003;
2.420000000000000E+009;1.846899241209030E-001;-4.602315276861191E-002;6.540086469613016E-004;-1.872743247076869E-003;
2.420166666666667E+009;1.830811649560928E-001;-4.702103510499001E-002;4.623692657332867E-004;-1.870107371360064E-003;
2.420333333333334E+009;1.815568655729294E-001;-4.813839867711067E-002;4.422026395332068E-004;-1.917353598400950E-003;
2.420500000000000E+009;1.798804998397827E-001;-4.947265237569809E-002;3.033508255612105E-004;-1.910253078676760E-003;
2.420666666666667E+009;1.784069687128067E-001;-5.046142265200615E-002;1.900954521261156E-004;-2.085450571030378E-003;
2.420833333333334E+009;1.767349243164063E-001;-5.223098397254944E-002;1.468684931751341E-004;-2.183645730838180E-003;
2.421000000000000E+009;1.754192709922791E-001;-5.369152873754501E-002;-7.885452941991389E-005;-2.045995090156794E-003;
2.421166666666667E+009;1.739332973957062E-001;-5.532743036746979E-002;-1.008700055535883E-004;-2.080225618556142E-003;
2.421333333333334E+009;1.723726540803909E-001;-5.677835270762444E-002;-2.345328102819622E-004;-2.090859226882458E-003;
2.421500000000000E+009;1.711586117744446E-001;-5.873153358697891E-002;-4.128394066356123E-004;-1.998270861804485E-003;
2.421666666666667E+009;1.699113398790360E-001;-6.055444106459618E-002;-5.738964537158608E-004;-1.852887216955423E-003;
2.421833333333334E+009;1.687314659357071E-001;-6.248071044683456E-002;-5.825039697811008E-004;-1.951992162503302E-003;
2.422000000000000E+009;1.676445603370667E-001;-6.430464237928391E-002;-7.930152933113277E-004;-1.846274361014366E-003;
2.422166666666667E+009;1.668259650468826E-001;-6.629692018032074E-002;-7.210765033960342E-004;-1.701460336335003E-003;
2.422333333333334E+009;1.659775227308273E-001;-6.832672655582428E-002;-7.786351488903165E-004;-1.794485608115792E-003;
2.422500000000000E+009;1.651264429092407E-001;-7.023310661315918E-002;-9.639617055654526E-004;-1.766812987625599E-003;
2.422666666666667E+009;1.645877510309219E-001;-7.222586125135422E-002;-1.025680801831186E-003;-1.680986606515944E-003;
2.422833333333334E+009;1.640403270721436E-001;-7.420032471418381E-002;-1.063230563886464E-003;-1.686288276687264E-003;
2.423000000000000E+009;1.635268777608872E-001;-7.642418146133423E-002;-1.063635805621743E-003;-1.573855290189385E-003;
2.423166666666667E+009;1.632083356380463E-001;-7.819510996341705E-002;-1.213936484418809E-003;-1.504553249105811E-003;
2.423333333333334E+009;1.629706323146820E-001;-8.007429540157318E-002;-1.369963400065899E-003;-1.460883533582091E-003;
2.423500000000000E+009;1.628185808658600E-001;-8.191926032304764E-002;-1.337992376647890E-003;-1.298476010560989E-003;
2.423666666666667E+009;1.630974560976028E-001;-8.386801928281784E-002;-1.465098350308836E-003;-1.202472718432546E-003;
2.423833333333334E+009;1.628758609294891E-001;-8.542081713676453E-002;-1.631415216252208E-003;-1.062248367816210E-003;
2.424000000000000E+009;1.629440039396286E-001;-8.726026117801666E-002;-1.666271244175732E-003;-1.044455217197537E-003;
2.424166666666667E+009;1.629373878240585E-001;-8.873702585697174E-002;-1.645014388486743E-003;-8.937303209677339E-004;
2.424333333333334E+009;1.632682234048843E-001;-9.029331058263779E-002;-1.611790386959910E-003;-8.048274321481586E-004;
2.424500000000000E+009;1.637122631072998E-001;-9.201830625534058E-002;-1.626218669116497E-003;-6.738179945386946E-004;
2.424666666666667E+009;1.639172732830048E-001;-9.309480339288712E-002;-1.737683778628707E-003;-5.758194020017982E-004;
2.424833333333334E+009;1.645140498876572E-001;-9.454186260700226E-002;-1.760983956046403E-003;-5.591232329607010E-004;
2.425000000000000E+009;1.647378951311112E-001;-9.564553946256638E-002;-1.704498077742755E-003;-4.562541435007006E-004;
2.425166666666667E+009;1.651127338409424E-001;-9.670473635196686E-002;-1.717502833344042E-003;-5.393702886067331E-004;
2.425333333333334E+009;1.653560847043991E-001;-9.757050871849060E-002;-1.741257496178150E-003;-3.371794591657817E-004;
2.425500000000000E+009;1.657798737287521E-001;-9.859851002693176E-002;-1.488090492784977E-003;-3.031753876712173E-004;
2.425666666666667E+009;1.661212593317032E-001;-9.927759319543839E-002;-1.751669566147029E-003;-1.858261821325868E-004;
2.425833333333334E+009;1.664241105318070E-001;-9.995921701192856E-002;-1.696860301308334E-003;-2.811892773024738E-004;
2.426000000000000E+009;1.669071912765503E-001;-1.004218384623528E-001;-1.595412497408688E-003;-1.027330290526152E-004;
2.426166666666667E+009;1.672729700803757E-001;-1.009510010480881E-001;-1.530104433186352E-003;-5.414106271928176E-005;
2.426333333333334E+009;1.672877371311188E-001;-1.015469804406166E-001;-1.661091344431043E-003;-2.557268817326985E-005;
2.426500000000000E+009;1.677309721708298E-001;-1.017196848988533E-001;-1.697932835668325E-003;4.091799200978130E-005;
2.426666666666667E+009;1.679133027791977E-001;-1.020853519439697E-001;-1.639432040974498E-003;1.851248525781557E-004;
2.426833333333334E+009;1.682284027338028E-001;-1.023183092474937E-001;-1.753143384121358E-003;2.027716109296307E-004;
2.427000000000000E+009;1.681760996580124E-001;-1.024552062153816E-001;-1.500357640907168E-003;2.723781799431890E-004;
2.427166666666667E+009;1.680316179990768E-001;-1.026405468583107E-001;-1.650191261433065E-003;2.917328674811870E-004;
2.427333333333334E+009;1.680069565773010E-001;-1.028617396950722E-001;-1.576106995344162E-003;3.204621898476034E-004;
2.427500000000000E+009;1.677756458520889E-001;-1.031052619218826E-001;-1.433693803846836E-003;4.471398133318871E-004;
2.427666666666667E+009;1.673886626958847E-001;-1.032319590449333E-001;-1.439391984604299E-003;4.640516417566687E-004;
2.427833333333334E+009;1.670442521572113E-001;-1.032989025115967E-001;-1.432560617104173E-003;5.063980934210122E-004;
