# Version 1.00
#
freq[Hz];re:Trc1_S11;im:Trc1_S11;re:Trc2_S21;im:Trc2_S21;
2.400000000000000E+009;1.552357077598572E-001;1.069045066833496E-001;-1.275830785743892E-003;4.230346894473769E-005;
2.400166666666667E+009;1.550510525703430E-001;1.044630855321884E-001;-1.399244181811810E-003;1.894465240184218E-004;
2.400333333333334E+009;1.549908965826035E-001;1.020329669117928E-001;-1.250448403880000E-003;3.423247835598886E-004;
2.400500000000000E+009;1.551371663808823E-001;9.939990937709808E-002;-1.281407545320690E-003;3.572411951608956E-004;
2.400666666666667E+009;1.550864130258560E-001;9.689475595951080E-002;-1.264514401555061E-003;4.118759534321725E-004;
2.400833333333334E+009;1.553283035755158E-001;9.405245631933212E-002;-1.197194214910269E-003;2.918056561611593E-004;
2.401000000000000E+009;1.554464399814606E-001;9.135253727436066E-002;-1.115231541916728E-003;6.008149357512593E-004;
2.401166666666667E+009;1.554819196462631E-001;8.856488764286041E-002;-1.016605296172202E-003;5.881612305529416E-004;
2.401333333333334E+009;1.559400707483292E-001;8.584836870431900E-002;-9.481644956395030E-004;5.690796533599496E-004;
2.401500000000000E+009;1.563974618911743E-001;8.282994478940964E-002;-8.288059034384787E-004;6.374777876771987E-004;
2.401666666666667E+009;1.567521542310715E-001;8.019100874662399E-002;-7.461869972757995E-004;5.245527718216181E-004;
2.401833333333334E+009;1.574478894472122E-001;7.742982357740402E-002;-8.636348065920174E-004;5.869288579560816E-004;
2.402000000000000E+009;1.583066582679749E-001;7.480374723672867E-002;-8.317256579175592E-004;4.277076513972133E-004;
2.402166666666667E+009;1.590296924114227E-001;7.224750518798828E-002;-7.296911790035665E-004;5.522727733477950E-004;
2.402333333333334E+009;1.600998640060425E-001;6.938019394874573E-002;-5.540819838643074E-004;3.472247917670757E-004;
2.402500000000000E+009;1.612132638692856E-001;6.699066609144211E-002;-7.812380790710449E-004;3.101953770965338E-004;
2.402666666666667E+009;1.624747365713120E-001;6.457791477441788E-002;-7.154731429181993E-004;4.011253186035901E-004;
2.402833333333334E+009;1.636468619108200E-001;6.223573163151741E-002;-8.556427783332765E-004;4.295909602660686E-004;
2.403000000000000E+009;1.652155071496964E-001;5.998809635639191E-002;-7.445585797540844E-004;4.114956245757639E-004;
2.403166666666667E+009;1.669765561819077E-001;5.778905376791954E-002;-7.991670863702893E-004;3.956846485380083E-004;
2.403333333333334E+009;1.684433966875076E-001;5.559385567903519E-002;-1.011570449918509E-003;4.639162798412144E-004;
2.403500000000000E+009;1.701805442571640E-001;5.357145145535469E-002;-1.003769575618208E-003;5.165377515368164E-004;
2.403666666666667E+009;1.718187332153320E-001;5.177221074700356E-002;-1.136807026341558E-003;7.746824412606657E-004;
2.403833333333334E+009;1.734393835067749E-001;4.986402019858360E-002;-9.269949514418840E-004;7.956331828609109E-004;
2.404000000000000E+009;1.749665886163712E-001;4.811462759971619E-002;-9.532696567475796E-004;1.021347125060856E-003;
2.404166666666667E+009;1.768921464681625E-001;4.672295972704887E-002;-8.962166612036526E-004;1.044580945745111E-003;
2.404333333333334E+009;1.785620003938675E-001;4.518630355596542E-002;-9.271381422877312E-004;9.922652970999479E-004;
2.404500000000000E+009;1.799356639385223E-001;4.379118606448174E-002;-6.077617290429771E-004;1.177765196189284E-003;
2.404666666666667E+009;1.814902126789093E-001;4.257337003946304E-002;-6.572993006557226E-004;9.916395647451282E-004;
2.404833333333334E+009;1.832101047039032E-001;4.151879996061325E-002;-5.182025488466024E-004;1.043408061377704E-003;
2.405000000000000E+009;1.845750510692596E-001;4.099154844880104E-002;-4.858831234741956E-004;1.156260259449482E-003;
2.405166666666667E+009;1.860412955284119E-001;4.023429006338120E-002;-3.616800240706652E-004;1.112979953177273E-003;
2.405333333333334E+009;1.873531490564346E-001;3.972249850630760E-002;-2.096976240864024E-004;1.090954407118261E-003;
2.405500000000000E+009;1.887779831886292E-001;3.918062150478363E-002;-2.301243366673589E-004;9.792732307687402E-004;
2.405666666666667E+009;1.899185329675674E-001;3.866927325725555E-002;-2.857311337720603E-004;1.075102249160409E-003;
2.405833333333334E+009;1.911304593086243E-001;3.851401060819626E-002;-2.295518934261054E-004;9.413506486453116E-004;
2.406000000000000E+009;1.922133713960648E-001;3.826747089624405E-002;-2.242272603325546E-004;9.414168307557702E-004;
2.406166666666667E+009;1.931375712156296E-001;3.799625858664513E-002;-2.457953232806176E-004;9.578552562743425E-004;
2.406333333333334E+009;1.939831972122192E-001;3.805754706263542E-002;-3.960758913308382E-004;1.123941503465176E-003;
2.406500000000000E+009;1.948969215154648E-001;3.798828274011612E-002;-3.475149278528988E-004;1.174417673610151E-003;
2.406666666666667E+009;1.953025013208389E-001;3.808361291885376E-002;-2.437362127238885E-004;9.489977383054793E-004;
2.406833333333334E+009;1.958002299070358E-001;3.787965700030327E-002;-1.066179247573018E-004;1.258495496585965E-003;
2.407000000000000E+009;1.961013078689575E-001;3.821629285812378E-002;-9.081570169655606E-005;1.214307965710759E-003;
2.407166666666667E+009;1.965029388666153E-001;3.797232732176781E-002;5.239285746938549E-005;1.252720481716096E-003;
2.407333333333334E+009;1.963880807161331E-001;3.792535886168480E-002;7.888973777880892E-005;1.137695391662419E-003;
2.407500000000000E+009;1.963287442922592E-001;3.805816918611527E-002;1.167177906609140E-004;1.220462843775749E-003;
2.407666666666667E+009;1.963864862918854E-001;3.783622011542320E-002;1.456573518225923E-004;1.156922895461321E-003;
2.407833333333334E+009;1.957941949367523E-001;3.767445683479309E-002;8.690232789376751E-005;1.104712602682412E-003;
2.408000000000000E+009;1.957228034734726E-001;3.757708892226219E-002;4.284498863853514E-004;1.176193589344621E-003;
2.408166666666667E+009;1.951134502887726E-001;3.715448826551437E-002;4.185458237770945E-004;1.002002623863518E-003;
2.408333333333334E+009;1.947017610073090E-001;3.671944886445999E-002;3.699733060784638E-004;1.114265993237495E-003;
2.408500000000000E+009;1.939889192581177E-001;3.622325509786606E-002;6.094676209613681E-004;1.100580790080130E-003;
2.408666666666667E+009;1.934067755937576E-001;3.570435196161270E-002;5.741236964240670E-004;1.219549798406661E-003;
2.408833333333334E+009;1.926783621311188E-001;3.477568924427033E-002;5.943154101260006E-004;1.152820070274174E-003;
2.409000000000000E+009;1.916991174221039E-001;3.398951143026352E-002;5.769529379904270E-004;1.227694912813604E-003;
2.409166666666667E+009;1.907605081796646E-001;3.291106969118118E-002;7.377378060482442E-004;9.418731788173318E-004;
2.409333333333334E+009;1.899958401918411E-001;3.187498077750206E-002;8.772580767981708E-004;1.012249733321369E-003;
2.409500000000000E+009;1.887611001729965E-001;3.058467619121075E-002;7.708379998803139E-004;1.024329103529453E-003;
2.409666666666667E+009;1.877392083406448E-001;2.905013598501682E-002;1.003866898827255E-003;9.193024015985429E-004;
2.409833333333334E+009;1.868609488010407E-001;2.763334661722183E-002;9.524768101982772E-004;7.850180263631046E-004;
2.410000000000000E+009;1.858590692281723E-001;2.576775848865509E-002;1.066542346961796E-003;7.925363606773317E-004;
2.410166666666667E+009;1.848982721567154E-001;2.398517355322838E-002;9.319284581579268E-004;7.054848829284310E-004;
2.410333333333334E+009;1.838929802179337E-001;2.233504317700863E-002;9.119143360294402E-004;5.664511700160801E-004;
2.410500000000000E+009;1.829540133476257E-001;2.018509618937969E-002;1.018478418700397E-003;4.896965692751110E-004;
2.410666666666667E+009;1.820395141839981E-001;1.804192550480366E-002;1.038800459355116E-003;4.429588152561337E-004;
2.410833333333334E+009;1.814710348844528E-001;1.583836227655411E-002;1.051113940775394E-003;2.945543092209846E-004;
2.411000000000000E+009;1.805308610200882E-001;1.368048880249262E-002;9.812593925744295E-004;2.013724297285080E-004;
2.411166666666667E+009;1.799395382404327E-001;1.150858402252197E-002;9.789336472749710E-004;1.614336651982740E-004;
2.411333333333334E+009;1.794806271791458E-001;9.045550599694252E-003;9.634880116209388E-004;2.031918993452564E-004;
2.411500000000000E+009;1.790747791528702E-001;6.483606994152069E-003;1.208727946504951E-003;1.626668818062171E-004;
2.411666666666667E+009;1.790250688791275E-001;4.300564993172884E-003;1.005678321234882E-003;1.354098931187764E-004;
2.411833333333334E+009;1.786606013774872E-001;1.867990242317319E-003;9.608893305994570E-004;7.258007826749235E-005;
2.412000000000000E+009;1.789060682058334E-001;-8.133351802825928E-004;9.999782778322697E-004;-1.106754207285121E-004;
2.412166666666667E+009;1.787891834974289E-001;-2.783857285976410E-003;8.768916013650596E-004;1.378209162794519E-005;
2.412333333333334E+009;1.790570318698883E-001;-5.529377609491348E-003;8.315658196806908E-004;-1.998325315071270E-004;
2.412500000000000E+009;1.797105222940445E-001;-7.730049546808004E-003;7.169094169512391E-004;-1.267223706236109E-004;
2.412666666666667E+009;1.800544857978821E-001;-1.039884332567453E-002;5.694914143532515E-004;-1.849395339377224E-004;
2.412833333333334E+009;1.806843876838684E-001;-1.279320660978556E-002;5.557488766498864E-004;-1.621366682229564E-004;
2.413000000000000E+009;1.813980340957642E-001;-1.496390067040920E-002;6.389657501131296E-004;-1.435542653780431E-004;
2.413166666666667E+009;1.822599917650223E-001;-1.724511571228504E-002;4.615600046236068E-004;-1.420554763171822E-004;
2.413333333333334E+009;1.832342892885208E-001;-1.952423341572285E-002;3.792008210439235E-004;-2.387082349741831E-004;
2.413500000000000E+009;1.839910596609116E-001;-2.186062000691891E-002;3.909967781510204E-004;1.811014808481559E-004;
2.413666666666667E+009;1.850503087043762E-001;-2.389937266707420E-002;3.676490741781890E-004;-3.552349517121911E-005;
2.413833333333334E+009;1.862837076187134E-001;-2.582590095698834E-002;3.708202275447547E-004;1.755268604028970E-004;
2.414000000000000E+009;1.872520595788956E-001;-2.778874151408672E-002;2.463974815327674E-004;1.844077632995322E-004;
2.414166666666667E+009;1.885198205709457E-001;-2.966951951384544E-002;3.648470446933061E-004;1.851877896115184E-004;
2.414333333333334E+009;1.896078586578369E-001;-3.155959025025368E-002;5.936512607149780E-004;4.203719145152718E-004;
2.414500000000000E+009;1.908359825611115E-001;-3.288843855261803E-002;7.217614329420030E-004;5.743567016907036E-004;
2.414666666666667E+009;1.919631510972977E-001;-3.434272110462189E-002;7.498170598410070E-004;4.975897609256208E-004;
2.414833333333334E+009;1.930552870035172E-001;-3.565513342618942E-002;8.374384487979114E-004;4.143059777561575E-004;
2.415000000000000E+009;1.940691918134689E-001;-3.690030425786972E-002;1.059731235727668E-003;3.972968843299896E-004;
2.415166666666667E+009;1.953857690095902E-001;-3.791262581944466E-002;1.002872246317565E-003;3.411772195249796E-004;
2.415333333333334E+009;1.964176148176193E-001;-3.880321979522705E-002;1.107567572034895E-003;3.100027388427407E-004;
2.415500000000000E+009;1.975198984146118E-001;-3.959095478057861E-002;1.118593150749803E-003;2.413565671304241E-004;
2.415666666666667E+009;1.984157562255859E-001;-4.044832661747932E-002;1.132467878051102E-003;4.109647125005722E-005;
2.415833333333334E+009;1.992573291063309E-001;-4.091212153434753E-002;1.099943765439093E-003;8.152197551680729E-005;
2.416000000000000E+009;1.998996287584305E-001;-4.158015176653862E-002;1.162900705821812E-003;-3.207038162145182E-006;
2.416166666666667E+009;2.006264925003052E-001;-4.210560768842697E-002;1.213857554830611E-003;3.345641380292364E-005;
2.416333333333334E+009;2.012644559144974E-001;-4.227482154965401E-002;1.169149414636195E-003;-2.017638762481511E-004;
2.416500000000000E+009;2.016381621360779E-001;-4.259518533945084E-002;1.112350728362799E-003;-2.296325401403010E-004;
2.416666666666667E+009;2.019278556108475E-001;-4.293088614940643E-002;1.231478760018945E-003;-2.027566952165216E-004;
2.416833333333334E+009;2.021079510450363E-001;-4.291600361466408E-002;1.227322150953114E-003;-2.253776328871027E-004;
2.417000000000000E+009;2.021130472421646E-001;-4.304919391870499E-002;1.475377939641476E-003;-3.662560484372079E-004;
2.417166666666667E+009;2.019053250551224E-001;-4.293214902281761E-002;1.411391072906554E-003;-4.527046112343669E-004;
2.417333333333334E+009;2.015638500452042E-001;-4.279597848653793E-002;1.466216752305627E-003;-4.587855073623359E-004;
2.417500000000000E+009;2.013235539197922E-001;-4.284446686506271E-002;1.421458786353469E-003;-7.265866152010858E-004;
2.417666666666667E+009;2.006811052560806E-001;-4.266985133290291E-002;1.374482526443899E-003;-7.335682166740298E-004;
2.417833333333334E+009;2.003507465124130E-001;-4.257753863930702E-002;1.514333998784423E-003;-1.019990420900285E-003;
2.418000000000000E+009;1.996656954288483E-001;-4.224067553877831E-002;1.392684876918793E-003;-9.839996928349137E-004;
2.418166666666667E+009;1.989225149154663E-001;-4.215678572654724E-002;1.230523688718677E-003;-1.187666435725987E-003;
2.418333333333334E+009;1.979485601186752E-001;-4.205844551324844E-002;1.217664103023708E-003;-1.117085455916822E-003;
2.418500000000000E+009;1.968947649002075E-001;-4.201700538396835E-002;1.088646356947720E-003;-1.238047378137708E-003;
2.418666666666667E+009;1.959157288074493E-001;-4.210967570543289E-002;1.195382210426033E-003;-1.093656988814473E-003;
2.418833333333334E+009;1.946600079536438E-001;-4.218286275863648E-002;1.177639234811068E-003;-1.392087782733142E-003;
2.419000000000000E+009;1.934147626161575E-001;-4.247686266899109E-002;1.068438170477748E-003;-1.508545712567866E-003;
2.419166666666667E+009;1.921033263206482E-001;-4.279396682977676E-002;9.395385277457535E-004;-1.593110850080848E-003;
2.419333333333334E+009;1.908112317323685E-001;-4.332554712891579E-002;9.810741757974029E-004;-1.542736543342471E-003;
2.419500000000000E+009;1.893708258867264E-001;-4.370408877730370E-002;8.602106245234609E-004;-1.704055117443204E-003;
2.419666666666667E+009;1.878393292427063E-001;-4.446245729923248E-002;6.965288775973022E-004;-1.582407276146114E-003;
2.419833333333334E+009;1.860989481210709E-001;-4.520093649625778E-002;6.768917082808912E-004;-1.795842777937651E-003;
2.420000000000000E+009;1.846696734428406E-001;-4.613175243139267E-002;6.699525401927531E-004;-1.821165904402733E-003;
2.420166666666667E+009;1.831477880477905E-001;-4.705006629228592E-002;4.849657998420298E-004;-1.993307145312429E-003;
2.420333333333334E+009;1.814991384744644E-001;-4.808085784316063E-002;3.608146798796952E-004;-1.880814787000418E-003;
2.420500000000000E+009;1.798557490110397E-001;-4.949838295578957E-002;3.816788957919926E-004;-2.001159358769655E-003;
2.420666666666667E+009;1.781557500362396E-001;-5.054899677634239E-002;1.991336903301999E-004;-2.003599423915148E-003;
2.420833333333334E+009;1.766418963670731E-001;-5.205215513706207E-002;4.750544394482859E-005;-2.135346876457334E-003;
2.421000000000000E+009;1.751638501882553E-001;-5.378976091742516E-002;-2.266059891553596E-004;-2.017597435042262E-003;
2.421166666666667E+009;1.739176064729691E-001;-5.532849580049515E-002;-2.401832171017304E-004;-2.119990065693855E-003;
2.421333333333334E+009;1.722061634063721E-001;-5.693915486335754E-002;-2.815478947013617E-004;-2.084243344143033E-003;
2.421500000000000E+009;1.711570024490356E-001;-5.866136774420738E-002;-3.706050629261881E-004;-2.081229351460934E-003;
2.421666666666667E+009;1.698089689016342E-001;-6.054902076721191E-002;-4.851037228945643E-004;-2.121732570230961E-003;
2.421833333333334E+009;1.686752587556839E-001;-6.234811991453171E-002;-6.212309817783535E-004;-1.812478527426720E-003;
2.422000000000000E+009;1.676083356142044E-001;-6.433545798063278E-002;-7.779813604429364E-004;-1.820600358769298E-003;
2.422166666666667E+009;1.667924225330353E-001;-6.646437942981720E-002;-8.595143444836140E-004;-1.879513729363680E-003;
2.422333333333334E+009;1.656825542449951E-001;-6.839980930089951E-002;-8.423399995081127E-004;-1.744247507303953E-003;
2.422500000000000E+009;1.649521887302399E-001;-7.037596404552460E-002;-9.309907327406108E-004;-1.726430025883019E-003;
2.422666666666667E+009;1.643700599670410E-001;-7.233238965272903E-002;-9.806932648643851E-004;-1.601515337824822E-003;
2.422833333333334E+009;1.638512313365936E-001;-7.425191253423691E-002;-1.031543477438390E-003;-1.644631614908576E-003;
2.423000000000000E+009;1.634373068809509E-001;-7.631012797355652E-002;-1.186552457511425E-003;-1.485754153691232E-003;
2.423166666666667E+009;1.630125641822815E-001;-7.818836718797684E-002;-1.226211548782885E-003;-1.622991054318845E-003;
2.423333333333334E+009;1.628733128309250E-001;-8.017084747552872E-002;-1.364225987344980E-003;-1.532987342216075E-003;
2.423500000000000E+009;1.626730412244797E-001;-8.203233778476715E-002;-1.523716724477708E-003;-1.427894458174706E-003;
2.423666666666667E+009;1.628097295761108E-001;-8.383417129516602E-002;-1.610138104297221E-003;-1.251317444257438E-003;
2.423833333333334E+009;1.625288128852844E-001;-8.544042706489563E-002;-1.599501934833825E-003;-1.134905032813549E-003;
2.424000000000000E+009;1.627654433250427E-001;-8.706513792276382E-002;-1.711645512841642E-003;-9.325676364824176E-004;
2.424166666666667E+009;1.628219634294510E-001;-8.883107453584671E-002;-1.672103535383940E-003;-1.094834529794753E-003;
2.424333333333334E+009;1.631407886743546E-001;-9.031070023775101E-002;-1.637398148886859E-003;-9.631709544919431E-004;
2.424500000000000E+009;1.635247468948364E-001;-9.189412742853165E-002;-1.732560107484460E-003;-7.071509608067572E-004;
2.424666666666667E+009;1.636462509632111E-001;-9.321423619985580E-002;-1.714571844786406E-003;-6.359713152050972E-004;
2.424833333333334E+009;1.642247438430786E-001;-9.438285976648331E-002;-1.728246570564807E-003;-4.882132052443922E-004;
2.425000000000000E+009;1.647382080554962E-001;-9.563469886779785E-002;-1.836823299527168E-003;-4.405999789014459E-004;
2.425166666666667E+009;1.649135053157806E-001;-9.660913795232773E-002;-1.717489561997354E-003;-5.988429184071720E-004;
2.425333333333334E+009;1.651699990034103E-001;-9.756088256835938E-002;-1.481546671129763E-003;-4.219041438773274E-004;
2.425500000000000E+009;1.656905859708786E-001;-9.859509766101837E-002;-1.742489519529045E-003;-2.205807395512238E-004;
2.425666666666667E+009;1.660735011100769E-001;-9.939383715391159E-002;-1.630937913432717E-003;-2.678426681086421E-004;
2.425833333333334E+009;1.663393676280975E-001;-1.000119820237160E-001;-1.630521379411221E-003;-1.109696822823025E-004;
2.426000000000000E+009;1.667358875274658E-001;-1.003934592008591E-001;-1.618190202862024E-003;-1.608880484127440E-005;
2.426166666666667E+009;1.671265214681625E-001;-1.009942218661308E-001;-1.687324489466846E-003;-5.916200461797416E-005;
2.426333333333334E+009;1.671935766935349E-001;-1.015283167362213E-001;-1.575763686560094E-003;1.535120973130688E-004;
2.426500000000000E+009;1.676069051027298E-001;-1.016434654593468E-001;-1.792632392607629E-003;6.724341074004769E-005;
2.426666666666667E+009;1.678760051727295E-001;-1.019989028573036E-001;-1.539264689199626E-003;1.089450524887070E-004;
2.426833333333334E+009;1.680039018392563E-001;-1.022682115435600E-001;-1.604986027814448E-003;1.807610387913883E-004;
2.427000000000000E+009;1.680507957935333E-001;-1.025007143616676E-001;-1.609900966286659E-003;2.201009483542293E-004;
2.427166666666667E+009;1.680301576852799E-001;-1.026486158370972E-001;-1.678994623944163E-003;3.575214068405330E-004;
2.427333333333334E+009;1.679470539093018E-001;-1.027609333395958E-001;-1.536474796012044E-003;4.893593140877783E-004;
2.427500000000000E+009;1.676839739084244E-001;-1.030370518565178E-001;-1.618775539100170E-003;4.507726989686489E-004;
2.427666666666667E+009;1.672774106264114E-001;-1.030179485678673E-001;-1.306150224991143E-003;4.148482112213969E-004;
2.427833333333334E+009;1.668712198734283E-001;-1.033113598823547E-001;-1.342369127087295E-003;4.169150779489428E-004;
