# Version 1.00
#
freq[Hz];re:Trc1_S11;im:Trc1_S11;re:Trc2_S21;im:Trc2_S21;
2.400000000000000E+009;1.554794907569885E-001;1.066557243466377E-001;-5.281869787722826E-003;7.946889381855726E-004;
2.400166666666667E+009;1.552387624979019E-001;1.042532920837402E-001;-5.332930944859982E-003;1.160803018137813E-003;
2.400333333333334E+009;1.550106257200241E-001;1.019726097583771E-001;-5.131660029292107E-003;1.312752137891948E-003;
2.400500000000000E+009;1.551290005445480E-001;9.935360401868820E-002;-4.993167240172625E-003;1.686117146164179E-003;
2.400666666666667E+009;1.552883982658386E-001;9.672728925943375E-002;-4.863219801336527E-003;1.640886999666691E-003;
2.400833333333334E+009;1.555022001266480E-001;9.391884505748749E-002;-4.734403453767300E-003;1.666822936385870E-003;
2.401000000000000E+009;1.556032299995422E-001;9.115487337112427E-002;-4.541100002825260E-003;1.887814374640584E-003;
2.401166666666667E+009;1.557157635688782E-001;8.845354616641998E-002;-4.656758159399033E-003;2.067674882709980E-003;
2.401333333333334E+009;1.560938507318497E-001;8.552101254463196E-002;-4.388136789202690E-003;1.984433736652136E-003;
2.401500000000000E+009;1.566112339496613E-001;8.282142132520676E-002;-4.385126288980246E-003;2.099772449582815E-003;
2.401666666666667E+009;1.567768007516861E-001;7.981128245592117E-002;-4.314295016229153E-003;2.252155682072043E-003;
2.401833333333334E+009;1.574231237173080E-001;7.712139189243317E-002;-4.413212183862925E-003;2.218365436419845E-003;
2.402000000000000E+009;1.582840383052826E-001;7.434979081153870E-002;-4.140967503190041E-003;2.337701851502061E-003;
2.402166666666667E+009;1.591874957084656E-001;7.187037914991379E-002;-4.372786264866591E-003;2.533161081373692E-003;
2.402333333333334E+009;1.604484170675278E-001;6.930322200059891E-002;-3.733631223440170E-003;2.306517679244280E-003;
2.402500000000000E+009;1.614105105400085E-001;6.633570045232773E-002;-4.327950067818165E-003;2.286254428327084E-003;
2.402666666666667E+009;1.629363000392914E-001;6.387557834386826E-002;-4.390206187963486E-003;1.736537204124034E-003;
2.402833333333334E+009;1.640176773071289E-001;6.189630553126335E-002;-3.724751761183143E-003;2.515194239094853E-003;
2.403000000000000E+009;1.657297164201737E-001;6.012097746133804E-002;-2.524057170376182E-003;2.968646818771958E-003;
2.403166666666667E+009;1.670249253511429E-001;5.758135393261910E-002;-3.477579681202769E-003;3.269865177571774E-003;
2.403333333333334E+009;1.683996170759201E-001;5.531604215502739E-002;-3.399188164621592E-003;3.391225123777986E-003;
2.403500000000000E+009;1.701285839080811E-001;5.337647721171379E-002;-3.298560157418251E-003;3.341331612318754E-003;
2.403666666666667E+009;1.718121170997620E-001;5.145886540412903E-002;-3.161949338391423E-003;3.490724368020892E-003;
2.403833333333334E+009;1.734774708747864E-001;4.961907118558884E-002;-3.022679127752781E-003;3.427274292334914E-003;
2.404000000000000E+009;1.750914007425308E-001;4.777750745415688E-002;-2.732929540798068E-003;3.636676119640470E-003;
2.404166666666667E+009;1.766961216926575E-001;4.644368216395378E-002;-2.496555680409074E-003;3.596677910536528E-003;
2.404333333333334E+009;1.783460229635239E-001;4.479529336094856E-002;-2.485714852809906E-003;3.762905020266771E-003;
2.404500000000000E+009;1.799233108758926E-001;4.350341483950615E-002;-2.433218294754624E-003;3.838431555777788E-003;
2.404666666666667E+009;1.815047711133957E-001;4.234805330634117E-002;-2.181460149586201E-003;3.793734591454268E-003;
2.404833333333334E+009;1.831062138080597E-001;4.137048870325089E-002;-2.105400199070573E-003;3.773701842874289E-003;
2.405000000000000E+009;1.848523914813995E-001;4.069503024220467E-002;-1.101039699278772E-003;3.634816035628319E-003;
2.405166666666667E+009;1.858785301446915E-001;3.995693475008011E-002;-1.668307348154485E-003;3.745539812371135E-003;
2.405333333333334E+009;1.871960163116455E-001;3.950785100460053E-002;-1.649657031521201E-003;3.671417944133282E-003;
2.405500000000000E+009;1.886353641748428E-001;3.927903994917870E-002;-1.258029020391405E-003;4.108413588255644E-003;
2.405666666666667E+009;1.895690560340881E-001;3.803974390029907E-002;-2.271489240229130E-003;2.849109936505556E-003;
2.405833333333334E+009;1.911288499832153E-001;3.830310702323914E-002;-1.028196769766510E-003;3.442854620516300E-003;
2.406000000000000E+009;1.921401023864746E-001;3.823086619377136E-002;-1.276805764064193E-003;3.687423653900623E-003;
2.406166666666667E+009;1.929619312286377E-001;3.799610584974289E-002;-1.127992291003466E-003;3.517798148095608E-003;
2.406333333333334E+009;1.939608305692673E-001;3.794972971081734E-002;-1.150795258581638E-003;3.338324138894677E-003;
2.406500000000000E+009;1.945603787899017E-001;3.802070021629334E-002;-8.794411551207304E-004;3.397235646843910E-003;
2.406666666666667E+009;1.953180283308029E-001;3.793691098690033E-002;-9.288720320910215E-004;3.491276875138283E-003;
2.406833333333334E+009;1.957329362630844E-001;3.795754536986351E-002;-9.451814694330096E-004;3.335446352139115E-003;
2.407000000000000E+009;1.960402876138687E-001;3.811030089855194E-002;-9.052295936271548E-004;3.401024034246802E-003;
2.407166666666667E+009;1.963873654603958E-001;3.782788291573525E-002;-8.253416744992137E-004;3.488190937787294E-003;
2.407333333333334E+009;1.962818950414658E-001;3.796430677175522E-002;-7.563781109638512E-004;3.456235164776444E-003;
2.407500000000000E+009;1.962414383888245E-001;3.788287937641144E-002;-7.562296814285219E-004;3.347258083522320E-003;
2.407666666666667E+009;1.963812559843063E-001;3.782479837536812E-002;-6.086287321522832E-004;3.447704249992967E-003;
2.407833333333334E+009;1.959734112024307E-001;3.764935955405235E-002;-6.883810274302959E-004;3.247304121032357E-003;
2.408000000000000E+009;1.956405639648438E-001;3.741852194070816E-002;-7.389168022200465E-004;3.191632684320211E-003;
2.408166666666667E+009;1.951637417078018E-001;3.721082955598831E-002;-6.299667293205857E-004;3.404429182410240E-003;
2.408333333333334E+009;1.947427988052368E-001;3.651699423789978E-002;-7.022436475381255E-004;3.308934159576893E-003;
2.408500000000000E+009;1.940435320138931E-001;3.618371486663818E-002;-5.314499139785767E-004;3.213118063285947E-003;
2.408666666666667E+009;1.933911144733429E-001;3.557789325714111E-002;-7.883941871114075E-004;3.180454485118389E-003;
2.408833333333334E+009;1.926523149013519E-001;3.483502566814423E-002;-7.443787180818617E-004;3.235559677705169E-003;
2.409000000000000E+009;1.917421072721481E-001;3.382840380072594E-002;-6.268874276429415E-004;3.401154186576605E-003;
2.409166666666667E+009;1.907158792018890E-001;3.282955661416054E-002;-7.414650754071772E-004;3.416974097490311E-003;
2.409333333333334E+009;1.899385750293732E-001;3.171719983220100E-002;-7.586374995298684E-004;3.464347915723920E-003;
2.409500000000000E+009;1.887163966894150E-001;3.044324740767479E-002;-7.149322773329914E-004;3.570812987163663E-003;
2.409666666666667E+009;1.878306567668915E-001;2.908537909388542E-002;-7.731541991233826E-004;3.592806868255138E-003;
2.409833333333334E+009;1.867203861474991E-001;2.758660539984703E-002;-7.248629117384553E-004;3.910553641617298E-003;
2.410000000000000E+009;1.859252750873566E-001;2.583099715411663E-002;-5.199747974984348E-004;3.975603263825178E-003;
2.410166666666667E+009;1.848047524690628E-001;2.397717349231243E-002;-4.426669038366526E-004;4.101938568055630E-003;
2.410333333333334E+009;1.839140057563782E-001;2.222027629613876E-002;-2.758238697424531E-004;4.098379518836737E-003;
2.410500000000000E+009;1.828276515007019E-001;2.024779096245766E-002;-1.710110955173150E-004;4.174875561147928E-003;
2.410666666666667E+009;1.820727288722992E-001;1.802323013544083E-002;4.328010982135311E-005;4.255903419107199E-003;
2.410833333333334E+009;1.815034002065659E-001;1.582523435354233E-002;3.002560697495937E-004;4.411161877214909E-003;
2.411000000000000E+009;1.805950552225113E-001;1.357349101454020E-002;3.482964239083231E-004;4.368856083601713E-003;
2.411166666666667E+009;1.800125837326050E-001;1.135349087417126E-002;4.852491256315261E-004;4.305476788431406E-003;
2.411333333333334E+009;1.795335710048676E-001;8.893324062228203E-003;8.057541563175619E-004;4.485328681766987E-003;
2.411500000000000E+009;1.790893822908402E-001;6.470669060945511E-003;9.486877825111151E-004;4.334982018917799E-003;
2.411666666666667E+009;1.789074391126633E-001;4.308504518121481E-003;1.001226250082254E-003;4.443291109055281E-003;
2.411833333333334E+009;1.786964535713196E-001;1.905592042021453E-003;1.178230391815305E-003;4.414296243339777E-003;
2.412000000000000E+009;1.787850111722946E-001;-7.182968547567725E-004;1.376745291054249E-003;4.277101252228022E-003;
2.412166666666667E+009;1.787608563899994E-001;-2.931155730038881E-003;1.419156673364341E-003;4.364945460110903E-003;
2.412333333333334E+009;1.790272891521454E-001;-5.337044596672058E-003;1.645680749788880E-003;4.187323618680239E-003;
2.412500000000000E+009;1.795834600925446E-001;-7.786377798765898E-003;1.805530395358801E-003;4.264227114617825E-003;
2.412666666666667E+009;1.800434142351151E-001;-1.028473116457462E-002;1.857183757238090E-003;4.222001880407333E-003;
2.412833333333334E+009;1.805754750967026E-001;-1.254995167255402E-002;1.970833167433739E-003;4.117852076888084E-003;
2.413000000000000E+009;1.814717054367065E-001;-1.496512163430452E-002;2.258198801428080E-003;4.028999712318182E-003;
2.413166666666667E+009;1.821743249893189E-001;-1.697508059442043E-002;2.287709154188633E-003;4.022075328975916E-003;
2.413333333333334E+009;1.830666363239288E-001;-1.936194859445095E-002;2.464015269652009E-003;3.931947518140078E-003;
2.413500000000000E+009;1.839441955089569E-001;-2.142971195280552E-002;2.504219766706228E-003;3.830831963568926E-003;
2.413666666666667E+009;1.850600242614746E-001;-2.376760914921761E-002;2.819935325533152E-003;3.809573594480753E-003;
2.413833333333334E+009;1.862390786409378E-001;-2.562324143946171E-002;2.820628695189953E-003;3.557964926585555E-003;
2.414000000000000E+009;1.872628182172775E-001;-2.756407856941223E-002;2.933243988081813E-003;3.648497862741351E-003;
2.414166666666667E+009;1.886133253574371E-001;-2.926202490925789E-002;3.096901345998049E-003;3.565184073522687E-003;
2.414333333333334E+009;1.896577179431915E-001;-3.123185411095619E-002;3.088518511503935E-003;3.381365211680532E-003;
2.414500000000000E+009;1.908180415630341E-001;-3.274393826723099E-002;3.244895022362471E-003;3.296645823866129E-003;
2.414666666666667E+009;1.919658035039902E-001;-3.420598432421684E-002;3.293721703812480E-003;3.108450910076499E-003;
2.414833333333334E+009;1.930988579988480E-001;-3.548512235283852E-002;3.583694342523813E-003;3.186821006238461E-003;
2.415000000000000E+009;1.941108405590057E-001;-3.672520443797112E-002;3.513307310640812E-003;3.048168728128076E-003;
2.415166666666667E+009;1.952619254589081E-001;-3.771010786294937E-002;3.831385634839535E-003;2.793096937239170E-003;
2.415333333333334E+009;1.965034306049347E-001;-3.866538777947426E-002;3.725753165781498E-003;2.754425629973412E-003;
2.415500000000000E+009;1.974797546863556E-001;-3.934839740395546E-002;3.809200134128332E-003;2.597571583464742E-003;
2.415666666666667E+009;1.984200477600098E-001;-4.027751460671425E-002;3.851340152323246E-003;2.377309370785952E-003;
2.415833333333334E+009;1.993685513734818E-001;-4.078721627593041E-002;3.919254057109356E-003;2.351970179006457E-003;
2.416000000000000E+009;2.000637203454971E-001;-4.147063940763474E-002;4.169923253357410E-003;2.009930089116097E-003;
2.416166666666667E+009;2.007985115051270E-001;-4.201476648449898E-002;4.057963844388723E-003;1.976633677259088E-003;
2.416333333333334E+009;2.014173269271851E-001;-4.220208898186684E-002;4.116231575608254E-003;1.869146130047739E-003;
2.416500000000000E+009;2.020090520381928E-001;-4.259137064218521E-002;4.243485629558563E-003;1.813303679227829E-003;
2.416666666666667E+009;2.020966857671738E-001;-4.287967830896378E-002;4.083942156285048E-003;1.653488609008491E-003;
2.416833333333334E+009;2.022521495819092E-001;-4.291283339262009E-002;4.150316584855318E-003;1.341578434221447E-003;
2.417000000000000E+009;2.023525685071945E-001;-4.302937909960747E-002;4.232025239616633E-003;1.508240820840001E-003;
2.417166666666667E+009;2.020056098699570E-001;-4.295372962951660E-002;4.353281576186419E-003;1.229694229550660E-003;
2.417333333333334E+009;2.018188685178757E-001;-4.285097867250443E-002;4.258069675415754E-003;9.707167046144605E-004;
2.417500000000000E+009;2.013943493366242E-001;-4.287161305546761E-002;4.425492603331804E-003;9.227928821928799E-004;
2.417666666666667E+009;2.009445875883102E-001;-4.260420799255371E-002;4.380528815090656E-003;8.278511231765151E-004;
2.417833333333334E+009;2.004815489053726E-001;-4.246468469500542E-002;4.380391445010901E-003;7.234197109937668E-004;
2.418000000000000E+009;1.997462958097458E-001;-4.235503077507019E-002;4.618508275598288E-003;5.635386914946139E-004;
2.418166666666667E+009;1.990572661161423E-001;-4.225394129753113E-002;4.407580010592938E-003;4.046848043799400E-004;
2.418333333333334E+009;1.979990899562836E-001;-4.215719550848007E-002;4.454618785530329E-003;2.746478421613574E-004;
2.418500000000000E+009;1.970665752887726E-001;-4.218149185180664E-002;4.496324807405472E-003;-5.608539140666835E-005;
2.418666666666667E+009;1.960517466068268E-001;-4.216481745243073E-002;4.389705136418343E-003;-2.493331267032772E-004;
2.418833333333334E+009;1.947309970855713E-001;-4.238525032997131E-002;4.255609586834908E-003;-2.373315510340035E-004;
2.419000000000000E+009;1.934872269630432E-001;-4.258356988430023E-002;4.197765607386828E-003;-4.711865913122892E-004;
2.419166666666667E+009;1.923510432243347E-001;-4.291934147477150E-002;4.074703902006149E-003;-6.060459418222308E-004;
2.419333333333334E+009;1.908521205186844E-001;-4.335186257958412E-002;4.010036587715149E-003;-7.058674818836153E-004;
2.419500000000000E+009;1.893848776817322E-001;-4.394743219017983E-002;3.742774715647101E-003;-8.883374975994229E-004;
2.419666666666667E+009;1.878695487976074E-001;-4.462333768606186E-002;3.799613332375884E-003;-9.073661640286446E-004;
2.419833333333334E+009;1.862138509750366E-001;-4.528844356536865E-002;3.702291520312429E-003;-9.660799987614155E-004;
2.420000000000000E+009;1.846123784780502E-001;-4.627182334661484E-002;3.548330161720514E-003;-1.011772197671235E-003;
2.420166666666667E+009;1.831273436546326E-001;-4.726686701178551E-002;3.450860036537051E-003;-9.924974292516708E-004;
2.420333333333334E+009;1.815470010042191E-001;-4.852148145437241E-002;3.450651187449694E-003;-1.000872114673257E-003;
2.420500000000000E+009;1.799984127283096E-001;-4.972544312477112E-002;3.324566176161170E-003;-9.566670050844550E-004;
2.420666666666667E+009;1.783117949962616E-001;-5.093383416533470E-002;3.390008583664894E-003;-8.711453410796821E-004;
2.420833333333334E+009;1.767423152923584E-001;-5.229873210191727E-002;3.349165432155132E-003;-9.914472466334701E-004;
2.421000000000000E+009;1.752139329910278E-001;-5.400604754686356E-002;3.278999123722315E-003;-1.011073589324951E-003;
2.421166666666667E+009;1.739107370376587E-001;-5.547045916318893E-002;3.327919170260429E-003;-1.030423794873059E-003;
2.421333333333334E+009;1.723867058753967E-001;-5.728817358613014E-002;3.478066530078650E-003;-1.102418988011777E-003;
2.421500000000000E+009;1.711154580116272E-001;-5.900783836841583E-002;3.266074461862445E-003;-1.178687089122832E-003;
2.421666666666667E+009;1.697880923748016E-001;-6.092842668294907E-002;3.419032087549567E-003;-1.148656359873712E-003;
2.421833333333334E+009;1.686684489250183E-001;-6.255505234003067E-002;3.388403216376901E-003;-1.398214255459607E-003;
2.422000000000000E+009;1.677887588739395E-001;-6.452707946300507E-002;3.372807055711746E-003;-1.441418891772628E-003;
2.422166666666667E+009;1.668886989355087E-001;-6.663285940885544E-002;3.366014687344432E-003;-1.485047279857099E-003;
2.422333333333334E+009;1.656618267297745E-001;-6.864817440509796E-002;3.264161990955472E-003;-1.617499743588269E-003;
2.422500000000000E+009;1.650471240282059E-001;-7.055675238370895E-002;3.272762522101402E-003;-1.619935384951532E-003;
2.422666666666667E+009;1.644463688135147E-001;-7.252798974514008E-002;3.072824096307159E-003;-1.720549771562219E-003;
2.422833333333334E+009;1.638241112232208E-001;-7.461774349212647E-002;3.261920064687729E-003;-1.692600897513330E-003;
2.423000000000000E+009;1.633929461240768E-001;-7.649249583482742E-002;2.996723633259535E-003;-1.907855737954378E-003;
2.423166666666667E+009;1.630311459302902E-001;-7.851134985685349E-002;2.857704181224108E-003;-1.917658140882850E-003;
2.423333333333334E+009;1.628584414720535E-001;-8.047889918088913E-002;3.034185850992799E-003;-1.933885389007628E-003;
2.423500000000000E+009;1.626318693161011E-001;-8.217223733663559E-002;2.919618040323257E-003;-2.136943629011512E-003;
2.423666666666667E+009;1.626189649105072E-001;-8.399806171655655E-002;2.871591364964843E-003;-2.087538829073310E-003;
2.423833333333334E+009;1.627609282732010E-001;-8.568973094224930E-002;2.650992246344686E-003;-1.969323726370931E-003;
2.424000000000000E+009;1.627654880285263E-001;-8.740467578172684E-002;2.802331699058414E-003;-1.965024042874575E-003;
2.424166666666667E+009;1.628588587045670E-001;-8.890957385301590E-002;2.797228517010808E-003;-2.091580769047141E-003;
2.424333333333334E+009;1.630771905183792E-001;-9.035771340131760E-002;2.735496498644352E-003;-2.228329190984368E-003;
2.424500000000000E+009;1.633332818746567E-001;-9.212914109230042E-002;2.774189459159970E-003;-2.197154564782977E-003;
2.424666666666667E+009;1.634971350431442E-001;-9.331318736076355E-002;2.647194312885404E-003;-2.313355449587107E-003;
2.424833333333334E+009;1.641530990600586E-001;-9.468811750411987E-002;2.767868340015411E-003;-2.357222139835358E-003;
2.425000000000000E+009;1.643813252449036E-001;-9.578263759613037E-002;2.744444413110614E-003;-2.374983625486493E-003;
2.425166666666667E+009;1.647908985614777E-001;-9.674088656902313E-002;2.678761724382639E-003;-2.487040357664228E-003;
2.425333333333334E+009;1.650289446115494E-001;-9.790283441543579E-002;2.712953137233853E-003;-2.616287674754858E-003;
2.425500000000000E+009;1.656271219253540E-001;-9.870491921901703E-002;2.561060478910804E-003;-2.587469993159175E-003;
2.425666666666667E+009;1.660138964653015E-001;-9.929076582193375E-002;2.661718055605888E-003;-2.797022229060531E-003;
2.425833333333334E+009;1.661691516637802E-001;-1.002297252416611E-001;2.573297824710608E-003;-3.063973970711231E-003;
2.426000000000000E+009;1.664917618036270E-001;-1.005288213491440E-001;2.377717522904277E-003;-2.852272242307663E-003;
2.426166666666667E+009;1.669692546129227E-001;-1.010678261518478E-001;2.396363997831941E-003;-3.022329648956657E-003;
2.426333333333334E+009;1.672237962484360E-001;-1.015736237168312E-001;2.382753416895866E-003;-3.095346968621016E-003;
2.426500000000000E+009;1.676156967878342E-001;-1.017574816942215E-001;2.420958364382386E-003;-3.483923850581050E-003;
2.426666666666667E+009;1.677869260311127E-001;-1.020895391702652E-001;2.084261504933238E-003;-3.396716434508562E-003;
2.426833333333334E+009;1.679432094097138E-001;-1.024859696626663E-001;2.006350550800562E-003;-3.308026818558574E-003;
2.427000000000000E+009;1.678499728441238E-001;-1.024945303797722E-001;2.005891641601920E-003;-3.440577071160078E-003;
2.427166666666667E+009;1.679883003234863E-001;-1.026920899748802E-001;1.971652964130044E-003;-3.549136687070131E-003;
2.427333333333334E+009;1.677742898464203E-001;-1.029326468706131E-001;1.913138665258884E-003;-3.657840890809894E-003;
2.427500000000000E+009;1.675641983747482E-001;-1.031675040721893E-001;1.840308425016701E-003;-3.797463839873672E-003;
2.427666666666667E+009;1.672230660915375E-001;-1.032083705067635E-001;1.628813217394054E-003;-3.828798420727253E-003;
2.427833333333334E+009;1.667873561382294E-001;-1.034565716981888E-001;1.669204095378518E-003;-3.914617002010346E-003;
