# Version 1.00
#
freq[Hz];re:Trc1_S11;im:Trc1_S11;re:Trc2_S21;im:Trc2_S21;
2.400000000000000E+009;1.552396714687347E-001;1.066825985908508E-001;-5.361272487789393E-003;1.046212273649871E-003;
2.400166666666667E+009;1.551991105079651E-001;1.043319255113602E-001;-5.134256090968847E-003;1.187988207675517E-003;
2.400333333333334E+009;1.550063639879227E-001;1.020785570144653E-001;-5.135954823344946E-003;1.331486389972270E-003;
2.400500000000000E+009;1.551485806703568E-001;9.922670572996140E-002;-4.975751042366028E-003;1.588017097674310E-003;
2.400666666666667E+009;1.553146541118622E-001;9.677783399820328E-002;-4.762464202940464E-003;1.602956443093717E-003;
2.400833333333334E+009;1.553411930799484E-001;9.402806311845779E-002;-4.740413278341293E-003;1.748783863149583E-003;
2.401000000000000E+009;1.555838882923126E-001;9.093531221151352E-002;-4.647148307412863E-003;1.971860416233540E-003;
2.401166666666667E+009;1.556513607501984E-001;8.838751912117004E-002;-4.610788542777300E-003;1.899531227536500E-003;
2.401333333333334E+009;1.561946570873261E-001;8.546186983585358E-002;-4.573906771838665E-003;1.917098532430828E-003;
2.401500000000000E+009;1.565824896097183E-001;8.267800509929657E-002;-4.594042897224426E-003;2.211824059486389E-003;
2.401666666666667E+009;1.569648087024689E-001;7.987171411514282E-002;-4.433415830135346E-003;2.180928364396095E-003;
2.401833333333334E+009;1.574967205524445E-001;7.720962166786194E-002;-4.515259526669979E-003;2.495538908988237E-003;
2.402000000000000E+009;1.584928184747696E-001;7.440293580293655E-002;-4.258156754076481E-003;2.430520486086607E-003;
2.402166666666667E+009;1.592458486557007E-001;7.181205600500107E-002;-4.181451164186001E-003;2.559041604399681E-003;
2.402333333333334E+009;1.602666676044464E-001;6.930621713399887E-002;-4.103756509721279E-003;2.692637266591191E-003;
2.402500000000000E+009;1.612963229417801E-001;6.683324277400971E-002;-4.018489271402359E-003;2.883716486394405E-003;
2.402666666666667E+009;1.625846922397614E-001;6.441680341959000E-002;-3.765154629945755E-003;2.915791701525450E-003;
2.402833333333334E+009;1.638916879892349E-001;6.194216385483742E-002;-3.714833408594132E-003;3.064403310418129E-003;
2.403000000000000E+009;1.652209758758545E-001;5.959004908800125E-002;-3.494142089039087E-003;3.148234449326992E-003;
2.403166666666667E+009;1.669321358203888E-001;5.755929648876190E-002;-3.508766181766987E-003;3.105877898633480E-003;
2.403333333333334E+009;1.684535741806030E-001;5.548588931560516E-002;-3.358327550813556E-003;3.221262246370316E-003;
2.403500000000000E+009;1.700997501611710E-001;5.324120447039604E-002;-3.166541224345565E-003;3.392680315300822E-003;
2.403666666666667E+009;1.718692481517792E-001;5.143759772181511E-002;-3.083795309066773E-003;3.647823119536042E-003;
2.403833333333334E+009;1.734918951988220E-001;4.971121996641159E-002;-3.156386082991958E-003;3.585346275940538E-003;
2.404000000000000E+009;1.750247925519943E-001;4.783587530255318E-002;-2.745275618508458E-003;3.609555773437023E-003;
2.404166666666667E+009;1.767290383577347E-001;4.631871730089188E-002;-2.602503169327974E-003;3.709878074005246E-003;
2.404333333333334E+009;1.782946586608887E-001;4.473701491951942E-002;-2.529912861064076E-003;3.658196888864040E-003;
2.404500000000000E+009;1.797514706850052E-001;4.335217550396919E-002;-2.164226025342941E-003;3.664411604404450E-003;
2.404666666666667E+009;1.814106851816177E-001;4.247776418924332E-002;-2.294935518875718E-003;3.934193868190050E-003;
2.404833333333334E+009;1.831451952457428E-001;4.137087613344193E-002;-2.002717228606343E-003;3.814182709902525E-003;
2.405000000000000E+009;1.843800544738770E-001;4.068277776241303E-002;-1.792599447071552E-003;3.947953227907419E-003;
2.405166666666667E+009;1.857738047838211E-001;3.998458757996559E-002;-1.638359623029828E-003;3.722268156707287E-003;
2.405333333333334E+009;1.871510595083237E-001;3.951674699783325E-002;-1.696002203971148E-003;3.651848761364818E-003;
2.405500000000000E+009;1.883814334869385E-001;3.918269276618958E-002;-1.521510188467801E-003;3.670288715511560E-003;
2.405666666666667E+009;1.896187663078308E-001;3.866241499781609E-002;-1.409433316439390E-003;3.702658461406827E-003;
2.405833333333334E+009;1.911643892526627E-001;3.825313970446587E-002;-1.205941662192345E-003;3.702118294313550E-003;
2.406000000000000E+009;1.918373107910156E-001;3.803603723645210E-002;-1.167066046036780E-003;3.698013024404645E-003;
2.406166666666667E+009;1.929188221693039E-001;3.811213746666908E-002;-1.133225974626839E-003;3.714012680575252E-003;
2.406333333333334E+009;1.938469856977463E-001;3.806526213884354E-002;-9.687172714620829E-004;3.545505460351706E-003;
2.406500000000000E+009;1.946899741888046E-001;3.795521706342697E-002;-1.029145205393434E-003;3.467746078968048E-003;
2.406666666666667E+009;1.952193230390549E-001;3.807479143142700E-002;-9.595314622856677E-004;3.476019715890288E-003;
2.406833333333334E+009;1.955126225948334E-001;3.781108558177948E-002;-7.417601882480085E-004;3.406925825402141E-003;
2.407000000000000E+009;1.959188729524612E-001;3.816965222358704E-002;-8.703929488547146E-004;3.364070784300566E-003;
2.407166666666667E+009;1.963620036840439E-001;3.787901997566223E-002;-6.994589348323643E-004;3.160146065056324E-003;
2.407333333333334E+009;1.962923109531403E-001;3.798189014196396E-002;-7.099187350831926E-004;3.377760760486126E-003;
2.407500000000000E+009;1.961792260408402E-001;3.796324878931046E-002;-6.353876087814570E-004;3.331179032102227E-003;
2.407666666666667E+009;1.961174160242081E-001;3.782351315021515E-002;-6.761379772797227E-004;3.193769371137023E-003;
2.407833333333334E+009;1.957711726427078E-001;3.765331953763962E-002;-7.708916673436761E-004;3.260228550061584E-003;
2.408000000000000E+009;1.956898719072342E-001;3.746980801224709E-002;-4.770357918459922E-004;3.286220366135240E-003;
2.408166666666667E+009;1.951260864734650E-001;3.708413243293762E-002;-6.112180999480188E-004;3.289029933512211E-003;
2.408333333333334E+009;1.946431100368500E-001;3.645721077919006E-002;-5.784874083474279E-004;3.392503596842289E-003;
2.408500000000000E+009;1.939054876565933E-001;3.608801588416100E-002;-5.900528631173074E-004;3.208382520824671E-003;
2.408666666666667E+009;1.933828145265579E-001;3.550707176327705E-002;-6.000824505463243E-004;3.346611512824893E-003;
2.408833333333334E+009;1.926106959581375E-001;3.466965630650520E-002;-7.299490389414132E-004;3.413848113268614E-003;
2.409000000000000E+009;1.915828734636307E-001;3.386019170284271E-002;-6.010485813021660E-004;3.421996021643281E-003;
2.409166666666667E+009;1.908894777297974E-001;3.276929631829262E-002;-7.006065570749342E-004;3.560061566531658E-003;
2.409333333333334E+009;1.899244189262390E-001;3.173560276627541E-002;-5.303092766553164E-004;3.534338437020779E-003;
2.409500000000000E+009;1.887210011482239E-001;3.043403849005699E-002;-5.681191105395556E-004;3.618717659264803E-003;
2.409666666666667E+009;1.878329217433929E-001;2.906870469450951E-002;-5.196166457608342E-004;3.893620800226927E-003;
2.409833333333334E+009;1.868437528610230E-001;2.732323110103607E-002;-5.490474286489189E-004;3.880003700032830E-003;
2.410000000000000E+009;1.858409941196442E-001;2.588498592376709E-002;-1.554054178996012E-004;4.039375577121973E-003;
2.410166666666667E+009;1.847979277372360E-001;2.398428320884705E-002;-4.612320917658508E-004;4.025196656584740E-003;
2.410333333333334E+009;1.838279068470001E-001;2.231895737349987E-002;-2.700191398616880E-004;4.307880531996489E-003;
2.410500000000000E+009;1.827555894851685E-001;2.022068575024605E-002;-2.722982026170939E-004;4.138167016208172E-003;
2.410666666666667E+009;1.820374727249146E-001;1.799693144857884E-002;9.754856000654399E-005;4.299466963857412E-003;
2.410833333333334E+009;1.813238114118576E-001;1.589520648121834E-002;2.306318492628634E-004;4.407270345836878E-003;
2.411000000000000E+009;1.807368248701096E-001;1.359993033111095E-002;4.720939905382693E-004;4.342080093920231E-003;
2.411166666666667E+009;1.800090968608856E-001;1.142719388008118E-002;5.889096646569669E-004;4.477477632462978E-003;
2.411333333333334E+009;1.795838177204132E-001;9.009892120957375E-003;7.392581319436431E-004;4.345690365880728E-003;
2.411500000000000E+009;1.792004406452179E-001;6.604048423469067E-003;9.350869804620743E-004;4.453407600522041E-003;
2.411666666666667E+009;1.789008229970932E-001;4.325743764638901E-003;9.571218397468329E-004;4.448208492249250E-003;
2.411833333333334E+009;1.786329597234726E-001;1.819798955693841E-003;1.063873525708914E-003;4.373165313154459E-003;
2.412000000000000E+009;1.787646412849426E-001;-7.232215139083564E-004;1.370395766571164E-003;4.420065321028233E-003;
2.412166666666667E+009;1.789153367280960E-001;-2.828428056091070E-003;1.336868386715651E-003;4.358937963843346E-003;
2.412333333333334E+009;1.789860874414444E-001;-5.355987232178450E-003;1.768657588399947E-003;4.228819161653519E-003;
2.412500000000000E+009;1.796427518129349E-001;-7.783183827996254E-003;1.833383343182504E-003;4.315311554819346E-003;
2.412666666666667E+009;1.800511479377747E-001;-1.019816007465124E-002;1.928590820170939E-003;4.068274050951004E-003;
2.412833333333334E+009;1.807356923818588E-001;-1.259293220937252E-002;2.051296178251505E-003;4.140664823353291E-003;
2.413000000000000E+009;1.813953220844269E-001;-1.487355120480061E-002;2.219109330326319E-003;3.975745290517807E-003;
2.413166666666667E+009;1.822703778743744E-001;-1.695840060710907E-002;2.534160856157541E-003;4.080154933035374E-003;
2.413333333333334E+009;1.832001209259033E-001;-1.925713382661343E-002;2.579589607194066E-003;4.000635817646980E-003;
2.413500000000000E+009;1.840268373489380E-001;-2.136447280645371E-002;2.636071527376771E-003;3.731010947376490E-003;
2.413666666666667E+009;1.852515041828156E-001;-2.366956882178783E-002;2.777281217277050E-003;3.666748991236091E-003;
2.413833333333334E+009;1.861813664436340E-001;-2.553431876003742E-002;2.866541733965278E-003;3.656313754618168E-003;
2.414000000000000E+009;1.872932314872742E-001;-2.742475271224976E-002;2.993116620928049E-003;3.483519889414311E-003;
2.414166666666667E+009;1.886425614356995E-001;-2.929368987679482E-002;3.044526092708111E-003;3.568951971828938E-003;
2.414333333333334E+009;1.896764785051346E-001;-3.111731447279453E-002;3.100380767136812E-003;3.474746830761433E-003;
2.414500000000000E+009;1.908710449934006E-001;-3.267167508602142E-002;3.305155783891678E-003;3.264045342803001E-003;
2.414666666666667E+009;1.919635981321335E-001;-3.424031287431717E-002;3.240968100726605E-003;3.150192787870765E-003;
2.414833333333334E+009;1.930437386035919E-001;-3.542524576187134E-002;3.453781828284264E-003;2.935546683147550E-003;
2.415000000000000E+009;1.942377835512161E-001;-3.680544346570969E-002;3.606413956731558E-003;3.011637832969427E-003;
2.415166666666667E+009;1.954948604106903E-001;-3.768564388155937E-002;3.736386075615883E-003;2.834919374436140E-003;
2.415333333333334E+009;1.965147703886032E-001;-3.875424340367317E-002;3.737375838682056E-003;2.684162231162190E-003;
2.415500000000000E+009;1.975912749767304E-001;-3.933651372790337E-002;3.831861773505807E-003;2.546522533521056E-003;
2.415666666666667E+009;1.985285431146622E-001;-4.018134996294975E-002;4.025653935968876E-003;2.415264956653118E-003;
2.415833333333334E+009;1.994111388921738E-001;-4.082990437746048E-002;3.912044223397970E-003;2.359060803428292E-003;
2.416000000000000E+009;2.000696212053299E-001;-4.136819019913673E-002;4.004832357168198E-003;2.258922671899200E-003;
2.416166666666667E+009;2.007978260517120E-001;-4.193414375185967E-002;4.048462957143784E-003;1.990637509152293E-003;
2.416333333333334E+009;2.013202458620071E-001;-4.212584719061852E-002;4.211567342281342E-003;1.899884897284210E-003;
2.416500000000000E+009;2.017189115285873E-001;-4.250126704573631E-002;3.969359677284956E-003;1.863079844042659E-003;
2.416666666666667E+009;2.020607739686966E-001;-4.287889599800110E-002;4.256601445376873E-003;1.664418145082891E-003;
2.416833333333334E+009;2.022123932838440E-001;-4.282195121049881E-002;4.206958692520857E-003;1.441702363081276E-003;
2.417000000000000E+009;2.023441791534424E-001;-4.308766499161720E-002;4.438695963472128E-003;1.359897665679455E-003;
2.417166666666667E+009;2.020312398672104E-001;-4.300704225897789E-002;4.303593654185534E-003;1.163142034783959E-003;
2.417333333333334E+009;2.017585933208466E-001;-4.280646145343781E-002;4.465630277991295E-003;9.166647796519101E-004;
2.417500000000000E+009;2.014901489019394E-001;-4.290371388196945E-002;4.391617607325316E-003;9.796991944313049E-004;
2.417666666666667E+009;2.009508311748505E-001;-4.268011823296547E-002;4.582754336297512E-003;8.397288038395345E-004;
2.417833333333334E+009;2.004213929176331E-001;-4.249556362628937E-002;4.590929485857487E-003;7.178664673119783E-004;
2.418000000000000E+009;1.997608989477158E-001;-4.233234003186226E-002;4.337397404015064E-003;3.115151776000857E-004;
2.418166666666667E+009;1.988431811332703E-001;-4.219525307416916E-002;4.496826790273190E-003;2.173244429286569E-004;
2.418333333333334E+009;1.980791389942169E-001;-4.216234758496285E-002;4.535418003797531E-003;7.032850407995284E-005;
2.418500000000000E+009;1.970727443695068E-001;-4.216796532273293E-002;4.622413776814938E-003;-4.227361205266789E-005;
2.418666666666667E+009;1.960721760988236E-001;-4.214063286781311E-002;4.425189923495054E-003;-1.370320387650281E-004;
2.418833333333334E+009;1.947894841432571E-001;-4.237557202577591E-002;4.349482711404562E-003;-3.648056299425662E-004;
2.419000000000000E+009;1.934388279914856E-001;-4.253724962472916E-002;4.332978278398514E-003;-4.503545060288161E-004;
2.419166666666667E+009;1.923083513975143E-001;-4.278953000903130E-002;4.064050968736410E-003;-7.343123434111476E-004;
2.419333333333334E+009;1.908485144376755E-001;-4.336415603756905E-002;4.035989753901959E-003;-7.894822629168630E-004;
2.419500000000000E+009;1.894412338733673E-001;-4.395174607634544E-002;3.927581012248993E-003;-9.624634403735399E-004;
2.419666666666667E+009;1.879311501979828E-001;-4.466310515999794E-002;3.915437497198582E-003;-9.319847449660301E-004;
2.419833333333334E+009;1.862314343452454E-001;-4.535023123025894E-002;3.716807579621673E-003;-9.573656716383994E-004;
2.420000000000000E+009;1.847294270992279E-001;-4.620776697993279E-002;3.612186061218381E-003;-1.002297969534993E-003;
2.420166666666667E+009;1.831655055284500E-001;-4.724116995930672E-002;3.485471708700061E-003;-9.625276434235275E-004;
2.420333333333334E+009;1.815925389528275E-001;-4.831778630614281E-002;3.354294691234827E-003;-1.074167084880173E-003;
2.420500000000000E+009;1.799647510051727E-001;-4.972037300467491E-002;3.370493184775114E-003;-1.040229690261185E-003;
2.420666666666667E+009;1.782731711864471E-001;-5.080733448266983E-002;3.290017135441303E-003;-1.058658352121711E-003;
2.420833333333334E+009;1.766223758459091E-001;-5.231564491987228E-002;3.412856021896005E-003;-1.053901971317828E-003;
2.421000000000000E+009;1.752750575542450E-001;-5.391894653439522E-002;3.345043165609241E-003;-1.195294666104019E-003;
2.421166666666667E+009;1.738287508487701E-001;-5.566812679171562E-002;3.580600256100297E-003;-1.127008115872741E-003;
2.421333333333334E+009;1.723808050155640E-001;-5.719842016696930E-002;3.372318111360073E-003;-8.926260634325445E-004;
2.421500000000000E+009;1.709982901811600E-001;-5.908428505063057E-002;3.364820964634419E-003;-1.166564878076315E-003;
2.421666666666667E+009;1.698404103517532E-001;-6.076728180050850E-002;3.354666754603386E-003;-1.285965438000858E-003;
2.421833333333334E+009;1.687638163566589E-001;-6.265813857316971E-002;3.397433320060372E-003;-1.257282914593816E-003;
2.422000000000000E+009;1.676660776138306E-001;-6.453296542167664E-002;3.372062928974628E-003;-1.416879007592797E-003;
2.422166666666667E+009;1.668347418308258E-001;-6.664540618658066E-002;3.326619975268841E-003;-1.537841977551580E-003;
2.422333333333334E+009;1.656214296817780E-001;-6.861830502748489E-002;3.235786454752088E-003;-1.787050161510706E-003;
2.422500000000000E+009;1.650304347276688E-001;-7.058332860469818E-002;3.283319994807243E-003;-1.687758252955973E-003;
2.422666666666667E+009;1.644143015146256E-001;-7.250528037548065E-002;3.177219303324819E-003;-1.822429592721164E-003;
2.422833333333334E+009;1.639657616615295E-001;-7.457056641578674E-002;2.997497329488397E-003;-1.799464458599687E-003;
2.423000000000000E+009;1.633516252040863E-001;-7.659627497196198E-002;3.065378870815039E-003;-1.888562459498644E-003;
2.423166666666667E+009;1.629373282194138E-001;-7.856289297342300E-002;2.918786369264126E-003;-1.899614231660962E-003;
2.423333333333334E+009;1.627621054649353E-001;-8.031447976827622E-002;2.937483368441463E-003;-2.131202258169651E-003;
2.423500000000000E+009;1.627202928066254E-001;-8.205336332321167E-002;2.763752825558186E-003;-2.095620613545179E-003;
2.423666666666667E+009;1.627840101718903E-001;-8.397394418716431E-002;2.699177712202072E-003;-2.146640792489052E-003;
2.423833333333334E+009;1.625561863183975E-001;-8.582372963428497E-002;2.833317033946514E-003;-2.038039965555072E-003;
2.424000000000000E+009;1.627729237079620E-001;-8.746623247861862E-002;2.691455418244004E-003;-2.205645432695746E-003;
2.424166666666667E+009;1.628458350896835E-001;-8.883433789014816E-002;2.773437416180968E-003;-2.157423412427306E-003;
2.424333333333334E+009;1.630416810512543E-001;-9.042566269636154E-002;2.643093233928084E-003;-2.353441901504993E-003;
2.424500000000000E+009;1.634063273668289E-001;-9.206993877887726E-002;2.753868000581861E-003;-2.224085619673133E-003;
2.424666666666667E+009;1.636558771133423E-001;-9.326440840959549E-002;2.627474023029208E-003;-2.293178578838706E-003;
2.424833333333334E+009;1.641700714826584E-001;-9.474069625139237E-002;2.740052295848727E-003;-2.257666084915400E-003;
2.425000000000000E+009;1.645409166812897E-001;-9.562654793262482E-002;2.561873523518443E-003;-2.383844461292028E-003;
2.425166666666667E+009;1.647636443376541E-001;-9.693111479282379E-002;2.635952085256577E-003;-2.630067057907581E-003;
2.425333333333334E+009;1.649847477674484E-001;-9.769804030656815E-002;2.638143021613360E-003;-2.560902386903763E-003;
2.425500000000000E+009;1.655595451593399E-001;-9.861697256565094E-002;2.536464482545853E-003;-2.565062837675214E-003;
2.425666666666667E+009;1.659351736307144E-001;-9.929616749286652E-002;2.481603296473622E-003;-2.801783382892609E-003;
2.425833333333334E+009;1.661771833896637E-001;-1.002574339509010E-001;2.536046318709850E-003;-2.948684850707650E-003;
2.426000000000000E+009;1.665698289871216E-001;-1.005071029067040E-001;2.465351019054651E-003;-2.883503912016749E-003;
2.426166666666667E+009;1.670860201120377E-001;-1.010630056262016E-001;2.388110151514411E-003;-3.039057366549969E-003;
2.426333333333334E+009;1.670788377523422E-001;-1.015426591038704E-001;2.277247142046690E-003;-3.071228740736842E-003;
2.426500000000000E+009;1.674410253763199E-001;-1.017510518431664E-001;2.245065988972783E-003;-3.182053333148360E-003;
2.426666666666667E+009;1.676936447620392E-001;-1.021833866834641E-001;2.119885524734855E-003;-3.441539127379656E-003;
2.426833333333334E+009;1.679766774177551E-001;-1.024865061044693E-001;2.071003429591656E-003;-3.411737037822604E-003;
2.427000000000000E+009;1.678894311189652E-001;-1.025729328393936E-001;1.971280435100198E-003;-3.490903181955218E-003;
2.427166666666667E+009;1.678952872753143E-001;-1.027986481785774E-001;1.854742644354701E-003;-3.597879316657782E-003;
2.427333333333334E+009;1.677914559841156E-001;-1.030131205916405E-001;1.923952018842101E-003;-3.725796472281218E-003;
2.427500000000000E+009;1.675122231245041E-001;-1.032138913869858E-001;1.805164734832943E-003;-3.756943624466658E-003;
2.427666666666667E+009;1.671857237815857E-001;-1.033283770084381E-001;1.522479695267975E-003;-3.778307931497693E-003;
2.427833333333334E+009;1.667132973670960E-001;-1.034098789095879E-001;1.526156091131270E-003;-3.835994051769376E-003;
