# Version 1.00
#
freq[Hz];re:Trc1_S11;im:Trc1_S11;re:Trc2_S21;im:Trc2_S21;
2.400000000000000E+009;1.552807539701462E-001;1.067974567413330E-001;-5.386432167142630E-003;9.130497928708792E-004;
2.400166666666667E+009;1.550804078578949E-001;1.043048277497292E-001;-5.235112737864256E-003;1.249791239388287E-003;
2.400333333333334E+009;1.551639735698700E-001;1.019819453358650E-001;-5.158758256584406E-003;1.402631751261652E-003;
2.400500000000000E+009;1.552236825227737E-001;9.929790347814560E-002;-5.165732000023127E-003;1.500478596426547E-003;
2.400666666666667E+009;1.553234755992889E-001;9.693469852209091E-002;-4.879612941294909E-003;1.751575153321028E-003;
2.400833333333334E+009;1.553095430135727E-001;9.387077391147614E-002;-4.819037858396769E-003;1.772142364643514E-003;
2.401000000000000E+009;1.556191593408585E-001;9.115611016750336E-002;-4.791662562638521E-003;1.759245758876205E-003;
2.401166666666667E+009;1.556283831596375E-001;8.830591291189194E-002;-4.640020895749331E-003;1.853285706602037E-003;
2.401333333333334E+009;1.560974270105362E-001;8.549372851848602E-002;-4.431475885212421E-003;1.939444453455508E-003;
2.401500000000000E+009;1.565242558717728E-001;8.273213356733322E-002;-4.415032919496298E-003;2.184675773605704E-003;
2.401666666666667E+009;1.568903475999832E-001;7.993564009666443E-002;-4.320505540817976E-003;2.270398894324899E-003;
2.401833333333334E+009;1.572747975587845E-001;7.725498825311661E-002;-4.305425565689802E-003;2.321288455277681E-003;
2.402000000000000E+009;1.581322252750397E-001;7.459186017513275E-002;-4.190578591078520E-003;2.427434781566262E-003;
2.402166666666667E+009;1.590090543031693E-001;7.194600999355316E-002;-4.211805760860443E-003;2.554039936512709E-003;
2.402333333333334E+009;1.599732339382172E-001;6.919220834970474E-002;-3.891490399837494E-003;2.841712674126029E-003;
2.402500000000000E+009;1.612003594636917E-001;6.686375290155411E-002;-4.035789985209703E-003;2.905335975810885E-003;
2.402666666666667E+009;1.624381840229034E-001;6.440155208110809E-002;-3.880851669237018E-003;2.892206190153956E-003;
2.402833333333334E+009;1.637024879455566E-001;6.194241717457771E-002;-3.674049628898501E-003;3.034147666767240E-003;
2.403000000000000E+009;1.652365028858185E-001;5.986877903342247E-002;-3.678422421216965E-003;2.968489890918136E-003;
2.403166666666667E+009;1.667695939540863E-001;5.759375914931297E-002;-3.539567580446601E-003;3.175456309691072E-003;
2.403333333333334E+009;1.684417426586151E-001;5.538044869899750E-002;-3.279704833403230E-003;3.323961282148957E-003;
2.403500000000000E+009;1.700327694416046E-001;5.333274975419045E-002;-3.095458960160613E-003;3.359938506036997E-003;
2.403666666666667E+009;1.718555092811585E-001;5.149606987833977E-002;-3.103999188169837E-003;3.483458654955030E-003;
2.403833333333334E+009;1.733768880367279E-001;4.956914484500885E-002;-3.020635107532144E-003;3.553632181137800E-003;
2.404000000000000E+009;1.747713834047318E-001;4.787252098321915E-002;-2.967311767861247E-003;3.602173645049334E-003;
2.404166666666667E+009;1.767044663429260E-001;4.635857045650482E-002;-2.654739655554295E-003;3.730265190824866E-003;
2.404333333333334E+009;1.783266514539719E-001;4.489332437515259E-002;-2.510112011805177E-003;3.819165285676718E-003;
2.404500000000000E+009;1.799376010894775E-001;4.360162094235420E-002;-2.230160171166062E-003;3.786795539781451E-003;
2.404666666666667E+009;1.814121007919312E-001;4.250212013721466E-002;-2.326400019228458E-003;3.922137431800365E-003;
2.404833333333334E+009;1.830540299415588E-001;4.132959991693497E-002;-2.018284052610397E-003;4.006793722510338E-003;
2.405000000000000E+009;1.843740940093994E-001;4.077655822038651E-002;-1.893732463940978E-003;3.768413560464978E-003;
2.405166666666667E+009;1.858854591846466E-001;3.988528996706009E-002;-1.790800830349326E-003;3.785619046539068E-003;
2.405333333333334E+009;1.873668432235718E-001;3.951077908277512E-002;-1.615858636796475E-003;3.818399971351028E-003;
2.405500000000000E+009;1.886539608240128E-001;3.894083574414253E-002;-1.570688444189727E-003;3.710641758516431E-003;
2.405666666666667E+009;1.897996813058853E-001;3.852255269885063E-002;-1.291898428462446E-003;3.755385288968682E-003;
2.405833333333334E+009;1.911372244358063E-001;3.830583393573761E-002;-1.192762865684927E-003;3.670955775305629E-003;
2.406000000000000E+009;1.918981373310089E-001;3.805533424019814E-002;-1.317981281317771E-003;3.622916294261813E-003;
2.406166666666667E+009;1.929669529199600E-001;3.782764449715614E-002;-1.118270680308342E-003;3.642651252448559E-003;
2.406333333333334E+009;1.939028054475784E-001;3.793679922819138E-002;-1.008204766549170E-003;3.542217193171382E-003;
2.406500000000000E+009;1.947162598371506E-001;3.793241828680039E-002;-1.035641180351377E-003;3.423116402700543E-003;
2.406666666666667E+009;1.952746659517288E-001;3.801821544766426E-002;-1.102611189708114E-003;3.378830617293716E-003;
2.406833333333334E+009;1.957490742206574E-001;3.785651922225952E-002;-1.000227639451623E-003;3.294072812423110E-003;
2.407000000000000E+009;1.961450576782227E-001;3.814219310879707E-002;-8.367662085220218E-004;3.390782279893756E-003;
2.407166666666667E+009;1.964873075485230E-001;3.793669119477272E-002;-8.695269352756441E-004;3.335881279781461E-003;
2.407333333333334E+009;1.963035315275192E-001;3.798810765147209E-002;-7.819498423486948E-004;3.412788501009345E-003;
2.407500000000000E+009;1.961962729692459E-001;3.792824968695641E-002;-7.027232786640525E-004;3.493259893730283E-003;
2.407666666666667E+009;1.963320821523666E-001;3.787160664796829E-002;-6.807278259657323E-004;3.315804526209831E-003;
2.407833333333334E+009;1.956852972507477E-001;3.760201111435890E-002;-7.276503602042794E-004;3.325990168377757E-003;
2.408000000000000E+009;1.957035958766937E-001;3.752870112657547E-002;-7.054688758216798E-004;3.235799958929420E-003;
2.408166666666667E+009;1.950658410787582E-001;3.719670325517654E-002;-6.313549238257110E-004;3.201975952833891E-003;
2.408333333333334E+009;1.947263926267624E-001;3.649920970201492E-002;-7.489149575121701E-004;3.318099305033684E-003;
2.408500000000000E+009;1.940017342567444E-001;3.612239286303520E-002;-7.465840899385512E-004;3.270473331212997E-003;
2.408666666666667E+009;1.933075636625290E-001;3.546992316842079E-002;-7.723188609816134E-004;3.221405902877450E-003;
2.408833333333334E+009;1.927032768726349E-001;3.476869687438011E-002;-6.291684694588184E-004;3.255476476624608E-003;
2.409000000000000E+009;1.917289644479752E-001;3.372398391366005E-002;-7.211265619844198E-004;3.261216916143894E-003;
2.409166666666667E+009;1.907614767551422E-001;3.287489712238312E-002;-6.285713170655072E-004;3.520317142829299E-003;
2.409333333333334E+009;1.898887306451798E-001;3.178017213940620E-002;-8.567866170778871E-004;3.467533737421036E-003;
2.409500000000000E+009;1.887175142765045E-001;3.042924590408802E-002;-6.446001934818924E-004;3.660397836938500E-003;
2.409666666666667E+009;1.878231018781662E-001;2.901431359350681E-002;-6.805502343922854E-004;3.721907036378980E-003;
2.409833333333334E+009;1.866522133350372E-001;2.765859663486481E-002;-5.886180442757905E-004;3.709494136273861E-003;
2.410000000000000E+009;1.858428269624710E-001;2.608792297542095E-002;-6.132108392193914E-004;3.912282176315785E-003;
2.410166666666667E+009;1.848816722631455E-001;2.392279729247093E-002;-3.625732206273824E-004;4.088075831532478E-003;
2.410333333333334E+009;1.839347034692764E-001;2.229076996445656E-002;-2.906177542172372E-004;4.058017861098051E-003;
2.410500000000000E+009;1.828967332839966E-001;2.030220068991184E-002;-1.129282973124646E-004;4.244989715516567E-003;
2.410666666666667E+009;1.820578873157501E-001;1.807176880538464E-002;-4.442421777639538E-005;4.307189956307411E-003;
2.410833333333334E+009;1.814072877168655E-001;1.583735644817352E-002;1.821793266572058E-004;4.340441431850195E-003;
2.411000000000000E+009;1.806390881538391E-001;1.374102104455233E-002;3.114678838755935E-004;4.242617636919022E-003;
2.411166666666667E+009;1.800652891397476E-001;1.147280819714069E-002;5.056385998614132E-004;4.381543956696987E-003;
2.411333333333334E+009;1.796562075614929E-001;8.910333737730980E-003;7.981414091773331E-004;4.460654221475124E-003;
2.411500000000000E+009;1.792241781949997E-001;6.774146109819412E-003;7.583810365758836E-004;4.507758188992739E-003;
2.411666666666667E+009;1.790390312671661E-001;4.233125597238541E-003;1.050680875778198E-003;4.433697089552879E-003;
2.411833333333334E+009;1.786702722311020E-001;1.948903431184590E-003;1.111855730414391E-003;4.398766905069351E-003;
2.412000000000000E+009;1.787942051887512E-001;-7.185180438682437E-004;1.347839483059943E-003;4.488397855311632E-003;
2.412166666666667E+009;1.788198798894882E-001;-2.982713049277663E-003;1.385322306305170E-003;4.453107248991728E-003;
2.412333333333334E+009;1.789942532777786E-001;-5.417051259428263E-003;1.577532151713967E-003;4.416826646775007E-003;
2.412500000000000E+009;1.795414537191391E-001;-7.737376261502504E-003;1.739573548547924E-003;4.300848115235567E-003;
2.412666666666667E+009;1.800811141729355E-001;-1.016292907297611E-002;1.837736228480935E-003;4.309219773858786E-003;
2.412833333333334E+009;1.805780977010727E-001;-1.249062363058329E-002;2.061575185507536E-003;4.206764977425337E-003;
2.413000000000000E+009;1.814451962709427E-001;-1.498789340257645E-002;2.247984055429697E-003;4.083614796400070E-003;
2.413166666666667E+009;1.820987164974213E-001;-1.691686175763607E-002;2.339526079595089E-003;3.943978343158960E-003;
2.413333333333334E+009;1.831893771886826E-001;-1.928192377090454E-002;2.486955141648650E-003;3.942667506635189E-003;
2.413500000000000E+009;1.839309185743332E-001;-2.166535519063473E-002;2.531443024054170E-003;3.736961400136352E-003;
2.413666666666667E+009;1.851049363613129E-001;-2.370307408273220E-002;2.820384223014116E-003;3.759351791813970E-003;
2.413833333333334E+009;1.862819045782089E-001;-2.562280744314194E-002;2.803943119943142E-003;3.589129541069269E-003;
2.414000000000000E+009;1.871964782476425E-001;-2.758313715457916E-002;2.995634451508522E-003;3.557346062734723E-003;
2.414166666666667E+009;1.885910481214523E-001;-2.936746925115585E-002;2.992492401972413E-003;3.333224682137370E-003;
2.414333333333334E+009;1.895747631788254E-001;-3.116379864513874E-002;3.170537995174527E-003;3.347167978063226E-003;
2.414500000000000E+009;1.907996386289597E-001;-3.255278244614601E-002;3.265487262979150E-003;3.222162602469325E-003;
2.414666666666667E+009;1.918670833110809E-001;-3.397765383124352E-002;3.361962269991636E-003;3.277049399912357E-003;
2.414833333333334E+009;1.930658668279648E-001;-3.530611470341682E-002;3.534084884449840E-003;3.132062731310725E-003;
2.415000000000000E+009;1.941732168197632E-001;-3.664285317063332E-002;3.543050028383732E-003;2.841810462996364E-003;
2.415166666666667E+009;1.953958123922348E-001;-3.787412121891975E-002;3.699673106893897E-003;2.835964784026146E-003;
2.415333333333334E+009;1.964613348245621E-001;-3.866728767752647E-002;3.871617838740349E-003;2.633337397128344E-003;
2.415500000000000E+009;1.975443661212921E-001;-3.940895944833756E-002;3.791857510805130E-003;2.511767903342843E-003;
2.415666666666667E+009;1.984235793352127E-001;-4.005640372633934E-002;3.893540939316154E-003;2.387268235906959E-003;
2.415833333333334E+009;1.993217617273331E-001;-4.079284146428108E-002;3.933600615710020E-003;2.218052279204130E-003;
2.416000000000000E+009;2.000384628772736E-001;-4.143201932311058E-002;4.030866082757711E-003;2.055225428193808E-003;
2.416166666666667E+009;2.007818073034287E-001;-4.203063622117043E-002;4.207914229482412E-003;1.910369261167944E-003;
2.416333333333334E+009;2.013643980026245E-001;-4.222196340560913E-002;4.109639674425125E-003;1.854452071711421E-003;
2.416500000000000E+009;2.018684893846512E-001;-4.247592389583588E-002;4.347215872257948E-003;1.763436244800687E-003;
2.416666666666667E+009;2.020535916090012E-001;-4.285355657339096E-002;4.289007280021906E-003;1.491324510425329E-003;
2.416833333333334E+009;2.021423876285553E-001;-4.287928715348244E-002;4.248768556863070E-003;1.598284114152193E-003;
2.417000000000000E+009;2.022976130247116E-001;-4.309235513210297E-002;4.261373076587915E-003;1.547970459796488E-003;
2.417166666666667E+009;2.020284384489059E-001;-4.294698312878609E-002;4.262749105691910E-003;1.219597645103931E-003;
2.417333333333334E+009;2.016769200563431E-001;-4.285323619842529E-002;4.405593499541283E-003;1.028644153848290E-003;
2.417500000000000E+009;2.014062553644180E-001;-4.286428913474083E-002;4.356602206826210E-003;8.709628018550575E-004;
2.417666666666667E+009;2.008543461561203E-001;-4.273330792784691E-002;4.436893388628960E-003;9.273503092117608E-004;
2.417833333333334E+009;2.004756778478622E-001;-4.265946149826050E-002;4.460051655769348E-003;6.852207006886601E-004;
2.418000000000000E+009;1.997792273759842E-001;-4.226313903927803E-002;4.579890053719282E-003;4.715780087281019E-004;
2.418166666666667E+009;1.989369392395020E-001;-4.227846860885620E-002;4.558361601084471E-003;3.553720889613032E-004;
2.418333333333334E+009;1.979630738496780E-001;-4.210525006055832E-002;4.423379432410002E-003;1.487505942350254E-004;
2.418500000000000E+009;1.970264166593552E-001;-4.217587038874626E-002;4.454243928194046E-003;6.023963578627445E-005;
2.418666666666667E+009;1.960940957069397E-001;-4.210638999938965E-002;4.316864069551230E-003;-1.702604786260054E-004;
2.418833333333334E+009;1.948258876800537E-001;-4.236324131488800E-002;4.328494891524315E-003;-2.485371078364551E-004;
2.419000000000000E+009;1.934121102094650E-001;-4.255789890885353E-002;4.209882579743862E-003;-4.336457932367921E-004;
2.419166666666667E+009;1.921987235546112E-001;-4.292651265859604E-002;4.067070782184601E-003;-6.186619866639376E-004;
2.419333333333334E+009;1.908053159713745E-001;-4.333044588565826E-002;4.034642130136490E-003;-7.204936118796468E-004;
2.419500000000000E+009;1.893589496612549E-001;-4.387702420353890E-002;3.894182387739420E-003;-8.345475653186441E-004;
2.419666666666667E+009;1.879133880138397E-001;-4.460982605814934E-002;3.724050708115101E-003;-8.043416892178357E-004;
2.419833333333334E+009;1.862704306840897E-001;-4.540894553065300E-002;3.736870363354683E-003;-8.039286476559937E-004;
2.420000000000000E+009;1.847145259380341E-001;-4.634068161249161E-002;3.587538609281182E-003;-9.372424101457000E-004;
2.420166666666667E+009;1.831452846527100E-001;-4.729452356696129E-002;3.527700435370207E-003;-8.608306525275111E-004;
2.420333333333334E+009;1.814566403627396E-001;-4.834363237023354E-002;3.443851834163070E-003;-1.049038488417864E-003;
2.420500000000000E+009;1.799855083227158E-001;-4.971556365489960E-002;3.351472551003099E-003;-1.077265595085919E-003;
2.420666666666667E+009;1.783158630132675E-001;-5.091483891010284E-002;3.376735839992762E-003;-9.613737929612398E-004;
2.420833333333334E+009;1.768392771482468E-001;-5.235493183135986E-002;3.501613158732653E-003;-1.026351121254265E-003;
2.421000000000000E+009;1.752831935882568E-001;-5.390207096934319E-002;3.374861320480704E-003;-1.023263321258128E-003;
2.421166666666667E+009;1.738015860319138E-001;-5.554202571511269E-002;3.238226054236293E-003;-1.213983749039471E-003;
2.421333333333334E+009;1.722279936075211E-001;-5.719086155295372E-002;3.466351656243205E-003;-1.105575938709080E-003;
2.421500000000000E+009;1.709527224302292E-001;-5.910342931747437E-002;3.488954855129123E-003;-1.226657303050160E-003;
2.421666666666667E+009;1.698025614023209E-001;-6.088197231292725E-002;3.478584811091423E-003;-1.314343535341322E-003;
2.421833333333334E+009;1.687840521335602E-001;-6.254858523607254E-002;3.424753434956074E-003;-1.319009927101433E-003;
2.422000000000000E+009;1.675759106874466E-001;-6.461808830499649E-002;3.365088254213333E-003;-1.557845040224493E-003;
2.422166666666667E+009;1.667784154415131E-001;-6.671138107776642E-002;3.312719985842705E-003;-1.658774679526687E-003;
2.422333333333334E+009;1.658937186002731E-001;-6.859699636697769E-002;3.296804847195745E-003;-1.626768498681486E-003;
2.422500000000000E+009;1.650861650705338E-001;-7.053809612989426E-002;3.273393958806992E-003;-1.803371706046164E-003;
2.422666666666667E+009;1.644022017717362E-001;-7.264634221792221E-002;3.150731557980180E-003;-1.744461711496115E-003;
2.422833333333334E+009;1.640945971012116E-001;-7.453553378582001E-002;2.994634211063385E-003;-1.759100356139243E-003;
2.423000000000000E+009;1.633784323930740E-001;-7.660585641860962E-002;2.926725428551436E-003;-1.912153791636229E-003;
2.423166666666667E+009;1.631003469228745E-001;-7.845436036586762E-002;2.987750107422471E-003;-2.032922348007560E-003;
2.423333333333334E+009;1.626552641391754E-001;-8.048220723867416E-002;2.982254605740309E-003;-2.044501947239041E-003;
2.423500000000000E+009;1.627661585807800E-001;-8.210489898920059E-002;2.822796115651727E-003;-2.096488140523434E-003;
2.423666666666667E+009;1.627222448587418E-001;-8.403483033180237E-002;2.786606317386031E-003;-2.076169708743691E-003;
2.423833333333334E+009;1.625384986400604E-001;-8.562344312667847E-002;2.860277425497770E-003;-1.969665754586458E-003;
2.424000000000000E+009;1.627648174762726E-001;-8.735033124685288E-002;2.859711647033691E-003;-2.009000163525343E-003;
2.424166666666667E+009;1.629034429788590E-001;-8.881263434886932E-002;2.588741714134812E-003;-2.207920420914888E-003;
2.424333333333334E+009;1.631117612123489E-001;-9.042467921972275E-002;2.767608035355806E-003;-2.204952063038945E-003;
2.424500000000000E+009;1.634514629840851E-001;-9.213767945766449E-002;2.522058552131057E-003;-2.222644165158272E-003;
2.424666666666667E+009;1.636687368154526E-001;-9.339626133441925E-002;2.695842180401087E-003;-2.262983936816454E-003;
2.424833333333334E+009;1.640927344560623E-001;-9.458366781473160E-002;2.693091286346316E-003;-2.388304565101862E-003;
2.425000000000000E+009;1.644679158926010E-001;-9.574852883815765E-002;2.576505299657583E-003;-2.507798839360476E-003;
2.425166666666667E+009;1.647746264934540E-001;-9.689408540725708E-002;2.596443053334951E-003;-2.465470926836133E-003;
2.425333333333334E+009;1.651508361101151E-001;-9.772530198097229E-002;2.754472428932786E-003;-2.526639495044947E-003;
2.425500000000000E+009;1.657561212778091E-001;-9.870745986700058E-002;2.678503980860114E-003;-2.646346809342504E-003;
2.425666666666667E+009;1.659381687641144E-001;-9.934948384761810E-002;2.596251666545868E-003;-2.891260432079434E-003;
2.425833333333334E+009;1.662095189094544E-001;-1.001002714037895E-001;2.445544349029660E-003;-2.880313666537404E-003;
2.426000000000000E+009;1.667022705078125E-001;-1.004988774657250E-001;2.586728660389781E-003;-2.976025920361280E-003;
2.426166666666667E+009;1.670935750007629E-001;-1.010395959019661E-001;2.515664789825678E-003;-3.067522775381804E-003;
2.426333333333334E+009;1.671408861875534E-001;-1.015228927135468E-001;2.367715584114194E-003;-3.212362760677934E-003;
2.426500000000000E+009;1.675403118133545E-001;-1.018552035093308E-001;2.384509891271591E-003;-3.282595658674836E-003;
2.426666666666667E+009;1.677153408527374E-001;-1.021524295210838E-001;2.331904834136367E-003;-3.367857541888952E-003;
2.426833333333334E+009;1.679541021585465E-001;-1.024237200617790E-001;2.161100739613175E-003;-3.359027206897736E-003;
2.427000000000000E+009;1.678912937641144E-001;-1.026118099689484E-001;2.001497428864241E-003;-3.569655586034060E-003;
2.427166666666667E+009;1.680379360914230E-001;-1.026955544948578E-001;1.989890122786164E-003;-3.662614151835442E-003;
2.427333333333334E+009;1.677556931972504E-001;-1.030096337199211E-001;1.744161010719836E-003;-3.718577092513442E-003;
2.427500000000000E+009;1.675368845462799E-001;-1.032316535711289E-001;1.861950848251581E-003;-3.719089319929481E-003;
2.427666666666667E+009;1.672515571117401E-001;-1.031427681446075E-001;1.717578968964517E-003;-3.724196692928672E-003;
2.427833333333334E+009;1.668689996004105E-001;-1.034538075327873E-001;1.506062224507332E-003;-3.994646947830916E-003;
