# Version 1.00
#
freq[Hz];re:Trc1_S11;im:Trc1_S11;re:Trc2_S21;im:Trc2_S21;
2.400000000000000E+009;1.546428948640823E-001;1.066213473677635E-001;3.128948446828872E-004;-5.202085711061955E-003;
2.400166666666667E+009;1.543453484773636E-001;1.043702289462090E-001;1.216971941175871E-004;-5.013087298721075E-003;
2.400333333333334E+009;1.543584614992142E-001;1.019541099667549E-001;2.275172591907904E-004;-4.924775101244450E-003;
2.400500000000000E+009;1.543107628822327E-001;9.923934936523438E-002;1.460935745853931E-004;-5.003288388252258E-003;
2.400666666666667E+009;1.543316096067429E-001;9.682558476924896E-002;1.387344091199338E-004;-4.971635527908802E-003;
2.400833333333334E+009;1.543801873922348E-001;9.396294504404068E-002;1.203063002321869E-004;-4.991108085960150E-003;
2.401000000000000E+009;1.545902043581009E-001;9.117911756038666E-002;5.779720231657848E-005;-4.917809274047613E-003;
2.401166666666667E+009;1.550523638725281E-001;8.862642198801041E-002;4.187006561551243E-004;-4.958252888172865E-003;
2.401333333333334E+009;1.550988554954529E-001;8.537533134222031E-002;6.811680214013904E-005;-5.083480384200811E-003;
2.401500000000000E+009;1.555882543325424E-001;8.289021253585815E-002;2.371469963691197E-005;-4.826361313462257E-003;
2.401666666666667E+009;1.560201197862625E-001;8.024597913026810E-002;-2.427549588901456E-006;-5.181881599128246E-003;
2.401833333333334E+009;1.566882133483887E-001;7.721224427223206E-002;2.253773891425226E-005;-5.226945038884878E-003;
2.402000000000000E+009;1.576628386974335E-001;7.459370046854019E-002;-6.908856448717415E-005;-5.372384097427130E-003;
2.402166666666667E+009;1.583596318960190E-001;7.224070280790329E-002;-4.131605237489566E-005;-5.395594984292984E-003;
2.402333333333334E+009;1.592264175415039E-001;6.949299573898315E-002;-3.932181862182915E-004;-5.337893031537533E-003;
2.402500000000000E+009;1.607508659362793E-001;6.675940752029419E-002;-2.551801735535264E-004;-5.530851427465677E-003;
2.402666666666667E+009;1.616837531328201E-001;6.481445580720902E-002;-6.949052331037819E-004;-5.612905137240887E-003;
2.402833333333334E+009;1.628229320049286E-001;6.213743612170219E-002;-9.800486732274294E-004;-5.555459298193455E-003;
2.403000000000000E+009;1.645757555961609E-001;5.970229580998421E-002;-1.081833732314408E-003;-5.719704087823629E-003;
2.403166666666667E+009;1.662545353174210E-001;5.765023082494736E-002;-1.264923135749996E-003;-5.599347408860922E-003;
2.403333333333334E+009;1.677528917789459E-001;5.535439029335976E-002;-1.585181453265250E-003;-5.419787950813770E-003;
2.403500000000000E+009;1.694425493478775E-001;5.317754298448563E-002;-1.684661838226020E-003;-5.469127092510462E-003;
2.403666666666667E+009;1.712730079889298E-001;5.133340880274773E-002;-2.002883469685912E-003;-5.524100270122290E-003;
2.403833333333334E+009;1.730421781539917E-001;4.959504306316376E-002;-2.134246518835425E-003;-5.335962399840355E-003;
2.404000000000000E+009;1.746885329484940E-001;4.787367209792137E-002;-2.181175164878368E-003;-5.145352799445391E-003;
2.404166666666667E+009;1.764091402292252E-001;4.630023986101151E-002;-2.162169897928834E-003;-4.948259331285954E-003;
2.404333333333334E+009;1.780485957860947E-001;4.485100135207176E-002;-2.514204708859325E-003;-4.911125637590885E-003;
2.404500000000000E+009;1.797918677330017E-001;4.345743730664253E-002;-2.529038116335869E-003;-4.804014228284359E-003;
2.404666666666667E+009;1.812600940465927E-001;4.224132746458054E-002;-2.569924341514707E-003;-4.893289413303137E-003;
2.404833333333334E+009;1.829999238252640E-001;4.120625555515289E-002;-2.590965013951063E-003;-4.906516522169113E-003;
2.405000000000000E+009;1.842030733823776E-001;4.062218219041824E-002;-2.725182333961129E-003;-4.722128156572580E-003;
2.405166666666667E+009;1.858102679252625E-001;3.998768702149391E-002;-2.675764495506883E-003;-4.705878440290690E-003;
2.405333333333334E+009;1.873028278350830E-001;3.931795433163643E-002;-2.950784750282764E-003;-4.781228024512529E-003;
2.405500000000000E+009;1.884431391954422E-001;3.886902704834938E-002;-3.142543137073517E-003;-4.500304814428091E-003;
2.405666666666667E+009;1.898366510868073E-001;3.853866457939148E-002;-3.282362362369895E-003;-4.635406192392111E-003;
2.405833333333334E+009;1.911409348249435E-001;3.813569247722626E-002;-3.590096719563007E-003;-4.535038024187088E-003;
2.406000000000000E+009;1.920875757932663E-001;3.798702731728554E-002;-3.745982889086008E-003;-4.432617686688900E-003;
2.406166666666667E+009;1.930201947689056E-001;3.787915781140328E-002;-3.760769031941891E-003;-4.155741538852453E-003;
2.406333333333334E+009;1.939819157123566E-001;3.790188580751419E-002;-3.840279765427113E-003;-4.222284071147442E-003;
2.406500000000000E+009;1.947116404771805E-001;3.785237669944763E-002;-4.111060872673988E-003;-3.774075303226709E-003;
2.406666666666667E+009;1.953541487455368E-001;3.797830268740654E-002;-4.127916414290667E-003;-3.775949357077479E-003;
2.406833333333334E+009;1.956761479377747E-001;3.799844905734062E-002;-4.264841321855784E-003;-3.528801957145333E-003;
2.407000000000000E+009;1.960927248001099E-001;3.813561052083969E-002;-4.141229670494795E-003;-3.458569757640362E-003;
2.407166666666667E+009;1.964310258626938E-001;3.789617493748665E-002;-4.316244274377823E-003;-3.197956131771207E-003;
2.407333333333334E+009;1.962656527757645E-001;3.806084766983986E-002;-4.352089948952198E-003;-3.164137015119195E-003;
2.407500000000000E+009;1.962011605501175E-001;3.810796886682510E-002;-4.279063083231449E-003;-2.941474784165621E-003;
2.407666666666667E+009;1.962210983037949E-001;3.807576373219490E-002;-4.414996597915888E-003;-2.842980669811368E-003;
2.407833333333334E+009;1.957214027643204E-001;3.777297586202622E-002;-4.450716543942690E-003;-2.791264560073614E-003;
2.408000000000000E+009;1.956551223993301E-001;3.777559846639633E-002;-4.270923789590597E-003;-2.790082711726427E-003;
2.408166666666667E+009;1.950058639049530E-001;3.747023642063141E-002;-4.362646490335465E-003;-2.540912013500929E-003;
2.408333333333334E+009;1.945740282535553E-001;3.690773248672485E-002;-4.419213626533747E-003;-2.449487568810582E-003;
2.408500000000000E+009;1.938806027173996E-001;3.654659539461136E-002;-4.365485161542893E-003;-2.439392963424325E-003;
2.408666666666667E+009;1.931850016117096E-001;3.604098409414291E-002;-4.335815086960793E-003;-2.496742410585284E-003;
2.408833333333334E+009;1.925015300512314E-001;3.535709902644157E-002;-4.362519364804030E-003;-2.478213980793953E-003;
2.409000000000000E+009;1.914554536342621E-001;3.431183472275734E-002;-4.492993932217360E-003;-2.243139781057835E-003;
2.409166666666667E+009;1.905986070632935E-001;3.352737054228783E-002;-4.541967064142227E-003;-2.203843556344509E-003;
2.409333333333334E+009;1.896354258060455E-001;3.231567144393921E-002;-4.500316921621561E-003;-2.200747374445200E-003;
2.409500000000000E+009;1.884441524744034E-001;3.106284514069557E-002;-4.626759793609381E-003;-2.162298653274775E-003;
2.409666666666667E+009;1.874540597200394E-001;2.974338456988335E-002;-4.708864260464907E-003;-2.179716015234590E-003;
2.409833333333334E+009;1.863734573125839E-001;2.823868766427040E-002;-4.701109603047371E-003;-2.251211088150740E-003;
2.410000000000000E+009;1.855940520763397E-001;2.669816836714745E-002;-4.704973194748163E-003;-2.168445847928524E-003;
2.410166666666667E+009;1.843349039554596E-001;2.478494495153427E-002;-4.957621451467276E-003;-2.097753575071693E-003;
2.410333333333334E+009;1.836710870265961E-001;2.290362119674683E-002;-5.150953307747841E-003;-2.122176345437765E-003;
2.410500000000000E+009;1.824464797973633E-001;2.092903479933739E-002;-5.098777357488871E-003;-1.996378181502223E-003;
2.410666666666667E+009;1.817068755626679E-001;1.889251545071602E-002;-5.374032538384199E-003;-1.763332402333617E-003;
2.410833333333334E+009;1.810948401689529E-001;1.665871031582356E-002;-5.257558077573776E-003;-1.741318963468075E-003;
2.411000000000000E+009;1.802196204662323E-001;1.437050476670265E-002;-5.549554713070393E-003;-1.649496261961758E-003;
2.411166666666667E+009;1.797976195812225E-001;1.223966758698225E-002;-5.559468176215887E-003;-1.352595281787217E-003;
2.411333333333334E+009;1.791904121637344E-001;9.570875205099583E-003;-5.580285564064980E-003;-1.259329263120890E-003;
2.411500000000000E+009;1.788474470376968E-001;7.394841406494379E-003;-5.770596209913492E-003;-1.199932303279638E-003;
2.411666666666667E+009;1.786582618951798E-001;4.961516242474318E-003;-5.816450342535973E-003;-1.111868303269148E-003;
2.411833333333334E+009;1.782673299312592E-001;2.559626707807183E-003;-6.011112593114376E-003;-9.548027301207185E-004;
2.412000000000000E+009;1.783904433250427E-001;2.339439015486278E-005;-5.998842418193817E-003;-7.988951983861625E-004;
2.412166666666667E+009;1.785219758749008E-001;-2.295780461281538E-003;-6.034160032868385E-003;-5.882377736270428E-004;
2.412333333333334E+009;1.787621676921845E-001;-4.759173840284348E-003;-6.053686607629061E-003;-4.869868280366063E-004;
2.412500000000000E+009;1.792300194501877E-001;-7.341057993471623E-003;-6.231850013136864E-003;-3.660573856905103E-004;
2.412666666666667E+009;1.797293424606323E-001;-9.698108769953251E-003;-6.366684101521969E-003;-2.035646466538310E-004;
2.412833333333334E+009;1.804265230894089E-001;-1.207801979035139E-002;-6.394271273165941E-003;4.967040149495006E-005;
2.413000000000000E+009;1.811664104461670E-001;-1.451237779110670E-002;-6.547309923917055E-003;2.481813717167825E-004;
2.413166666666667E+009;1.819495409727097E-001;-1.671243831515312E-002;-6.666463334113360E-003;3.776931844186038E-004;
2.413333333333334E+009;1.829555779695511E-001;-1.902331784367561E-002;-6.783037446439266E-003;6.146205123513937E-004;
2.413500000000000E+009;1.838724017143250E-001;-2.121104858815670E-002;-6.762826349586248E-003;9.181669447571039E-004;
2.413666666666667E+009;1.851082891225815E-001;-2.342781983315945E-002;-6.942733656615019E-003;1.334575936198235E-003;
2.413833333333334E+009;1.863256245851517E-001;-2.543456852436066E-002;-6.841629277914763E-003;1.513893599621952E-003;
2.414000000000000E+009;1.873694956302643E-001;-2.736949920654297E-002;-6.723935250192881E-003;2.033338649198413E-003;
2.414166666666667E+009;1.886228770017624E-001;-2.908346243202686E-002;-6.786054931581020E-003;2.346470486372709E-003;
2.414333333333334E+009;1.896641105413437E-001;-3.109841234982014E-002;-6.759084295481443E-003;2.615760546177626E-003;
2.414500000000000E+009;1.908380836248398E-001;-3.241951018571854E-002;-6.605266593396664E-003;2.904547844082117E-003;
2.414666666666667E+009;1.920660436153412E-001;-3.399189934134483E-002;-6.435781717300415E-003;3.149050986394286E-003;
2.414833333333334E+009;1.932841092348099E-001;-3.536901995539665E-002;-6.326710339635611E-003;3.385349176824093E-003;
2.415000000000000E+009;1.943597644567490E-001;-3.660461306571960E-002;-6.074996665120125E-003;3.609485924243927E-003;
2.415166666666667E+009;1.955403238534927E-001;-3.774088993668556E-002;-6.045526359230280E-003;3.821679856628180E-003;
2.415333333333334E+009;1.966907680034638E-001;-3.868529573082924E-002;-5.817191675305367E-003;4.147275350987911E-003;
2.415500000000000E+009;1.977838277816773E-001;-3.934675455093384E-002;-5.624090787023306E-003;4.310770891606808E-003;
2.415666666666667E+009;1.987398713827133E-001;-4.021903872489929E-002;-5.429245531558991E-003;4.544434137642384E-003;
2.415833333333334E+009;1.995858997106552E-001;-4.084061458706856E-002;-5.261601414531469E-003;4.855060018599033E-003;
2.416000000000000E+009;2.003695219755173E-001;-4.135831445455551E-002;-4.937586840242147E-003;4.886264447122812E-003;
2.416166666666667E+009;2.011535614728928E-001;-4.193250834941864E-002;-4.829922225326300E-003;4.988463595509529E-003;
2.416333333333334E+009;2.017918676137924E-001;-4.227362573146820E-002;-4.536244086921215E-003;5.330533254891634E-003;
2.416500000000000E+009;2.021854370832443E-001;-4.252158477902412E-002;-4.200962372124195E-003;5.512322764843702E-003;
2.416666666666667E+009;2.024675756692886E-001;-4.281301051378250E-002;-3.821894526481628E-003;5.599029362201691E-003;
2.416833333333334E+009;2.025486975908279E-001;-4.275593534111977E-002;-3.741594729945064E-003;5.675678607076407E-003;
2.417000000000000E+009;2.027096748352051E-001;-4.292630404233933E-002;-3.254410345107317E-003;5.812098737806082E-003;
2.417166666666667E+009;2.024339586496353E-001;-4.290829598903656E-002;-2.925174077972770E-003;5.815077107399702E-003;
2.417333333333334E+009;2.022362649440765E-001;-4.267190769314766E-002;-2.749762730672956E-003;5.855811294168234E-003;
2.417500000000000E+009;2.018882632255554E-001;-4.274116829037666E-002;-2.409758744761348E-003;5.664126481860876E-003;
2.417666666666667E+009;2.013053745031357E-001;-4.254652559757233E-002;-2.171330386772752E-003;5.614050198346376E-003;
2.417833333333334E+009;2.009169012308121E-001;-4.234435781836510E-002;-2.008399227634072E-003;5.454984027892351E-003;
2.418000000000000E+009;2.001403719186783E-001;-4.219991341233254E-002;-1.856416114605963E-003;5.501793231815100E-003;
2.418166666666667E+009;1.993924826383591E-001;-4.205542802810669E-002;-1.725484151393175E-003;5.329987965524197E-003;
2.418333333333334E+009;1.984794735908508E-001;-4.194993153214455E-002;-1.577626098878682E-003;5.220169667154551E-003;
2.418500000000000E+009;1.974746882915497E-001;-4.191514849662781E-002;-1.509047113358975E-003;5.141369067132473E-003;
2.418666666666667E+009;1.963869333267212E-001;-4.195705056190491E-002;-1.254506292752922E-003;5.053414497524500E-003;
2.418833333333334E+009;1.951866596937180E-001;-4.199860617518425E-002;-1.269991858862341E-003;4.986859858036041E-003;
2.419000000000000E+009;1.939050853252411E-001;-4.223925992846489E-002;-1.121623325161636E-003;4.908954259008169E-003;
2.419166666666667E+009;1.925176680088043E-001;-4.259616881608963E-002;-1.173302996903658E-003;4.974581766873598E-003;
2.419333333333334E+009;1.911244839429855E-001;-4.310299828648567E-002;-8.872880134731531E-004;4.632202908396721E-003;
2.419500000000000E+009;1.897192150354385E-001;-4.356466978788376E-002;-1.017956528812647E-003;4.811650607734919E-003;
2.419666666666667E+009;1.880398243665695E-001;-4.417815804481506E-002;-1.019281102344394E-003;4.654328804463148E-003;
2.419833333333334E+009;1.864447444677353E-001;-4.495029523968697E-002;-9.672775049693883E-004;4.575338214635849E-003;
2.420000000000000E+009;1.848839074373245E-001;-4.595284909009934E-002;-1.124938833527267E-003;4.580085631459951E-003;
2.420166666666667E+009;1.833680719137192E-001;-4.678370058536530E-002;-9.695811895653606E-004;4.541849717497826E-003;
2.420333333333334E+009;1.817216724157333E-001;-4.795603826642036E-002;-1.072367420420051E-003;4.606938455253840E-003;
2.420500000000000E+009;1.800838708877564E-001;-4.926596954464912E-002;-1.004347112029791E-003;4.572216421365738E-003;
2.420666666666667E+009;1.784437298774719E-001;-5.038101971149445E-002;-1.190723502077162E-003;4.503754433244467E-003;
2.420833333333334E+009;1.768143773078919E-001;-5.201750621199608E-002;-1.078088651411235E-003;4.935967735946178E-003;
2.421000000000000E+009;1.753386110067368E-001;-5.343444645404816E-002;-1.142547582276166E-003;4.758518189191818E-003;
2.421166666666667E+009;1.742265969514847E-001;-5.516883358359337E-002;-9.754587081260979E-004;5.057338159531355E-003;
2.421333333333334E+009;1.725014001131058E-001;-5.665807425975800E-002;-1.002492033876479E-003;5.136081017553806E-003;
2.421500000000000E+009;1.712516993284226E-001;-5.874383077025414E-002;-1.009171945042908E-003;5.242083221673966E-003;
2.421666666666667E+009;1.701391786336899E-001;-6.050971150398254E-002;-7.539088837802410E-004;5.422669928520918E-003;
2.421833333333334E+009;1.689443588256836E-001;-6.222324445843697E-002;-7.402327610179782E-004;5.461468361318111E-003;
2.422000000000000E+009;1.677406728267670E-001;-6.426576524972916E-002;-7.021659403108060E-004;5.744387395679951E-003;
2.422166666666667E+009;1.668549776077271E-001;-6.643598526716232E-002;-5.314298905432224E-004;5.887105595320463E-003;
2.422333333333334E+009;1.659193187952042E-001;-6.840092688798904E-002;-3.872682573273778E-004;5.812060553580523E-003;
2.422500000000000E+009;1.654485911130905E-001;-7.025475800037384E-002;-7.229445327538997E-005;5.961705464869738E-003;
2.422666666666667E+009;1.645758301019669E-001;-7.246904075145721E-002;1.319984003202990E-004;6.093500182032585E-003;
2.422833333333334E+009;1.640940606594086E-001;-7.446413487195969E-002;3.672910679597408E-004;6.153734400868416E-003;
2.423000000000000E+009;1.634901762008667E-001;-7.657568901777268E-002;4.613867495208979E-004;6.192414555698633E-003;
2.423166666666667E+009;1.633488833904266E-001;-7.855255156755447E-002;7.598387892358005E-004;6.120942067354918E-003;
2.423333333333334E+009;1.630590558052063E-001;-8.049262315034866E-002;8.958195685409010E-004;6.222380790859461E-003;
2.423500000000000E+009;1.626704335212708E-001;-8.226815611124039E-002;1.109634176827967E-003;6.165997590869665E-003;
2.423666666666667E+009;1.629153788089752E-001;-8.414201438426971E-002;1.220465404912829E-003;6.148144137114286E-003;
2.423833333333334E+009;1.628225445747376E-001;-8.593454957008362E-002;1.358700566925108E-003;6.256569642573595E-003;
2.424000000000000E+009;1.628884375095367E-001;-8.772486448287964E-002;1.678405911661685E-003;6.245086900889874E-003;
2.424166666666667E+009;1.630105227231979E-001;-8.928719162940979E-002;1.925442949868739E-003;6.294917780905962E-003;
2.424333333333334E+009;1.632135808467865E-001;-9.079721570014954E-002;2.163826487958431E-003;6.277544423937798E-003;
2.424500000000000E+009;1.635373979806900E-001;-9.245193749666214E-002;2.305098576471210E-003;6.268043071031570E-003;
2.424666666666667E+009;1.637354642152786E-001;-9.390594810247421E-002;2.611829666420817E-003;6.383542437106371E-003;
2.424833333333334E+009;1.643662154674530E-001;-9.496427327394486E-002;3.023200435563922E-003;6.225201766937971E-003;
2.425000000000000E+009;1.647271960973740E-001;-9.627091139554977E-002;3.096531843766570E-003;6.160683464258909E-003;
2.425166666666667E+009;1.650218665599823E-001;-9.736219793558121E-002;3.553249174728990E-003;6.025481503456831E-003;
2.425333333333334E+009;1.653154492378235E-001;-9.822931140661240E-002;3.928730729967356E-003;5.908619146794081E-003;
2.425500000000000E+009;1.657547503709793E-001;-9.913027286529541E-002;4.084896761924028E-003;5.807776004076004E-003;
2.425666666666667E+009;1.660405099391937E-001;-9.967285394668579E-002;4.365168046206236E-003;5.653887987136841E-003;
2.425833333333334E+009;1.664640605449677E-001;-1.005995497107506E-001;4.525960423052311E-003;5.545103922486305E-003;
2.426000000000000E+009;1.668380945920944E-001;-1.010386794805527E-001;4.873028025031090E-003;5.248957779258490E-003;
2.426166666666667E+009;1.671548932790756E-001;-1.014156937599182E-001;5.070582032203674E-003;5.128862336277962E-003;
2.426333333333334E+009;1.672663390636444E-001;-1.019460931420326E-001;5.362910684198141E-003;4.744382109493017E-003;
2.426500000000000E+009;1.675558090209961E-001;-1.022293418645859E-001;5.678510293364525E-003;4.499102476984263E-003;
2.426666666666667E+009;1.679254770278931E-001;-1.024559438228607E-001;5.663796328008175E-003;4.192470572888851E-003;
2.426833333333334E+009;1.681234389543533E-001;-1.027321889996529E-001;5.793124437332153E-003;3.956709057092667E-003;
2.427000000000000E+009;1.680655032396317E-001;-1.029210388660431E-001;5.858419463038445E-003;3.560393117368221E-003;
2.427166666666667E+009;1.680267006158829E-001;-1.028564274311066E-001;6.012694910168648E-003;3.425154602155089E-003;
2.427333333333334E+009;1.679441630840302E-001;-1.031124740839005E-001;5.957107525318861E-003;3.147702896967530E-003;
2.427500000000000E+009;1.676812022924423E-001;-1.032677441835403E-001;5.994318984448910E-003;2.902254229411483E-003;
2.427666666666667E+009;1.673679053783417E-001;-1.033587455749512E-001;6.189694162458181E-003;2.629717811942101E-003;
