# Version 1.00
#
freq[Hz];re:Trc1_S11;im:Trc1_S11;re:Trc2_S21;im:Trc2_S21;
2.400000000000000E+009;1.546866297721863E-001;1.068382710218430E-001;2.696916635613889E-004;-5.202271975576878E-003;
2.400166666666667E+009;1.544668525457382E-001;1.044455245137215E-001;8.985408203443512E-005;-4.978951998054981E-003;
2.400333333333334E+009;1.544865369796753E-001;1.021192446351051E-001;3.683760587591678E-004;-5.056642927229404E-003;
2.400500000000000E+009;1.544496417045593E-001;9.950228035449982E-002;1.492162409704179E-004;-4.813576582819223E-003;
2.400666666666667E+009;1.546691507101059E-001;9.691219776868820E-002;1.975800551008433E-004;-4.889139439910650E-003;
2.400833333333334E+009;1.546677052974701E-001;9.418345987796783E-002;2.505120355635881E-004;-4.873812198638916E-003;
2.401000000000000E+009;1.549587696790695E-001;9.137702733278275E-002;4.158634401392192E-004;-4.880597814917564E-003;
2.401166666666667E+009;1.550365984439850E-001;8.866413682699204E-002;3.214046882931143E-004;-4.879962652921677E-003;
2.401333333333334E+009;1.555666327476502E-001;8.585146069526672E-002;3.127704840153456E-004;-5.019631702452898E-003;
2.401500000000000E+009;1.557335704565048E-001;8.298096805810928E-002;2.017412189161405E-004;-4.995204973965883E-003;
2.401666666666667E+009;1.563726812601090E-001;8.006862550973892E-002;2.864031412173063E-004;-5.145502742379904E-003;
2.401833333333334E+009;1.569483876228333E-001;7.754033803939819E-002;1.683060509094503E-005;-5.207254085689783E-003;
2.402000000000000E+009;1.578130573034287E-001;7.469624280929565E-002;3.503011612338014E-005;-5.328346509486437E-003;
2.402166666666667E+009;1.584715992212296E-001;7.227893918752670E-002;3.111521800747141E-005;-5.274137482047081E-003;
2.402333333333334E+009;1.594912409782410E-001;6.949496269226074E-002;-1.487761037424207E-004;-5.388853605836630E-003;
2.402500000000000E+009;1.608834117650986E-001;6.694079190492630E-002;-4.147443396504968E-004;-5.431236699223518E-003;
2.402666666666667E+009;1.621272116899490E-001;6.476850807666779E-002;-6.342156557366252E-004;-5.556386895477772E-003;
2.402833333333334E+009;1.633584052324295E-001;6.225749105215073E-002;-9.934868430718780E-004;-5.695214960724115E-003;
2.403000000000000E+009;1.649024039506912E-001;5.995444580912590E-002;-1.007141196168959E-003;-5.747384857386351E-003;
2.403166666666667E+009;1.665104478597641E-001;5.769886448979378E-002;-1.159523380920291E-003;-5.471494514495134E-003;
2.403333333333334E+009;1.679370105266571E-001;5.560261383652687E-002;-1.644168747588992E-003;-5.650897044688463E-003;
2.403500000000000E+009;1.697333753108978E-001;5.352796986699104E-002;-1.741336658596993E-003;-5.567704327404499E-003;
2.403666666666667E+009;1.714559346437454E-001;5.175611749291420E-002;-1.920084585435689E-003;-5.385635886341333E-003;
2.403833333333334E+009;1.731869280338287E-001;4.972901567816734E-002;-2.034205012023449E-003;-5.152891390025616E-003;
2.404000000000000E+009;1.747802346944809E-001;4.802434518933296E-002;-2.362283412367106E-003;-5.095548927783966E-003;
2.404166666666667E+009;1.764482110738754E-001;4.659805819392204E-002;-2.500042086467147E-003;-5.054238718003035E-003;
2.404333333333334E+009;1.781251579523087E-001;4.508879035711289E-002;-2.502890769392252E-003;-5.119408480823040E-003;
2.404500000000000E+009;1.801963895559311E-001;4.346996173262596E-002;-2.693292917683721E-003;-4.351244773715735E-003;
2.404666666666667E+009;1.815606951713562E-001;4.241591319441795E-002;-2.483422169461846E-003;-4.732339642941952E-003;
2.404833333333334E+009;1.830917149782181E-001;4.137283191084862E-002;-2.779121976345778E-003;-4.843820352107287E-003;
2.405000000000000E+009;1.843492388725281E-001;4.065241664648056E-002;-2.490598708391190E-003;-4.838666878640652E-003;
2.405166666666667E+009;1.860913634300232E-001;3.995652124285698E-002;-2.907535759732127E-003;-4.611275158822537E-003;
2.405333333333334E+009;1.874274015426636E-001;3.935008868575096E-002;-2.983047626912594E-003;-4.575644619762898E-003;
2.405500000000000E+009;1.887552142143250E-001;3.899392858147621E-002;-2.982725854963064E-003;-4.673015326261520E-003;
2.405666666666667E+009;1.899818032979965E-001;3.849622979760170E-002;-3.215354168787599E-003;-4.653620067983866E-003;
2.405833333333334E+009;1.912039965391159E-001;3.833571076393127E-002;-3.396974410861731E-003;-4.541780333966017E-003;
2.406000000000000E+009;1.923617124557495E-001;3.812281414866447E-002;-3.507374087348580E-003;-4.392071161419153E-003;
2.406166666666667E+009;1.932293921709061E-001;3.771911561489105E-002;-3.752267686650157E-003;-4.190239124000073E-003;
2.406333333333334E+009;1.940942406654358E-001;3.783829137682915E-002;-3.972381819039583E-003;-3.995345905423164E-003;
2.406500000000000E+009;1.949251443147659E-001;3.788284957408905E-002;-4.032745957374573E-003;-4.055471625179052E-003;
2.406666666666667E+009;1.954186409711838E-001;3.781591355800629E-002;-4.092023242264986E-003;-3.733729477971792E-003;
2.406833333333334E+009;1.959667354822159E-001;3.779799118638039E-002;-4.334175959229469E-003;-3.646756056696177E-003;
2.407000000000000E+009;1.963059902191162E-001;3.798462077975273E-002;-4.372378345578909E-003;-3.492668969556689E-003;
2.407166666666667E+009;1.966155618429184E-001;3.778276965022087E-002;-4.194402601569891E-003;-3.215342992916703E-003;
2.407333333333334E+009;1.965578645467758E-001;3.788899630308151E-002;-4.203451331704855E-003;-3.220859682187438E-003;
2.407500000000000E+009;1.964602619409561E-001;3.813199326395989E-002;-4.324210807681084E-003;-2.983342390507460E-003;
2.407666666666667E+009;1.965470761060715E-001;3.790567815303803E-002;-4.356564488261938E-003;-2.964769955724478E-003;
2.407833333333334E+009;1.959651559591293E-001;3.772672638297081E-002;-4.341572988778353E-003;-2.901733387261629E-003;
2.408000000000000E+009;1.957246959209442E-001;3.754092380404472E-002;-4.403443075716496E-003;-2.696554409340024E-003;
2.408166666666667E+009;1.953399330377579E-001;3.712674230337143E-002;-4.148164764046669E-003;-2.599344588816166E-003;
2.408333333333334E+009;1.948135346174240E-001;3.674517944455147E-002;-4.349884577095509E-003;-2.584098139777780E-003;
2.408500000000000E+009;1.940712630748749E-001;3.635128587484360E-002;-4.397510550916195E-003;-2.532127778977156E-003;
2.408666666666667E+009;1.932819783687592E-001;3.586800023913384E-002;-4.446240141987801E-003;-2.425728132948279E-003;
2.408833333333334E+009;1.926254332065582E-001;3.490550443530083E-002;-4.328104201704264E-003;-2.481562783941627E-003;
2.409000000000000E+009;1.916490197181702E-001;3.411729633808136E-002;-4.505360964685679E-003;-2.492098370566964E-003;
2.409166666666667E+009;1.908217072486877E-001;3.326921537518501E-002;-4.520224872976542E-003;-2.325383247807622E-003;
2.409333333333334E+009;1.897864341735840E-001;3.213911876082420E-002;-4.623622167855501E-003;-2.268737414851785E-003;
2.409500000000000E+009;1.886222362518311E-001;3.080381453037262E-002;-4.564682487398386E-003;-2.436045790091157E-003;
2.409666666666667E+009;1.876574605703354E-001;2.943031117320061E-002;-4.653897136449814E-003;-2.381196944043040E-003;
2.409833333333334E+009;1.865351796150208E-001;2.801017649471760E-002;-4.664063919335604E-003;-2.131347078830004E-003;
2.410000000000000E+009;1.855621486902237E-001;2.628337405622006E-002;-4.765405785292387E-003;-2.239478984847665E-003;
2.410166666666667E+009;1.845540404319763E-001;2.454469911754131E-002;-5.045114085078239E-003;-2.089696936309338E-003;
2.410333333333334E+009;1.836461424827576E-001;2.291873842477799E-002;-5.036055110394955E-003;-2.030010567978025E-003;
2.410500000000000E+009;1.826909631490707E-001;2.084589749574661E-002;-4.982740152627230E-003;-1.926980447024107E-003;
2.410666666666667E+009;1.817820519208908E-001;1.848369650542736E-002;-5.134442355483770E-003;-1.863906625658274E-003;
2.410833333333334E+009;1.812627911567688E-001;1.642237417399883E-002;-5.374989937990904E-003;-1.807826105505228E-003;
2.411000000000000E+009;1.804549247026444E-001;1.427349355071783E-002;-5.528311245143414E-003;-1.471384894102812E-003;
2.411166666666667E+009;1.798245906829834E-001;1.208495255559683E-002;-5.564535502344370E-003;-1.386691001243889E-003;
2.411333333333334E+009;1.793530434370041E-001;9.328789077699184E-003;-5.641019437462091E-003;-1.475928584113717E-003;
2.411500000000000E+009;1.789652556180954E-001;7.302247919142246E-003;-5.736827384680510E-003;-1.355892745777965E-003;
2.411666666666667E+009;1.787974387407303E-001;4.854121711105108E-003;-5.810162052512169E-003;-1.182823209092021E-003;
2.411833333333334E+009;1.783512979745865E-001;2.457784488797188E-003;-5.946530029177666E-003;-9.529224480502307E-004;
2.412000000000000E+009;1.786810606718063E-001;-4.312890087021515E-005;-5.975895561277866E-003;-8.997975382953882E-004;
2.412166666666667E+009;1.786813735961914E-001;-2.506527584046125E-003;-6.014870479702950E-003;-7.304569589905441E-004;
2.412333333333334E+009;1.787131428718567E-001;-5.024062935262919E-003;-6.065232679247856E-003;-4.835012659896165E-004;
2.412500000000000E+009;1.791937649250031E-001;-7.424728479236364E-003;-6.229863036423922E-003;-4.814939748030156E-004;
2.412666666666667E+009;1.797923892736435E-001;-1.004584506154060E-002;-6.331788375973702E-003;-2.143199089914560E-004;
2.412833333333334E+009;1.806542724370956E-001;-1.239895354956389E-002;-6.397297605872154E-003;-2.376985776209040E-006;
2.413000000000000E+009;1.812909692525864E-001;-1.445620693266392E-002;-6.463780999183655E-003;7.589563756482676E-005;
2.413166666666667E+009;1.820588260889053E-001;-1.688883826136589E-002;-6.762363482266665E-003;3.185941895935684E-004;
2.413333333333334E+009;1.830840110778809E-001;-1.912267133593559E-002;-6.688830908387899E-003;7.054957677610219E-004;
2.413500000000000E+009;1.838738471269608E-001;-2.133103087544441E-002;-6.763503886759281E-003;8.222336182370782E-004;
2.413666666666667E+009;1.852134317159653E-001;-2.360631339251995E-002;-6.974838208407164E-003;1.165381516329944E-003;
2.413833333333334E+009;1.861481666564941E-001;-2.558892592787743E-002;-6.871421355754137E-003;1.576399896293879E-003;
2.414000000000000E+009;1.873168498277664E-001;-2.747762948274612E-002;-6.878789048641920E-003;1.980684930458665E-003;
2.414166666666667E+009;1.886364817619324E-001;-2.926790714263916E-002;-6.686049979180098E-003;2.267784671857953E-003;
2.414333333333334E+009;1.896123737096787E-001;-3.119691275060177E-002;-6.781310308724642E-003;2.567939460277557E-003;
2.414500000000000E+009;1.909077763557434E-001;-3.266741707921028E-002;-6.671119481325150E-003;2.861114684492350E-003;
2.414666666666667E+009;1.921066045761108E-001;-3.418423980474472E-002;-6.470925640314817E-003;3.122437978163362E-003;
2.414833333333334E+009;1.932448446750641E-001;-3.552399575710297E-002;-6.430613342672586E-003;3.385641844943166E-003;
2.415000000000000E+009;1.943598240613937E-001;-3.686719387769699E-002;-6.091549526900053E-003;3.626549383625388E-003;
2.415166666666667E+009;1.956366896629334E-001;-3.790733590722084E-002;-6.002501584589481E-003;3.890551393851638E-003;
2.415333333333334E+009;1.967376917600632E-001;-3.875655308365822E-002;-5.823378916829824E-003;3.975772298872471E-003;
2.415500000000000E+009;1.977574825286865E-001;-3.951694443821907E-002;-5.649766884744167E-003;4.316607024520636E-003;
2.415666666666667E+009;1.987356692552567E-001;-4.042203351855278E-002;-5.512461531907320E-003;4.510404542088509E-003;
2.415833333333334E+009;1.996030211448669E-001;-4.089736565947533E-002;-5.222740583121777E-003;4.763124510645866E-003;
2.416000000000000E+009;2.004224210977554E-001;-4.156788066029549E-002;-5.091446451842785E-003;4.931859672069550E-003;
2.416166666666667E+009;2.010737955570221E-001;-4.198839887976646E-002;-4.781788680702448E-003;5.171867553144693E-003;
2.416333333333334E+009;2.017677724361420E-001;-4.232553392648697E-002;-4.483486991375685E-003;5.419780965894461E-003;
2.416500000000000E+009;2.021441012620926E-001;-4.254114627838135E-002;-4.330500960350037E-003;5.481687840074301E-003;
2.416666666666667E+009;2.024272233247757E-001;-4.284976050257683E-002;-3.999866545200348E-003;5.696730222553015E-003;
2.416833333333334E+009;2.025710791349411E-001;-4.295642673969269E-002;-3.679412649944425E-003;5.683866795152426E-003;
2.417000000000000E+009;2.026999294757843E-001;-4.304533079266548E-002;-3.444440662860870E-003;5.711186677217484E-003;
2.417166666666667E+009;2.023472040891647E-001;-4.296432062983513E-002;-2.958240685984492E-003;5.686745513230562E-003;
2.417333333333334E+009;2.021443545818329E-001;-4.277773946523666E-002;-2.685460727661848E-003;5.853372160345316E-003;
2.417500000000000E+009;2.018148601055145E-001;-4.288180172443390E-002;-2.469393657520413E-003;5.602663848549128E-003;
2.417666666666667E+009;2.012548446655273E-001;-4.266512393951416E-002;-2.350461669266224E-003;5.518774967640638E-003;
2.417833333333334E+009;2.007541060447693E-001;-4.243613779544830E-002;-2.118518808856607E-003;5.537453107535839E-003;
2.418000000000000E+009;2.001234292984009E-001;-4.224063456058502E-002;-1.865369384177029E-003;5.462849047034979E-003;
2.418166666666667E+009;1.993374079465866E-001;-4.221862927079201E-002;-1.732956385239959E-003;5.306311417371035E-003;
2.418333333333334E+009;1.982739120721817E-001;-4.191692173480988E-002;-1.651037135161459E-003;5.366684868931770E-003;
2.418500000000000E+009;1.974447965621948E-001;-4.201646149158478E-002;-1.306107966229320E-003;5.209938623011112E-003;
2.418666666666667E+009;1.964810937643051E-001;-4.192620515823364E-002;-1.288575585931540E-003;5.060500465333462E-003;
2.418833333333334E+009;1.950176954269409E-001;-4.219001904129982E-002;-1.195946475490928E-003;5.030988249927759E-003;
2.419000000000000E+009;1.937848031520844E-001;-4.226144775748253E-002;-1.300575677305460E-003;5.050174426287413E-003;
2.419166666666667E+009;1.924571245908737E-001;-4.272410646080971E-002;-1.184918684884906E-003;4.825725220143795E-003;
2.419333333333334E+009;1.910142004489899E-001;-4.317172989249229E-002;-1.116985571570694E-003;4.841558635234833E-003;
2.419500000000000E+009;1.895908117294312E-001;-4.354184120893478E-002;-1.120856381021440E-003;4.729609936475754E-003;
2.419666666666667E+009;1.879317611455917E-001;-4.435474425554276E-002;-1.034733490087092E-003;4.680762067437172E-003;
2.419833333333334E+009;1.862823218107224E-001;-4.500141739845276E-002;-1.006357371807098E-003;4.717363975942135E-003;
2.420000000000000E+009;1.848801821470261E-001;-4.600290209054947E-002;-9.907101048156619E-004;4.531728569418192E-003;
2.420166666666667E+009;1.833043396472931E-001;-4.693889245390892E-002;-1.017250935547054E-003;4.597814753651619E-003;
2.420333333333334E+009;1.817061454057694E-001;-4.806119948625565E-002;-1.118905493058264E-003;4.592927638441324E-003;
2.420500000000000E+009;1.800034046173096E-001;-4.944855719804764E-002;-1.117647276259959E-003;4.645544569939375E-003;
2.420666666666667E+009;1.783055663108826E-001;-5.038270354270935E-002;-1.122252666391432E-003;4.763939417898655E-003;
2.420833333333334E+009;1.768556535243988E-001;-5.197782814502716E-002;-1.187090063467622E-003;4.667135421186686E-003;
2.421000000000000E+009;1.753746867179871E-001;-5.358510836958885E-002;-1.171266776509583E-003;4.691821988672018E-003;
2.421166666666667E+009;1.740425080060959E-001;-5.531761422753334E-002;-1.118482556194067E-003;5.012401379644871E-003;
2.421333333333334E+009;1.722594648599625E-001;-5.679505318403244E-002;-1.049978658556938E-003;5.146266426891089E-003;
2.421500000000000E+009;1.711633354425430E-001;-5.879637598991394E-002;-9.946308564394712E-004;5.335312802344561E-003;
2.421666666666667E+009;1.699214726686478E-001;-6.051030382514000E-002;-7.807233487255871E-004;5.359906237572432E-003;
2.421833333333334E+009;1.687445193529129E-001;-6.249243393540382E-002;-7.250928319990635E-004;5.581793840974569E-003;
2.422000000000000E+009;1.677635014057159E-001;-6.423638761043549E-002;-6.074692355468869E-004;5.674724932760000E-003;
2.422166666666667E+009;1.668630540370941E-001;-6.633013486862183E-002;-4.205736913718283E-004;5.744321737438440E-003;
2.422333333333334E+009;1.658000051975250E-001;-6.861008703708649E-002;-3.108125820290297E-004;6.036561913788319E-003;
2.422500000000000E+009;1.650655716657639E-001;-7.034324109554291E-002;-1.788062763807830E-005;5.969411693513393E-003;
2.422666666666667E+009;1.644222140312195E-001;-7.235845923423767E-002;8.079352119239047E-005;6.125444546341896E-003;
2.422833333333334E+009;1.639415919780731E-001;-7.442887127399445E-002;2.178543945774436E-004;6.153800990432501E-003;
2.423000000000000E+009;1.635198742151260E-001;-7.668848335742950E-002;5.309705156832933E-004;6.208433769643307E-003;
2.423166666666667E+009;1.631367355585098E-001;-7.847094535827637E-002;7.638070965185762E-004;6.218380294740200E-003;
2.423333333333334E+009;1.628878265619278E-001;-8.053346723318100E-002;9.546650107949972E-004;6.268590223044157E-003;
2.423500000000000E+009;1.627424806356430E-001;-8.225942403078079E-002;1.053882995620370E-003;6.292641162872315E-003;
2.423666666666667E+009;1.628023982048035E-001;-8.427365124225617E-002;1.103060552850366E-003;6.187301594763994E-003;
2.423833333333334E+009;1.626610755920410E-001;-8.602989464998245E-002;1.513530383817852E-003;6.171157583594322E-003;
2.424000000000000E+009;1.627876013517380E-001;-8.773279190063477E-002;1.726574846543372E-003;6.255751010030508E-003;
2.424166666666667E+009;1.628010720014572E-001;-8.922987431287766E-002;1.802905346266925E-003;6.533428560942411E-003;
2.424333333333334E+009;1.630317121744156E-001;-9.077963978052139E-002;2.219464397057891E-003;6.353668402880430E-003;
2.424500000000000E+009;1.634663641452789E-001;-9.243305772542954E-002;2.302087144926190E-003;6.388559006154537E-003;
2.424666666666667E+009;1.635740250349045E-001;-9.383759647607803E-002;2.518099034205079E-003;6.460427306592464E-003;
2.424833333333334E+009;1.641037911176682E-001;-9.510779380798340E-002;2.800168935209513E-003;6.355674006044865E-003;
2.425000000000000E+009;1.645486503839493E-001;-9.614439308643341E-002;3.195885103195906E-003;6.265116855502129E-003;
2.425166666666667E+009;1.647751033306122E-001;-9.725298732519150E-002;3.483958076685667E-003;6.227100733667612E-003;
2.425333333333334E+009;1.652663797140122E-001;-9.809067100286484E-002;3.740365849807859E-003;6.040841806679964E-003;
2.425500000000000E+009;1.655239164829254E-001;-9.912204742431641E-002;4.124051425606012E-003;5.922193638980389E-003;
2.425666666666667E+009;1.659892946481705E-001;-9.964177012443543E-002;4.387350752949715E-003;5.793804768472910E-003;
2.425833333333334E+009;1.663371175527573E-001;-1.005734130740166E-001;4.596764687448740E-003;5.579274613410235E-003;
2.426000000000000E+009;1.666918843984604E-001;-1.009359955787659E-001;4.899283405393362E-003;5.429971497505903E-003;
2.426166666666667E+009;1.671089529991150E-001;-1.014431267976761E-001;5.122581496834755E-003;5.069609265774488E-003;
2.426333333333334E+009;1.671484261751175E-001;-1.019672304391861E-001;5.389579106122255E-003;4.882694687694311E-003;
2.426500000000000E+009;1.675595939159393E-001;-1.021976023912430E-001;5.587420426309109E-003;4.604674410074949E-003;
2.426666666666667E+009;1.678079515695572E-001;-1.024999171495438E-001;5.722301080822945E-003;4.247330129146576E-003;
2.426833333333334E+009;1.679587960243225E-001;-1.027351096272469E-001;5.871422123163939E-003;3.867417108267546E-003;
2.427000000000000E+009;1.679527163505554E-001;-1.029171720147133E-001;5.892689805477858E-003;3.622355638071895E-003;
2.427166666666667E+009;1.680038273334503E-001;-1.029343679547310E-001;5.933627020567656E-003;3.466670168563724E-003;
2.427333333333334E+009;1.679389476776123E-001;-1.031828671693802E-001;5.798266734927893E-003;3.196168690919876E-003;
2.427500000000000E+009;1.676374375820160E-001;-1.033348366618156E-001;6.028739735484123E-003;2.880364656448364E-003;
2.427666666666667E+009;1.673104614019394E-001;-1.033008396625519E-001;6.086656358093023E-003;2.673269482329488E-003;
