# Version 1.00
#
freq[Hz];re:Trc1_S11;im:Trc1_S11;re:Trc2_S21;im:Trc2_S21;
2.400000000000000E+009;1.547321379184723E-001;1.068256869912148E-001;1.941179361892864E-004;-5.193591117858887E-003;
2.400166666666667E+009;1.543990373611450E-001;1.044341921806335E-001;3.842577571049333E-004;-4.927226342260838E-003;
2.400333333333334E+009;1.544743627309799E-001;1.020067632198334E-001;1.378814922645688E-004;-5.037171766161919E-003;
2.400500000000000E+009;1.543651819229126E-001;9.960944205522537E-002;1.648476172704250E-004;-4.930425435304642E-003;
2.400666666666667E+009;1.545438915491104E-001;9.706505388021469E-002;1.768933580024168E-004;-4.883868619799614E-003;
2.400833333333334E+009;1.546828448772430E-001;9.396572411060333E-002;1.702736626612023E-004;-4.778028000146151E-003;
2.401000000000000E+009;1.547793298959732E-001;9.140770882368088E-002;1.279850130231353E-005;-4.689691588282585E-003;
2.401166666666667E+009;1.549162119626999E-001;8.859250694513321E-002;3.003625315614045E-004;-4.855410195887089E-003;
2.401333333333334E+009;1.553265452384949E-001;8.584624528884888E-002;2.679734316188842E-004;-4.991532303392887E-003;
2.401500000000000E+009;1.557136327028275E-001;8.295409381389618E-002;8.791416621534154E-005;-4.974505398422480E-003;
2.401666666666667E+009;1.562152206897736E-001;7.998064160346985E-002;1.987526920856908E-004;-5.087523255497217E-003;
2.401833333333334E+009;1.566336601972580E-001;7.774670422077179E-002;5.364512981032021E-005;-5.021290853619576E-003;
2.402000000000000E+009;1.575716137886047E-001;7.456420361995697E-002;9.598932956578210E-005;-5.396344698965550E-003;
2.402166666666667E+009;1.584008187055588E-001;7.228744775056839E-002;-1.209805486723781E-004;-5.329374689608812E-003;
2.402333333333334E+009;1.595593094825745E-001;6.953076273202896E-002;-3.445674374233931E-004;-5.370737519115210E-003;
2.402500000000000E+009;1.605742722749710E-001;6.665776669979096E-002;-2.022852859226987E-004;-5.620299372822046E-003;
2.402666666666667E+009;1.618454307317734E-001;6.472572684288025E-002;-5.875807255506516E-004;-5.465388763695955E-003;
2.402833333333334E+009;1.634357422590256E-001;6.220941990613937E-002;-7.684714510105550E-004;-5.574856419116259E-003;
2.403000000000000E+009;1.648573279380798E-001;5.986401438713074E-002;-1.019448158331215E-003;-5.632219836115837E-003;
2.403166666666667E+009;1.663904637098312E-001;5.763184279203415E-002;-1.079911831766367E-003;-5.529745947569609E-003;
2.403333333333334E+009;1.678931713104248E-001;5.566394701600075E-002;-1.520029385574162E-003;-5.368580110371113E-003;
2.403500000000000E+009;1.695107221603394E-001;5.355341359972954E-002;-1.774949720129371E-003;-5.433592945337296E-003;
2.403666666666667E+009;1.714422553777695E-001;5.152870342135429E-002;-1.879165531136096E-003;-5.413637496531010E-003;
2.403833333333334E+009;1.730480790138245E-001;4.958882182836533E-002;-2.092790324240923E-003;-5.241491831839085E-003;
2.404000000000000E+009;1.746259331703186E-001;4.804363101720810E-002;-2.245440380647779E-003;-4.956369288265705E-003;
2.404166666666667E+009;1.763406246900559E-001;4.652683064341545E-002;-2.410868182778359E-003;-5.024515092372894E-003;
2.404333333333334E+009;1.781264394521713E-001;4.504136368632317E-002;-2.364573068916798E-003;-4.874338395893574E-003;
2.404500000000000E+009;1.797723025083542E-001;4.348875582218170E-002;-2.364888787269592E-003;-4.849352873861790E-003;
2.404666666666667E+009;1.813745647668839E-001;4.258917272090912E-002;-2.436466747894883E-003;-4.655609373003244E-003;
2.404833333333334E+009;1.831607371568680E-001;4.134055599570274E-002;-2.672299044206739E-003;-4.788875114172697E-003;
2.405000000000000E+009;1.844602674245834E-001;4.075747728347778E-002;-2.638335572555661E-003;-4.672267474234104E-003;
2.405166666666667E+009;1.860797107219696E-001;3.982974961400032E-002;-2.701778663322330E-003;-4.731065593659878E-003;
2.405333333333334E+009;1.873048096895218E-001;3.947838395833969E-002;-2.948301611468196E-003;-4.714672453701496E-003;
2.405500000000000E+009;1.886108815670013E-001;3.899524733424187E-002;-3.206238383427262E-003;-4.675545264035463E-003;
2.405666666666667E+009;1.899495422840118E-001;3.866609930992127E-002;-3.352273022755981E-003;-4.540343303233385E-003;
2.405833333333334E+009;1.912419348955154E-001;3.822670876979828E-002;-3.525413572788239E-003;-4.541662521660328E-003;
2.406000000000000E+009;1.921792030334473E-001;3.802496567368507E-002;-3.653838066384196E-003;-4.351761657744646E-003;
2.406166666666667E+009;1.932105422019959E-001;3.786423802375794E-002;-3.683704417198896E-003;-4.388507455587387E-003;
2.406333333333334E+009;1.939988136291504E-001;3.778625279664993E-002;-3.846653969958425E-003;-4.340567626059055E-003;
2.406500000000000E+009;1.947633028030396E-001;3.782283514738083E-002;-3.939105663448572E-003;-3.971258178353310E-003;
2.406666666666667E+009;1.954312771558762E-001;3.788762167096138E-002;-4.026001319289208E-003;-3.800147213041782E-003;
2.406833333333334E+009;1.960158348083496E-001;3.778461366891861E-002;-4.075017757713795E-003;-3.701078938320279E-003;
2.407000000000000E+009;1.961761862039566E-001;3.795293718576431E-002;-4.158359952270985E-003;-3.485924331471324E-003;
2.407166666666667E+009;1.965904533863068E-001;3.780501335859299E-002;-4.252416081726551E-003;-3.132970305159688E-003;
2.407333333333334E+009;1.965043395757675E-001;3.796642646193504E-002;-4.341501276940107E-003;-3.198035061359406E-003;
2.407500000000000E+009;1.964110434055328E-001;3.801940008997917E-002;-4.424901679158211E-003;-3.165718168020248E-003;
2.407666666666667E+009;1.963971257209778E-001;3.788850456476212E-002;-4.302420187741518E-003;-2.941522048786283E-003;
2.407833333333334E+009;1.959348171949387E-001;3.775240108370781E-002;-4.418329801410437E-003;-2.977324184030294E-003;
2.408000000000000E+009;1.958117634057999E-001;3.759302571415901E-002;-4.440922290086746E-003;-2.560017397627235E-003;
2.408166666666667E+009;1.951421946287155E-001;3.731657564640045E-002;-4.365002270787954E-003;-2.655668649822474E-003;
2.408333333333334E+009;1.947972774505615E-001;3.678597509860992E-002;-4.269325174391270E-003;-2.526084659621120E-003;
2.408500000000000E+009;1.939990818500519E-001;3.637479990720749E-002;-4.353715572506189E-003;-2.576217055320740E-003;
2.408666666666667E+009;1.932398527860642E-001;3.584957122802734E-002;-4.331528674811125E-003;-2.546613104641438E-003;
2.408833333333334E+009;1.925828605890274E-001;3.517327830195427E-002;-4.466716200113297E-003;-2.403520047664642E-003;
2.409000000000000E+009;1.917225867509842E-001;3.409500047564507E-002;-4.619929473847151E-003;-2.202629344537854E-003;
2.409166666666667E+009;1.906456947326660E-001;3.329812735319138E-002;-4.406094085425139E-003;-2.381110331043601E-003;
2.409333333333334E+009;1.896845847368240E-001;3.214879706501961E-002;-4.396192729473114E-003;-2.332292962819338E-003;
2.409500000000000E+009;1.886516660451889E-001;3.092808835208416E-002;-4.508551675826311E-003;-2.240756759420037E-003;
2.409666666666667E+009;1.875454634428024E-001;2.954463101923466E-002;-4.571422468870878E-003;-2.218595473095775E-003;
2.409833333333334E+009;1.866453886032105E-001;2.806029841303825E-002;-4.713591188192368E-003;-2.188848564401269E-003;
2.410000000000000E+009;1.857216209173203E-001;2.641167119145393E-002;-4.899668041616678E-003;-2.167216269299388E-003;
2.410166666666667E+009;1.846683323383331E-001;2.458071149885654E-002;-5.083869677037001E-003;-2.081400947645307E-003;
2.410333333333334E+009;1.836725175380707E-001;2.292449027299881E-002;-5.198317114263773E-003;-2.052768133580685E-003;
2.410500000000000E+009;1.826985180377960E-001;2.097483165562153E-002;-5.205139517784119E-003;-1.934640109539032E-003;
2.410666666666667E+009;1.817944198846817E-001;1.872671581804752E-002;-5.366289522498846E-003;-1.846858882345259E-003;
2.410833333333334E+009;1.811113953590393E-001;1.652844436466694E-002;-5.362751893699169E-003;-1.839577220380306E-003;
2.411000000000000E+009;1.803944706916809E-001;1.423141453415155E-002;-5.331087857484818E-003;-1.616958645172417E-003;
2.411166666666667E+009;1.796873658895493E-001;1.204555947333574E-002;-5.465936847031117E-003;-1.434211269952357E-003;
2.411333333333334E+009;1.791462898254395E-001;9.563124738633633E-003;-5.655883811414242E-003;-1.462041400372982E-003;
2.411500000000000E+009;1.787530332803726E-001;7.219956256449223E-003;-5.742819048464298E-003;-1.174348755739629E-003;
2.411666666666667E+009;1.787597239017487E-001;4.916591569781303E-003;-5.783627741038799E-003;-1.116858795285225E-003;
2.411833333333334E+009;1.784292310476303E-001;2.531675621867180E-003;-5.919765681028366E-003;-1.066447817720473E-003;
2.412000000000000E+009;1.786260753870010E-001;-2.077217504847795E-004;-5.948942154645920E-003;-8.416201453655958E-004;
2.412166666666667E+009;1.785876005887985E-001;-2.503581810742617E-003;-6.055431906133890E-003;-5.811343435198069E-004;
2.412333333333334E+009;1.790292263031006E-001;-4.884477239102125E-003;-6.021108478307724E-003;-5.091494531370699E-004;
2.412500000000000E+009;1.792569011449814E-001;-7.266849745064974E-003;-6.104840897023678E-003;-4.849819233641028E-004;
2.412666666666667E+009;1.798470616340637E-001;-9.839726611971855E-003;-6.354116369038820E-003;-1.962387468665838E-004;
2.412833333333334E+009;1.805703490972519E-001;-1.234989333897829E-002;-6.378479767590761E-003;-5.636815330944955E-005;
2.413000000000000E+009;1.810769736766815E-001;-1.464392337948084E-002;-6.487015169113874E-003;1.955362240551040E-004;
2.413166666666667E+009;1.820197403430939E-001;-1.690795831382275E-002;-6.674288772046566E-003;4.258673579897732E-004;
2.413333333333334E+009;1.828902065753937E-001;-1.909849792718887E-002;-6.750758737325668E-003;6.501220632344484E-004;
2.413500000000000E+009;1.838537305593491E-001;-2.142596058547497E-002;-6.734743714332581E-003;8.360628853552043E-004;
2.413666666666667E+009;1.850888431072235E-001;-2.346388995647430E-002;-6.962617393583059E-003;1.314051914960146E-003;
2.413833333333334E+009;1.862588226795197E-001;-2.551199309527874E-002;-6.838846020400524E-003;1.630893792025745E-003;
2.414000000000000E+009;1.872522085905075E-001;-2.739359810948372E-002;-6.963274441659451E-003;1.947173499502242E-003;
2.414166666666667E+009;1.885086894035339E-001;-2.929916419088841E-002;-6.935251876711845E-003;2.323207911103964E-003;
2.414333333333334E+009;1.896767169237137E-001;-3.111182525753975E-002;-6.679220125079155E-003;2.627148758620024E-003;
2.414500000000000E+009;1.909329295158386E-001;-3.257117792963982E-002;-6.539718247950077E-003;2.917160978540778E-003;
2.414666666666667E+009;1.920993775129318E-001;-3.409965336322784E-002;-6.397067103534937E-003;3.149709897115827E-003;
2.414833333333334E+009;1.933169215917587E-001;-3.544277325272560E-002;-6.301803048700094E-003;3.337680827826262E-003;
2.415000000000000E+009;1.944744288921356E-001;-3.667418658733368E-002;-6.056549493223429E-003;3.683355404064059E-003;
2.415166666666667E+009;1.956149637699127E-001;-3.778597712516785E-002;-5.928295664489269E-003;3.983888775110245E-003;
2.415333333333334E+009;1.966660320758820E-001;-3.863971680402756E-002;-5.771273281425238E-003;4.124158062040806E-003;
2.415500000000000E+009;1.977442950010300E-001;-3.944823518395424E-002;-5.610865075141192E-003;4.351113457232714E-003;
2.415666666666667E+009;1.989249587059021E-001;-4.030392318964005E-002;-5.499629769474268E-003;4.546470940113068E-003;
2.415833333333334E+009;1.996362209320068E-001;-4.088562354445458E-002;-5.281501915305853E-003;4.714577458798885E-003;
2.416000000000000E+009;2.004663050174713E-001;-4.135359451174736E-002;-4.972926340997219E-003;4.863836802542210E-003;
2.416166666666667E+009;2.010502219200134E-001;-4.204614832997322E-002;-4.802933428436518E-003;5.220745690166950E-003;
2.416333333333334E+009;2.018270790576935E-001;-4.231701418757439E-002;-4.621753003448248E-003;5.318663083016872E-003;
2.416500000000000E+009;2.022418379783630E-001;-4.252399504184723E-002;-4.347613546997309E-003;5.530929192900658E-003;
2.416666666666667E+009;2.025660276412964E-001;-4.285654425621033E-002;-3.992290701717138E-003;5.711592268198729E-003;
2.416833333333334E+009;2.026026248931885E-001;-4.288185387849808E-002;-3.746391972526908E-003;5.745955277234316E-003;
2.417000000000000E+009;2.027992755174637E-001;-4.302644729614258E-002;-3.297019982710481E-003;5.721771623939276E-003;
2.417166666666667E+009;2.024088203907013E-001;-4.285620525479317E-002;-2.993111731484532E-003;5.752894561737776E-003;
2.417333333333334E+009;2.021718770265579E-001;-4.287644475698471E-002;-2.794580068439245E-003;5.786253605037928E-003;
2.417500000000000E+009;2.019331306219101E-001;-4.279744625091553E-002;-2.472511725500226E-003;5.634236615151167E-003;
2.417666666666667E+009;2.013333141803742E-001;-4.265877604484558E-002;-2.039754530414939E-003;5.615857429802418E-003;
2.417833333333334E+009;2.008530944585800E-001;-4.250106215476990E-002;-1.884408178739250E-003;5.596863105893135E-003;
2.418000000000000E+009;2.002035826444626E-001;-4.223729670047760E-002;-1.865767757408321E-003;5.452006123960018E-003;
2.418166666666667E+009;1.994761675596237E-001;-4.209732264280319E-002;-1.647041528485715E-003;5.357115529477596E-003;
2.418333333333334E+009;1.984402090311050E-001;-4.210390150547028E-002;-1.605280558578670E-003;5.306768696755171E-003;
2.418500000000000E+009;1.973765790462494E-001;-4.213978350162506E-002;-1.536398078314960E-003;5.076147615909576E-003;
2.418666666666667E+009;1.964453756809235E-001;-4.205465689301491E-002;-1.374173210933805E-003;5.112001206725836E-003;
2.418833333333334E+009;1.950995326042175E-001;-4.220001772046089E-002;-1.224669511429966E-003;5.080021917819977E-003;
2.419000000000000E+009;1.938171088695526E-001;-4.236838221549988E-002;-1.126468763686717E-003;4.840229637920857E-003;
2.419166666666667E+009;1.925289183855057E-001;-4.270343482494354E-002;-1.162820728495717E-003;4.778640344738960E-003;
2.419333333333334E+009;1.911634951829910E-001;-4.317171499133110E-002;-1.174834789708257E-003;4.796062596142292E-003;
2.419500000000000E+009;1.896256208419800E-001;-4.361221566796303E-002;-9.928841609507799E-004;4.752466455101967E-003;
2.419666666666667E+009;1.881993412971497E-001;-4.445839300751686E-002;-1.101038418710232E-003;4.646372981369495E-003;
2.419833333333334E+009;1.864742189645767E-001;-4.506831616163254E-002;-1.024563913233578E-003;4.705848637968302E-003;
2.420000000000000E+009;1.850308477878571E-001;-4.589598625898361E-002;-1.044710050337017E-003;4.614133387804031E-003;
2.420166666666667E+009;1.833821386098862E-001;-4.700098931789398E-002;-9.821176063269377E-004;4.464618396013975E-003;
2.420333333333334E+009;1.816186457872391E-001;-4.802348464727402E-002;-1.000339980237186E-003;4.671998787671328E-003;
2.420500000000000E+009;1.800805479288101E-001;-4.936695098876953E-002;-1.082715927623212E-003;4.666262306272984E-003;
2.420666666666667E+009;1.784177124500275E-001;-5.054379254579544E-002;-1.151769887655973E-003;4.795236047357321E-003;
2.420833333333334E+009;1.768848001956940E-001;-5.200197547674179E-002;-1.083857961930335E-003;4.827854223549366E-003;
2.421000000000000E+009;1.754258871078491E-001;-5.342644453048706E-002;-1.064830576069653E-003;4.911405034363270E-003;
2.421166666666667E+009;1.740849912166596E-001;-5.517977848649025E-002;-1.146747032180429E-003;5.006203427910805E-003;
2.421333333333334E+009;1.723178476095200E-001;-5.678803473711014E-002;-9.863895829766989E-004;5.217361729592085E-003;
2.421500000000000E+009;1.710720360279083E-001;-5.879928171634674E-002;-9.912205860018730E-004;5.250211805105209E-003;
2.421666666666667E+009;1.699015647172928E-001;-6.055872887372971E-002;-9.015359100885689E-004;5.303788930177689E-003;
2.421833333333334E+009;1.689277738332748E-001;-6.243928149342537E-002;-8.724658982828260E-004;5.531623028218746E-003;
2.422000000000000E+009;1.675222218036652E-001;-6.424391269683838E-002;-6.253587198443711E-004;5.684487055987120E-003;
2.422166666666667E+009;1.668589413166046E-001;-6.644184142351151E-002;-4.308466741349548E-004;5.759254097938538E-003;
2.422333333333334E+009;1.659242659807205E-001;-6.852589547634125E-002;-1.895586319733411E-004;5.842803046107292E-003;
2.422500000000000E+009;1.651156544685364E-001;-7.034064084291458E-002;-9.490158845437691E-005;6.074250210076571E-003;
2.422666666666667E+009;1.644285619258881E-001;-7.227615267038345E-002;-5.401372254709713E-005;6.112202070653439E-003;
2.422833333333334E+009;1.639125049114227E-001;-7.455007731914520E-002;2.404509868938476E-004;6.097944919019938E-003;
2.423000000000000E+009;1.634850949048996E-001;-7.664885371923447E-002;5.454067140817642E-004;6.212342996150255E-003;
2.423166666666667E+009;1.630286574363709E-001;-7.855946570634842E-002;6.229071877896786E-004;6.115391850471497E-003;
2.423333333333334E+009;1.629474312067032E-001;-8.054118603467941E-002;7.488359697163105E-004;6.244525779038668E-003;
2.423500000000000E+009;1.628328263759613E-001;-8.235525339841843E-002;1.037195906974375E-003;6.296431180089712E-003;
2.423666666666667E+009;1.628353148698807E-001;-8.422598242759705E-002;1.200059661641717E-003;6.332430522888899E-003;
2.423833333333334E+009;1.626625359058380E-001;-8.599987626075745E-002;1.478203688748181E-003;6.189920008182526E-003;
2.424000000000000E+009;1.629408746957779E-001;-8.779273927211762E-002;1.693694037385285E-003;6.215922534465790E-003;
2.424166666666667E+009;1.628857403993607E-001;-8.925013989210129E-002;1.783085870556533E-003;6.284512579441071E-003;
2.424333333333334E+009;1.631379872560501E-001;-9.066969901323319E-002;2.066284185275435E-003;6.274221930652857E-003;
2.424500000000000E+009;1.634169816970825E-001;-9.251540899276733E-002;2.373773138970137E-003;6.233410444110632E-003;
2.424666666666667E+009;1.637307703495026E-001;-9.374772757291794E-002;2.673081122338772E-003;6.291029974818230E-003;
2.424833333333334E+009;1.642410606145859E-001;-9.510944783687592E-002;2.910559996962547E-003;6.341389846056700E-003;
2.425000000000000E+009;1.645929813385010E-001;-9.619601815938950E-002;3.268829081207514E-003;6.103217601776123E-003;
2.425166666666667E+009;1.648733615875244E-001;-9.723651409149170E-002;3.639764618128538E-003;6.087744142860174E-003;
2.425333333333334E+009;1.652134805917740E-001;-9.813529998064041E-002;3.882748540490866E-003;6.095791235566139E-003;
2.425500000000000E+009;1.656966656446457E-001;-9.927853196859360E-002;4.121625330299139E-003;6.071389652788639E-003;
2.425666666666667E+009;1.660241782665253E-001;-9.978061914443970E-002;4.406478255987167E-003;5.758358165621758E-003;
2.425833333333334E+009;1.663352996110916E-001;-1.005649119615555E-001;4.771498031914234E-003;5.413580220192671E-003;
2.426000000000000E+009;1.666800826787949E-001;-1.010158956050873E-001;4.925358574837446E-003;5.362627562135458E-003;
2.426166666666667E+009;1.670558154582977E-001;-1.014524474740028E-001;4.963323473930359E-003;5.003059282898903E-003;
2.426333333333334E+009;1.672187894582748E-001;-1.019440144300461E-001;5.334285553544760E-003;4.781529307365418E-003;
2.426500000000000E+009;1.675428897142410E-001;-1.023185774683952E-001;5.661921575665474E-003;4.665142390877008E-003;
2.426666666666667E+009;1.677403301000595E-001;-1.025162413716316E-001;5.739131011068821E-003;4.172242712229490E-003;
2.426833333333334E+009;1.679466813802719E-001;-1.027186140418053E-001;5.849466193467379E-003;4.138014744967222E-003;
2.427000000000000E+009;1.679744720458984E-001;-1.028280407190323E-001;5.768720526248217E-003;3.594803856685758E-003;
2.427166666666667E+009;1.680731326341629E-001;-1.030235290527344E-001;5.988233722746372E-003;3.463519504293799E-003;
2.427333333333334E+009;1.678479462862015E-001;-1.032094582915306E-001;5.951168946921825E-003;3.155066166073084E-003;
2.427500000000000E+009;1.677477657794952E-001;-1.032074540853500E-001;6.123741157352924E-003;2.776839537546039E-003;
2.427666666666667E+009;1.673274338245392E-001;-1.033760905265808E-001;6.126894149929285E-003;2.591911470517516E-003;
