# Version 1.00
#
freq[Hz];re:Trc1_S11;im:Trc1_S11;re:Trc2_S21;im:Trc2_S21;
2.400000000000000E+009;1.548463255167007E-001;1.065895855426788E-001;1.553714537294582E-004;-5.159032996743918E-003;
2.400166666666667E+009;1.545628160238266E-001;1.042001917958260E-001;2.810807491187006E-004;-5.078569985926151E-003;
2.400333333333334E+009;1.546560823917389E-001;1.019734591245651E-001;1.093360988306813E-004;-4.990161396563053E-003;
2.400500000000000E+009;1.544320881366730E-001;9.924352169036865E-002;1.470106799388304E-004;-5.063862539827824E-003;
2.400666666666667E+009;1.546048820018768E-001;9.682772308588028E-002;3.299094678368419E-004;-4.782496951520443E-003;
2.400833333333334E+009;1.545624434947968E-001;9.386965632438660E-002;2.782804658636451E-004;-4.924143198877573E-003;
2.401000000000000E+009;1.548426896333695E-001;9.119819849729538E-002;2.295617014169693E-004;-4.910076502710581E-003;
2.401166666666667E+009;1.550694257020950E-001;8.837775141000748E-002;2.720041666179895E-004;-4.989719018340111E-003;
2.401333333333334E+009;1.552229225635529E-001;8.554515987634659E-002;6.331085751298815E-005;-5.149881821125746E-003;
2.401500000000000E+009;1.557726562023163E-001;8.271038532257080E-002;2.892943448387086E-004;-5.108898505568504E-003;
2.401666666666667E+009;1.562399119138718E-001;8.007273077964783E-002;1.840552577050403E-004;-5.217185243964195E-003;
2.401833333333334E+009;1.567538976669312E-001;7.722650468349457E-002;7.941166404634714E-005;-5.416767671704292E-003;
2.402000000000000E+009;1.576564610004425E-001;7.445426285266876E-002;4.171886757831089E-005;-5.246705375611782E-003;
2.402166666666667E+009;1.585547178983688E-001;7.207346707582474E-002;-2.235252468381077E-004;-5.440694745630026E-003;
2.402333333333334E+009;1.595856547355652E-001;6.924369186162949E-002;-2.480732509866357E-004;-5.682589951902628E-003;
2.402500000000000E+009;1.607288569211960E-001;6.666008383035660E-002;-3.070225066039711E-004;-5.646707490086556E-003;
2.402666666666667E+009;1.618854105472565E-001;6.455276906490326E-002;-7.934856112115085E-004;-5.733139812946320E-003;
2.402833333333334E+009;1.633711755275726E-001;6.186889857053757E-002;-6.941383471712470E-004;-5.643267650157213E-003;
2.403000000000000E+009;1.646070033311844E-001;5.959363281726837E-002;-1.191950403153896E-003;-5.664413329213858E-003;
2.403166666666667E+009;1.664372086524963E-001;5.734565854072571E-002;-1.277333707548678E-003;-5.802693776786327E-003;
2.403333333333334E+009;1.677295565605164E-001;5.525733903050423E-002;-1.600447809323669E-003;-5.715189035981894E-003;
2.403500000000000E+009;1.696938723325729E-001;5.330171808600426E-002;-1.707329764030874E-003;-5.470671225339174E-003;
2.403666666666667E+009;1.713632196187973E-001;5.135885253548622E-002;-1.923898467794061E-003;-5.331973079591990E-003;
2.403833333333334E+009;1.732514947652817E-001;4.941198229789734E-002;-2.230584155768156E-003;-5.305798724293709E-003;
2.404000000000000E+009;1.747336089611054E-001;4.772485792636871E-002;-2.204691758379340E-003;-5.107246804982424E-003;
2.404166666666667E+009;1.764249950647354E-001;4.636525735259056E-002;-2.295374171808362E-003;-5.055695306509733E-003;
2.404333333333334E+009;1.780849099159241E-001;4.479176178574562E-002;-2.525225281715393E-003;-4.917718004435301E-003;
2.404500000000000E+009;1.797799468040466E-001;4.324509948492050E-002;-2.368652028962970E-003;-4.848877433687449E-003;
2.404666666666667E+009;1.812898814678192E-001;4.237561672925949E-002;-2.671148162335157E-003;-4.820054396986961E-003;
2.404833333333334E+009;1.829275935888290E-001;4.106807708740234E-002;-2.481824951246381E-003;-4.652603995054960E-003;
2.405000000000000E+009;1.842806786298752E-001;4.047184810042381E-002;-2.791616600006819E-003;-4.705741535872221E-003;
2.405166666666667E+009;1.858190298080444E-001;3.968388587236404E-002;-2.810031175613403E-003;-4.709540400654078E-003;
2.405333333333334E+009;1.872152686119080E-001;3.923593461513519E-002;-2.893150784075260E-003;-4.673992749303579E-003;
2.405500000000000E+009;1.885537505149841E-001;3.871694952249527E-002;-3.131335135549307E-003;-4.631190560758114E-003;
2.405666666666667E+009;1.899037957191467E-001;3.837022930383682E-002;-3.293855115771294E-003;-4.625202622264624E-003;
2.405833333333334E+009;1.910331249237061E-001;3.811387717723846E-002;-3.469960531219840E-003;-4.432752728462219E-003;
2.406000000000000E+009;1.921643912792206E-001;3.794605657458305E-002;-3.480908693745732E-003;-4.479810595512390E-003;
2.406166666666667E+009;1.930703371763229E-001;3.771467134356499E-002;-3.760178107768297E-003;-4.365905653685331E-003;
2.406333333333334E+009;1.939684897661209E-001;3.773655742406845E-002;-4.055778961628676E-003;-4.111203830689192E-003;
2.406500000000000E+009;1.946396827697754E-001;3.763138875365257E-002;-4.016818478703499E-003;-3.831887384876609E-003;
2.406666666666667E+009;1.952446550130844E-001;3.782960772514343E-002;-4.151230212301016E-003;-3.766170470044017E-003;
2.406833333333334E+009;1.957228630781174E-001;3.778085485100746E-002;-4.263143986463547E-003;-3.596460912376642E-003;
2.407000000000000E+009;1.960399746894836E-001;3.794288635253906E-002;-4.368760623037815E-003;-3.242641221731901E-003;
2.407166666666667E+009;1.963830292224884E-001;3.769400715827942E-002;-4.319520667195320E-003;-3.210800001397729E-003;
2.407333333333334E+009;1.962838619947434E-001;3.790517896413803E-002;-4.386429209262133E-003;-3.241138532757759E-003;
2.407500000000000E+009;1.962353587150574E-001;3.791677579283714E-002;-4.497795831412077E-003;-3.023498691618443E-003;
2.407666666666667E+009;1.962529271841049E-001;3.788277506828308E-002;-4.399896133691073E-003;-2.703129081055522E-003;
2.407833333333334E+009;1.957385540008545E-001;3.774118795990944E-002;-4.317746497690678E-003;-2.755062887445092E-003;
2.408000000000000E+009;1.956196427345276E-001;3.759075328707695E-002;-4.412293899804354E-003;-2.658952958881855E-003;
2.408166666666667E+009;1.949882209300995E-001;3.722807765007019E-002;-4.312306176871061E-003;-2.608944429084659E-003;
2.408333333333334E+009;1.945118457078934E-001;3.680469095706940E-002;-4.307197872549295E-003;-2.432293724268675E-003;
2.408500000000000E+009;1.937388479709625E-001;3.646894171833992E-002;-4.410256166011095E-003;-2.469270722940564E-003;
2.408666666666667E+009;1.931001245975494E-001;3.589451685547829E-002;-4.414137918502092E-003;-2.547629643231630E-003;
2.408833333333334E+009;1.924556344747543E-001;3.506081551313400E-002;-4.461987409740686E-003;-2.547849901020527E-003;
2.409000000000000E+009;1.914448589086533E-001;3.425667434930801E-002;-4.405253101140261E-003;-2.437948482111096E-003;
2.409166666666667E+009;1.904319375753403E-001;3.313347697257996E-002;-4.449001513421536E-003;-2.330410759896040E-003;
2.409333333333334E+009;1.895041465759277E-001;3.218193724751473E-002;-4.596792627125979E-003;-2.296340186148882E-003;
2.409500000000000E+009;1.883721202611923E-001;3.087263368070126E-002;-4.504700191318989E-003;-2.403457416221499E-003;
2.409666666666667E+009;1.874087601900101E-001;2.945156767964363E-002;-4.712820518761873E-003;-2.258209977298975E-003;
2.409833333333334E+009;1.863116770982742E-001;2.800658158957958E-002;-4.651256371289492E-003;-2.170720137655735E-003;
2.410000000000000E+009;1.853516548871994E-001;2.640593796968460E-002;-5.019580479711294E-003;-2.187460893765092E-003;
2.410166666666667E+009;1.843272000551224E-001;2.453712560236454E-002;-4.910909570753574E-003;-2.033623866736889E-003;
2.410333333333334E+009;1.834305226802826E-001;2.265409193933010E-002;-5.123882554471493E-003;-1.902307267300785E-003;
2.410500000000000E+009;1.824455261230469E-001;2.084817551076412E-002;-5.114240571856499E-003;-1.846235129050911E-003;
2.410666666666667E+009;1.814470887184143E-001;1.863132230937481E-002;-5.235428456217051E-003;-1.769609283655882E-003;
2.410833333333334E+009;1.810841113328934E-001;1.639397069811821E-002;-5.476781632751226E-003;-1.674046856351197E-003;
2.411000000000000E+009;1.801615804433823E-001;1.425622496753931E-002;-5.509689450263977E-003;-1.571784378029406E-003;
2.411166666666667E+009;1.793818324804306E-001;1.202397979795933E-002;-5.511531140655279E-003;-1.553022768348455E-003;
2.411333333333334E+009;1.790518462657929E-001;9.552570991218090E-003;-5.703022703528404E-003;-1.220626174472272E-003;
2.411500000000000E+009;1.787219941616058E-001;7.136755157262087E-003;-5.809855647385120E-003;-1.245665596798062E-003;
2.411666666666667E+009;1.783764511346817E-001;4.827664699405432E-003;-5.896242335438728E-003;-1.069093472324312E-003;
2.411833333333334E+009;1.780749559402466E-001;2.522122347727418E-003;-6.016962230205536E-003;-8.386082481592894E-004;
2.412000000000000E+009;1.783860921859741E-001;-1.294005633099005E-004;-5.964139010757208E-003;-9.001566213555634E-004;
2.412166666666667E+009;1.784010678529739E-001;-2.532707992941141E-003;-5.973747465759516E-003;-6.523699266836047E-004;
2.412333333333334E+009;1.788523048162460E-001;-4.863823298364878E-003;-6.225297227501869E-003;-4.844576760660857E-004;
2.412500000000000E+009;1.791141480207443E-001;-7.407154887914658E-003;-6.273385137319565E-003;-4.202138807158917E-004;
2.412666666666667E+009;1.797410100698471E-001;-9.855395182967186E-003;-6.366698537021875E-003;-9.341347322333604E-005;
2.412833333333334E+009;1.803583204746246E-001;-1.235499139875174E-002;-6.540853064507246E-003;-1.990849123103544E-004;
2.413000000000000E+009;1.811742037534714E-001;-1.451682485640049E-002;-6.443419959396124E-003;2.081510174321011E-004;
2.413166666666667E+009;1.819221228361130E-001;-1.681627891957760E-002;-6.525921169668436E-003;5.528113106265664E-004;
2.413333333333334E+009;1.829139441251755E-001;-1.895467564463615E-002;-6.664355285465717E-003;6.840982823632658E-004;
2.413500000000000E+009;1.838349848985672E-001;-2.126864716410637E-002;-6.877809297293425E-003;1.109437784180045E-003;
2.413666666666667E+009;1.850102245807648E-001;-2.354181557893753E-002;-6.707997992634773E-003;1.213152543641627E-003;
2.413833333333334E+009;1.861474066972733E-001;-2.528243139386177E-002;-6.873602047562599E-003;1.669040881097317E-003;
2.414000000000000E+009;1.871303766965866E-001;-2.747613936662674E-002;-6.938692647963762E-003;2.026561880484223E-003;
2.414166666666667E+009;1.884734630584717E-001;-2.909319102764130E-002;-6.776349619030953E-003;2.318857936188579E-003;
2.414333333333334E+009;1.895283460617065E-001;-3.114721179008484E-002;-6.595003884285688E-003;2.526128897443414E-003;
2.414500000000000E+009;1.907960176467896E-001;-3.267852962017059E-002;-6.626470014452934E-003;2.852818695828319E-003;
2.414666666666667E+009;1.919662952423096E-001;-3.406531736254692E-002;-6.494713015854359E-003;3.274473827332258E-003;
2.414833333333334E+009;1.930220425128937E-001;-3.543082624673843E-002;-6.425433792173863E-003;3.378660883754492E-003;
2.415000000000000E+009;1.942749470472336E-001;-3.656329587101936E-002;-6.145010702311993E-003;3.754349891096354E-003;
2.415166666666667E+009;1.955936551094055E-001;-3.770589828491211E-002;-5.814110394567251E-003;3.857986303046346E-003;
2.415333333333334E+009;1.966499090194702E-001;-3.860742971301079E-002;-5.543536506593227E-003;4.149881191551685E-003;
2.415500000000000E+009;1.977019309997559E-001;-3.936063498258591E-002;-5.532481241971254E-003;4.382292740046978E-003;
2.415666666666667E+009;1.987031698226929E-001;-4.036533460021019E-002;-5.509434733539820E-003;4.544119816273451E-003;
2.415833333333334E+009;1.994773596525192E-001;-4.081263765692711E-002;-5.109281279146671E-003;4.823946859687567E-003;
2.416000000000000E+009;2.003162950277329E-001;-4.133389890193939E-002;-4.930971655994654E-003;4.892925731837750E-003;
2.416166666666667E+009;2.009984254837036E-001;-4.194310307502747E-002;-4.724893253296614E-003;5.332680884748697E-003;
2.416333333333334E+009;2.016712129116058E-001;-4.218338429927826E-002;-4.383360967040062E-003;5.449755582958460E-003;
2.416500000000000E+009;2.021236270666122E-001;-4.241437092423439E-002;-4.212243482470512E-003;5.606550257652998E-003;
2.416666666666667E+009;2.024813741445541E-001;-4.278345033526421E-002;-3.857209812849760E-003;5.528910551220179E-003;
2.416833333333334E+009;2.025843113660812E-001;-4.286972433328629E-002;-3.561325371265411E-003;5.811608862131834E-003;
2.417000000000000E+009;2.026872187852860E-001;-4.289644956588745E-002;-3.191746771335602E-003;5.779638886451721E-003;
2.417166666666667E+009;2.023357599973679E-001;-4.286023974418640E-002;-3.048375714570284E-003;5.900093819946051E-003;
2.417333333333334E+009;2.021373361349106E-001;-4.269278421998024E-002;-2.684120321646333E-003;5.725901108235121E-003;
2.417500000000000E+009;2.018416374921799E-001;-4.274607077240944E-002;-2.503448864445090E-003;5.733781959861517E-003;
2.417666666666667E+009;2.013622671365738E-001;-4.248512908816338E-002;-2.261022338643670E-003;5.642957054078579E-003;
2.417833333333334E+009;2.007918953895569E-001;-4.226019233465195E-002;-2.041662344709039E-003;5.569082219153643E-003;
2.418000000000000E+009;2.001338303089142E-001;-4.204047843813896E-002;-1.720727072097361E-003;5.404913797974587E-003;
2.418166666666667E+009;1.993007659912109E-001;-4.208977892994881E-002;-1.747425994835794E-003;5.319907329976559E-003;
2.418333333333334E+009;1.984061598777771E-001;-4.197147861123085E-002;-1.533181639388204E-003;5.261133890599012E-003;
2.418500000000000E+009;1.973903030157089E-001;-4.191384091973305E-002;-1.594388973899186E-003;5.059509538114071E-003;
2.418666666666667E+009;1.964073628187180E-001;-4.186749085783958E-002;-1.305889338254929E-003;4.974686540663242E-003;
2.418833333333334E+009;1.950769424438477E-001;-4.210764542222023E-002;-1.240554847754538E-003;5.014894064515829E-003;
2.419000000000000E+009;1.936454027891159E-001;-4.229510948061943E-002;-1.148961135186255E-003;4.932630807161331E-003;
2.419166666666667E+009;1.924652159214020E-001;-4.256562516093254E-002;-1.157005084678531E-003;4.832617938518524E-003;
2.419333333333334E+009;1.910573393106461E-001;-4.314351081848145E-002;-1.141773536801338E-003;4.846218973398209E-003;
2.419500000000000E+009;1.895488947629929E-001;-4.351805895566940E-002;-1.028532162308693E-003;4.600471351295710E-003;
2.419666666666667E+009;1.880232393741608E-001;-4.428229853510857E-002;-1.104018185287714E-003;4.715397953987122E-003;
2.419833333333334E+009;1.863381564617157E-001;-4.487486928701401E-002;-1.014141598716378E-003;4.753278568387032E-003;
2.420000000000000E+009;1.848490983247757E-001;-4.583738371729851E-002;-9.843591833487153E-004;4.659401718527079E-003;
2.420166666666667E+009;1.832318603992462E-001;-4.682549461722374E-002;-1.120206201449037E-003;4.545445088297129E-003;
2.420333333333334E+009;1.816786527633667E-001;-4.782721400260925E-002;-1.055859145708382E-003;4.625618923455477E-003;
2.420500000000000E+009;1.799139678478241E-001;-4.926315322518349E-002;-1.013145316392183E-003;4.701833240687847E-003;
2.420666666666667E+009;1.784120053052902E-001;-5.043517425656319E-002;-1.056442153640091E-003;4.744717385619879E-003;
2.420833333333334E+009;1.768964976072311E-001;-5.192866921424866E-002;-1.197983161546290E-003;4.750528838485479E-003;
2.421000000000000E+009;1.753997057676315E-001;-5.354346334934235E-002;-1.080785179510713E-003;4.872239660471678E-003;
2.421166666666667E+009;1.740351319313049E-001;-5.518076196312904E-002;-1.136621576733887E-003;4.994620569050312E-003;
2.421333333333334E+009;1.724224984645844E-001;-5.660945922136307E-002;-9.750418830662966E-004;5.159843713045120E-003;
2.421500000000000E+009;1.709856241941452E-001;-5.851970240473747E-002;-8.965918095782399E-004;5.218329839408398E-003;
2.421666666666667E+009;1.699591279029846E-001;-6.049231812357903E-002;-8.205377380363643E-004;5.367587320506573E-003;
2.421833333333334E+009;1.687872111797333E-001;-6.227450072765350E-002;-7.784113404341042E-004;5.453136749565601E-003;
2.422000000000000E+009;1.676312983036041E-001;-6.428010016679764E-002;-6.558802560903132E-004;5.595121998339891E-003;
2.422166666666667E+009;1.669284403324127E-001;-6.636469066143036E-002;-4.248632467351854E-004;5.889455787837505E-003;
2.422333333333334E+009;1.658415347337723E-001;-6.839810311794281E-002;-3.670401638373733E-004;5.804208107292652E-003;
2.422500000000000E+009;1.652019321918488E-001;-7.032729685306549E-002;-1.601916592335329E-004;5.979767534881830E-003;
2.422666666666667E+009;1.643848717212677E-001;-7.239749282598496E-002;1.315362023888156E-004;6.075535900890827E-003;
2.422833333333334E+009;1.640659719705582E-001;-7.433390617370606E-002;3.238513309042901E-004;6.143803242594004E-003;
2.423000000000000E+009;1.634704619646072E-001;-7.644386589527130E-002;5.412663449533284E-004;6.120658945292234E-003;
2.423166666666667E+009;1.632293760776520E-001;-7.835964858531952E-002;5.691654514521360E-004;6.067370064556599E-003;
2.423333333333334E+009;1.628917902708054E-001;-8.028858155012131E-002;8.036177023313940E-004;6.055129226297140E-003;
2.423500000000000E+009;1.627932935953140E-001;-8.216430246829987E-002;1.144650275819004E-003;6.262669339776039E-003;
2.423666666666667E+009;1.628864258527756E-001;-8.405277132987976E-002;1.252038986422122E-003;6.236851215362549E-003;
2.423833333333334E+009;1.627785861492157E-001;-8.591970056295395E-002;1.572120585478842E-003;6.143928971141577E-003;
2.424000000000000E+009;1.628209799528122E-001;-8.767484873533249E-002;1.709638512693346E-003;6.249820347875357E-003;
2.424166666666667E+009;1.629245728254318E-001;-8.902843296527863E-002;1.874111709184945E-003;6.300277542322874E-003;
2.424333333333334E+009;1.632096618413925E-001;-9.067832678556442E-002;2.035540994256735E-003;6.115940399467945E-003;
2.424500000000000E+009;1.635022014379501E-001;-9.251981228590012E-002;2.342145889997482E-003;6.230235099792481E-003;
2.424666666666667E+009;1.637276858091354E-001;-9.374453127384186E-002;2.678466495126486E-003;6.273102015256882E-003;
2.424833333333334E+009;1.643087267875671E-001;-9.495048224925995E-002;2.966886851936579E-003;6.308512296527624E-003;
2.425000000000000E+009;1.645128279924393E-001;-9.617306292057037E-002;3.207467962056398E-003;6.269240286201239E-003;
2.425166666666667E+009;1.649255007505417E-001;-9.720037132501602E-002;3.556984476745129E-003;6.045473739504814E-003;
2.425333333333334E+009;1.652151197195053E-001;-9.812252223491669E-002;3.893543733283877E-003;6.067539099603891E-003;
2.425500000000000E+009;1.657609939575195E-001;-9.898853302001953E-002;3.971353638917208E-003;5.795247387140989E-003;
2.425666666666667E+009;1.659917086362839E-001;-9.969569742679596E-002;4.330794326961041E-003;5.641049705445766E-003;
2.425833333333334E+009;1.663447171449661E-001;-1.004624366760254E-001;4.676223732531071E-003;5.480401683598757E-003;
2.426000000000000E+009;1.667107939720154E-001;-1.009329855442047E-001;4.872323945164681E-003;5.260171368718147E-003;
2.426166666666667E+009;1.670526117086411E-001;-1.012629121541977E-001;5.192735232412815E-003;4.974536132067442E-003;
2.426333333333334E+009;1.672452986240387E-001;-1.018166244029999E-001;5.308896303176880E-003;4.786988720297813E-003;
2.426500000000000E+009;1.675661057233810E-001;-1.020658239722252E-001;5.553583148866892E-003;4.531484562903643E-003;
2.426666666666667E+009;1.678314954042435E-001;-1.023696810007095E-001;5.697565618902445E-003;4.361012484878302E-003;
2.426833333333334E+009;1.679838299751282E-001;-1.026847809553146E-001;5.809325259178877E-003;3.965682350099087E-003;
2.427000000000000E+009;1.680325418710709E-001;-1.027861088514328E-001;6.005747243762016E-003;3.575860057026148E-003;
2.427166666666667E+009;1.681580841541290E-001;-1.029002591967583E-001;6.081063766032457E-003;3.340927418321371E-003;
2.427333333333334E+009;1.678333133459091E-001;-1.031085103750229E-001;5.983717739582062E-003;3.216165583580732E-003;
2.427500000000000E+009;1.677315980195999E-001;-1.032785326242447E-001;5.952035076916218E-003;2.762292278930545E-003;
2.427666666666667E+009;1.673213839530945E-001;-1.032866388559341E-001;6.084349006414414E-003;2.618954284116626E-003;
