# Version 1.00
#
freq[Hz];re:Trc1_S11;im:Trc1_S11;re:Trc2_S21;im:Trc2_S21;
2.400000000000000E+009;1.554274857044220E-001;1.060930788516998E-001;-2.702077850699425E-003;-3.723500762134790E-003;
2.400166666666667E+009;1.552061289548874E-001;1.037342920899391E-001;-3.177927574142814E-003;-3.538186429068446E-003;
2.400333333333334E+009;1.553280651569367E-001;1.013605967164040E-001;-3.128396114334464E-003;-3.242538543418050E-003;
2.400500000000000E+009;1.552165299654007E-001;9.872308373451233E-002;-3.274709917604923E-003;-3.032472450286150E-003;
2.400666666666667E+009;1.553761959075928E-001;9.623862057924271E-002;-3.326162463054061E-003;-2.699259901419282E-003;
2.400833333333334E+009;1.555162668228149E-001;9.328204393386841E-002;-3.437710925936699E-003;-2.532892394810915E-003;
2.401000000000000E+009;1.554804593324661E-001;9.059660136699677E-002;-3.496341174468398E-003;-2.256910549476743E-003;
2.401166666666667E+009;1.557846516370773E-001;8.782649785280228E-002;-3.286056453362107E-003;-2.126685809344053E-003;
2.401333333333334E+009;1.558721214532852E-001;8.499545603990555E-002;-3.414572682231665E-003;-1.933321822434664E-003;
2.401500000000000E+009;1.565119624137878E-001;8.223718404769898E-002;-3.333789994940162E-003;-1.756519312039018E-003;
2.401666666666667E+009;1.569656878709793E-001;7.947996258735657E-002;-3.257193369790912E-003;-1.631188322789967E-003;
2.401833333333334E+009;1.574255079030991E-001;7.668123394250870E-002;-3.197848331183195E-003;-1.683308742940426E-003;
2.402000000000000E+009;1.583277881145477E-001;7.390128076076508E-002;-3.296043025329709E-003;-1.497281366027892E-003;
2.402166666666667E+009;1.591253429651260E-001;7.143309712409973E-002;-3.339004470035434E-003;-1.488678273744881E-003;
2.402333333333334E+009;1.599331945180893E-001;6.888993084430695E-002;-3.165771020576358E-003;-1.400621724314988E-003;
2.402500000000000E+009;1.610739082098007E-001;6.629348546266556E-002;-3.320416668429971E-003;-1.435705111362040E-003;
2.402666666666667E+009;1.623926609754562E-001;6.409946829080582E-002;-3.437270177528262E-003;-1.364404452033341E-003;
2.402833333333334E+009;1.638199388980866E-001;6.139227375388145E-002;-3.407121635973454E-003;-1.262954086996615E-003;
2.403000000000000E+009;1.650765091180801E-001;5.903080105781555E-002;-3.393286373466253E-003;-1.048830221407116E-003;
2.403166666666667E+009;1.668358743190765E-001;5.711194500327110E-002;-3.615603083744645E-003;-1.168939168564975E-003;
2.403333333333334E+009;1.682826280593872E-001;5.489611625671387E-002;-3.738009138032794E-003;-8.801086805760860E-004;
2.403500000000000E+009;1.698067188262940E-001;5.280686542391777E-002;-4.003196954727173E-003;-6.677039782516658E-004;
2.403666666666667E+009;1.714848279953003E-001;5.102373659610748E-002;-3.961878363043070E-003;-4.775444394908845E-004;
2.403833333333334E+009;1.731450408697128E-001;4.925254359841347E-002;-4.056777805089951E-003;-1.439218031009659E-004;
2.404000000000000E+009;1.745278090238571E-001;4.743596538901329E-002;-3.844634164124727E-003;7.890519918873906E-005;
2.404166666666667E+009;1.763858050107956E-001;4.592133313417435E-002;-3.905670717358589E-003;4.441926430445164E-004;
2.404333333333334E+009;1.779685467481613E-001;4.455140233039856E-002;-3.850494045764208E-003;5.742343491874635E-004;
2.404500000000000E+009;1.796385496854782E-001;4.321008548140526E-002;-3.645994234830141E-003;8.594660321250558E-004;
2.404666666666667E+009;1.812765300273895E-001;4.212358593940735E-002;-3.271335503086448E-003;1.284391270019114E-003;
2.404833333333334E+009;1.827193796634674E-001;4.100027307868004E-002;-3.166624810546637E-003;1.228992943651974E-003;
2.405000000000000E+009;1.840799003839493E-001;4.037580639123917E-002;-3.021290060132742E-003;1.400017179548740E-003;
2.405166666666667E+009;1.856508404016495E-001;3.961600735783577E-002;-2.724627731367946E-003;1.617389614693821E-003;
2.405333333333334E+009;1.869626045227051E-001;3.911476582288742E-002;-2.563947113230825E-003;1.718578860163689E-003;
2.405500000000000E+009;1.882954686880112E-001;3.864860534667969E-002;-2.468779915943742E-003;1.749870949424803E-003;
2.405666666666667E+009;1.895171403884888E-001;3.839211165904999E-002;-2.179520204663277E-003;1.709312666207552E-003;
2.405833333333334E+009;1.907716840505600E-001;3.810793533921242E-002;-2.090709051117301E-003;1.699680346064270E-003;
2.406000000000000E+009;1.917493492364883E-001;3.795088455080986E-002;-1.737952348776162E-003;1.553000882267952E-003;
2.406166666666667E+009;1.927074193954468E-001;3.757494688034058E-002;-1.752807409502566E-003;1.563679892569780E-003;
2.406333333333334E+009;1.935707628726959E-001;3.776120766997337E-002;-1.602176111191511E-003;1.598334638401866E-003;
2.406500000000000E+009;1.943070739507675E-001;3.762437030673027E-002;-1.367406919598579E-003;1.690939883701503E-003;
2.406666666666667E+009;1.949126124382019E-001;3.765998780727387E-002;-1.354254549369216E-003;1.462863059714437E-003;
2.406833333333334E+009;1.952529698610306E-001;3.764309361577034E-002;-1.221408485434949E-003;1.549731474369764E-003;
2.407000000000000E+009;1.956689357757568E-001;3.788815066218376E-002;-1.022218842990696E-003;1.553451409563422E-003;
2.407166666666667E+009;1.960877180099487E-001;3.758027777075768E-002;-9.614779264666140E-004;1.316519104875624E-003;
2.407333333333334E+009;1.958549171686173E-001;3.764028474688530E-002;-8.055246435105801E-004;1.284834695979953E-003;
2.407500000000000E+009;1.958158910274506E-001;3.769202530384064E-002;-6.446195766329765E-004;1.133722136728466E-003;
2.407666666666667E+009;1.958219259977341E-001;3.774984925985336E-002;-6.512773106805980E-004;9.480852750129998E-004;
2.407833333333334E+009;1.953605264425278E-001;3.747004270553589E-002;-5.930225597694516E-004;8.454501512460411E-004;
2.408000000000000E+009;1.951986998319626E-001;3.725069761276245E-002;-5.114956875331700E-004;8.184111793525517E-004;
2.408166666666667E+009;1.945801675319672E-001;3.693422675132752E-002;-6.052259705029428E-004;6.077287835069001E-004;
2.408333333333334E+009;1.941974312067032E-001;3.645294159650803E-002;-5.541611462831497E-004;5.005783168599010E-004;
2.408500000000000E+009;1.934627890586853E-001;3.610600903630257E-002;-5.099754780530930E-004;4.830543766729534E-004;
2.408666666666667E+009;1.928189098834992E-001;3.550736233592033E-002;-7.141857640817761E-004;4.082444356754422E-004;
2.408833333333334E+009;1.920509040355682E-001;3.479787334799767E-002;-6.235543405637145E-004;1.802150509320200E-004;
2.409000000000000E+009;1.912138462066650E-001;3.372748568654060E-002;-7.275587413460016E-004;2.425666316412389E-004;
2.409166666666667E+009;1.902661025524139E-001;3.279602527618408E-002;-8.890458848327398E-004;2.124330494552851E-004;
2.409333333333334E+009;1.892542988061905E-001;3.174328804016113E-002;-1.036378787830472E-003;1.381001493427903E-004;
2.409500000000000E+009;1.882606595754623E-001;3.040814027190208E-002;-1.087661716155708E-003;-8.288076969620306E-006;
2.409666666666667E+009;1.873669326305389E-001;2.910075150430203E-002;-1.024934346787632E-003;7.157922664191574E-005;
2.409833333333334E+009;1.862549930810928E-001;2.752605639398098E-002;-1.265471801161766E-003;2.412993198959157E-004;
2.410000000000000E+009;1.851918101310730E-001;2.591462619602680E-002;-1.265019527636468E-003;2.123134763678536E-004;
2.410166666666667E+009;1.843273937702179E-001;2.408210560679436E-002;-1.375131658278406E-003;2.709404216147959E-004;
2.410333333333334E+009;1.833171248435974E-001;2.231754735112190E-002;-1.346864621154964E-003;2.918977406807244E-004;
2.410500000000000E+009;1.824192255735397E-001;2.052303776144981E-002;-1.282786601223052E-003;3.535273426678032E-004;
2.410666666666667E+009;1.815619319677353E-001;1.812041364610195E-002;-1.184868742711842E-003;3.897769784089178E-004;
2.410833333333334E+009;1.808208078145981E-001;1.607058569788933E-002;-1.218940247781575E-003;3.676383930724114E-004;
2.411000000000000E+009;1.801791638135910E-001;1.379043515771627E-002;-1.196566270664334E-003;5.038981325924397E-004;
2.411166666666667E+009;1.794787198305130E-001;1.157437171787024E-002;-9.393494110554457E-004;2.439639647491276E-004;
2.411333333333334E+009;1.791343092918396E-001;9.359817020595074E-003;-1.144754118286073E-003;2.956670650746673E-004;
2.411500000000000E+009;1.787116080522537E-001;7.012267597019672E-003;-1.112932572141290E-003;9.851518552750349E-005;
2.411666666666667E+009;1.785053461790085E-001;4.462162498384714E-003;-1.178873586468399E-003;-1.230577890964923E-005;
2.411833333333334E+009;1.783263832330704E-001;2.304930239915848E-003;-1.207182416692376E-003;-6.119019235484302E-005;
2.412000000000000E+009;1.784468740224838E-001;-4.199562827125192E-004;-1.319229602813721E-003;-6.729010056005791E-005;
2.412166666666667E+009;1.784172952175140E-001;-2.654472365975380E-003;-1.430118223652244E-003;-1.681530266068876E-004;
2.412333333333334E+009;1.786745190620422E-001;-5.020549520850182E-003;-1.381869078613818E-003;-7.608028681715950E-005;
2.412500000000000E+009;1.790635138750076E-001;-7.479126099497080E-003;-1.733854413032532E-003;-2.390347653999925E-004;
2.412666666666667E+009;1.795996427536011E-001;-9.792886674404144E-003;-2.022040775045753E-003;-2.275272127008066E-004;
2.412833333333334E+009;1.803713440895081E-001;-1.231937855482101E-002;-2.137551084160805E-003;-2.748631814029068E-004;
2.413000000000000E+009;1.810423582792282E-001;-1.446199323982000E-002;-2.288286341354251E-003;-1.493867021054030E-004;
2.413166666666667E+009;1.819014102220535E-001;-1.687238737940788E-002;-2.461354713886976E-003;-1.384636416332796E-004;
2.413333333333334E+009;1.829126328229904E-001;-1.885386556386948E-002;-2.624488202854991E-003;1.895476743811742E-004;
2.413500000000000E+009;1.837717741727829E-001;-2.108077518641949E-002;-2.889197319746018E-003;2.919594408012927E-004;
2.413666666666667E+009;1.849703788757324E-001;-2.330493740737438E-002;-2.917827572673559E-003;5.645786295644939E-004;
2.413833333333334E+009;1.860249042510986E-001;-2.515309490263462E-002;-3.049886785447598E-003;9.554064599797130E-004;
2.414000000000000E+009;1.871080100536346E-001;-2.714575268328190E-002;-3.075227839872241E-003;1.049705431796610E-003;
2.414166666666667E+009;1.883679926395416E-001;-2.887482754886150E-002;-3.203042782843113E-003;1.401322777383030E-003;
2.414333333333334E+009;1.894026994705200E-001;-3.066120482981205E-002;-3.159161424264312E-003;1.748061389662325E-003;
2.414500000000000E+009;1.907319426536560E-001;-3.218270465731621E-002;-3.071988467127085E-003;1.983186695724726E-003;
2.414666666666667E+009;1.917132437229157E-001;-3.369014337658882E-002;-2.851163037121296E-003;2.385281724855304E-003;
2.414833333333334E+009;1.929779201745987E-001;-3.495818749070168E-002;-2.694216324016452E-003;2.409783657640219E-003;
2.415000000000000E+009;1.939978599548340E-001;-3.637735545635223E-002;-2.447177190333605E-003;2.656162716448307E-003;
2.415166666666667E+009;1.950989961624146E-001;-3.729297220706940E-002;-2.322819549590349E-003;2.934129908680916E-003;
2.415333333333334E+009;1.963725239038467E-001;-3.829099237918854E-002;-2.207382814958692E-003;3.074863692745566E-003;
2.415500000000000E+009;1.973180174827576E-001;-3.900704905390739E-002;-2.023962559178472E-003;3.114617429673672E-003;
2.415666666666667E+009;1.985522210597992E-001;-3.963192179799080E-002;-1.782856881618500E-003;3.087582066655159E-003;
2.415833333333334E+009;1.992739140987396E-001;-4.040623456239700E-002;-1.736044418066740E-003;3.289216198027134E-003;
2.416000000000000E+009;2.000556737184525E-001;-4.100739583373070E-002;-1.455403282307088E-003;3.355243010446429E-003;
2.416166666666667E+009;2.007105797529221E-001;-4.152040183544159E-002;-1.329720020294190E-003;3.365305718034506E-003;
2.416333333333334E+009;2.014124691486359E-001;-4.186253249645233E-002;-1.259801560081542E-003;3.450400894507766E-003;
2.416500000000000E+009;2.018238008022308E-001;-4.210190847516060E-002;-9.274035692214966E-004;3.494886914268136E-003;
2.416666666666667E+009;2.020328193902969E-001;-4.244656860828400E-002;-7.392819970846176E-004;3.411204321309924E-003;
2.416833333333334E+009;2.023030519485474E-001;-4.236318543553352E-002;-5.900688702240586E-004;3.573580645024777E-003;
2.417000000000000E+009;2.024115622043610E-001;-4.261274263262749E-002;-4.907840047962964E-004;3.553759306669235E-003;
2.417166666666667E+009;2.021154016256332E-001;-4.252611845731735E-002;-2.351452130824328E-004;3.646770725026727E-003;
2.417333333333334E+009;2.017999291419983E-001;-4.240241274237633E-002;-1.735413934511598E-005;3.508672351017594E-003;
2.417500000000000E+009;2.015206217765808E-001;-4.245059937238693E-002;1.354826672468334E-004;3.604710334911943E-003;
2.417666666666667E+009;2.009767889976502E-001;-4.223008453845978E-002;3.242199018131942E-004;3.645064309239388E-003;
2.417833333333334E+009;2.005304545164108E-001;-4.212623462080956E-002;5.919756367802620E-004;3.398379543796182E-003;
2.418000000000000E+009;1.998532712459564E-001;-4.196759313344955E-002;7.192547200247645E-004;3.370775142684579E-003;
2.418166666666667E+009;1.990308165550232E-001;-4.194150865077972E-002;8.588515920564532E-004;3.242303384467959E-003;
2.418333333333334E+009;1.981986761093140E-001;-4.175820574164391E-002;9.890457149595022E-004;3.194229910150170E-003;
2.418500000000000E+009;1.972385197877884E-001;-4.182348400354385E-002;1.254395814612508E-003;3.222046885639429E-003;
2.418666666666667E+009;1.963130980730057E-001;-4.162340611219406E-002;1.353046391159296E-003;3.216977696865797E-003;
2.418833333333334E+009;1.950570344924927E-001;-4.199511185288429E-002;1.397660817019641E-003;2.934059826657176E-003;
2.419000000000000E+009;1.937436312437058E-001;-4.223660752177239E-002;1.461543142795563E-003;2.765917452052236E-003;
2.419166666666667E+009;1.925364136695862E-001;-4.254834726452828E-002;1.535341027192771E-003;2.580540254712105E-003;
2.419333333333334E+009;1.911017000675201E-001;-4.311260581016541E-002;1.682790112681687E-003;2.472278429195285E-003;
2.419500000000000E+009;1.896131038665772E-001;-4.354948177933693E-002;1.729586161673069E-003;2.410971093922854E-003;
2.419666666666667E+009;1.880365610122681E-001;-4.421369358897209E-002;1.842595404013991E-003;2.129080472514033E-003;
2.419833333333334E+009;1.863823235034943E-001;-4.496990516781807E-002;1.744482317008078E-003;1.934893080033362E-003;
2.420000000000000E+009;1.850016117095947E-001;-4.592715948820114E-002;1.851093606092036E-003;1.724632224068046E-003;
2.420166666666667E+009;1.835172474384308E-001;-4.695296660065651E-002;1.854883856140077E-003;1.686020405031741E-003;
2.420333333333334E+009;1.818117797374725E-001;-4.811871051788330E-002;1.836622599512339E-003;1.635732245631516E-003;
2.420500000000000E+009;1.801404803991318E-001;-4.933096095919609E-002;1.711941789835692E-003;1.396062900312245E-003;
2.420666666666667E+009;1.786976903676987E-001;-5.058565363287926E-002;1.787210116162896E-003;1.268994295969605E-003;
2.420833333333334E+009;1.770119071006775E-001;-5.201432481408119E-002;1.635410124436021E-003;1.084592659026384E-003;
2.421000000000000E+009;1.756226271390915E-001;-5.363426730036736E-002;1.603307784534991E-003;1.065721153281629E-003;
2.421166666666667E+009;1.741854995489121E-001;-5.527713894844055E-002;1.506442320533097E-003;9.531787945888937E-004;
2.421333333333334E+009;1.727015674114227E-001;-5.677514895796776E-002;1.376220490783453E-003;7.921808282844722E-004;
2.421500000000000E+009;1.714159101247788E-001;-5.868135765194893E-002;1.324515789747238E-003;8.505915757268667E-004;
2.421666666666667E+009;1.701962798833847E-001;-6.056262180209160E-002;1.251767971552908E-003;7.233102805912495E-004;
2.421833333333334E+009;1.691684424877167E-001;-6.245194748044014E-002;1.255789422430098E-003;7.776698330417275E-004;
2.422000000000000E+009;1.680352836847305E-001;-6.426846235990524E-002;1.024676603265107E-003;6.132819689810276E-004;
2.422166666666667E+009;1.673359423875809E-001;-6.635623425245285E-002;1.045988523401320E-003;7.760490989312530E-004;
2.422333333333334E+009;1.661373376846314E-001;-6.834112107753754E-002;9.327278821729124E-004;7.336476701311767E-004;
2.422500000000000E+009;1.655862182378769E-001;-7.020172476768494E-002;8.976256940513849E-004;7.337239221669734E-004;
2.422666666666667E+009;1.647096127271652E-001;-7.236076891422272E-002;6.894357502460480E-004;7.084680837579072E-004;
2.422833333333334E+009;1.644281297922134E-001;-7.451575994491577E-002;7.387027144432068E-004;7.236541132442653E-004;
2.423000000000000E+009;1.638135910034180E-001;-7.642953097820282E-002;7.699964335188270E-004;7.069756975397468E-004;
2.423166666666667E+009;1.635679453611374E-001;-7.825596630573273E-002;7.470760610885918E-004;7.706205942668021E-004;
2.423333333333334E+009;1.631614118814468E-001;-8.036362379789352E-002;7.178385276347399E-004;8.710599504411221E-004;
2.423500000000000E+009;1.631172746419907E-001;-8.218214660882950E-002;6.627435795962811E-004;9.241281077265739E-004;
2.423666666666667E+009;1.631031334400177E-001;-8.407213538885117E-002;6.579442997463048E-004;1.032950356602669E-003;
2.423833333333334E+009;1.630322933197022E-001;-8.569420874118805E-002;5.353507585823536E-004;1.070724567398429E-003;
2.424000000000000E+009;1.631343364715576E-001;-8.741088956594467E-002;4.622248525265604E-004;1.022432232275605E-003;
2.424166666666667E+009;1.632361263036728E-001;-8.903636783361435E-002;4.247848701197654E-004;1.056089880876243E-003;
2.424333333333334E+009;1.635591089725494E-001;-9.055428951978684E-002;5.941953859291971E-004;1.061264192685485E-003;
2.424500000000000E+009;1.638656556606293E-001;-9.226230531930924E-002;4.203955177217722E-004;1.167257665656507E-003;
2.424666666666667E+009;1.639328747987747E-001;-9.354940801858902E-002;3.034083056263626E-004;1.435721409507096E-003;
2.424833333333334E+009;1.645969897508621E-001;-9.477892518043518E-002;4.939539940096438E-004;1.522371894679964E-003;
2.425000000000000E+009;1.649355739355087E-001;-9.593410789966583E-002;5.155266844667494E-004;1.516446354798973E-003;
2.425166666666667E+009;1.651809215545654E-001;-9.696640819311142E-002;5.829063011333346E-004;1.537180272862315E-003;
2.425333333333334E+009;1.655284762382507E-001;-9.792228788137436E-002;8.489345200359821E-004;1.736473641358316E-003;
2.425500000000000E+009;1.659837067127228E-001;-9.895215183496475E-002;8.063718560151756E-004;1.719571067951620E-003;
2.425666666666667E+009;1.662405282258987E-001;-9.953154623508453E-002;8.224657503888011E-004;1.915463712066412E-003;
2.425833333333334E+009;1.664831042289734E-001;-1.002911999821663E-001;9.534374112263322E-004;1.987789291888475E-003;
2.426000000000000E+009;1.669983863830566E-001;-1.007532402873039E-001;8.498762035742402E-004;1.839219825342298E-003;
2.426166666666667E+009;1.672399193048477E-001;-1.012547761201859E-001;1.268095104023814E-003;1.828601001761854E-003;
2.426333333333334E+009;1.673967093229294E-001;-1.018428057432175E-001;1.395049039274454E-003;1.989042852073908E-003;
2.426500000000000E+009;1.677854210138321E-001;-1.020382940769196E-001;1.449411851353943E-003;1.983671449124813E-003;
2.426666666666667E+009;1.679573655128479E-001;-1.022888123989105E-001;1.641126931644976E-003;1.971647143363953E-003;
2.426833333333334E+009;1.681892722845078E-001;-1.026991009712219E-001;1.700708176940680E-003;1.970353303477168E-003;
2.427000000000000E+009;1.681217700242996E-001;-1.029356643557549E-001;1.707072253338993E-003;2.046102890744805E-003;
2.427166666666667E+009;1.681015491485596E-001;-1.029533818364143E-001;1.987115712836385E-003;1.934422878548503E-003;
2.427333333333334E+009;1.679785549640656E-001;-1.032031849026680E-001;1.983892638236284E-003;1.843893202021718E-003;
2.427500000000000E+009;1.677283495664597E-001;-1.034507751464844E-001;2.323697088286281E-003;1.962509704753757E-003;
2.427666666666667E+009;1.672809422016144E-001;-1.034091114997864E-001;2.251865342259407E-003;1.865474856458604E-003;
2.427833333333334E+009;1.669888645410538E-001;-1.037135124206543E-001;2.494130050763488E-003;1.761193387210369E-003;
