# Version 1.00
#
freq[Hz];re:Trc1_S11;im:Trc1_S11;re:Trc2_S21;im:Trc2_S21;
2.400000000000000E+009;1.553904265165329E-001;1.060919091105461E-001;-2.811553422361612E-003;-3.630788298323751E-003;
2.400166666666667E+009;1.552161872386932E-001;1.036897227168083E-001;-3.093625186011195E-003;-3.445999929681420E-003;
2.400333333333334E+009;1.551871895790100E-001;1.013210564851761E-001;-3.068945137783885E-003;-3.188987961038947E-003;
2.400500000000000E+009;1.553084254264832E-001;9.874206781387329E-002;-3.255609655752778E-003;-2.918034791946411E-003;
2.400666666666667E+009;1.553418636322022E-001;9.633494913578033E-002;-3.285421058535576E-003;-2.811550861224532E-003;
2.400833333333334E+009;1.553923785686493E-001;9.328745305538178E-002;-3.315709531307221E-003;-2.450287807732821E-003;
2.401000000000000E+009;1.555712223052979E-001;9.055809676647186E-002;-3.332189749926329E-003;-2.322517568245530E-003;
2.401166666666667E+009;1.556663364171982E-001;8.783318847417831E-002;-3.497771918773651E-003;-2.149225678294897E-003;
2.401333333333334E+009;1.561997681856155E-001;8.513690531253815E-002;-3.469310700893402E-003;-2.037517959252000E-003;
2.401500000000000E+009;1.565954685211182E-001;8.220573514699936E-002;-3.329616039991379E-003;-1.815732102841139E-003;
2.401666666666667E+009;1.569096148014069E-001;7.936665415763855E-002;-3.390527796000242E-003;-1.684251823462546E-003;
2.401833333333334E+009;1.573865264654160E-001;7.678952813148499E-002;-3.316346323117614E-003;-1.628905301913619E-003;
2.402000000000000E+009;1.583756804466248E-001;7.391658425331116E-002;-3.128974465653300E-003;-1.687763724476099E-003;
2.402166666666667E+009;1.591600924730301E-001;7.150644063949585E-002;-3.350022016093135E-003;-1.596584799699485E-003;
2.402333333333334E+009;1.599856764078140E-001;6.854870915412903E-002;-3.302233293652535E-003;-1.482107443735004E-003;
2.402500000000000E+009;1.612510085105896E-001;6.622338294982910E-002;-3.320302814245224E-003;-1.363458810374141E-003;
2.402666666666667E+009;1.623406708240509E-001;6.409630179405212E-002;-3.382387571036816E-003;-1.433246070519090E-003;
2.402833333333334E+009;1.636126786470413E-001;6.162730604410172E-002;-3.395232139155269E-003;-1.209885114803910E-003;
2.403000000000000E+009;1.649988144636154E-001;5.936162173748016E-002;-3.521608654409647E-003;-1.105203526094556E-003;
2.403166666666667E+009;1.666931957006455E-001;5.710317566990852E-002;-3.777402220293880E-003;-9.637746261432767E-004;
2.403333333333334E+009;1.680774837732315E-001;5.490082874894142E-002;-3.727730596438050E-003;-8.675129502080381E-004;
2.403500000000000E+009;1.700898110866547E-001;5.301604047417641E-002;-3.842009697109461E-003;-6.438480922952294E-004;
2.403666666666667E+009;1.715086400508881E-001;5.093039944767952E-002;-4.091924987733364E-003;-3.641705261543393E-004;
2.403833333333334E+009;1.730450540781021E-001;4.930254444479942E-002;-3.874605521559715E-003;-1.426176750101149E-004;
2.404000000000000E+009;1.745963096618652E-001;4.752831906080246E-002;-3.921157680451870E-003;6.249194848351181E-005;
2.404166666666667E+009;1.762902736663818E-001;4.612425342202187E-002;-3.850427921861410E-003;4.199011891614646E-004;
2.404333333333334E+009;1.780538111925125E-001;4.461189731955528E-002;-3.726024879142642E-003;7.547081913799048E-004;
2.404500000000000E+009;1.795434355735779E-001;4.329194501042366E-002;-3.711871569976211E-003;9.223866509273648E-004;
2.404666666666667E+009;1.811867356300354E-001;4.210848361253738E-002;-3.461491316556931E-003;1.146412570960820E-003;
2.404833333333334E+009;1.828485876321793E-001;4.112567752599716E-002;-3.273928537964821E-003;1.360499416477978E-003;
2.405000000000000E+009;1.841424256563187E-001;4.046120867133141E-002;-2.949315821751952E-003;1.382878865115345E-003;
2.405166666666667E+009;1.856101602315903E-001;3.972314298152924E-002;-2.617049962282181E-003;1.688583521172404E-003;
2.405333333333334E+009;1.870533227920532E-001;3.927888721227646E-002;-2.567939693108201E-003;1.775770098902285E-003;
2.405500000000000E+009;1.881975233554840E-001;3.874450922012329E-002;-2.273358637467027E-003;1.555059221573174E-003;
2.405666666666667E+009;1.894495785236359E-001;3.838259726762772E-002;-2.102059312164784E-003;1.825094805099070E-003;
2.405833333333334E+009;1.906323283910751E-001;3.810035064816475E-002;-1.932431827299297E-003;1.713061705231667E-003;
2.406000000000000E+009;1.917232275009155E-001;3.797152265906334E-002;-1.750222407281399E-003;1.687359996140003E-003;
2.406166666666667E+009;1.926621943712235E-001;3.770885989069939E-002;-1.637488487176597E-003;1.612713211216033E-003;
2.406333333333334E+009;1.936214417219162E-001;3.764583915472031E-002;-1.581253483891487E-003;1.628296915441752E-003;
2.406500000000000E+009;1.942701488733292E-001;3.773770481348038E-002;-1.296063885092735E-003;1.728536793962121E-003;
2.406666666666667E+009;1.948787271976471E-001;3.768287971615791E-002;-1.198269426822662E-003;1.651992206461728E-003;
2.406833333333334E+009;1.953597813844681E-001;3.763490915298462E-002;-1.054095220752060E-003;1.652201986871660E-003;
2.407000000000000E+009;1.955676972866058E-001;3.791444003582001E-002;-8.664416964165866E-004;1.396946492604911E-003;
2.407166666666667E+009;1.959667205810547E-001;3.768247738480568E-002;-8.888749289326370E-004;1.191077055409551E-003;
2.407333333333334E+009;1.958516836166382E-001;3.775792568922043E-002;-7.151278550736606E-004;1.221747254021466E-003;
2.407500000000000E+009;1.958690285682678E-001;3.787080943584442E-002;-6.432996015064418E-004;1.006434787996113E-003;
2.407666666666667E+009;1.958399862051010E-001;3.764985501766205E-002;-5.710911937057972E-004;9.930423693731427E-004;
2.407833333333334E+009;1.953017711639404E-001;3.734344616532326E-002;-4.282392328605056E-004;8.776367176324129E-004;
2.408000000000000E+009;1.952246576547623E-001;3.727059811353684E-002;-5.910173058509827E-004;5.634138360619545E-004;
2.408166666666667E+009;1.946158409118652E-001;3.694099932909012E-002;-5.568758933804929E-004;6.212441949173808E-004;
2.408333333333334E+009;1.941950768232346E-001;3.650001436471939E-002;-5.452853511087596E-004;5.225643399171531E-004;
2.408500000000000E+009;1.934623122215271E-001;3.603826463222504E-002;-6.264574476517737E-004;5.560772842727602E-004;
2.408666666666667E+009;1.928032487630844E-001;3.552450239658356E-002;-6.403505685739219E-004;3.015850379597396E-004;
2.408833333333334E+009;1.921433657407761E-001;3.463969752192497E-002;-7.778252474963665E-004;2.882807457353920E-004;
2.409000000000000E+009;1.912073940038681E-001;3.371091187000275E-002;-6.525900680571795E-004;1.511127775302157E-004;
2.409166666666667E+009;1.901871860027313E-001;3.268810361623764E-002;-8.573600789532065E-004;5.769741255789995E-005;
2.409333333333334E+009;1.892252266407013E-001;3.174116834998131E-002;-9.913576068356633E-004;7.845635991543531E-005;
2.409500000000000E+009;1.883053183555603E-001;3.039552457630634E-002;-1.113139791414142E-003;2.862457586161327E-005;
2.409666666666667E+009;1.872593313455582E-001;2.896835841238499E-002;-1.208458095788956E-003;1.324374752584845E-004;
2.409833333333334E+009;1.862864196300507E-001;2.753476612269878E-002;-1.263889484107494E-003;2.568740164861083E-004;
2.410000000000000E+009;1.852539330720902E-001;2.581253089010716E-002;-1.330023980699480E-003;2.361781480431091E-005;
2.410166666666667E+009;1.843499839305878E-001;2.406987361609936E-002;-1.276045339182019E-003;2.074316726066172E-004;
2.410333333333334E+009;1.834660917520523E-001;2.236565202474594E-002;-1.430435106158257E-003;2.787906560115516E-004;
2.410500000000000E+009;1.822952628135681E-001;2.032663300633431E-002;-1.311283092945814E-003;3.630554128903896E-004;
2.410666666666667E+009;1.816059052944183E-001;1.815109141170979E-002;-1.223963452503085E-003;3.542757476679981E-004;
2.410833333333334E+009;1.809995621442795E-001;1.605642959475517E-002;-1.318475347943604E-003;3.779126855079085E-004;
2.411000000000000E+009;1.801778525114059E-001;1.376510132104158E-002;-1.098135253414512E-003;3.828710177913308E-004;
2.411166666666667E+009;1.795970052480698E-001;1.161031331866980E-002;-1.200759317725897E-003;3.975539875682443E-004;
2.411333333333334E+009;1.793194860219955E-001;9.232920594513416E-003;-1.263711368665099E-003;2.884935529436916E-004;
2.411500000000000E+009;1.787063181400299E-001;6.973786279559135E-003;-1.166344271041453E-003;1.253639202332124E-004;
2.411666666666667E+009;1.786840707063675E-001;4.541031084954739E-003;-1.177581376396120E-003;3.204830136382952E-005;
2.411833333333334E+009;1.782259941101074E-001;2.179173054173589E-003;-1.202558400109410E-003;-4.401649857754819E-005;
2.412000000000000E+009;1.783682256937027E-001;-3.623481898102909E-004;-1.403452362865210E-003;-2.524752017052379E-005;
2.412166666666667E+009;1.785644292831421E-001;-2.616014564409852E-003;-1.549709122627974E-003;2.474046232237015E-005;
2.412333333333334E+009;1.787078678607941E-001;-5.023545585572720E-003;-1.668902928940952E-003;-2.626816567499191E-004;
2.412500000000000E+009;1.791181862354279E-001;-7.456202525645495E-003;-1.736270962283015E-003;-2.806803386192769E-004;
2.412666666666667E+009;1.796668767929077E-001;-9.870394133031368E-003;-1.843814272433519E-003;-3.589786065276712E-004;
2.412833333333334E+009;1.803763806819916E-001;-1.223023794591427E-002;-2.005441114306450E-003;-2.624953922349960E-004;
2.413000000000000E+009;1.809421330690384E-001;-1.443822681903839E-002;-2.224977128207684E-003;-1.717175473459065E-004;
2.413166666666667E+009;1.818299740552902E-001;-1.658230833709240E-002;-2.497986657544971E-003;-5.201046406000387E-006;
2.413333333333334E+009;1.828398406505585E-001;-1.891871728003025E-002;-2.731909742578864E-003;9.777271043276414E-005;
2.413500000000000E+009;1.836630254983902E-001;-2.135007269680500E-002;-2.782805357128382E-003;3.470037772785872E-004;
2.413666666666667E+009;1.849453300237656E-001;-2.334175817668438E-002;-2.891479292884469E-003;5.882968544028699E-004;
2.413833333333334E+009;1.860157400369644E-001;-2.528949081897736E-002;-3.108556382358074E-003;6.914439145475626E-004;
2.414000000000000E+009;1.870988905429840E-001;-2.711044810712338E-002;-3.204422304406762E-003;1.098885666579008E-003;
2.414166666666667E+009;1.882177293300629E-001;-2.885802835226059E-002;-3.161670640110970E-003;1.342453761026263E-003;
2.414333333333334E+009;1.893889009952545E-001;-3.078807145357132E-002;-3.162528621032834E-003;1.629811711609364E-003;
2.414500000000000E+009;1.906657069921494E-001;-3.216198459267616E-002;-3.167249262332916E-003;1.974655082449317E-003;
2.414666666666667E+009;1.917439103126526E-001;-3.372983261942864E-002;-3.118444699794054E-003;2.199359238147736E-003;
2.414833333333334E+009;1.929171532392502E-001;-3.504754975438118E-002;-2.796792890876532E-003;2.332513220608234E-003;
2.415000000000000E+009;1.939689368009567E-001;-3.623956441879273E-002;-2.614826429635286E-003;2.671603113412857E-003;
2.415166666666667E+009;1.951473057270050E-001;-3.728120028972626E-002;-2.304555382579565E-003;2.793502993881702E-003;
2.415333333333334E+009;1.962607204914093E-001;-3.824091330170631E-002;-2.243511611595750E-003;3.038343740627170E-003;
2.415500000000000E+009;1.973117142915726E-001;-3.887556493282318E-002;-2.028865972533822E-003;3.135084873065352E-003;
2.415666666666667E+009;1.984320431947708E-001;-3.978607803583145E-002;-1.872739754617214E-003;3.146752016618848E-003;
2.415833333333334E+009;1.991845667362213E-001;-4.034268856048584E-002;-1.644452335312963E-003;3.328621620312333E-003;
2.416000000000000E+009;1.999858617782593E-001;-4.091931506991386E-002;-1.590276486240327E-003;3.434765618294478E-003;
2.416166666666667E+009;2.007760703563690E-001;-4.145416617393494E-002;-1.311362721025944E-003;3.478436730802059E-003;
2.416333333333334E+009;2.013880461454392E-001;-4.179543256759644E-002;-1.265395665541291E-003;3.499201498925686E-003;
2.416500000000000E+009;2.018690854310989E-001;-4.200935736298561E-002;-1.036007306538522E-003;3.427367424592376E-003;
2.416666666666667E+009;2.020418494939804E-001;-4.235845431685448E-002;-8.129713241942227E-004;3.544440260156989E-003;
2.416833333333334E+009;2.022215723991394E-001;-4.244091361761093E-002;-5.599803989753127E-004;3.555682254955173E-003;
2.417000000000000E+009;2.023488581180573E-001;-4.259599745273590E-002;-3.890564548783004E-004;3.648211481049657E-003;
2.417166666666667E+009;2.019439190626144E-001;-4.246221482753754E-002;-3.925511264242232E-004;3.673360217362642E-003;
2.417333333333334E+009;2.018000334501267E-001;-4.230106621980667E-002;2.431133543723263E-005;3.635482164099813E-003;
2.417500000000000E+009;2.015935182571411E-001;-4.234186187386513E-002;1.261103716387879E-005;3.619704628363252E-003;
2.417666666666667E+009;2.009918987751007E-001;-4.214552789926529E-002;3.632454317994416E-004;3.616781905293465E-003;
2.417833333333334E+009;2.006056457757950E-001;-4.205283150076866E-002;4.681111604440957E-004;3.603794379159808E-003;
2.418000000000000E+009;1.999522298574448E-001;-4.192558676004410E-002;6.197961629368365E-004;3.440774977207184E-003;
2.418166666666667E+009;1.990992426872253E-001;-4.194845259189606E-002;7.929177954792976E-004;3.438783343881369E-003;
2.418333333333334E+009;1.981154233217239E-001;-4.172584041953087E-002;1.115347375161946E-003;3.409530501812697E-003;
2.418500000000000E+009;1.970969587564468E-001;-4.181428253650665E-002;1.196034019812942E-003;3.282921155914664E-003;
2.418666666666667E+009;1.962539702653885E-001;-4.172263666987419E-002;1.320507028140128E-003;2.973512746393681E-003;
2.418833333333334E+009;1.949617862701416E-001;-4.200429841876030E-002;1.423624111339450E-003;2.963877748697996E-003;
2.419000000000000E+009;1.937755644321442E-001;-4.215110093355179E-002;1.577654387801886E-003;2.814055420458317E-003;
2.419166666666667E+009;1.925439089536667E-001;-4.257455840706825E-002;1.631675986573100E-003;2.673797542229295E-003;
2.419333333333334E+009;1.911190748214722E-001;-4.309187084436417E-002;1.685434719547629E-003;2.281475113704801E-003;
2.419500000000000E+009;1.897142827510834E-001;-4.352737218141556E-002;1.838581403717399E-003;2.381467493250966E-003;
2.419666666666667E+009;1.880896091461182E-001;-4.430898278951645E-002;1.716807018965483E-003;2.153969136998057E-003;
2.419833333333334E+009;1.866029500961304E-001;-4.504695907235146E-002;1.855836366303265E-003;1.891967724077404E-003;
2.420000000000000E+009;1.848668754100800E-001;-4.595360159873962E-002;1.862522331066430E-003;1.760680112056434E-003;
2.420166666666667E+009;1.834512054920197E-001;-4.696897789835930E-002;1.766717410646379E-003;1.686874311417341E-003;
2.420333333333334E+009;1.817666143178940E-001;-4.808434844017029E-002;1.971219899132848E-003;1.654528081417084E-003;
2.420500000000000E+009;1.802865117788315E-001;-4.946550726890564E-002;1.665513729676604E-003;1.504772109910846E-003;
2.420666666666667E+009;1.786207258701325E-001;-5.067005380988121E-002;1.771430950611830E-003;1.355983316898346E-003;
2.420833333333334E+009;1.770845800638199E-001;-5.209321528673172E-002;1.592292683199048E-003;9.826774476096034E-004;
2.421000000000000E+009;1.757211983203888E-001;-5.364581942558289E-002;1.596076763235033E-003;1.031250110827386E-003;
2.421166666666667E+009;1.744409203529358E-001;-5.527891218662262E-002;1.579698058776557E-003;9.358120150864124E-004;
2.421333333333334E+009;1.726923584938049E-001;-5.685918033123016E-002;1.622544601559639E-003;8.772992296144366E-004;
2.421500000000000E+009;1.714197099208832E-001;-5.890782922506332E-002;1.408851589076221E-003;8.720665937289596E-004;
2.421666666666667E+009;1.701768487691879E-001;-6.067357584834099E-002;1.279596355743706E-003;6.157885654829443E-004;
2.421833333333334E+009;1.692465543746948E-001;-6.243880465626717E-002;1.130195101723075E-003;8.050088654272258E-004;
2.422000000000000E+009;1.678256839513779E-001;-6.441991031169891E-002;1.120969885960221E-003;6.305293645709753E-004;
2.422166666666667E+009;1.673198938369751E-001;-6.635315716266632E-002;9.299480007030070E-004;7.022363133728504E-004;
2.422333333333334E+009;1.661473810672760E-001;-6.843057274818420E-002;9.076432907022536E-004;7.691233768127859E-004;
2.422500000000000E+009;1.655736714601517E-001;-7.047362625598908E-002;9.549690294079483E-004;8.145361207425594E-004;
2.422666666666667E+009;1.648428887128830E-001;-7.238835841417313E-002;7.898987387306988E-004;7.184809655882418E-004;
2.422833333333334E+009;1.643249094486237E-001;-7.444463670253754E-002;9.406753233633936E-004;8.469919557683170E-004;
2.423000000000000E+009;1.637894809246063E-001;-7.638329267501831E-002;6.530333776026964E-004;8.670621318742633E-004;
2.423166666666667E+009;1.634441763162613E-001;-7.829429954290390E-002;7.462507346644998E-004;8.351937285624445E-004;
2.423333333333334E+009;1.631167680025101E-001;-8.025221526622772E-002;7.279495475813747E-004;8.505855221301317E-004;
2.423500000000000E+009;1.631857156753540E-001;-8.214394748210907E-002;7.199220126494765E-004;8.788720006123185E-004;
2.423666666666667E+009;1.631897538900375E-001;-8.410109579563141E-002;6.395395030267537E-004;1.014384557493031E-003;
2.423833333333334E+009;1.631206125020981E-001;-8.570620417594910E-002;6.329555180855095E-004;1.004476565867662E-003;
2.424000000000000E+009;1.632079184055328E-001;-8.738621324300766E-002;6.393985240720213E-004;1.147177885286510E-003;
2.424166666666667E+009;1.633905172348023E-001;-8.902911841869354E-002;5.284395883791149E-004;1.116628642193973E-003;
2.424333333333334E+009;1.634607762098312E-001;-9.050919860601425E-002;5.232902476564050E-004;1.145791378803551E-003;
2.424500000000000E+009;1.637991666793823E-001;-9.217286854982376E-002;5.350756109692156E-004;1.360746566206217E-003;
2.424666666666667E+009;1.639221757650375E-001;-9.341081976890564E-002;4.705993633251637E-004;1.310658641159535E-003;
2.424833333333334E+009;1.645682305097580E-001;-9.473208338022232E-002;5.147223128005862E-004;1.421203953213990E-003;
2.425000000000000E+009;1.648881137371063E-001;-9.593738615512848E-002;6.398743716999888E-004;1.532981637865305E-003;
2.425166666666667E+009;1.651612520217896E-001;-9.679622203111649E-002;6.227169069461525E-004;1.707901246845722E-003;
2.425333333333334E+009;1.654648631811142E-001;-9.806075692176819E-002;7.286241161637008E-004;1.792866620235145E-003;
2.425500000000000E+009;1.658551841974258E-001;-9.880878776311874E-002;7.014147122390568E-004;1.710862386971712E-003;
2.425666666666667E+009;1.662726551294327E-001;-9.950807690620422E-002;7.888901745900512E-004;1.739087514579296E-003;
2.425833333333334E+009;1.665729433298111E-001;-1.003582477569580E-001;1.125908340327442E-003;1.892821281217039E-003;
2.426000000000000E+009;1.668738275766373E-001;-1.008403822779656E-001;1.115207211114466E-003;1.883409451693296E-003;
2.426166666666667E+009;1.672306805849075E-001;-1.013225689530373E-001;1.219682162627578E-003;1.979272579774261E-003;
2.426333333333334E+009;1.674139052629471E-001;-1.018148735165596E-001;1.266595441848040E-003;2.039751270785928E-003;
2.426500000000000E+009;1.677552461624146E-001;-1.021319925785065E-001;1.487247413024306E-003;1.918375492095947E-003;
2.426666666666667E+009;1.680060178041458E-001;-1.023959740996361E-001;1.603717682883143E-003;1.993329264223576E-003;
2.426833333333334E+009;1.680893450975418E-001;-1.027256548404694E-001;1.742150168865919E-003;1.911838306114078E-003;
2.427000000000000E+009;1.680809706449509E-001;-1.028759256005287E-001;1.786511624231935E-003;1.980250701308250E-003;
2.427166666666667E+009;1.680689603090286E-001;-1.029859930276871E-001;1.904257573187351E-003;1.920849899761379E-003;
2.427333333333334E+009;1.679272055625916E-001;-1.032690480351448E-001;2.203563693910837E-003;1.992912730202079E-003;
2.427500000000000E+009;1.676283329725266E-001;-1.033833846449852E-001;2.359205856919289E-003;1.822225982323289E-003;
2.427666666666667E+009;1.672474592924118E-001;-1.034658774733543E-001;2.259029308333993E-003;1.738467137329280E-003;
2.427833333333334E+009;1.669272333383560E-001;-1.036484837532044E-001;2.720274729654193E-003;1.875382498838008E-003;
