# Version 1.00
#
freq[Hz];re:Trc1_S11;im:Trc1_S11;re:Trc2_S21;im:Trc2_S21;
2.400000000000000E+009;1.690695434808731E-001;4.541713744401932E-002;-5.752460565418005E-003;-1.013546134345233E-003;
2.400166666666667E+009;1.701546013355255E-001;4.435705393552780E-002;-5.848344881087542E-003;-5.248124944046140E-004;
2.400333333333334E+009;1.711432486772537E-001;4.340959340333939E-002;-5.617358256131411E-003;-2.426637947792187E-004;
2.400500000000000E+009;1.721090078353882E-001;4.231785237789154E-002;-5.466012284159660E-003;-4.364181586424820E-005;
2.400666666666667E+009;1.728954017162323E-001;4.119638726115227E-002;-5.511518567800522E-003;4.830210818909109E-004;
2.400833333333334E+009;1.739300340414047E-001;4.055742919445038E-002;-5.241890903562307E-003;7.417640299536288E-004;
2.401000000000000E+009;1.745543330907822E-001;3.958812728524208E-002;-5.334505345672369E-003;1.033464679494500E-003;
2.401166666666667E+009;1.752518117427826E-001;3.889423981308937E-002;-5.269231740385294E-003;1.286237034946680E-003;
2.401333333333334E+009;1.758598387241364E-001;3.818084672093391E-002;-4.886787384748459E-003;1.563650206662715E-003;
2.401500000000000E+009;1.766439974308014E-001;3.762034326791763E-002;-4.772445186972618E-003;1.888094353489578E-003;
2.401666666666667E+009;1.773249953985214E-001;3.709287196397781E-002;-4.476216621696949E-003;1.985947135835886E-003;
2.401833333333334E+009;1.778248101472855E-001;3.630237281322479E-002;-4.382167477160692E-003;2.060835016891360E-003;
2.402000000000000E+009;1.782844066619873E-001;3.606975823640823E-002;-4.109792876988649E-003;2.351613948121667E-003;
2.402166666666667E+009;1.787727475166321E-001;3.525276482105255E-002;-3.809304209426045E-003;2.611023606732488E-003;
2.402333333333334E+009;1.787422895431519E-001;3.465108200907707E-002;-3.540442558005452E-003;2.740218769758940E-003;
2.402500000000000E+009;1.793709993362427E-001;3.411407023668289E-002;-3.380963578820229E-003;2.710722154006362E-003;
2.402666666666667E+009;1.795136928558350E-001;3.352463245391846E-002;-3.124398179352284E-003;2.864586422219873E-003;
2.402833333333334E+009;1.796718686819077E-001;3.269567340612412E-002;-2.682794583961368E-003;2.763042692095041E-003;
2.403000000000000E+009;1.796766221523285E-001;3.227511793375015E-002;-2.376856282353401E-003;2.908857073634863E-003;
2.403166666666667E+009;1.796882301568985E-001;3.158397600054741E-002;-2.319575287401676E-003;2.764111151918769E-003;
2.403333333333334E+009;1.795528084039688E-001;3.059539012610912E-002;-1.942444010637701E-003;2.831524470821023E-003;
2.403500000000000E+009;1.794203817844391E-001;2.979932725429535E-002;-1.771800220012665E-003;2.664402127265930E-003;
2.403666666666667E+009;1.790928840637207E-001;2.870647981762886E-002;-1.402675057761371E-003;2.575048478320241E-003;
2.403833333333334E+009;1.790275424718857E-001;2.767181582748890E-002;-1.308820908889175E-003;2.506835386157036E-003;
2.404000000000000E+009;1.786285787820816E-001;2.688539400696755E-002;-1.156011363491416E-003;2.312009921297431E-003;
2.404166666666667E+009;1.780475378036499E-001;2.557455003261566E-002;-1.079822657629848E-003;1.974898390471935E-003;
2.404333333333334E+009;1.776821166276932E-001;2.448962070047855E-002;-9.327049483545125E-004;1.783466781489551E-003;
2.404500000000000E+009;1.772387176752091E-001;2.296263165771961E-002;-8.836059714667499E-004;1.727679744362831E-003;
2.404666666666667E+009;1.766196042299271E-001;2.166896499693394E-002;-7.880165940150619E-004;1.356784603558481E-003;
2.404833333333334E+009;1.764173507690430E-001;2.027396485209465E-002;-9.010698995552957E-004;1.303635188378394E-003;
2.405000000000000E+009;1.757598072290421E-001;1.881159469485283E-002;-8.800509967841208E-004;1.008452731184661E-003;
2.405166666666667E+009;1.752842813730240E-001;1.711532101035118E-002;-1.123661058954895E-003;1.076569315046072E-003;
2.405333333333334E+009;1.748997122049332E-001;1.546654105186462E-002;-1.130901277065277E-003;8.013074984773994E-004;
2.405500000000000E+009;1.743920296430588E-001;1.407181750983000E-002;-1.312824548222125E-003;6.430409848690033E-004;
2.405666666666667E+009;1.739680320024490E-001;1.231532543897629E-002;-1.346416887827218E-003;6.275765481404960E-004;
2.405833333333334E+009;1.734766513109207E-001;1.054675038903952E-002;-1.557636074721813E-003;5.205043707974255E-004;
2.406000000000000E+009;1.733512282371521E-001;8.557876572012901E-003;-1.686447300016880E-003;3.811698697973043E-004;
2.406166666666667E+009;1.728142052888870E-001;6.799035705626011E-003;-1.876479480415583E-003;4.540361114777625E-004;
2.406333333333334E+009;1.728562265634537E-001;4.826792981475592E-003;-2.163626253604889E-003;3.863117599394172E-004;
2.406500000000000E+009;1.724981516599655E-001;2.773692831397057E-003;-2.295078942552209E-003;5.396864726208150E-004;
2.406666666666667E+009;1.722960025072098E-001;9.504727786406875E-004;-2.471823245286942E-003;4.944648244418204E-004;
2.406833333333334E+009;1.724234372377396E-001;-1.255014329217374E-003;-2.768131205812097E-003;6.687559070996940E-004;
2.407000000000000E+009;1.725217103958130E-001;-3.312967950478196E-003;-2.955864649266005E-003;7.485506939701736E-004;
2.407166666666667E+009;1.726251542568207E-001;-5.309286527335644E-003;-3.197131911292672E-003;9.042319725267589E-004;
2.407333333333334E+009;1.726175546646118E-001;-7.649342995136976E-003;-3.309565829113126E-003;1.193287433125079E-003;
2.407500000000000E+009;1.728058457374573E-001;-9.458119980990887E-003;-3.366001415997744E-003;1.229804824106395E-003;
2.407666666666667E+009;1.731066554784775E-001;-1.162918470799923E-002;-3.311779350042343E-003;1.632947358302772E-003;
2.407833333333334E+009;1.733320355415344E-001;-1.372688543051481E-002;-3.412073012441397E-003;1.715707010589540E-003;
2.408000000000000E+009;1.736129224300385E-001;-1.582280173897743E-002;-3.608866594731808E-003;2.106598345562816E-003;
2.408166666666667E+009;1.739288866519928E-001;-1.774059608578682E-002;-3.769072704017162E-003;2.358020050451160E-003;
2.408333333333334E+009;1.745091527700424E-001;-1.968020759522915E-002;-3.717967541888356E-003;2.544583519920707E-003;
2.408500000000000E+009;1.747926324605942E-001;-2.162276022136211E-002;-3.540702862665057E-003;3.085318021476269E-003;
2.408666666666667E+009;1.753279268741608E-001;-2.349020168185234E-002;-3.410064149647951E-003;3.451674710959196E-003;
2.408833333333334E+009;1.757929474115372E-001;-2.514346875250340E-002;-3.442139131948352E-003;3.640584414824843E-003;
2.409000000000000E+009;1.760024428367615E-001;-2.666020393371582E-002;-3.138135885819793E-003;3.987730480730534E-003;
2.409166666666667E+009;1.765485256910324E-001;-2.833515033125877E-002;-3.056959714740515E-003;4.253440070897341E-003;
2.409333333333334E+009;1.770317405462265E-001;-2.980893291532993E-002;-2.749248174950481E-003;4.579483997076750E-003;
2.409500000000000E+009;1.775195747613907E-001;-3.117659315466881E-002;-2.586651127785444E-003;4.809225443750620E-003;
2.409666666666667E+009;1.779641211032867E-001;-3.248094022274017E-002;-2.313405508175492E-003;4.970238078385592E-003;
2.409833333333334E+009;1.785017848014832E-001;-3.348070383071899E-002;-1.878210692666471E-003;5.323498975485563E-003;
2.410000000000000E+009;1.788907200098038E-001;-3.441515564918518E-002;-1.790112000890076E-003;5.323545075953007E-003;
2.410166666666667E+009;1.794861108064652E-001;-3.553161770105362E-002;-1.286706072278321E-003;5.536729935556650E-003;
2.410333333333334E+009;1.799419820308685E-001;-3.629336878657341E-002;-9.258015779778361E-004;5.693899933248758E-003;
2.410500000000000E+009;1.804214864969254E-001;-3.718924894928932E-002;-6.553123239427805E-004;5.652572028338909E-003;
2.410666666666667E+009;1.807068735361099E-001;-3.780198842287064E-002;-3.612255677580833E-004;5.858431570231915E-003;
2.410833333333334E+009;1.811226755380631E-001;-3.847247362136841E-002;1.595963658473920E-005;5.659457296133041E-003;
2.411000000000000E+009;1.814616918563843E-001;-3.912072256207466E-002;5.746423266828060E-004;5.475451238453388E-003;
2.411166666666667E+009;1.816347986459732E-001;-3.965722024440765E-002;7.282589795067906E-004;5.693660117685795E-003;
2.411333333333334E+009;1.816817820072174E-001;-4.002317786216736E-002;1.232407637871802E-003;5.510108079761267E-003;
2.411500000000000E+009;1.818071901798248E-001;-4.073329642415047E-002;1.523813814856112E-003;5.500674247741699E-003;
2.411666666666667E+009;1.820229589939117E-001;-4.126561433076859E-002;1.822572783567011E-003;5.288521759212017E-003;
2.411833333333334E+009;1.819353699684143E-001;-4.145281761884689E-002;2.161873737350106E-003;4.995943978428841E-003;
2.412000000000000E+009;1.817309707403183E-001;-4.193790256977081E-002;2.534183440729976E-003;4.894553218036890E-003;
2.412166666666667E+009;1.815406233072281E-001;-4.244229197502136E-002;2.677380340173841E-003;4.656151402741671E-003;
2.412333333333334E+009;1.813281476497650E-001;-4.273578152060509E-002;2.740074181929231E-003;4.473491106182337E-003;
2.412500000000000E+009;1.806786209344864E-001;-4.309453815221787E-002;2.984859980642796E-003;4.219857975840569E-003;
2.412666666666667E+009;1.801214516162872E-001;-4.356699436903000E-002;3.074741922318935E-003;3.999615088105202E-003;
2.412833333333334E+009;1.795774847269058E-001;-4.392967745661736E-002;3.239854238927364E-003;3.762559499591589E-003;
2.413000000000000E+009;1.785948574542999E-001;-4.412445798516274E-002;3.285140730440617E-003;3.525538137182593E-003;
2.413166666666667E+009;1.779410541057587E-001;-4.450602084398270E-002;3.337101778015494E-003;3.043455304577947E-003;
2.413333333333334E+009;1.769614815711975E-001;-4.512811824679375E-002;3.379777073860169E-003;2.932897536084056E-003;
2.413500000000000E+009;1.760564297437668E-001;-4.580983892083168E-002;3.240335499867797E-003;2.860825043171644E-003;
2.413666666666667E+009;1.751395314931870E-001;-4.617165029048920E-002;3.232397371903062E-003;2.590985037386417E-003;
2.413833333333334E+009;1.738708317279816E-001;-4.667586833238602E-002;3.234199481084943E-003;2.347573172301054E-003;
2.414000000000000E+009;1.726708561182022E-001;-4.738340899348259E-002;3.348146565258503E-003;2.311423188075423E-003;
2.414166666666667E+009;1.716296672821045E-001;-4.811942577362061E-002;3.238412551581860E-003;2.065845532342792E-003;
2.414333333333334E+009;1.704195439815521E-001;-4.900963231921196E-002;3.239997429773212E-003;2.042896114289761E-003;
2.414500000000000E+009;1.694261133670807E-001;-4.969754070043564E-002;3.001492703333497E-003;1.932685263454914E-003;
2.414666666666667E+009;1.680809706449509E-001;-5.059416219592094E-002;3.013881854712963E-003;1.747847767546773E-003;
2.414833333333334E+009;1.667907685041428E-001;-5.179134383797646E-002;3.065940691158176E-003;1.845724764280021E-003;
2.415000000000000E+009;1.654944866895676E-001;-5.277838185429573E-002;2.890219213441014E-003;1.680184155702591E-003;
2.415166666666667E+009;1.642797738313675E-001;-5.399889126420021E-002;2.832741942256689E-003;1.713463570922613E-003;
2.415333333333334E+009;1.633465886116028E-001;-5.537574738264084E-002;2.829771488904953E-003;1.529635512270033E-003;
2.415500000000000E+009;1.620621085166931E-001;-5.668910592794418E-002;2.904101042076945E-003;1.675820443779230E-003;
2.415666666666667E+009;1.609318256378174E-001;-5.804504081606865E-002;2.955655800178647E-003;1.655974891036749E-003;
2.415833333333334E+009;1.598238795995712E-001;-5.966786667704582E-002;2.871738048270345E-003;1.329613965936005E-003;
2.416000000000000E+009;1.587231010198593E-001;-6.125698983669281E-002;3.043210366740823E-003;1.291382592171431E-003;
2.416166666666667E+009;1.578212380409241E-001;-6.306966394186020E-002;2.852392848581076E-003;1.404928043484688E-003;
2.416333333333334E+009;1.567994505167007E-001;-6.479302048683167E-002;2.993767848238349E-003;1.384123112075031E-003;
2.416500000000000E+009;1.559205502271652E-001;-6.668468564748764E-002;3.042513271793723E-003;1.341377734206617E-003;
2.416666666666667E+009;1.549434363842011E-001;-6.838229298591614E-002;3.001258941367269E-003;1.220804406329989E-003;
2.416833333333334E+009;1.542701870203018E-001;-7.047289609909058E-002;2.885802183300257E-003;1.219739089719951E-003;
2.417000000000000E+009;1.532524675130844E-001;-7.223759591579437E-002;2.924720058217645E-003;1.217911601997912E-003;
2.417166666666667E+009;1.525901108980179E-001;-7.413858175277710E-002;2.826819662004709E-003;1.085152034647763E-003;
2.417333333333334E+009;1.519649177789688E-001;-7.600215077400208E-002;2.881538588553667E-003;1.130914664827287E-003;
2.417500000000000E+009;1.513299643993378E-001;-7.807590067386627E-002;2.769331214949489E-003;1.041831681504846E-003;
2.417666666666667E+009;1.509864032268524E-001;-7.970572263002396E-002;2.960184821859002E-003;1.099898014217615E-003;
2.417833333333334E+009;1.506056487560272E-001;-8.164946734905243E-002;2.948127686977387E-003;9.964550845324993E-004;
2.418000000000000E+009;1.501642614603043E-001;-8.363663405179977E-002;2.844112925231457E-003;1.034175627864897E-003;
2.418166666666667E+009;1.498865336179733E-001;-8.518187701702118E-002;2.893999917432666E-003;9.744811104610562E-004;
2.418333333333334E+009;1.498202234506607E-001;-8.691922575235367E-002;2.931438852101564E-003;1.005791709758341E-003;
2.418500000000000E+009;1.495484709739685E-001;-8.851570636034012E-002;2.854593796655536E-003;1.103633083403111E-003;
2.418666666666667E+009;1.495732069015503E-001;-9.011061489582062E-002;3.065963741391897E-003;1.190093578770757E-003;
2.418833333333334E+009;1.493478268384934E-001;-9.148691594600678E-002;3.179955761879683E-003;1.170193892903626E-003;
2.419000000000000E+009;1.494093239307404E-001;-9.287486970424652E-002;3.103676252067089E-003;1.120676635764539E-003;
2.419166666666667E+009;1.493797451257706E-001;-9.413872659206390E-002;3.403835929930210E-003;1.325171906501055E-003;
2.419333333333334E+009;1.493710130453110E-001;-9.517659246921539E-002;3.595386864617467E-003;1.201995881274343E-003;
2.419500000000000E+009;1.496350765228272E-001;-9.642527997493744E-002;3.706523450091481E-003;9.697116911411285E-004;
2.419666666666667E+009;1.498747318983078E-001;-9.730220586061478E-002;3.864471800625324E-003;1.197591889649630E-003;
2.419833333333334E+009;1.499745100736618E-001;-9.790835529565811E-002;4.021198023110628E-003;9.781239787116647E-004;
2.420000000000000E+009;1.503113508224487E-001;-9.873732924461365E-002;4.284393973648548E-003;9.220829815603793E-004;
2.420166666666667E+009;1.505819708108902E-001;-9.925785660743713E-002;4.441348835825920E-003;8.534177904948592E-004;
2.420333333333334E+009;1.506665349006653E-001;-9.982078522443771E-002;4.629175644367933E-003;6.554395076818764E-004;
2.420500000000000E+009;1.510208547115326E-001;-1.000112071633339E-001;4.849770106375217E-003;3.740818647202104E-004;
2.420666666666667E+009;1.513377577066422E-001;-1.001842245459557E-001;4.954711999744177E-003;1.676887186476961E-004;
2.420833333333334E+009;1.514328271150589E-001;-1.003012210130692E-001;5.097389221191406E-003;1.273652160307393E-004;
2.421000000000000E+009;1.517591774463654E-001;-1.006099134683609E-001;5.347702186554670E-003;-1.539645891170949E-004;
2.421166666666667E+009;1.518273204565048E-001;-1.005331277847290E-001;5.633575376123190E-003;-4.520681977737695E-004;
2.421333333333334E+009;1.521982699632645E-001;-1.006167829036713E-001;5.837888922542334E-003;-6.559161702170968E-004;
2.421500000000000E+009;1.520010530948639E-001;-1.003078967332840E-001;5.811161361634731E-003;-9.298637742176652E-004;
2.421666666666667E+009;1.520661860704422E-001;-1.001556217670441E-001;5.929714068770409E-003;-1.337741967290640E-003;
2.421833333333334E+009;1.520191282033920E-001;-1.000534743070602E-001;5.976473912596703E-003;-1.764203188940883E-003;
2.422000000000000E+009;1.519419848918915E-001;-9.976895898580551E-002;5.905824713408947E-003;-2.216496504843235E-003;
2.422166666666667E+009;1.515801548957825E-001;-9.971076250076294E-002;6.142731755971909E-003;-2.613459946587682E-003;
2.422333333333334E+009;1.512107551097870E-001;-9.926543384790421E-002;6.021820474416018E-003;-2.920081606134772E-003;
2.422500000000000E+009;1.508800685405731E-001;-9.881711751222611E-002;5.863649304956198E-003;-3.394810715690255E-003;
2.422666666666667E+009;1.502031832933426E-001;-9.848842024803162E-002;5.744399502873421E-003;-3.939817193895578E-003;
2.422833333333334E+009;1.497091799974442E-001;-9.843676537275314E-002;5.617699585855007E-003;-4.444351419806480E-003;
2.423000000000000E+009;1.488293558359146E-001;-9.786889702081680E-002;5.588437896221876E-003;-4.843327216804028E-003;
2.423166666666667E+009;1.481468677520752E-001;-9.768806397914887E-002;5.078484769910574E-003;-5.270523950457573E-003;
2.423333333333334E+009;1.472604572772980E-001;-9.702482074499130E-002;5.043051205575466E-003;-5.572868045419455E-003;
2.423500000000000E+009;1.460724174976349E-001;-9.689397364854813E-002;4.413443617522717E-003;-6.035079248249531E-003;
2.423666666666667E+009;1.448698341846466E-001;-9.673120826482773E-002;4.062258172780275E-003;-6.270831450819969E-003;
2.423833333333334E+009;1.437095850706101E-001;-9.645878523588181E-002;3.592699533328414E-003;-6.407807115465403E-003;
2.424000000000000E+009;1.424841284751892E-001;-9.613712131977081E-002;3.070054110139608E-003;-6.764549762010574E-003;
2.424166666666667E+009;1.410753279924393E-001;-9.609743207693100E-002;2.648863708600402E-003;-6.773692555725575E-003;
2.424333333333334E+009;1.398182958364487E-001;-9.608019143342972E-002;2.127321902662516E-003;-7.058075629174709E-003;
2.424500000000000E+009;1.384915560483933E-001;-9.602411091327667E-002;1.458072452805936E-003;-6.871937774121761E-003;
2.424666666666667E+009;1.370837390422821E-001;-9.598062187433243E-002;1.212651841342449E-003;-7.230336312204599E-003;
2.424833333333334E+009;1.354709863662720E-001;-9.620396792888641E-002;6.461679004132748E-004;-6.891295313835144E-003;
2.425000000000000E+009;1.340312510728836E-001;-9.660714864730835E-002;1.614201028132811E-004;-6.846026051789522E-003;
2.425166666666667E+009;1.324412524700165E-001;-9.706973284482956E-002;-1.505985419498757E-004;-6.782227195799351E-003;
2.425333333333334E+009;1.310544461011887E-001;-9.755221009254456E-002;-7.091825245879591E-004;-6.500917952507734E-003;
2.425500000000000E+009;1.296416670084000E-001;-9.806437790393829E-002;-1.029696315526962E-003;-6.328936200588942E-003;
2.425666666666667E+009;1.279996633529663E-001;-9.900192171335220E-002;-1.239213044755161E-003;-6.090739276260138E-003;
2.425833333333334E+009;1.266963034868240E-001;-9.980731457471848E-002;-1.824580132961273E-003;-5.760375410318375E-003;
2.426000000000000E+009;1.254175305366516E-001;-1.008203849196434E-001;-1.898981747217476E-003;-5.689544603228569E-003;
2.426166666666667E+009;1.242345273494721E-001;-1.019063219428062E-001;-2.309351926669478E-003;-5.199341569095850E-003;
2.426333333333334E+009;1.228133514523506E-001;-1.030951142311096E-001;-2.437256742268801E-003;-4.838882945477963E-003;
2.426500000000000E+009;1.216238141059876E-001;-1.043803691864014E-001;-2.519677858799696E-003;-4.669530782848597E-003;
2.426666666666667E+009;1.204629093408585E-001;-1.056751236319542E-001;-2.672733040526509E-003;-4.397916607558727E-003;
2.426833333333334E+009;1.192496195435524E-001;-1.072470322251320E-001;-2.591038122773171E-003;-4.078532569110394E-003;
2.427000000000000E+009;1.182237640023232E-001;-1.087846234440804E-001;-2.726935548707843E-003;-3.665642812848091E-003;
2.427166666666667E+009;1.171769872307777E-001;-1.102977097034454E-001;-2.762833144515753E-003;-3.542382502928376E-003;
2.427333333333334E+009;1.163440197706223E-001;-1.119721680879593E-001;-2.771320985630155E-003;-3.278537653386593E-003;
2.427500000000000E+009;1.155852973461151E-001;-1.136857494711876E-001;-2.728540217503905E-003;-2.993778325617313E-003;
2.427666666666667E+009;1.148662120103836E-001;-1.153646185994148E-001;-2.777656773105264E-003;-2.872749464586377E-003;
2.427833333333334E+009;1.141034141182900E-001;-1.170647591352463E-001;-2.629107795655727E-003;-2.685158979147673E-003;
