# Version 1.00
#
freq[Hz];re:Trc1_S11;im:Trc1_S11;re:Trc2_S21;im:Trc2_S21;
2.400000000000000E+009;1.618045270442963E-001;5.276098102331162E-002;-3.644464071840048E-003;-4.233094863593578E-003;
2.400166666666667E+009;1.616381853818893E-001;5.107650905847549E-002;-3.952151630073786E-003;-4.281300585716963E-003;
2.400333333333334E+009;1.613794416189194E-001;4.915743321180344E-002;-4.055798053741455E-003;-4.308874718844891E-003;
2.400500000000000E+009;1.615088880062103E-001;4.714680835604668E-002;-4.184622317552567E-003;-4.156452603638172E-003;
2.400666666666667E+009;1.613592952489853E-001;4.516512900590897E-002;-4.460952710360289E-003;-4.123514052480459E-003;
2.400833333333334E+009;1.615023761987686E-001;4.313325881958008E-002;-4.768268670886755E-003;-3.934610169380903E-003;
2.401000000000000E+009;1.613507121801376E-001;4.122523218393326E-002;-4.846901632845402E-003;-3.990188241004944E-003;
2.401166666666667E+009;1.615559905767441E-001;3.889122605323792E-002;-5.027950741350651E-003;-3.775147488340735E-003;
2.401333333333334E+009;1.615334600210190E-001;3.690787404775620E-002;-5.171834025532007E-003;-3.837583353742957E-003;
2.401500000000000E+009;1.621317267417908E-001;3.474356606602669E-002;-5.590664688497782E-003;-3.488693386316299E-003;
2.401666666666667E+009;1.624314188957214E-001;3.262018784880638E-002;-5.681751295924187E-003;-3.178587881848216E-003;
2.401833333333334E+009;1.626362204551697E-001;3.046637773513794E-002;-5.972546990960836E-003;-3.229819238185883E-003;
2.402000000000000E+009;1.630211621522903E-001;2.864464744925499E-002;-6.096796132624149E-003;-2.986759180203080E-003;
2.402166666666667E+009;1.635944545269013E-001;2.668708935379982E-002;-6.221272051334381E-003;-2.786211203783751E-003;
2.402333333333334E+009;1.639745384454727E-001;2.468514814972878E-002;-6.555898115038872E-003;-2.523118862882257E-003;
2.402500000000000E+009;1.647223681211472E-001;2.283701859414578E-002;-6.811248604208231E-003;-2.311655320227146E-003;
2.402666666666667E+009;1.653542071580887E-001;2.111801132559776E-002;-6.789759267121553E-003;-2.127752639353275E-003;
2.402833333333334E+009;1.660555005073547E-001;1.948388479650021E-002;-7.082136813551188E-003;-1.749207847751677E-003;
2.403000000000000E+009;1.667110621929169E-001;1.781276613473892E-002;-7.371872663497925E-003;-1.503953360952437E-003;
2.403166666666667E+009;1.675582081079483E-001;1.600048691034317E-002;-7.439454551786184E-003;-1.170170027762651E-003;
2.403333333333334E+009;1.683614999055862E-001;1.465243287384510E-002;-7.565172389149666E-003;-7.964902906678617E-004;
2.403500000000000E+009;1.693357676267624E-001;1.327438652515411E-002;-7.781284861266613E-003;-4.293717211112380E-004;
2.403666666666667E+009;1.699302047491074E-001;1.183719281107187E-002;-7.852599956095219E-003;3.208080897820764E-006;
2.403833333333334E+009;1.708703935146332E-001;1.050239894539118E-002;-7.963448762893677E-003;1.587234000908211E-004;
2.404000000000000E+009;1.717728525400162E-001;9.373473934829235E-003;-7.949509657919407E-003;8.533116779290140E-004;
2.404166666666667E+009;1.726955771446228E-001;8.243447169661522E-003;-7.865637540817261E-003;1.093866652809084E-003;
2.404333333333334E+009;1.735798865556717E-001;7.226606365293264E-003;-7.992598228156567E-003;1.421386492438614E-003;
2.404500000000000E+009;1.744698882102966E-001;6.329047959297895E-003;-7.583785802125931E-003;1.956265652552247E-003;
2.404666666666667E+009;1.752601861953735E-001;5.380145739763975E-003;-7.839755155146122E-003;2.470568520948291E-003;
2.404833333333334E+009;1.760834008455277E-001;4.581143613904715E-003;-7.578086107969284E-003;2.756912959739566E-003;
2.405000000000000E+009;1.769337505102158E-001;3.964481875300407E-003;-7.480314932763577E-003;3.155892249196768E-003;
2.405166666666667E+009;1.774419695138931E-001;3.340571420267224E-003;-7.080549374222755E-003;3.468968672677875E-003;
2.405333333333334E+009;1.783161312341690E-001;2.652865834534168E-003;-7.049226667732000E-003;3.779924008995295E-003;
2.405500000000000E+009;1.789986342191696E-001;2.466177102178335E-003;-6.883573252707720E-003;4.105051979422569E-003;
2.405666666666667E+009;1.794453710317612E-001;1.999784028157592E-003;-6.594949867576361E-003;4.477289505302906E-003;
2.405833333333334E+009;1.798292547464371E-001;1.726158312521875E-003;-6.399864330887795E-003;4.674075171351433E-003;
2.406000000000000E+009;1.804755181074143E-001;1.300322706811130E-003;-6.120359525084496E-003;5.022429861128330E-003;
2.406166666666667E+009;1.807574629783630E-001;1.221201964654028E-003;-5.700795445591211E-003;5.151462275534868E-003;
2.406333333333334E+009;1.811163127422333E-001;9.173544822260737E-004;-5.535877775400877E-003;5.414288025349379E-003;
2.406500000000000E+009;1.812044382095337E-001;6.740074604749680E-004;-5.307829473167658E-003;5.571079440414906E-003;
2.406666666666667E+009;1.811994165182114E-001;4.528714634943754E-004;-4.935624543577433E-003;5.772628355771303E-003;
2.406833333333334E+009;1.813418716192246E-001;1.637606183066964E-004;-4.792979918420315E-003;5.921752657741308E-003;
2.407000000000000E+009;1.814604550600052E-001;-3.251972520956770E-005;-4.414857830852270E-003;6.176667287945747E-003;
2.407166666666667E+009;1.813477277755737E-001;-2.629890805110335E-004;-4.117514006793499E-003;6.206530146300793E-003;
2.407333333333334E+009;1.810987144708633E-001;-5.772009608335793E-004;-3.761275904253125E-003;6.326786242425442E-003;
2.407500000000000E+009;1.807365715503693E-001;-8.719589677639306E-004;-3.590267151594162E-003;6.372651085257530E-003;
2.407666666666667E+009;1.804829835891724E-001;-1.199626247398555E-003;-3.267833963036537E-003;6.556818727403879E-003;
2.407833333333334E+009;1.799955666065216E-001;-1.759129459969699E-003;-3.066888777539134E-003;6.594634614884853E-003;
2.408000000000000E+009;1.795031279325485E-001;-2.244920469820499E-003;-2.810430480167270E-003;6.857534870505333E-003;
2.408166666666667E+009;1.789681762456894E-001;-2.772218314930797E-003;-2.340808277949691E-003;6.667460314929485E-003;
2.408333333333334E+009;1.784802377223969E-001;-3.391661448404193E-003;-2.002847148105502E-003;6.838042289018631E-003;
2.408500000000000E+009;1.777704358100891E-001;-4.121265839785337E-003;-1.911825267598033E-003;6.714794784784317E-003;
2.408666666666667E+009;1.769249439239502E-001;-5.137865897268057E-003;-1.457674312405288E-003;6.798672955483198E-003;
2.408833333333334E+009;1.760166734457016E-001;-5.891850218176842E-003;-1.360698603093624E-003;6.702006794512272E-003;
2.409000000000000E+009;1.752168834209442E-001;-6.905044429004192E-003;-9.601158672012389E-004;6.807788740843535E-003;
2.409166666666667E+009;1.745340526103973E-001;-7.985151372849941E-003;-8.153104572556913E-004;6.822410970926285E-003;
2.409333333333334E+009;1.738017201423645E-001;-9.209409356117249E-003;-5.847013671882451E-004;6.764253601431847E-003;
2.409500000000000E+009;1.728079915046692E-001;-1.059853006154299E-002;-1.659978443058208E-004;6.622869987040758E-003;
2.409666666666667E+009;1.720929145812988E-001;-1.177454926073551E-002;-2.482519084878732E-005;6.628327537328005E-003;
2.409833333333334E+009;1.711205244064331E-001;-1.305225398391485E-002;1.759466540534049E-004;6.560245063155890E-003;
2.410000000000000E+009;1.705165058374405E-001;-1.468698587268591E-002;4.342062456998974E-004;6.473558489233255E-003;
2.410166666666667E+009;1.697563529014587E-001;-1.626718975603581E-002;6.046222406439483E-004;6.358252838253975E-003;
2.410333333333334E+009;1.688536703586578E-001;-1.794575713574886E-002;8.472697809338570E-004;6.280770525336266E-003;
2.410500000000000E+009;1.681341230869293E-001;-1.966847293078899E-002;8.707865490578115E-004;6.097186822444201E-003;
2.410666666666667E+009;1.676230281591415E-001;-2.151987887918949E-002;1.087599317543209E-003;6.062163971364498E-003;
2.410833333333334E+009;1.670852452516556E-001;-2.322860248386860E-002;1.328442594967783E-003;5.818530451506376E-003;
2.411000000000000E+009;1.664454936981201E-001;-2.501341514289379E-002;1.482520601712167E-003;5.752321798354387E-003;
2.411166666666667E+009;1.661058664321899E-001;-2.727195434272289E-002;1.499754958786070E-003;5.784446839243174E-003;
2.411333333333334E+009;1.656705886125565E-001;-2.904480695724487E-002;1.650384743697941E-003;5.830982699990273E-003;
2.411500000000000E+009;1.651689410209656E-001;-3.108651749789715E-002;1.916995854116976E-003;5.748451221734285E-003;
2.411666666666667E+009;1.653332412242889E-001;-3.314504772424698E-002;2.039466053247452E-003;5.697020329535008E-003;
2.411833333333334E+009;1.650770902633667E-001;-3.512511402368546E-002;2.054216107353568E-003;5.538153927773237E-003;
2.412000000000000E+009;1.651057898998261E-001;-3.732025250792503E-002;2.376876771450043E-003;5.436936393380165E-003;
2.412166666666667E+009;1.647562235593796E-001;-3.932176530361176E-002;2.385137835517526E-003;5.526565015316010E-003;
2.412333333333334E+009;1.652311980724335E-001;-4.113417118787766E-002;2.749793231487274E-003;5.504064727574587E-003;
2.412500000000000E+009;1.651648581027985E-001;-4.311835393309593E-002;2.707901643589139E-003;5.225069355219603E-003;
2.412666666666667E+009;1.655357629060745E-001;-4.525056481361389E-002;3.034043591469526E-003;5.258482415229082E-003;
2.412833333333334E+009;1.657483279705048E-001;-4.702384397387505E-002;3.245077561587095E-003;5.224322900176048E-003;
2.413000000000000E+009;1.660208106040955E-001;-4.884303733706474E-002;3.317533759400249E-003;5.060011055320501E-003;
2.413166666666667E+009;1.663018018007278E-001;-5.058751255273819E-002;3.541971556842327E-003;5.139572545886040E-003;
2.413333333333334E+009;1.666658669710159E-001;-5.250903591513634E-002;3.749067895114422E-003;4.919832106679678E-003;
2.413500000000000E+009;1.672603785991669E-001;-5.395504087209702E-002;3.971996717154980E-003;4.857818130403757E-003;
2.413666666666667E+009;1.678275018930435E-001;-5.561527237296104E-002;4.156406037509441E-003;4.606682807207108E-003;
2.413833333333334E+009;1.684596091508865E-001;-5.721988901495934E-002;4.328251350671053E-003;4.625369329005480E-003;
2.414000000000000E+009;1.687980741262436E-001;-5.859163776040077E-002;4.529828671365976E-003;4.341879859566689E-003;
2.414166666666667E+009;1.693951338529587E-001;-5.986923724412918E-002;4.668954294174910E-003;4.182362928986549E-003;
2.414333333333334E+009;1.699223071336746E-001;-6.093914061784744E-002;4.991997964680195E-003;3.925145603716373E-003;
2.414500000000000E+009;1.707130670547485E-001;-6.227334588766098E-002;5.062155425548554E-003;3.808483481407166E-003;
2.414666666666667E+009;1.710663437843323E-001;-6.303443759679794E-002;5.087894853204489E-003;3.551539033651352E-003;
2.414833333333334E+009;1.715986281633377E-001;-6.410776078701019E-002;5.457157269120216E-003;3.546919906511903E-003;
2.415000000000000E+009;1.721182912588120E-001;-6.507173180580139E-002;5.622338969260454E-003;3.182830754667521E-003;
2.415166666666667E+009;1.725731194019318E-001;-6.579478085041046E-002;5.787244997918606E-003;3.001983510330319E-003;
2.415333333333334E+009;1.730976104736328E-001;-6.642932444810867E-002;5.897336639463902E-003;2.673114649951458E-003;
2.415500000000000E+009;1.734572052955627E-001;-6.698954850435257E-002;6.069910712540150E-003;2.458834555000067E-003;
2.415666666666667E+009;1.738238036632538E-001;-6.746019423007965E-002;5.828706547617912E-003;2.351151313632727E-003;
2.415833333333334E+009;1.740810424089432E-001;-6.795272976160049E-002;6.138091441243887E-003;1.898334943689406E-003;
2.416000000000000E+009;1.741465628147125E-001;-6.816780567169190E-002;6.188264116644859E-003;1.653616665862501E-003;
2.416166666666667E+009;1.744418442249298E-001;-6.858539581298828E-002;6.170327775180340E-003;1.263453392311931E-003;
2.416333333333334E+009;1.743180155754089E-001;-6.881757825613022E-002;6.207613274455071E-003;1.143672154285014E-003;
2.416500000000000E+009;1.743440926074982E-001;-6.900371611118317E-002;6.219872273504734E-003;8.002166287042201E-004;
2.416666666666667E+009;1.740944385528565E-001;-6.914637237787247E-002;6.427810527384281E-003;4.093856550753117E-004;
2.416833333333334E+009;1.740235984325409E-001;-6.938087940216065E-002;6.267575081437826E-003;1.423835929017514E-004;
2.417000000000000E+009;1.734543293714523E-001;-6.950511783361435E-002;6.335720419883728E-003;-6.741508695995435E-005;
2.417166666666667E+009;1.730040013790131E-001;-6.942136585712433E-002;6.214553490281105E-003;-3.642166266217828E-004;
2.417333333333334E+009;1.725850552320480E-001;-6.953102350234985E-002;6.114811170846224E-003;-6.635113968513906E-004;
2.417500000000000E+009;1.717963367700577E-001;-6.988779455423355E-002;5.941507406532764E-003;-1.014884444884956E-003;
2.417666666666667E+009;1.713152676820755E-001;-6.966973841190338E-002;6.013161037117243E-003;-1.112977042794228E-003;
2.417833333333334E+009;1.704786866903305E-001;-6.992813944816589E-002;5.834483541548252E-003;-1.312713837251067E-003;
2.418000000000000E+009;1.693606674671173E-001;-7.012573629617691E-002;5.782919004559517E-003;-1.603380544111133E-003;
2.418166666666667E+009;1.684731841087341E-001;-7.030449807643890E-002;5.607169587165117E-003;-1.666968106292188E-003;
2.418333333333334E+009;1.676928102970123E-001;-7.061030715703964E-002;5.418267566710711E-003;-2.002668101340532E-003;
2.418500000000000E+009;1.664708852767944E-001;-7.084993273019791E-002;5.366827361285687E-003;-2.138390904292464E-003;
2.418666666666667E+009;1.654779016971588E-001;-7.133223116397858E-002;5.237295292317867E-003;-2.445038408041000E-003;
2.418833333333334E+009;1.641034483909607E-001;-7.178616523742676E-002;4.952366929501295E-003;-2.507191617041826E-003;
2.419000000000000E+009;1.627468168735504E-001;-7.221359014511108E-002;4.665986169129610E-003;-2.740689320489764E-003;
2.419166666666667E+009;1.615787148475647E-001;-7.279751449823380E-002;4.590177908539772E-003;-2.784462878480554E-003;
2.419333333333334E+009;1.600678414106369E-001;-7.316734641790390E-002;4.390225745737553E-003;-3.006211947649717E-003;
2.419500000000000E+009;1.588514894247055E-001;-7.428353279829025E-002;4.483939614146948E-003;-2.988499356433749E-003;
2.419666666666667E+009;1.576260924339294E-001;-7.502818107604981E-002;4.242037888616324E-003;-3.170562209561467E-003;
2.419833333333334E+009;1.561224758625031E-001;-7.586062699556351E-002;4.070229828357697E-003;-3.317229449748993E-003;
2.420000000000000E+009;1.550345867872238E-001;-7.693555206060410E-002;3.898395923897624E-003;-3.393346210941672E-003;
2.420166666666667E+009;1.537181735038757E-001;-7.807751744985580E-002;3.658427158370614E-003;-3.452294273301959E-003;
2.420333333333334E+009;1.525425463914871E-001;-7.938916981220245E-002;3.607960650697351E-003;-3.732158336788416E-003;
2.420500000000000E+009;1.511987894773483E-001;-8.037679642438889E-002;3.246764186769724E-003;-3.692927304655314E-003;
2.420666666666667E+009;1.500896215438843E-001;-8.176770806312561E-002;3.224009880796075E-003;-3.883531549945474E-003;
2.420833333333334E+009;1.492014974355698E-001;-8.327237516641617E-002;2.981857163831592E-003;-3.921974916011095E-003;
2.421000000000000E+009;1.480182409286499E-001;-8.483590185642242E-002;2.899503801018000E-003;-3.823299426585436E-003;
2.421166666666667E+009;1.471776962280273E-001;-8.613605052232742E-002;2.703369595110416E-003;-3.905806923285127E-003;
2.421333333333334E+009;1.464615762233734E-001;-8.802690356969833E-002;2.429491840302944E-003;-3.930306993424892E-003;
2.421500000000000E+009;1.454936861991882E-001;-8.937902003526688E-002;2.146174432709813E-003;-4.077714402228594E-003;
2.421666666666667E+009;1.448137462139130E-001;-9.130696207284927E-002;2.032827353104949E-003;-3.958375658839941E-003;
2.421833333333334E+009;1.443027257919312E-001;-9.292905032634735E-002;1.946118194609880E-003;-4.133712965995073E-003;
2.422000000000000E+009;1.436869949102402E-001;-9.474951773881912E-002;1.689533237367868E-003;-4.033908713608980E-003;
2.422166666666667E+009;1.433542966842651E-001;-9.670057892799377E-002;1.460710074752569E-003;-3.956382162868977E-003;
2.422333333333334E+009;1.429102271795273E-001;-9.844705462455750E-002;1.347060897387564E-003;-4.124097060412169E-003;
2.422500000000000E+009;1.427500247955322E-001;-1.001150459051132E-001;1.033935579471290E-003;-4.006054252386093E-003;
2.422666666666667E+009;1.423011422157288E-001;-1.019181609153748E-001;9.788729948922992E-004;-3.976675216108561E-003;
2.422833333333334E+009;1.424916088581085E-001;-1.038658097386360E-001;8.208072977140546E-004;-3.896254813298583E-003;
2.423000000000000E+009;1.424018591642380E-001;-1.055316179990768E-001;7.235478260554373E-004;-3.963768947869539E-003;
2.423166666666667E+009;1.424968838691711E-001;-1.073912754654884E-001;6.127083906903863E-004;-3.988058306276798E-003;
2.423333333333334E+009;1.428046077489853E-001;-1.088991835713387E-001;5.831689340993762E-004;-3.767727874219418E-003;
2.423500000000000E+009;1.429949998855591E-001;-1.107662171125412E-001;2.873520134016872E-004;-3.657502587884665E-003;
2.423666666666667E+009;1.431556493043900E-001;-1.122879311442375E-001;1.502391532994807E-004;-3.723668167367578E-003;
2.423833333333334E+009;1.436536163091660E-001;-1.137876957654953E-001;2.870731404982507E-004;-3.685525618493557E-003;
2.424000000000000E+009;1.438443213701248E-001;-1.151485741138458E-001;7.387410732917488E-005;-3.504549153149128E-003;
2.424166666666667E+009;1.442757099866867E-001;-1.166462451219559E-001;6.970069080125541E-005;-3.625269047915936E-003;
2.424333333333334E+009;1.447303146123886E-001;-1.180083900690079E-001;-9.227520786225796E-005;-3.463170025497675E-003;
2.424500000000000E+009;1.452139168977737E-001;-1.191133335232735E-001;-3.071328683290631E-004;-3.422644920647144E-003;
2.424666666666667E+009;1.457161307334900E-001;-1.201213970780373E-001;-4.250009078532457E-004;-3.416183637455106E-003;
2.424833333333334E+009;1.460543274879456E-001;-1.212643980979919E-001;-4.132990143261850E-004;-3.356673056259751E-003;
2.425000000000000E+009;1.466718316078186E-001;-1.220514774322510E-001;-4.877525498159230E-004;-3.295458853244782E-003;
2.425166666666667E+009;1.469155400991440E-001;-1.230091080069542E-001;-5.303475772961974E-004;-3.192221513018012E-003;
2.425333333333334E+009;1.473757922649384E-001;-1.236860454082489E-001;-7.884225924499333E-004;-3.146506613120437E-003;
2.425500000000000E+009;1.478530466556549E-001;-1.244149059057236E-001;-8.088595932349563E-004;-3.160030348226428E-003;
2.425666666666667E+009;1.479072272777557E-001;-1.249168366193771E-001;-8.135740063153207E-004;-3.175492864102125E-003;
2.425833333333334E+009;1.483649760484695E-001;-1.253397017717362E-001;-1.077981432899833E-003;-2.913368633016944E-003;
2.426000000000000E+009;1.485239118337631E-001;-1.258070915937424E-001;-1.019454561173916E-003;-2.919686725363135E-003;
2.426166666666667E+009;1.488278359174728E-001;-1.261641532182694E-001;-1.330953557044268E-003;-2.944194246083498E-003;
2.426333333333334E+009;1.487808674573898E-001;-1.261457502841950E-001;-1.282189856283367E-003;-2.809911733493209E-003;
2.426500000000000E+009;1.488876640796661E-001;-1.262762099504471E-001;-1.406522002071142E-003;-2.740335417911410E-003;
2.426666666666667E+009;1.489436179399490E-001;-1.262850165367127E-001;-1.480758422985673E-003;-2.635443583130837E-003;
2.426833333333334E+009;1.487294882535934E-001;-1.264028102159500E-001;-1.504749525338411E-003;-2.691867761313915E-003;
2.427000000000000E+009;1.484101563692093E-001;-1.263900995254517E-001;-1.524208812043071E-003;-2.552658319473267E-003;
2.427166666666667E+009;1.481506675481796E-001;-1.262055784463882E-001;-1.661819987930358E-003;-2.131912624463439E-003;
2.427333333333334E+009;1.476178318262100E-001;-1.261178851127625E-001;-1.682014903053641E-003;-2.130876062437892E-003;
2.427500000000000E+009;1.472346037626267E-001;-1.259871274232864E-001;-1.778893521986902E-003;-2.146305749192834E-003;
2.427666666666667E+009;1.464640051126480E-001;-1.258708685636520E-001;-1.736049307510257E-003;-2.022101311013103E-003;
