# Version 1.00
#
freq[Hz];re:Trc1_S11;im:Trc1_S11;re:Trc2_S21;im:Trc2_S21;
2.400000000000000E+009;1.616627424955368E-001;5.267263576388359E-002;-3.806781489402056E-003;-4.387977067381144E-003;
2.400166666666667E+009;1.615380495786667E-001;5.116479843854904E-002;-3.914067521691322E-003;-4.245433490723372E-003;
2.400333333333334E+009;1.614338010549545E-001;4.902816563844681E-002;-4.020573571324348E-003;-4.326606635004282E-003;
2.400500000000000E+009;1.614267081022263E-001;4.715041443705559E-002;-4.140456207096577E-003;-4.188057966530323E-003;
2.400666666666667E+009;1.612674742937088E-001;4.525269940495491E-002;-4.612138494849205E-003;-4.030170850455761E-003;
2.400833333333334E+009;1.614059209823608E-001;4.329328984022141E-002;-4.762940574437380E-003;-3.911196719855070E-003;
2.401000000000000E+009;1.614901274442673E-001;4.120820760726929E-002;-4.830542951822281E-003;-3.815206233412027E-003;
2.401166666666667E+009;1.616411954164505E-001;3.894677758216858E-002;-5.028940737247467E-003;-3.806076012551785E-003;
2.401333333333334E+009;1.617441028356552E-001;3.681502863764763E-002;-5.173150449991226E-003;-3.702386515215039E-003;
2.401500000000000E+009;1.619600951671600E-001;3.462251275777817E-002;-5.404579453170300E-003;-3.541139885783196E-003;
2.401666666666667E+009;1.624201089143753E-001;3.293446823954582E-002;-5.666073877364397E-003;-3.353231586515904E-003;
2.401833333333334E+009;1.627263724803925E-001;3.071989119052887E-002;-5.817722063511610E-003;-3.101467387750745E-003;
2.402000000000000E+009;1.630897372961044E-001;2.870431169867516E-002;-5.983928684145212E-003;-3.002988174557686E-003;
2.402166666666667E+009;1.635352820158005E-001;2.652020938694477E-002;-6.183223333209753E-003;-2.663159044459462E-003;
2.402333333333334E+009;1.638769358396530E-001;2.475529909133911E-002;-6.266380660235882E-003;-2.629477297887206E-003;
2.402500000000000E+009;1.647411882877350E-001;2.281554974615574E-002;-6.580548826605082E-003;-2.309202915057540E-003;
2.402666666666667E+009;1.650985181331635E-001;2.102952264249325E-002;-7.040768396109343E-003;-2.107783220708370E-003;
2.402833333333334E+009;1.659339070320129E-001;1.938731595873833E-002;-7.094749715179205E-003;-1.642223563976586E-003;
2.403000000000000E+009;1.666562706232071E-001;1.776067540049553E-002;-7.294822949916124E-003;-1.419839798472822E-003;
2.403166666666667E+009;1.675000488758087E-001;1.592886261641979E-002;-7.435530424118042E-003;-1.151483971625567E-003;
2.403333333333334E+009;1.684735268354416E-001;1.467177737504244E-002;-7.593963760882616E-003;-7.281835423782468E-004;
2.403500000000000E+009;1.690455824136734E-001;1.317565143108368E-002;-7.770017720758915E-003;-4.929793067276478E-004;
2.403666666666667E+009;1.699777692556381E-001;1.170934736728668E-002;-7.671265862882137E-003;9.058729119715281E-006;
2.403833333333334E+009;1.709084510803223E-001;1.041899342089891E-002;-7.835458032786846E-003;3.928047080989927E-004;
2.404000000000000E+009;1.717803627252579E-001;9.286046028137207E-003;-7.900718599557877E-003;6.952009280212224E-004;
2.404166666666667E+009;1.726457029581070E-001;8.160192519426346E-003;-7.908645085990429E-003;1.121307723224163E-003;
2.404333333333334E+009;1.735115647315979E-001;7.170365657657385E-003;-7.664389908313751E-003;1.344030490145087E-003;
2.404500000000000E+009;1.741311699151993E-001;6.168511230498552E-003;-7.807710207998753E-003;1.974581042304635E-003;
2.404666666666667E+009;1.752110719680786E-001;5.348158068954945E-003;-7.572710979729891E-003;2.206112723797560E-003;
2.404833333333334E+009;1.759201437234879E-001;4.531014245003462E-003;-7.579371333122253E-003;2.777842339128256E-003;
2.405000000000000E+009;1.768015772104263E-001;3.929429221898317E-003;-7.418649736791849E-003;2.935378812253475E-003;
2.405166666666667E+009;1.775294840335846E-001;3.394630970433354E-003;-7.105906493961811E-003;3.412006190046668E-003;
2.405333333333334E+009;1.782500594854355E-001;2.684527076780796E-003;-6.961231119930744E-003;3.817740362137556E-003;
2.405500000000000E+009;1.788849681615830E-001;2.275199862197042E-003;-6.757890339940786E-003;4.239488858729601E-003;
2.405666666666667E+009;1.794933229684830E-001;2.005883958190680E-003;-6.535906344652176E-003;4.409123677760363E-003;
2.405833333333334E+009;1.797621101140976E-001;1.624646363779903E-003;-6.256598047912121E-003;4.700617399066687E-003;
2.406000000000000E+009;1.805168986320496E-001;1.229707500897348E-003;-6.180148106068373E-003;4.879351705312729E-003;
2.406166666666667E+009;1.806259155273438E-001;1.243288978002966E-003;-5.730714648962021E-003;5.199687089771032E-003;
2.406333333333334E+009;1.811354905366898E-001;8.572036167606711E-004;-5.460392683744431E-003;5.428714212030172E-003;
2.406500000000000E+009;1.812533885240555E-001;6.527149234898388E-004;-5.225682631134987E-003;5.673692561686039E-003;
2.406666666666667E+009;1.810888946056366E-001;3.883324679918587E-004;-4.948641639202833E-003;5.902823526412249E-003;
2.406833333333334E+009;1.814412176609039E-001;2.343899832339957E-004;-4.729131236672401E-003;5.927234422415495E-003;
2.407000000000000E+009;1.814269572496414E-001;-1.569644227856770E-004;-4.584610462188721E-003;6.051137577742338E-003;
2.407166666666667E+009;1.813591718673706E-001;-3.031473897863179E-004;-4.024584777653217E-003;6.140622776001692E-003;
2.407333333333334E+009;1.810849606990814E-001;-6.388045731000602E-004;-3.840682096779347E-003;6.345313973724842E-003;
2.407500000000000E+009;1.808496862649918E-001;-9.167004609480500E-004;-3.524348838254809E-003;6.522535346448422E-003;
2.407666666666667E+009;1.805701553821564E-001;-1.238327240571380E-003;-3.228062763810158E-003;6.580003071576357E-003;
2.407833333333334E+009;1.799464523792267E-001;-1.873161527328193E-003;-3.009820822626352E-003;6.696157157421112E-003;
2.408000000000000E+009;1.795697361230850E-001;-2.347241388633847E-003;-2.624390413984656E-003;6.753019522875547E-003;
2.408166666666667E+009;1.789560616016388E-001;-2.782154129818082E-003;-2.379350829869509E-003;6.641362328082323E-003;
2.408333333333334E+009;1.784854680299759E-001;-3.526627086102963E-003;-2.100920770317316E-003;6.907632574439049E-003;
2.408500000000000E+009;1.777224242687225E-001;-4.363702144473791E-003;-1.824082108214498E-003;6.779281422495842E-003;
2.408666666666667E+009;1.770405024290085E-001;-5.227881483733654E-003;-1.544933416880667E-003;6.926403380930424E-003;
2.408833333333334E+009;1.760254800319672E-001;-6.032224278897047E-003;-1.223904895596206E-003;6.811757571995258E-003;
2.409000000000000E+009;1.751901805400848E-001;-7.074555847793818E-003;-9.507687063887715E-004;6.791830528527498E-003;
2.409166666666667E+009;1.745362132787705E-001;-8.065010420978069E-003;-6.805898738093674E-004;6.723838392645121E-003;
2.409333333333334E+009;1.737104058265686E-001;-9.431526064872742E-003;-4.954830510541797E-004;6.694931071251631E-003;
2.409500000000000E+009;1.728102862834930E-001;-1.065834145992994E-002;-3.223299281671643E-004;6.564807146787643E-003;
2.409666666666667E+009;1.719946861267090E-001;-1.197618804872036E-002;4.139115844736807E-005;6.646256893873215E-003;
2.409833333333334E+009;1.710969209671021E-001;-1.322414260357618E-002;3.046278434339911E-004;6.529892329126597E-003;
2.410000000000000E+009;1.704681813716888E-001;-1.475450955331326E-002;3.286541614215821E-004;6.465955171734095E-003;
2.410166666666667E+009;1.696364730596542E-001;-1.625909842550755E-002;5.461879190988839E-004;6.376765668392181E-003;
2.410333333333334E+009;1.689802110195160E-001;-1.785438507795334E-002;7.524287211708725E-004;6.285606417804956E-003;
2.410500000000000E+009;1.682112663984299E-001;-1.978459022939205E-002;1.024923636578023E-003;6.195796187967062E-003;
2.410666666666667E+009;1.675777137279511E-001;-2.158544771373272E-002;1.050518127158284E-003;5.988913122564554E-003;
2.410833333333334E+009;1.669888347387314E-001;-2.329204045236111E-002;1.317809568718076E-003;5.953683517873287E-003;
2.411000000000000E+009;1.665115207433701E-001;-2.506368421018124E-002;1.349570229649544E-003;5.956814158707857E-003;
2.411166666666667E+009;1.659604310989380E-001;-2.719573490321636E-002;1.623869175091386E-003;5.801409482955933E-003;
2.411333333333334E+009;1.655564755201340E-001;-2.919383905827999E-002;1.738568884320557E-003;5.711361300200224E-003;
2.411500000000000E+009;1.652461141347885E-001;-3.141193464398384E-002;1.836387673392892E-003;5.669224541634321E-003;
2.411666666666667E+009;1.652234643697739E-001;-3.321092575788498E-002;1.984700793400407E-003;5.611998960375786E-003;
2.411833333333334E+009;1.649862676858902E-001;-3.513441234827042E-002;2.257380867376924E-003;5.656599998474121E-003;
2.412000000000000E+009;1.650130599737167E-001;-3.725111111998558E-002;2.371237380430102E-003;5.471061915159226E-003;
2.412166666666667E+009;1.649313420057297E-001;-3.930631652474403E-002;2.592813223600388E-003;5.412499420344830E-003;
2.412333333333334E+009;1.653430759906769E-001;-4.112229868769646E-002;2.628191607072949E-003;5.432727746665478E-003;
2.412500000000000E+009;1.651586741209030E-001;-4.313737899065018E-002;2.724709687754512E-003;5.290345288813114E-003;
2.412666666666667E+009;1.654019802808762E-001;-4.523741826415062E-002;3.026172984391451E-003;5.252130329608917E-003;
2.412833333333334E+009;1.656568199396133E-001;-4.697037860751152E-002;3.273576963692904E-003;5.296136252582073E-003;
2.413000000000000E+009;1.660818010568619E-001;-4.888701811432838E-002;3.288191044703126E-003;5.125989671796560E-003;
2.413166666666667E+009;1.663744747638702E-001;-5.065279826521874E-002;3.521249629557133E-003;5.047475453466177E-003;
2.413333333333334E+009;1.666684895753861E-001;-5.236529558897018E-002;3.738523926585913E-003;4.952417220920324E-003;
2.413500000000000E+009;1.672036349773407E-001;-5.407353863120079E-002;4.217519890516996E-003;4.825216252356768E-003;
2.413666666666667E+009;1.677993237972260E-001;-5.568573251366615E-002;4.200194031000137E-003;4.570558667182922E-003;
2.413833333333334E+009;1.684137731790543E-001;-5.707338452339172E-002;4.316461272537708E-003;4.536304622888565E-003;
2.414000000000000E+009;1.687767505645752E-001;-5.862687155604363E-002;4.592286422848702E-003;4.342411179095507E-003;
2.414166666666667E+009;1.693513542413712E-001;-5.988395586609840E-002;4.782834090292454E-003;4.187188111245632E-003;
2.414333333333334E+009;1.697934567928314E-001;-6.111064553260803E-002;4.935268312692642E-003;3.867480671033263E-003;
2.414500000000000E+009;1.707563400268555E-001;-6.205932050943375E-002;5.017231684178114E-003;3.857088275253773E-003;
2.414666666666667E+009;1.709777414798737E-001;-6.315738707780838E-002;5.199388135224581E-003;3.563339589163661E-003;
2.414833333333334E+009;1.715837121009827E-001;-6.422466039657593E-002;5.433712620288134E-003;3.302850993350148E-003;
2.415000000000000E+009;1.720303297042847E-001;-6.508453190326691E-002;5.659131798893213E-003;3.021576441824436E-003;
2.415166666666667E+009;1.724840253591538E-001;-6.569609045982361E-002;5.805245134979487E-003;2.892247866839171E-003;
2.415333333333334E+009;1.731089949607849E-001;-6.640035659074783E-002;5.853896494954824E-003;2.731353743001819E-003;
2.415500000000000E+009;1.734353303909302E-001;-6.694670766592026E-002;5.858927499502897E-003;2.678406890481710E-003;
2.415666666666667E+009;1.737681627273560E-001;-6.733778119087219E-002;6.059308070689440E-003;2.238082233816385E-003;
2.415833333333334E+009;1.740957051515579E-001;-6.779243052005768E-002;6.013701669871807E-003;1.832761568948627E-003;
2.416000000000000E+009;1.742325425148010E-001;-6.826803833246231E-002;6.299079861491919E-003;1.614586566574872E-003;
2.416166666666667E+009;1.744959950447083E-001;-6.855404376983643E-002;6.098855752497912E-003;1.304119825363159E-003;
2.416333333333334E+009;1.743556410074234E-001;-6.874934583902359E-002;6.368513219058514E-003;1.027285587042570E-003;
2.416500000000000E+009;1.743179112672806E-001;-6.905286014080048E-002;6.199128925800324E-003;6.743894191458821E-004;
2.416666666666667E+009;1.740991771221161E-001;-6.907685846090317E-002;6.311036646366119E-003;4.865911323577166E-004;
2.416833333333334E+009;1.739093065261841E-001;-6.928166002035141E-002;6.204046308994293E-003;2.282900968566537E-004;
2.417000000000000E+009;1.735904663801193E-001;-6.952679902315140E-002;6.218674127012491E-003;9.629205305827782E-005;
2.417166666666667E+009;1.730476915836334E-001;-6.937728822231293E-002;6.142146885395050E-003;-2.290554257342592E-004;
2.417333333333334E+009;1.727051287889481E-001;-6.952258199453354E-002;6.016300991177559E-003;-6.467314087785780E-004;
2.417500000000000E+009;1.718700230121613E-001;-6.985981762409210E-002;5.927363876253367E-003;-8.752103312872350E-004;
2.417666666666667E+009;1.712342202663422E-001;-6.982623785734177E-002;5.772284697741270E-003;-1.084780669771135E-003;
2.417833333333334E+009;1.703841090202332E-001;-6.995438039302826E-002;5.847595166414976E-003;-1.306389691308141E-003;
2.418000000000000E+009;1.695035696029663E-001;-7.024328410625458E-002;5.645911209285259E-003;-1.588802435435355E-003;
2.418166666666667E+009;1.684566438198090E-001;-7.038787007331848E-002;5.486777052283287E-003;-1.856861053965986E-003;
2.418333333333334E+009;1.677162200212479E-001;-7.075712084770203E-002;5.456494633108378E-003;-1.941707800142467E-003;
2.418500000000000E+009;1.664755642414093E-001;-7.085860520601273E-002;5.350176710635424E-003;-2.142776967957616E-003;
2.418666666666667E+009;1.654173880815506E-001;-7.137792557477951E-002;5.072033498436213E-003;-2.343660686165094E-003;
2.418833333333334E+009;1.639806777238846E-001;-7.180801779031754E-002;4.869781900197268E-003;-2.456665039062500E-003;
2.419000000000000E+009;1.626819223165512E-001;-7.234784960746765E-002;4.895904101431370E-003;-2.646942622959614E-003;
2.419166666666667E+009;1.614846438169479E-001;-7.294724136590958E-002;4.781012423336506E-003;-2.717963652685285E-003;
2.419333333333334E+009;1.599898338317871E-001;-7.342603802680969E-002;4.568394273519516E-003;-2.857523970305920E-003;
2.419500000000000E+009;1.586647331714630E-001;-7.428468763828278E-002;4.442001227289438E-003;-3.156076418235898E-003;
2.419666666666667E+009;1.575557887554169E-001;-7.515928894281387E-002;4.117666278034449E-003;-3.284847130998969E-003;
2.419833333333334E+009;1.560916602611542E-001;-7.606382668018341E-002;4.004806280136108E-003;-3.317666240036488E-003;
2.420000000000000E+009;1.548595577478409E-001;-7.713444530963898E-002;3.811301197856665E-003;-3.358526388183236E-003;
2.420166666666667E+009;1.536484211683273E-001;-7.805237919092178E-002;3.628955455496907E-003;-3.543087048456073E-003;
2.420333333333334E+009;1.524121761322022E-001;-7.936720550060272E-002;3.530825953930616E-003;-3.507687244564295E-003;
2.420500000000000E+009;1.512145400047302E-001;-8.051940798759460E-002;3.356020664796233E-003;-3.766373265534639E-003;
2.420666666666667E+009;1.500495374202728E-001;-8.173226565122604E-002;3.233142197132111E-003;-3.842846956104040E-003;
2.420833333333334E+009;1.490697562694550E-001;-8.327457308769226E-002;3.074418520554900E-003;-3.839359153062105E-003;
2.421000000000000E+009;1.479046344757080E-001;-8.474391698837280E-002;2.810175530612469E-003;-3.917407710105181E-003;
2.421166666666667E+009;1.470806151628494E-001;-8.629795908927918E-002;2.598422113806009E-003;-4.021567292511463E-003;
2.421333333333334E+009;1.461826115846634E-001;-8.793861418962479E-002;2.284001559019089E-003;-4.047742113471031E-003;
2.421500000000000E+009;1.453479379415512E-001;-8.948489278554916E-002;2.376215532422066E-003;-4.026611335575581E-003;
2.421666666666667E+009;1.448046863079071E-001;-9.127984195947647E-002;2.004710026085377E-003;-4.160010721534491E-003;
2.421833333333334E+009;1.442930102348328E-001;-9.296022355556488E-002;1.876314287073910E-003;-4.160084761679173E-003;
2.422000000000000E+009;1.436626166105270E-001;-9.472264349460602E-002;1.742723165079951E-003;-4.053797572851181E-003;
2.422166666666667E+009;1.431572735309601E-001;-9.669259935617447E-002;1.396431820467114E-003;-4.028031136840582E-003;
2.422333333333334E+009;1.429487019777298E-001;-9.846649318933487E-002;1.332699088379741E-003;-4.003734793514013E-003;
2.422500000000000E+009;1.426826715469360E-001;-1.000907644629479E-001;1.207130961120129E-003;-4.027515649795532E-003;
2.422666666666667E+009;1.423346102237701E-001;-1.020215749740601E-001;1.195558113977313E-003;-3.936108667403460E-003;
2.422833333333334E+009;1.423791348934174E-001;-1.038071736693382E-001;9.155747247859836E-004;-4.055475816130638E-003;
2.423000000000000E+009;1.424524635076523E-001;-1.056545898318291E-001;7.891727727837861E-004;-3.969873767346144E-003;
2.423166666666667E+009;1.425648927688599E-001;-1.075146198272705E-001;5.383903626352549E-004;-3.720138687640429E-003;
2.423333333333334E+009;1.428216695785523E-001;-1.090026050806046E-001;4.060512874275446E-004;-3.730897791683674E-003;
2.423500000000000E+009;1.432128399610519E-001;-1.107599958777428E-001;4.553129256237298E-004;-3.779865335673094E-003;
2.423666666666667E+009;1.433078795671463E-001;-1.124368607997894E-001;2.905614092014730E-004;-3.701886860653758E-003;
2.423833333333334E+009;1.437125802040100E-001;-1.139357760548592E-001;9.187715477310121E-005;-3.590120002627373E-003;
2.424000000000000E+009;1.438606977462769E-001;-1.152259483933449E-001;1.666105818003416E-004;-3.635595552623272E-003;
2.424166666666667E+009;1.444084346294403E-001;-1.167191118001938E-001;-6.500753806903958E-005;-3.447346156463027E-003;
2.424333333333334E+009;1.449331939220429E-001;-1.179940029978752E-001;-2.464604331180453E-004;-3.350120969116688E-003;
2.424500000000000E+009;1.451861709356308E-001;-1.192833632230759E-001;-3.049601509701461E-004;-3.374475287273526E-003;
2.424666666666667E+009;1.458174884319305E-001;-1.202587485313416E-001;-2.124179154634476E-004;-3.545652609318495E-003;
2.424833333333334E+009;1.460887044668198E-001;-1.212727054953575E-001;-3.324063436593860E-004;-3.401452908292413E-003;
2.425000000000000E+009;1.466742902994156E-001;-1.221789792180061E-001;-5.683869821950793E-004;-3.332348307594657E-003;
2.425166666666667E+009;1.468902081251144E-001;-1.230072975158691E-001;-5.040580872446299E-004;-3.202505409717560E-003;
2.425333333333334E+009;1.473266631364822E-001;-1.237801164388657E-001;-7.183167035691440E-004;-3.172920318320394E-003;
2.425500000000000E+009;1.477722078561783E-001;-1.244418621063232E-001;-7.864168728701770E-004;-3.219941863790155E-003;
2.425666666666667E+009;1.479548215866089E-001;-1.249870806932449E-001;-9.412701474502683E-004;-3.063321579247713E-003;
2.425833333333334E+009;1.482951045036316E-001;-1.254613548517227E-001;-8.994613308459520E-004;-3.187916474416852E-003;
2.426000000000000E+009;1.484576016664505E-001;-1.258827596902847E-001;-1.299160532653332E-003;-2.914651995524764E-003;
2.426166666666667E+009;1.488247215747833E-001;-1.261349767446518E-001;-1.158403814770281E-003;-2.893351251259446E-003;
2.426333333333334E+009;1.488142758607864E-001;-1.263577640056610E-001;-1.338679692707956E-003;-2.820454305037856E-003;
2.426500000000000E+009;1.488846987485886E-001;-1.264157891273499E-001;-1.317353569902480E-003;-2.728481544181705E-003;
2.426666666666667E+009;1.490021795034409E-001;-1.263368427753449E-001;-1.407924806699157E-003;-2.531126840040088E-003;
2.426833333333334E+009;1.486828923225403E-001;-1.264805346727371E-001;-1.486868364736438E-003;-2.627970185130835E-003;
2.427000000000000E+009;1.483608633279800E-001;-1.264060437679291E-001;-1.484494307078421E-003;-2.343176165595651E-003;
2.427166666666667E+009;1.480979174375534E-001;-1.262643784284592E-001;-1.609775470569730E-003;-2.309535862877965E-003;
2.427333333333334E+009;1.474848687648773E-001;-1.261644661426544E-001;-1.620686496607959E-003;-2.291978336870670E-003;
2.427500000000000E+009;1.471694707870483E-001;-1.260561645030975E-001;-1.560661126859486E-003;-2.254669088870287E-003;
2.427666666666667E+009;1.464142650365830E-001;-1.260498911142349E-001;-1.812905771657825E-003;-2.048717811703682E-003;
