# Version 1.00
#
freq[Hz];re:Trc1_S11;im:Trc1_S11;re:Trc2_S21;im:Trc2_S21;
2.400000000000000E+009;1.616730391979218E-001;5.276199057698250E-002;-3.747784299775958E-003;-4.192264750599861E-003;
2.400166666666667E+009;1.614757925271988E-001;5.108610168099403E-002;-3.791047725826502E-003;-4.190935287624598E-003;
2.400333333333334E+009;1.614869982004166E-001;4.914036765694618E-002;-4.146526567637920E-003;-4.138069227337837E-003;
2.400500000000000E+009;1.614454090595245E-001;4.712142795324326E-002;-4.208951722830534E-003;-4.190674051642418E-003;
2.400666666666667E+009;1.612613797187805E-001;4.507267475128174E-002;-4.395836032927036E-003;-4.089494701474905E-003;
2.400833333333334E+009;1.613741964101791E-001;4.302781820297241E-002;-4.420434124767780E-003;-3.835930023342371E-003;
2.401000000000000E+009;1.613873243331909E-001;4.110506922006607E-002;-4.799164365977049E-003;-3.774569602683187E-003;
2.401166666666667E+009;1.616962850093842E-001;3.895612433552742E-002;-4.896840546280146E-003;-3.777904668822885E-003;
2.401333333333334E+009;1.617346554994583E-001;3.683082014322281E-002;-5.108183249831200E-003;-3.600755007937551E-003;
2.401500000000000E+009;1.620329469442368E-001;3.480019047856331E-002;-5.574700888246298E-003;-3.386136144399643E-003;
2.401666666666667E+009;1.623063981533051E-001;3.276406601071358E-002;-5.546146072447300E-003;-3.291361965239048E-003;
2.401833333333334E+009;1.627584844827652E-001;3.058693371713162E-002;-5.871377885341644E-003;-3.205842804163694E-003;
2.402000000000000E+009;1.629053205251694E-001;2.861421741545200E-002;-6.027522496879101E-003;-3.186018904671073E-003;
2.402166666666667E+009;1.632974147796631E-001;2.648327685892582E-002;-6.326850038021803E-003;-2.869803924113512E-003;
2.402333333333334E+009;1.638734489679337E-001;2.466916479170322E-002;-6.522016599774361E-003;-2.666641725227237E-003;
2.402500000000000E+009;1.647634655237198E-001;2.288995310664177E-002;-6.681709084659815E-003;-2.528992481529713E-003;
2.402666666666667E+009;1.652789264917374E-001;2.102438546717167E-002;-6.875534541904926E-003;-1.999842468649149E-003;
2.402833333333334E+009;1.659223288297653E-001;1.944250985980034E-002;-7.099130190908909E-003;-1.804923522286117E-003;
2.403000000000000E+009;1.666543334722519E-001;1.755167730152607E-002;-7.195740006864071E-003;-1.520477584563196E-003;
2.403166666666667E+009;1.675094217061997E-001;1.629866659641266E-002;-7.386175449937582E-003;-1.073154737241566E-003;
2.403333333333334E+009;1.682921499013901E-001;1.452748011797667E-002;-7.348629180341959E-003;-9.387192549183965E-004;
2.403500000000000E+009;1.689906716346741E-001;1.313507184386253E-002;-7.521074730902910E-003;-4.968112334609032E-004;
2.403666666666667E+009;1.699675619602203E-001;1.167461369186640E-002;-7.457144558429718E-003;-2.018234226852655E-004;
2.403833333333334E+009;1.709721684455872E-001;1.042621862143278E-002;-7.816452533006668E-003;3.226801927667111E-004;
2.404000000000000E+009;1.717577278614044E-001;9.268685244023800E-003;-7.847215048968792E-003;6.203557131811976E-004;
2.404166666666667E+009;1.725796014070511E-001;8.178148418664932E-003;-7.815104909241200E-003;1.193198491819203E-003;
2.404333333333334E+009;1.736801564693451E-001;7.372279185801745E-003;-7.689430378377438E-003;1.451904536224902E-003;
2.404500000000000E+009;1.743571460247040E-001;6.209069862961769E-003;-7.723040413111448E-003;1.949437661096454E-003;
2.404666666666667E+009;1.751829534769058E-001;5.455868784338236E-003;-7.514140568673611E-003;2.339490223675966E-003;
2.404833333333334E+009;1.760791689157486E-001;4.711984656751156E-003;-7.393839769065380E-003;2.771966625005007E-003;
2.405000000000000E+009;1.767654120922089E-001;4.036439582705498E-003;-7.330448832362890E-003;3.134212689474225E-003;
2.405166666666667E+009;1.776082813739777E-001;3.328643972054124E-003;-7.076199632138014E-003;3.486173460260034E-003;
2.405333333333334E+009;1.782727539539337E-001;2.821090631186962E-003;-7.029847707599402E-003;3.840273246169090E-003;
2.405500000000000E+009;1.788160055875778E-001;2.397246658802033E-003;-6.676005665212870E-003;4.135392140597105E-003;
2.405666666666667E+009;1.794537454843521E-001;2.116851974278688E-003;-6.530258338898420E-003;4.387990105897188E-003;
2.405833333333334E+009;1.798654198646545E-001;1.792819704860449E-003;-6.216203793883324E-003;4.715952556580305E-003;
2.406000000000000E+009;1.803272813558579E-001;1.300599658861756E-003;-6.004493683576584E-003;4.871845245361328E-003;
2.406166666666667E+009;1.805674433708191E-001;1.234561903402209E-003;-5.856748670339584E-003;5.166284274309874E-003;
2.406333333333334E+009;1.811688989400864E-001;8.550726342946291E-004;-5.528063978999853E-003;5.393454339355230E-003;
2.406500000000000E+009;1.812732070684433E-001;6.215170724317431E-004;-5.270536057651043E-003;5.737228784710169E-003;
2.406666666666667E+009;1.813129484653473E-001;5.518778925761581E-004;-4.857420921325684E-003;5.592288449406624E-003;
2.406833333333334E+009;1.814564764499664E-001;1.705106697045267E-004;-4.642707761377096E-003;5.839255172759295E-003;
2.407000000000000E+009;1.814685314893723E-001;-5.819692523800768E-005;-4.313559737056494E-003;6.066676229238510E-003;
2.407166666666667E+009;1.813555359840393E-001;-2.454206987749785E-004;-4.121326375752688E-003;6.248628254979849E-003;
2.407333333333334E+009;1.811058074235916E-001;-6.291715544648469E-004;-3.834690898656845E-003;6.185827311128378E-003;
2.407500000000000E+009;1.806757450103760E-001;-8.750492706894875E-004;-3.660475136712194E-003;6.386389955878258E-003;
2.407666666666667E+009;1.805612444877625E-001;-1.199571881443262E-003;-3.157362574711442E-003;6.521041970700026E-003;
2.407833333333334E+009;1.798941493034363E-001;-1.816620118916035E-003;-2.860200125724077E-003;6.389735266566277E-003;
2.408000000000000E+009;1.794859170913696E-001;-2.474831882864237E-003;-2.556018996983767E-003;6.544197909533978E-003;
2.408166666666667E+009;1.789133399724960E-001;-2.687414409592748E-003;-2.335313009098172E-003;6.701018661260605E-003;
2.408333333333334E+009;1.785365343093872E-001;-3.358636749908328E-003;-2.112161135300994E-003;6.685725878924131E-003;
2.408500000000000E+009;1.777451634407044E-001;-4.175537265837193E-003;-1.847697072662413E-003;6.562498398125172E-003;
2.408666666666667E+009;1.769407242536545E-001;-5.071451887488365E-003;-1.434593810699880E-003;6.684054620563984E-003;
2.408833333333334E+009;1.760271340608597E-001;-5.801555700600147E-003;-1.230590394698083E-003;6.646373774856329E-003;
2.409000000000000E+009;1.752773672342300E-001;-6.906913127750158E-003;-9.142548078671098E-004;6.570660509169102E-003;
2.409166666666667E+009;1.745455563068390E-001;-7.933983579277992E-003;-7.768369978293777E-004;6.662652362138033E-003;
2.409333333333334E+009;1.737365126609802E-001;-9.248703718185425E-003;-4.541586386039853E-004;6.628053728491068E-003;
2.409500000000000E+009;1.727457493543625E-001;-1.058814954012632E-002;-1.394825230818242E-004;6.625643000006676E-003;
2.409666666666667E+009;1.720629483461380E-001;-1.186746545135975E-002;-4.806872311746702E-005;6.554411724209786E-003;
2.409833333333334E+009;1.710287034511566E-001;-1.311877276748419E-002;7.216860103653744E-005;6.454978603869677E-003;
2.410000000000000E+009;1.703941076993942E-001;-1.465839706361294E-002;3.522280894685537E-004;6.344372872263193E-003;
2.410166666666667E+009;1.696887016296387E-001;-1.628575660288334E-002;6.273983162827790E-004;6.280968897044659E-003;
2.410333333333334E+009;1.688947528600693E-001;-1.797920837998390E-002;8.249252568930388E-004;6.304689683020115E-003;
2.410500000000000E+009;1.683164238929749E-001;-1.971331238746643E-002;9.712801547721028E-004;6.081491243094206E-003;
2.410666666666667E+009;1.676292568445206E-001;-2.167315967381001E-002;1.051175175234675E-003;6.104119587689638E-003;
2.410833333333334E+009;1.670850068330765E-001;-2.336122468113899E-002;1.140290871262550E-003;6.085336674004793E-003;
2.411000000000000E+009;1.665580272674561E-001;-2.511179260909557E-002;1.376408035866916E-003;5.909272935241461E-003;
2.411166666666667E+009;1.660675555467606E-001;-2.704315073788166E-002;1.655227621085942E-003;5.826098844408989E-003;
2.411333333333334E+009;1.656115502119064E-001;-2.897081151604652E-002;1.768758753314614E-003;5.614099092781544E-003;
2.411500000000000E+009;1.654156297445297E-001;-3.125463798642159E-002;1.848628628067672E-003;5.633355118334293E-003;
2.411666666666667E+009;1.651022285223007E-001;-3.319316357374191E-002;2.019704552367330E-003;5.562926642596722E-003;
2.411833333333334E+009;1.650692969560623E-001;-3.498080000281334E-002;2.093944465741515E-003;5.442001391202211E-003;
2.412000000000000E+009;1.650437265634537E-001;-3.714754432439804E-002;2.299513667821884E-003;5.559314042329788E-003;
2.412166666666667E+009;1.648490428924561E-001;-3.921301290392876E-002;2.385080559179187E-003;5.403260234743357E-003;
2.412333333333334E+009;1.651874333620071E-001;-4.112160578370094E-002;2.631822368130088E-003;5.389595404267311E-003;
2.412500000000000E+009;1.651071906089783E-001;-4.311796277761459E-002;2.843076596036553E-003;5.344443488866091E-003;
2.412666666666667E+009;1.654221117496491E-001;-4.517469555139542E-002;2.897483296692371E-003;5.254902411252260E-003;
2.412833333333334E+009;1.657007336616516E-001;-4.703285172581673E-002;3.084696596488357E-003;5.293696653097868E-003;
2.413000000000000E+009;1.660483777523041E-001;-4.877369850873947E-002;3.312856657430530E-003;5.145621951669455E-003;
2.413166666666667E+009;1.665443629026413E-001;-5.061823129653931E-002;3.517299657687545E-003;5.022445693612099E-003;
2.413333333333334E+009;1.667879223823547E-001;-5.234438180923462E-002;3.730550641193986E-003;5.042614880949259E-003;
2.413500000000000E+009;1.671929061412811E-001;-5.417191609740257E-002;3.867339575663209E-003;4.661829210817814E-003;
2.413666666666667E+009;1.678331941366196E-001;-5.571913719177246E-002;4.154212772846222E-003;4.690788686275482E-003;
2.413833333333334E+009;1.682453155517578E-001;-5.716339498758316E-002;4.405293148010969E-003;4.448330029845238E-003;
2.414000000000000E+009;1.686970889568329E-001;-5.849947407841682E-002;4.388206172734499E-003;4.304893314838409E-003;
2.414166666666667E+009;1.693726181983948E-001;-5.983461439609528E-002;4.621740896254778E-003;4.097130615264177E-003;
2.414333333333334E+009;1.699423342943192E-001;-6.111871823668480E-002;4.835834726691246E-003;3.957709763199091E-003;
2.414500000000000E+009;1.707434952259064E-001;-6.211544573307037E-002;5.003229249268770E-003;3.787299152463675E-003;
2.414666666666667E+009;1.711638569831848E-001;-6.319800764322281E-002;5.085864569991827E-003;3.540929174050689E-003;
2.414833333333334E+009;1.714783757925034E-001;-6.413340568542481E-002;5.356622394174337E-003;3.431860823184252E-003;
2.415000000000000E+009;1.720977127552033E-001;-6.504072993993759E-002;5.384982097893953E-003;3.213700139895082E-003;
2.415166666666667E+009;1.725966334342957E-001;-6.574491411447525E-002;5.606409162282944E-003;2.891690703108907E-003;
2.415333333333334E+009;1.730858683586121E-001;-6.649339199066162E-002;5.672214552760124E-003;2.847783034667373E-003;
2.415500000000000E+009;1.734510660171509E-001;-6.701858341693878E-002;5.907817278057337E-003;2.518390072509646E-003;
2.415666666666667E+009;1.737668812274933E-001;-6.744083017110825E-002;6.063537206500769E-003;2.065024338662624E-003;
2.415833333333334E+009;1.741056591272354E-001;-6.780380755662918E-002;6.103878840804100E-003;1.956387422978878E-003;
2.416000000000000E+009;1.740949898958206E-001;-6.824803352355957E-002;6.114886607974768E-003;1.640831236727536E-003;
2.416166666666667E+009;1.745182275772095E-001;-6.850016862154007E-002;6.197785027325153E-003;1.324745127931237E-003;
2.416333333333334E+009;1.743526011705399E-001;-6.880196183919907E-002;6.151752546429634E-003;1.145514310337603E-003;
2.416500000000000E+009;1.743570566177368E-001;-6.891140341758728E-002;6.222527008503676E-003;8.017467334866524E-004;
2.416666666666667E+009;1.741680651903153E-001;-6.900893151760101E-002;6.385480985045433E-003;5.179735017009080E-004;
2.416833333333334E+009;1.740146279335022E-001;-6.933745741844177E-002;6.317544262856245E-003;2.994649985339493E-004;
2.417000000000000E+009;1.734299510717392E-001;-6.947223842144013E-002;6.250440143048763E-003;-5.770134885096923E-005;
2.417166666666667E+009;1.730680763721466E-001;-6.950226426124573E-002;6.147720851004124E-003;-3.069365629926324E-004;
2.417333333333334E+009;1.725129038095474E-001;-6.957311183214188E-002;6.101898383349180E-003;-5.242750630713999E-004;
2.417500000000000E+009;1.718765050172806E-001;-6.974204629659653E-002;5.923525430262089E-003;-7.916232571005821E-004;
2.417666666666667E+009;1.712530851364136E-001;-6.971231848001480E-002;5.918937269598246E-003;-1.088957418687642E-003;
2.417833333333334E+009;1.704924553632736E-001;-6.992994248867035E-002;5.836360622197390E-003;-1.317121204920113E-003;
2.418000000000000E+009;1.694010198116303E-001;-7.026325911283493E-002;5.760172381997109E-003;-1.528061809949577E-003;
2.418166666666667E+009;1.685950160026550E-001;-7.023456692695618E-002;5.582757294178009E-003;-1.895997673273087E-003;
2.418333333333334E+009;1.676541417837143E-001;-7.059430330991745E-002;5.396660417318344E-003;-1.994784921407700E-003;
2.418500000000000E+009;1.664499193429947E-001;-7.083021104335785E-002;5.240771919488907E-003;-2.312270458787680E-003;
2.418666666666667E+009;1.654908806085587E-001;-7.129310816526413E-002;5.145791918039322E-003;-2.415484748780727E-003;
2.418833333333334E+009;1.640290021896362E-001;-7.169871777296066E-002;4.936857149004936E-003;-2.576784696429968E-003;
2.419000000000000E+009;1.627643406391144E-001;-7.222671061754227E-002;4.821291659027338E-003;-2.680295379832387E-003;
2.419166666666667E+009;1.615292280912399E-001;-7.269667088985443E-002;4.558969289064407E-003;-2.714021829888225E-003;
2.419333333333334E+009;1.600018292665482E-001;-7.331663370132446E-002;4.421544261276722E-003;-2.884139539673924E-003;
2.419500000000000E+009;1.589234620332718E-001;-7.418283820152283E-002;4.336331970989704E-003;-2.981784055009484E-003;
2.419666666666667E+009;1.575851589441299E-001;-7.521239668130875E-002;4.116680938750505E-003;-3.260441357269883E-003;
2.419833333333334E+009;1.563149094581604E-001;-7.573826611042023E-002;4.010556265711784E-003;-3.209311747923493E-003;
2.420000000000000E+009;1.550228446722031E-001;-7.708064466714859E-002;3.836696036159992E-003;-3.491020062938333E-003;
2.420166666666667E+009;1.537244766950607E-001;-7.793653756380081E-002;3.610859625041485E-003;-3.434763057157397E-003;
2.420333333333334E+009;1.524093449115753E-001;-7.935104519128799E-002;3.489866154268384E-003;-3.434161655604839E-003;
2.420500000000000E+009;1.514170616865158E-001;-8.048289269208908E-002;3.367556491866708E-003;-3.549185348674655E-003;
2.420666666666667E+009;1.501914113759995E-001;-8.179132640361786E-002;3.153600497171283E-003;-3.675733925774694E-003;
2.420833333333334E+009;1.491131931543350E-001;-8.318691700696945E-002;2.899466780945659E-003;-3.761233063414693E-003;
2.421000000000000E+009;1.479642987251282E-001;-8.476553857326508E-002;2.837725449353457E-003;-3.749126335605979E-003;
2.421166666666667E+009;1.471982002258301E-001;-8.617951720952988E-002;2.589714247733355E-003;-3.891975618898869E-003;
2.421333333333334E+009;1.462984681129456E-001;-8.788686990737915E-002;2.435512840747833E-003;-3.880738979205489E-003;
2.421500000000000E+009;1.455599069595337E-001;-8.940520137548447E-002;2.249699085950851E-003;-4.043837077915669E-003;
2.421666666666667E+009;1.447296291589737E-001;-9.135418385267258E-002;2.058009384199977E-003;-3.980848472565413E-003;
2.421833333333334E+009;1.442888081073761E-001;-9.300354123115540E-002;1.891679479740560E-003;-4.020852968096733E-003;
2.422000000000000E+009;1.434825062751770E-001;-9.484206140041351E-002;1.628154190257192E-003;-4.095298238098621E-003;
2.422166666666667E+009;1.433592438697815E-001;-9.673544764518738E-002;1.452351105399430E-003;-4.082418512552977E-003;
2.422333333333334E+009;1.428892314434052E-001;-9.838762134313583E-002;1.355222659185529E-003;-3.984847571700811E-003;
2.422500000000000E+009;1.426186114549637E-001;-1.001976653933525E-001;1.319770002737641E-003;-3.920035902410746E-003;
2.422666666666667E+009;1.423817873001099E-001;-1.020377427339554E-001;8.855669293552637E-004;-3.918285481631756E-003;
2.422833333333334E+009;1.424552649259567E-001;-1.038463264703751E-001;9.234889294020832E-004;-3.930434118956327E-003;
2.423000000000000E+009;1.423506885766983E-001;-1.056239753961563E-001;7.605643477290869E-004;-4.089355003088713E-003;
2.423166666666667E+009;1.425244063138962E-001;-1.073326244950295E-001;6.245650583878160E-004;-3.884329693391919E-003;
2.423333333333334E+009;1.429305225610733E-001;-1.088853701949120E-001;5.835021729581058E-004;-3.845023224130273E-003;
2.423500000000000E+009;1.430598795413971E-001;-1.106031835079193E-001;4.570721648633480E-004;-3.636059118434787E-003;
2.423666666666667E+009;1.430260837078095E-001;-1.123888567090035E-001;1.822216290747747E-004;-3.850919660180807E-003;
2.423833333333334E+009;1.436978280544281E-001;-1.139047890901566E-001;1.902226940728724E-004;-3.545344341546297E-003;
2.424000000000000E+009;1.439876258373261E-001;-1.151944175362587E-001;-1.917466943268664E-005;-3.496517660096288E-003;
2.424166666666667E+009;1.442755311727524E-001;-1.166306883096695E-001;-1.748697541188449E-004;-3.607390215620399E-003;
2.424333333333334E+009;1.448391079902649E-001;-1.178878024220467E-001;-9.483424946665764E-005;-3.487573936581612E-003;
2.424500000000000E+009;1.452168226242065E-001;-1.192367374897003E-001;-3.329921164549887E-004;-3.372387262061238E-003;
2.424666666666667E+009;1.457162946462631E-001;-1.201011091470718E-001;-2.160862059099600E-004;-3.641950897872448E-003;
2.424833333333334E+009;1.460697650909424E-001;-1.211264282464981E-001;-4.061737272422761E-004;-3.478120546787977E-003;
2.425000000000000E+009;1.465657651424408E-001;-1.221332624554634E-001;-5.087783792987466E-004;-3.339175600558519E-003;
2.425166666666667E+009;1.468446254730225E-001;-1.228766664862633E-001;-6.153861759230495E-004;-3.280173987150192E-003;
2.425333333333334E+009;1.474320590496063E-001;-1.236677169799805E-001;-7.475567981600761E-004;-3.291022265329957E-003;
2.425500000000000E+009;1.478842496871948E-001;-1.243647560477257E-001;-7.647126330994070E-004;-3.272142494097352E-003;
2.425666666666667E+009;1.480519473552704E-001;-1.248768419027329E-001;-9.233463206328452E-004;-3.114850027486682E-003;
2.425833333333334E+009;1.482913196086884E-001;-1.252494901418686E-001;-1.032141968607903E-003;-3.029077546671033E-003;
2.426000000000000E+009;1.484629064798355E-001;-1.257135421037674E-001;-1.119013526476920E-003;-3.084177384153009E-003;
2.426166666666667E+009;1.488358080387116E-001;-1.260958760976791E-001;-1.152579905465245E-003;-3.142348723486066E-003;
2.426333333333334E+009;1.488460451364517E-001;-1.262398064136505E-001;-1.255049603059888E-003;-2.882551634684205E-003;
2.426500000000000E+009;1.488518863916397E-001;-1.262751370668411E-001;-1.484984531998634E-003;-2.797679742798209E-003;
2.426666666666667E+009;1.489875316619873E-001;-1.262385994195938E-001;-1.340836170129478E-003;-2.681125886738300E-003;
2.426833333333334E+009;1.486545205116272E-001;-1.263304799795151E-001;-1.518862787634134E-003;-2.530293771997094E-003;
2.427000000000000E+009;1.483968347311020E-001;-1.263435333967209E-001;-1.542695215903223E-003;-2.369580091908574E-003;
2.427166666666667E+009;1.481244266033173E-001;-1.261686086654663E-001;-1.669266261160374E-003;-2.304611727595329E-003;
2.427333333333334E+009;1.475842446088791E-001;-1.261516809463501E-001;-1.670956844463944E-003;-2.330406801775098E-003;
2.427500000000000E+009;1.471787691116333E-001;-1.260322183370590E-001;-1.701031927950680E-003;-2.022376516833901E-003;
2.427666666666667E+009;1.464962810277939E-001;-1.259158253669739E-001;-1.661748043261468E-003;-1.983837690204382E-003;
