# Version 1.00
#
freq[Hz];re:Trc1_S11;im:Trc1_S11;re:Trc2_S21;im:Trc2_S21;
2.400000000000000E+009;1.616242080926895E-001;5.258501693606377E-002;-3.905080724507570E-003;-4.160907585173845E-003;
2.400166666666667E+009;1.616685986518860E-001;5.104908719658852E-002;-3.890198655426502E-003;-4.169576801359654E-003;
2.400333333333334E+009;1.613841503858566E-001;4.919394850730896E-002;-3.985791001468897E-003;-4.191229119896889E-003;
2.400500000000000E+009;1.611999571323395E-001;4.711874946951866E-002;-4.309835378080607E-003;-4.001116845756769E-003;
2.400666666666667E+009;1.611624360084534E-001;4.499204456806183E-002;-4.311335738748312E-003;-4.010755103081465E-003;
2.400833333333334E+009;1.613866686820984E-001;4.310871660709381E-002;-4.675397649407387E-003;-3.933194093406200E-003;
2.401000000000000E+009;1.614002287387848E-001;4.116545245051384E-002;-4.745564423501492E-003;-3.991964273154736E-003;
2.401166666666667E+009;1.616048067808151E-001;3.892127424478531E-002;-5.036225542426109E-003;-3.773004515096545E-003;
2.401333333333334E+009;1.615767180919647E-001;3.672935068607330E-002;-5.155000835657120E-003;-3.728381125256419E-003;
2.401500000000000E+009;1.620415896177292E-001;3.476007282733917E-002;-5.428089294582605E-003;-3.427898511290550E-003;
2.401666666666667E+009;1.622664332389832E-001;3.276940062642098E-002;-5.614176392555237E-003;-3.403326030820608E-003;
2.401833333333334E+009;1.626310944557190E-001;3.059094026684761E-002;-5.846484098583460E-003;-3.170145675539970E-003;
2.402000000000000E+009;1.629281193017960E-001;2.875277586281300E-002;-6.119220517575741E-003;-2.949273446574807E-003;
2.402166666666667E+009;1.633170694112778E-001;2.659566700458527E-002;-6.214305758476257E-003;-2.750249812379479E-003;
2.402333333333334E+009;1.637986749410629E-001;2.474969439208508E-002;-6.604602094739676E-003;-2.530882600694895E-003;
2.402500000000000E+009;1.645039618015289E-001;2.285736240446568E-002;-6.791390944272280E-003;-2.319985302165151E-003;
2.402666666666667E+009;1.653161495923996E-001;2.107145823538303E-002;-6.876093801110983E-003;-1.925061340443790E-003;
2.402833333333334E+009;1.658447831869125E-001;1.945535652339459E-002;-7.108625024557114E-003;-1.693094265647233E-003;
2.403000000000000E+009;1.665337532758713E-001;1.773958839476109E-002;-7.222131360322237E-003;-1.508873072452843E-003;
2.403166666666667E+009;1.674171537160873E-001;1.619313284754753E-002;-7.327775936573744E-003;-1.051681814715266E-003;
2.403333333333334E+009;1.683982312679291E-001;1.469209697097540E-002;-7.510608527809382E-003;-7.367773796431720E-004;
2.403500000000000E+009;1.691182106733322E-001;1.305462885648012E-002;-7.594024762511253E-003;-3.052700485568494E-004;
2.403666666666667E+009;1.697543263435364E-001;1.189394202083349E-002;-7.627616170793772E-003;-1.552041358081624E-004;
2.403833333333334E+009;1.708996593952179E-001;1.041379291564226E-002;-7.683223579078913E-003;2.716324233915657E-004;
2.404000000000000E+009;1.718128174543381E-001;9.333098307251930E-003;-7.710377220064402E-003;6.831644568592310E-004;
2.404166666666667E+009;1.727371215820313E-001;8.197928778827190E-003;-7.754543796181679E-003;1.098044915124774E-003;
2.404333333333334E+009;1.734339594841003E-001;7.238083984702826E-003;-7.684762123972178E-003;1.427483744919300E-003;
2.404500000000000E+009;1.742089241743088E-001;6.129087880253792E-003;-7.742641959339380E-003;1.969628036022186E-003;
2.404666666666667E+009;1.751597821712494E-001;5.454509519040585E-003;-7.650989107787609E-003;2.353629563003779E-003;
2.404833333333334E+009;1.759522706270218E-001;4.549084696918726E-003;-7.382828276604414E-003;2.532126149162650E-003;
2.405000000000000E+009;1.767667829990387E-001;3.989854361861944E-003;-7.319428492337465E-003;3.129301825538278E-003;
2.405166666666667E+009;1.775086522102356E-001;3.414017613977194E-003;-7.226339075714350E-003;3.453683806583285E-003;
2.405333333333334E+009;1.781125515699387E-001;2.786499913781881E-003;-6.957921199500561E-003;3.781571751460433E-003;
2.405500000000000E+009;1.788469403982163E-001;2.527385018765926E-003;-6.772468797862530E-003;4.153336863964796E-003;
2.405666666666667E+009;1.794412732124329E-001;2.074038377031684E-003;-6.538516841828823E-003;4.494442138820887E-003;
2.405833333333334E+009;1.797350347042084E-001;1.681686961092055E-003;-6.233438849449158E-003;4.589585121721029E-003;
2.406000000000000E+009;1.802999526262283E-001;1.358208362944424E-003;-6.125902291387320E-003;4.886895418167114E-003;
2.406166666666667E+009;1.806314587593079E-001;1.318174065090716E-003;-5.707519594579935E-003;5.155869759619236E-003;
2.406333333333334E+009;1.810464709997177E-001;9.664163226261735E-004;-5.458688829094172E-003;5.202483385801315E-003;
2.406500000000000E+009;1.812468916177750E-001;7.081646472215653E-004;-5.106947384774685E-003;5.489328876137734E-003;
2.406666666666667E+009;1.811712086200714E-001;5.636808928102255E-004;-4.927801899611950E-003;5.728172603994608E-003;
2.406833333333334E+009;1.814064532518387E-001;2.441641117911786E-004;-4.485179204493761E-003;5.895275156944990E-003;
2.407000000000000E+009;1.812983900308609E-001;6.633689918089658E-005;-4.419187549501658E-003;6.028378382325172E-003;
2.407166666666667E+009;1.812794506549835E-001;-1.982690300792456E-004;-3.862794023007155E-003;6.172706373035908E-003;
2.407333333333334E+009;1.809789389371872E-001;-5.534400115720928E-004;-3.844469552859664E-003;6.055193953216076E-003;
2.407500000000000E+009;1.807931363582611E-001;-9.261881932616234E-004;-3.563383128494024E-003;6.346105132251978E-003;
2.407666666666667E+009;1.803944110870361E-001;-1.209154492244124E-003;-3.167790127918124E-003;6.611252669245005E-003;
2.407833333333334E+009;1.799542605876923E-001;-1.678285771049559E-003;-3.040186595171690E-003;6.608729716390371E-003;
2.408000000000000E+009;1.794975996017456E-001;-2.260517096146941E-003;-2.470641862601042E-003;6.502870470285416E-003;
2.408166666666667E+009;1.788892447948456E-001;-2.739769406616688E-003;-2.391006099060178E-003;6.686023902148008E-003;
2.408333333333334E+009;1.783904582262039E-001;-3.461749060079455E-003;-2.119340468198061E-003;6.798333954066038E-003;
2.408500000000000E+009;1.776906847953796E-001;-4.222367890179157E-003;-1.907819882035255E-003;6.709078792482615E-003;
2.408666666666667E+009;1.770385503768921E-001;-5.123344250023365E-003;-1.511991373263300E-003;6.657503545284271E-003;
2.408833333333334E+009;1.760938912630081E-001;-5.978705361485481E-003;-1.281101373024285E-003;6.623170804232359E-003;
2.409000000000000E+009;1.753163039684296E-001;-6.774327252060175E-003;-9.754556813277304E-004;6.606193725019693E-003;
2.409166666666667E+009;1.745654940605164E-001;-7.945611141622067E-003;-6.593750440515578E-004;6.631149444729090E-003;
2.409333333333334E+009;1.737645864486694E-001;-9.181343950331211E-003;-5.155939143151045E-004;6.526215467602015E-003;
2.409500000000000E+009;1.728748530149460E-001;-1.055950578302145E-002;-3.445980546530336E-004;6.502274889498949E-003;
2.409666666666667E+009;1.720250993967056E-001;-1.176523696631193E-002;-9.741078247316182E-005;6.349247414618731E-003;
2.409833333333334E+009;1.711086630821228E-001;-1.300698053091765E-002;5.418173896032386E-005;6.391623988747597E-003;
2.410000000000000E+009;1.703907698392868E-001;-1.453965436667204E-002;3.727638686541468E-004;6.220532115548849E-003;
2.410166666666667E+009;1.697434335947037E-001;-1.621522381901741E-002;6.895265541970730E-004;6.336794700473547E-003;
2.410333333333334E+009;1.690146178007126E-001;-1.777485013008118E-002;7.370818639174104E-004;6.253963336348534E-003;
2.410500000000000E+009;1.681486368179321E-001;-1.966737024486065E-002;8.286917000077665E-004;6.106270942837000E-003;
2.410666666666667E+009;1.676468253135681E-001;-2.139954641461372E-002;1.103461603634059E-003;6.022714078426361E-003;
2.410833333333334E+009;1.669463366270065E-001;-2.332508750259876E-002;1.301837386563420E-003;5.927393678575754E-003;
2.411000000000000E+009;1.664514541625977E-001;-2.497963793575764E-002;1.340241404250264E-003;6.010084878653288E-003;
2.411166666666667E+009;1.660605072975159E-001;-2.712101675570011E-002;1.534355804324150E-003;5.857880692929030E-003;
2.411333333333334E+009;1.656790077686310E-001;-2.908270247280598E-002;1.554188667796552E-003;5.795711185783148E-003;
2.411500000000000E+009;1.653963774442673E-001;-3.113111481070519E-002;1.784832566045225E-003;5.705716554075480E-003;
2.411666666666667E+009;1.652446836233139E-001;-3.312155604362488E-002;2.074856543913484E-003;5.624381825327873E-003;
2.411833333333334E+009;1.649862378835678E-001;-3.492128103971481E-002;2.181342570111156E-003;5.717941559851170E-003;
2.412000000000000E+009;1.649311780929565E-001;-3.722142055630684E-002;2.175105968490243E-003;5.557066760957241E-003;
2.412166666666667E+009;1.650365889072418E-001;-3.921202942728996E-002;2.453817054629326E-003;5.381340626627207E-003;
2.412333333333334E+009;1.650895625352860E-001;-4.121760651469231E-002;2.501215320080519E-003;5.459222942590714E-003;
2.412500000000000E+009;1.651176661252976E-001;-4.320475459098816E-002;2.696473384276032E-003;5.275773815810680E-003;
2.412666666666667E+009;1.655866652727127E-001;-4.524267464876175E-002;2.970763482153416E-003;5.248950794339180E-003;
2.412833333333334E+009;1.658253520727158E-001;-4.701044782996178E-002;2.958764089271426E-003;5.414457526057959E-003;
2.413000000000000E+009;1.659891456365585E-001;-4.883648082613945E-002;3.210987430065870E-003;5.163163412362337E-003;
2.413166666666667E+009;1.663434356451035E-001;-5.062206089496613E-002;3.551985137164593E-003;5.042908713221550E-003;
2.413333333333334E+009;1.667408496141434E-001;-5.244746059179306E-002;3.676299704238772E-003;5.055055953562260E-003;
2.413500000000000E+009;1.672573983669281E-001;-5.403535440564156E-002;3.870876273140311E-003;4.791464190930128E-003;
2.413666666666667E+009;1.678531616926193E-001;-5.563875287771225E-002;4.178529139608145E-003;4.564296919852495E-003;
2.413833333333334E+009;1.681745201349258E-001;-5.707483738660812E-002;4.314274992793798E-003;4.369820933789015E-003;
2.414000000000000E+009;1.687537580728531E-001;-5.852806940674782E-002;4.303523804992437E-003;4.350462928414345E-003;
2.414166666666667E+009;1.693820953369141E-001;-5.973267927765846E-002;4.735026042908430E-003;4.159368108958006E-003;
2.414333333333334E+009;1.698693335056305E-001;-6.118072569370270E-002;4.868049174547195E-003;4.052561242133379E-003;
2.414500000000000E+009;1.706742793321610E-001;-6.209909915924072E-002;4.987120628356934E-003;3.840799909085035E-003;
2.414666666666667E+009;1.711598038673401E-001;-6.315004080533981E-002;5.149783566594124E-003;3.631501924246550E-003;
2.414833333333334E+009;1.716159284114838E-001;-6.412772089242935E-002;5.276139359921217E-003;3.206345718353987E-003;
2.415000000000000E+009;1.720755398273468E-001;-6.509720534086227E-002;5.551580805331469E-003;3.221178427338600E-003;
2.415166666666667E+009;1.725733578205109E-001;-6.570059061050415E-002;5.653532221913338E-003;2.874891972169280E-003;
2.415333333333334E+009;1.730732619762421E-001;-6.638580560684204E-002;5.881340708583593E-003;2.680598990991712E-003;
2.415500000000000E+009;1.735906451940537E-001;-6.690894812345505E-002;5.931242369115353E-003;2.375972224399447E-003;
2.415666666666667E+009;1.737608760595322E-001;-6.733474880456924E-002;5.977011751383543E-003;2.152472501620650E-003;
2.415833333333334E+009;1.740741878747940E-001;-6.786891818046570E-002;6.055962294340134E-003;1.996310194954276E-003;
2.416000000000000E+009;1.740836948156357E-001;-6.821965426206589E-002;6.119699683040381E-003;1.662204973399639E-003;
2.416166666666667E+009;1.744459122419357E-001;-6.855572760105133E-002;6.239041220396757E-003;1.287637045606971E-003;
2.416333333333334E+009;1.743433475494385E-001;-6.870294362306595E-002;6.419980432838202E-003;1.178414677269757E-003;
2.416500000000000E+009;1.742979735136032E-001;-6.891299784183502E-002;6.215956993401051E-003;8.868537261150777E-004;
2.416666666666667E+009;1.741135567426682E-001;-6.899400800466538E-002;6.346650421619415E-003;5.272411508485675E-004;
2.416833333333334E+009;1.740801632404327E-001;-6.931128352880478E-002;6.363228894770145E-003;3.218987258151174E-004;
2.417000000000000E+009;1.735019236803055E-001;-6.931611895561218E-002;6.413890048861504E-003;-1.053036248777062E-004;
2.417166666666667E+009;1.730253994464874E-001;-6.934958696365356E-002;6.212602369487286E-003;-3.468798240646720E-004;
2.417333333333334E+009;1.726106852293015E-001;-6.938925385475159E-002;6.222954951226711E-003;-5.837302887812257E-004;
2.417500000000000E+009;1.720028370618820E-001;-6.976824998855591E-002;6.017821840941906E-003;-9.318919619545341E-004;
2.417666666666667E+009;1.712151169776917E-001;-6.968284398317337E-002;6.003947928547859E-003;-1.210388378240168E-003;
2.417833333333334E+009;1.704545319080353E-001;-6.988379359245300E-002;5.728920456022024E-003;-1.258953125216067E-003;
2.418000000000000E+009;1.694812625646591E-001;-7.009711861610413E-002;5.591538269072771E-003;-1.572024310007691E-003;
2.418166666666667E+009;1.685068756341934E-001;-7.025050371885300E-002;5.328798666596413E-003;-1.693113707005978E-003;
2.418333333333334E+009;1.677550077438355E-001;-7.057221233844757E-002;5.368793848901987E-003;-1.919683651067317E-003;
2.418500000000000E+009;1.665177345275879E-001;-7.070596516132355E-002;5.244157742708921E-003;-2.159710740670562E-003;
2.418666666666667E+009;1.655092239379883E-001;-7.129768282175064E-002;5.166224669665098E-003;-2.367630833759904E-003;
2.418833333333334E+009;1.640172600746155E-001;-7.175641506910324E-002;5.004935897886753E-003;-2.473203232511878E-003;
2.419000000000000E+009;1.627168953418732E-001;-7.226963341236115E-002;4.791925195604563E-003;-2.591344527900219E-003;
2.419166666666667E+009;1.614520102739334E-001;-7.276311516761780E-002;4.667883273214102E-003;-2.796280430629849E-003;
2.419333333333334E+009;1.600272953510284E-001;-7.329960912466049E-002;4.562845919281244E-003;-2.860592445358634E-003;
2.419500000000000E+009;1.588743925094605E-001;-7.429488003253937E-002;4.341728985309601E-003;-3.007767489179969E-003;
2.419666666666667E+009;1.576444357633591E-001;-7.503166049718857E-002;4.207410849630833E-003;-3.153423080220819E-003;
2.419833333333334E+009;1.562232673168182E-001;-7.580533623695374E-002;4.035526886582375E-003;-3.289749380201101E-003;
2.420000000000000E+009;1.550012528896332E-001;-7.696095108985901E-002;3.912272397428751E-003;-3.467553993687034E-003;
2.420166666666667E+009;1.537299156188965E-001;-7.801742851734161E-002;3.800592152401805E-003;-3.491030074656010E-003;
2.420333333333334E+009;1.524984687566757E-001;-7.928287982940674E-002;3.436608705669642E-003;-3.648148849606514E-003;
2.420500000000000E+009;1.513217687606812E-001;-8.049369603395462E-002;3.290281165391207E-003;-3.724430687725544E-003;
2.420666666666667E+009;1.500821411609650E-001;-8.158964663743973E-002;3.001453122124076E-003;-3.751694224774838E-003;
2.420833333333334E+009;1.491313725709915E-001;-8.330421894788742E-002;2.978221513330936E-003;-3.861039876937866E-003;
2.421000000000000E+009;1.478566825389862E-001;-8.471867442131043E-002;2.786835422739387E-003;-3.985714633017778E-003;
2.421166666666667E+009;1.471737772226334E-001;-8.617749810218811E-002;2.651527058333159E-003;-3.999359905719757E-003;
2.421333333333334E+009;1.463644504547119E-001;-8.791802078485489E-002;2.361721359193325E-003;-4.024346824735403E-003;
2.421500000000000E+009;1.453834921121597E-001;-8.966075628995895E-002;2.106831641867757E-003;-4.003299400210381E-003;
2.421666666666667E+009;1.447611749172211E-001;-9.113926440477371E-002;2.138044219464064E-003;-4.094223491847515E-003;
2.421833333333334E+009;1.444071829319000E-001;-9.305325895547867E-002;1.770934090018272E-003;-4.038224462419748E-003;
2.422000000000000E+009;1.436218619346619E-001;-9.480863064527512E-002;1.644495525397360E-003;-4.008623771369457E-003;
2.422166666666667E+009;1.432934999465942E-001;-9.678592532873154E-002;1.475832425057888E-003;-4.041579086333513E-003;
2.422333333333334E+009;1.429814100265503E-001;-9.848795086145401E-002;1.286384183913469E-003;-3.915130626410246E-003;
2.422500000000000E+009;1.425993889570236E-001;-1.000762209296227E-001;1.241358462721109E-003;-3.952530212700367E-003;
2.422666666666667E+009;1.424516886472702E-001;-1.021094024181366E-001;1.028095721267164E-003;-3.966728691011667E-003;
2.422833333333334E+009;1.424909979104996E-001;-1.039197444915772E-001;8.913143537938595E-004;-3.903956850990653E-003;
2.423000000000000E+009;1.424439400434494E-001;-1.056896448135376E-001;8.179680444300175E-004;-3.880156669765711E-003;
2.423166666666667E+009;1.426561772823334E-001;-1.073330640792847E-001;6.474267574958503E-004;-3.822842147201300E-003;
2.423333333333334E+009;1.428906768560410E-001;-1.089057922363281E-001;5.687501979991794E-004;-3.731317352503538E-003;
2.423500000000000E+009;1.429925411939621E-001;-1.107093989849091E-001;5.384156247600913E-004;-3.712191944941878E-003;
2.423666666666667E+009;1.431799083948135E-001;-1.123081073164940E-001;3.058964502997696E-004;-3.656954038888216E-003;
2.423833333333334E+009;1.436885893344879E-001;-1.138844490051270E-001;1.293891255045310E-004;-3.561248071491718E-003;
2.424000000000000E+009;1.438714861869812E-001;-1.152074486017227E-001;2.825513183779549E-005;-3.631680971011519E-003;
2.424166666666667E+009;1.442803889513016E-001;-1.167015582323074E-001;8.881036774255335E-005;-3.449986455962062E-003;
2.424333333333334E+009;1.448085904121399E-001;-1.178559586405754E-001;-1.574400812387466E-004;-3.456574631854892E-003;
2.424500000000000E+009;1.452151238918304E-001;-1.191976070404053E-001;-3.905389457941055E-004;-3.267615335062146E-003;
2.424666666666667E+009;1.457614600658417E-001;-1.201412156224251E-001;-4.134275077376515E-004;-3.486237954348326E-003;
2.424833333333334E+009;1.461352407932282E-001;-1.211480498313904E-001;-4.122298269066960E-004;-3.369172802194953E-003;
2.425000000000000E+009;1.465844959020615E-001;-1.221492514014244E-001;-6.188947590999305E-004;-3.484752494841814E-003;
2.425166666666667E+009;1.468872427940369E-001;-1.228823065757752E-001;-5.505386507138610E-004;-3.322838572785258E-003;
2.425333333333334E+009;1.475004106760025E-001;-1.236898750066757E-001;-5.842876271344721E-004;-3.176373895257711E-003;
2.425500000000000E+009;1.477964073419571E-001;-1.242415383458138E-001;-7.468969561159611E-004;-3.078379435464740E-003;
2.425666666666667E+009;1.479372382164002E-001;-1.248467266559601E-001;-8.523526485078037E-004;-3.167011775076389E-003;
2.425833333333334E+009;1.483864486217499E-001;-1.253373026847839E-001;-8.867216529324651E-004;-3.024299861863256E-003;
2.426000000000000E+009;1.485488712787628E-001;-1.257380545139313E-001;-1.196463010273874E-003;-3.075808053836227E-003;
2.426166666666667E+009;1.489330083131790E-001;-1.260457634925842E-001;-1.071059959940612E-003;-2.971039386466146E-003;
2.426333333333334E+009;1.488515585660934E-001;-1.263166964054108E-001;-1.307231839746237E-003;-2.777000190690160E-003;
2.426500000000000E+009;1.489890217781067E-001;-1.263143271207809E-001;-1.381306094117463E-003;-2.730489242821932E-003;
2.426666666666667E+009;1.489197909832001E-001;-1.263065934181213E-001;-1.364235649816692E-003;-2.702319994568825E-003;
2.426833333333334E+009;1.487673223018646E-001;-1.262873858213425E-001;-1.657048240303993E-003;-2.602540655061603E-003;
2.427000000000000E+009;1.484463214874268E-001;-1.263999491930008E-001;-1.428779563866556E-003;-2.428594045341015E-003;
2.427166666666667E+009;1.481485515832901E-001;-1.261808574199677E-001;-1.709118951112032E-003;-2.228476339951158E-003;
2.427333333333334E+009;1.476688235998154E-001;-1.261183470487595E-001;-1.692473771981895E-003;-2.307787770405412E-003;
2.427500000000000E+009;1.472313851118088E-001;-1.260377019643784E-001;-1.652225037105382E-003;-2.047597896307707E-003;
2.427666666666667E+009;1.465075910091400E-001;-1.259674131870270E-001;-1.750931143760681E-003;-2.116546034812927E-003;
