# Version 1.00
#
freq[Hz];re:Trc1_S11;im:Trc1_S11;re:Trc2_S21;im:Trc2_S21;
2.400000000000000E+009;1.616816371679306E-001;5.271970108151436E-002;-3.830909263342619E-003;-4.293322097510099E-003;
2.400166666666667E+009;1.614932864904404E-001;5.114971473813057E-002;-4.055578727275133E-003;-4.183507990092039E-003;
2.400333333333334E+009;1.615378558635712E-001;4.913137853145599E-002;-4.075702745467424E-003;-4.184268880635500E-003;
2.400500000000000E+009;1.613970845937729E-001;4.717022553086281E-002;-4.205021541565657E-003;-4.001087509095669E-003;
2.400666666666667E+009;1.615010648965836E-001;4.505696147680283E-002;-4.528802353888750E-003;-4.051256924867630E-003;
2.400833333333334E+009;1.614085882902145E-001;4.317299276590347E-002;-4.690507426857948E-003;-4.065572749823332E-003;
2.401000000000000E+009;1.614927947521210E-001;4.092583060264587E-002;-4.902592394500971E-003;-4.012671299278736E-003;
2.401166666666667E+009;1.616102010011673E-001;3.879666700959206E-002;-5.107449367642403E-003;-3.729553660377860E-003;
2.401333333333334E+009;1.616812646389008E-001;3.687402606010437E-002;-5.316284019500017E-003;-3.663617651909590E-003;
2.401500000000000E+009;1.622348129749298E-001;3.469308093190193E-002;-5.501877516508102E-003;-3.351340070366859E-003;
2.401666666666667E+009;1.622919142246246E-001;3.282179310917854E-002;-5.658197682350874E-003;-3.413396887481213E-003;
2.401833333333334E+009;1.627379804849625E-001;3.062777779996395E-002;-5.849839653819799E-003;-3.179281251505017E-003;
2.402000000000000E+009;1.628934592008591E-001;2.867707796394825E-002;-6.155223120003939E-003;-2.998516429215670E-003;
2.402166666666667E+009;1.633917838335037E-001;2.650414779782295E-002;-6.417935248464346E-003;-2.930752933025360E-003;
2.402333333333334E+009;1.638956815004349E-001;2.480844222009182E-002;-6.569858174771071E-003;-2.636915305629373E-003;
2.402500000000000E+009;1.647913753986359E-001;2.274143323302269E-002;-6.761556491255760E-003;-2.331789117306471E-003;
2.402666666666667E+009;1.653427183628082E-001;2.112309262156487E-002;-6.928463932126761E-003;-2.135710790753365E-003;
2.402833333333334E+009;1.659898012876511E-001;1.943459361791611E-002;-7.080778013914824E-003;-1.891376217827201E-003;
2.403000000000000E+009;1.666698753833771E-001;1.750666089355946E-002;-7.075484376400709E-003;-1.460697036236525E-003;
2.403166666666667E+009;1.675181984901428E-001;1.597661897540093E-002;-7.327375933527947E-003;-1.239340868778527E-003;
2.403333333333334E+009;1.684653759002686E-001;1.460893917828798E-002;-7.705089170485735E-003;-9.092161199077964E-004;
2.403500000000000E+009;1.692003458738327E-001;1.323964353650808E-002;-7.605743594467640E-003;-3.914605476893485E-004;
2.403666666666667E+009;1.699711531400681E-001;1.166832074522972E-002;-7.785310968756676E-003;-1.335552806267515E-004;
2.403833333333334E+009;1.709171086549759E-001;1.022235024720430E-002;-7.598457392305136E-003;3.687107528094202E-004;
2.404000000000000E+009;1.718523949384689E-001;9.351529181003571E-003;-7.954623550176621E-003;6.187962717376649E-004;
2.404166666666667E+009;1.726403683423996E-001;7.982195354998112E-003;-7.869765162467957E-003;1.184876775369048E-003;
2.404333333333334E+009;1.734928637742996E-001;7.164065260440111E-003;-7.826155982911587E-003;1.511452370323241E-003;
2.404500000000000E+009;1.742318421602249E-001;6.172892637550831E-003;-7.897225208580494E-003;1.869714120402932E-003;
2.404666666666667E+009;1.751854121685028E-001;5.213212687522173E-003;-7.635942660272121E-003;2.369745634496212E-003;
2.404833333333334E+009;1.758680194616318E-001;4.547516349703074E-003;-7.421129848808050E-003;2.948120469227433E-003;
2.405000000000000E+009;1.767089515924454E-001;3.921416588127613E-003;-7.265285588800907E-003;2.924866043031216E-003;
2.405166666666667E+009;1.775783300399780E-001;3.195535857230425E-003;-7.200210355222225E-003;3.436913248151541E-003;
2.405333333333334E+009;1.783372461795807E-001;2.679777098819614E-003;-7.113925181329250E-003;3.890669904649258E-003;
2.405500000000000E+009;1.789817810058594E-001;2.341164741665125E-003;-6.903816014528275E-003;4.035160876810551E-003;
2.405666666666667E+009;1.793787181377411E-001;2.002070890739560E-003;-6.446131505072117E-003;4.466557409614325E-003;
2.405833333333334E+009;1.798931956291199E-001;1.693530823104084E-003;-6.276203785091639E-003;4.694671370089054E-003;
2.406000000000000E+009;1.803498268127441E-001;1.312548527494073E-003;-5.995485931634903E-003;4.859536420553923E-003;
2.406166666666667E+009;1.804861128330231E-001;1.164201996289194E-003;-5.631097126752138E-003;5.218273028731346E-003;
2.406333333333334E+009;1.810891777276993E-001;9.923293255269527E-004;-5.402594339102507E-003;5.454866215586662E-003;
2.406500000000000E+009;1.812335252761841E-001;6.492358515970409E-004;-5.099444650113583E-003;5.671320483088493E-003;
2.406666666666667E+009;1.813023686408997E-001;4.457372706383467E-004;-4.979016724973917E-003;5.856418982148171E-003;
2.406833333333334E+009;1.813764721155167E-001;2.535051025915891E-004;-4.685719963163137E-003;5.893260706216097E-003;
2.407000000000000E+009;1.814588159322739E-001;-2.123701960954350E-005;-4.419951699674130E-003;6.191012915223837E-003;
2.407166666666667E+009;1.812755465507507E-001;-1.270105130970478E-004;-4.029246512800455E-003;6.183588877320290E-003;
2.407333333333334E+009;1.810414791107178E-001;-6.891086231917143E-004;-3.672691993415356E-003;6.324190646409988E-003;
2.407500000000000E+009;1.808436959981918E-001;-1.008850289508700E-003;-3.560969373211265E-003;6.390890106558800E-003;
2.407666666666667E+009;1.803967356681824E-001;-1.283457037061453E-003;-3.266297746449709E-003;6.472711451351643E-003;
2.407833333333334E+009;1.798274368047714E-001;-1.874426612630487E-003;-3.128622425720096E-003;6.587895099073649E-003;
2.408000000000000E+009;1.794383525848389E-001;-2.379366662353277E-003;-2.640098799020052E-003;6.699990946799517E-003;
2.408166666666667E+009;1.788862943649292E-001;-2.765451092272997E-003;-2.349467948079109E-003;6.674819625914097E-003;
2.408333333333334E+009;1.785226762294769E-001;-3.430121811106801E-003;-1.960681518539786E-003;6.879479624330998E-003;
2.408500000000000E+009;1.776161640882492E-001;-4.346356261521578E-003;-1.870009698905051E-003;6.777149159461260E-003;
2.408666666666667E+009;1.769624501466751E-001;-5.157627165317535E-003;-1.743859495036304E-003;6.766413338482380E-003;
2.408833333333334E+009;1.761250048875809E-001;-5.984132643789053E-003;-1.388888456858695E-003;6.723975762724876E-003;
2.409000000000000E+009;1.753157526254654E-001;-6.934397388249636E-003;-1.062672934494913E-003;6.850386038422585E-003;
2.409166666666667E+009;1.745499521493912E-001;-8.087785914540291E-003;-7.260707207024097E-004;6.716251838952303E-003;
2.409333333333334E+009;1.738288700580597E-001;-9.229690767824650E-003;-4.727716732304543E-004;6.630622316151857E-003;
2.409500000000000E+009;1.729401051998138E-001;-1.049732044339180E-002;-2.627671055961400E-004;6.691765040159226E-003;
2.409666666666667E+009;1.720563471317291E-001;-1.180522888898850E-002;-5.844900442752987E-006;6.554899737238884E-003;
2.409833333333334E+009;1.710816174745560E-001;-1.332671381533146E-002;7.987132266862318E-005;6.523439195007086E-003;
2.410000000000000E+009;1.703335642814636E-001;-1.474513392895460E-002;3.447892959229648E-004;6.453399546444416E-003;
2.410166666666667E+009;1.696008443832398E-001;-1.630150154232979E-002;7.095087203197181E-004;6.327829323709011E-003;
2.410333333333334E+009;1.687991023063660E-001;-1.785666495561600E-002;8.477779920212925E-004;6.361068226397038E-003;
2.410500000000000E+009;1.681957393884659E-001;-1.960534043610096E-002;8.509471663273871E-004;6.106259766966105E-003;
2.410666666666667E+009;1.674529314041138E-001;-2.161924913525581E-002;1.015763613395393E-003;6.160260178148747E-003;
2.410833333333334E+009;1.669996082782745E-001;-2.338356710970402E-002;1.408608630299568E-003;6.127653177827597E-003;
2.411000000000000E+009;1.664520800113678E-001;-2.536296099424362E-002;1.479766680859029E-003;5.940823815762997E-003;
2.411166666666667E+009;1.659512519836426E-001;-2.720448747277260E-002;1.631469000130892E-003;5.852202884852886E-003;
2.411333333333334E+009;1.655744612216950E-001;-2.910010330379009E-002;1.835813163779676E-003;5.747511051595211E-003;
2.411500000000000E+009;1.653268635272980E-001;-3.122051805257797E-002;1.900692237541080E-003;5.847879219800234E-003;
2.411666666666667E+009;1.649942398071289E-001;-3.317890688776970E-002;2.131171990185976E-003;5.681543145328760E-003;
2.411833333333334E+009;1.649746447801590E-001;-3.523879870772362E-002;2.085795858874917E-003;5.587765946984291E-003;
2.412000000000000E+009;1.649379581212997E-001;-3.723583370447159E-002;2.421403536573052E-003;5.472984630614519E-003;
2.412166666666667E+009;1.648375093936920E-001;-3.934492915868759E-002;2.449196996167302E-003;5.549794994294643E-003;
2.412333333333334E+009;1.652357727289200E-001;-4.129691421985626E-002;2.780101029202342E-003;5.428249016404152E-003;
2.412500000000000E+009;1.650392860174179E-001;-4.304228723049164E-002;2.994599519297481E-003;5.424780771136284E-003;
2.412666666666667E+009;1.654874235391617E-001;-4.501228407025337E-002;3.090369049459696E-003;5.181560292840004E-003;
2.412833333333334E+009;1.657836139202118E-001;-4.706188291311264E-002;3.267335006967187E-003;5.299510434269905E-003;
2.413000000000000E+009;1.660952270030975E-001;-4.876310378313065E-002;3.530186135321856E-003;5.157671868801117E-003;
2.413166666666667E+009;1.663355678319931E-001;-5.057102814316750E-002;3.575461916625500E-003;5.029479973018169E-003;
2.413333333333334E+009;1.666481792926788E-001;-5.235662683844566E-002;3.785655368119478E-003;4.993068519979715E-003;
2.413500000000000E+009;1.673213392496109E-001;-5.396272614598274E-002;4.019017796963453E-003;4.995073657482863E-003;
2.413666666666667E+009;1.677791327238083E-001;-5.562614649534226E-002;4.155848175287247E-003;4.569508600980043E-003;
2.413833333333334E+009;1.682479977607727E-001;-5.710665509104729E-002;4.344435874372721E-003;4.459836520254612E-003;
2.414000000000000E+009;1.686272323131561E-001;-5.862253159284592E-002;4.667370580136776E-003;4.359879530966282E-003;
2.414166666666667E+009;1.693554222583771E-001;-5.982422828674316E-002;4.797425121068955E-003;4.202103707939386E-003;
2.414333333333334E+009;1.699853241443634E-001;-6.103280931711197E-002;4.812460858374834E-003;4.074023570865393E-003;
2.414500000000000E+009;1.706646829843521E-001;-6.213564798235893E-002;5.255813710391522E-003;3.781491192057729E-003;
2.414666666666667E+009;1.710122525691986E-001;-6.319756060838699E-002;5.171620287001133E-003;3.687627380713821E-003;
2.414833333333334E+009;1.715544611215591E-001;-6.413340568542481E-002;5.422088317573071E-003;3.431973513215780E-003;
2.415000000000000E+009;1.721170246601105E-001;-6.498236209154129E-002;5.667800083756447E-003;3.105301409959793E-003;
2.415166666666667E+009;1.725240051746368E-001;-6.570489704608917E-002;5.569248925894499E-003;2.828248543664813E-003;
2.415333333333334E+009;1.730697453022003E-001;-6.637593358755112E-002;5.937842652201653E-003;2.706477651372552E-003;
2.415500000000000E+009;1.733959168195725E-001;-6.711387634277344E-002;6.028448697179556E-003;2.368978690356016E-003;
2.415666666666667E+009;1.737736165523529E-001;-6.737063080072403E-002;6.089810281991959E-003;2.087375847622752E-003;
2.415833333333334E+009;1.741824299097061E-001;-6.790093332529068E-002;6.115726195275784E-003;1.864188117906451E-003;
2.416000000000000E+009;1.740853339433670E-001;-6.812462210655212E-002;6.181189790368080E-003;1.671939971856773E-003;
2.416166666666667E+009;1.744468510150909E-001;-6.858683377504349E-002;6.178756244480610E-003;1.463077845983207E-003;
2.416333333333334E+009;1.743198484182358E-001;-6.870226562023163E-002;6.347393617033958E-003;1.100293942727149E-003;
2.416500000000000E+009;1.742489635944367E-001;-6.897564977407455E-002;6.415633950382471E-003;7.510742289014161E-004;
2.416666666666667E+009;1.740593016147614E-001;-6.901477277278900E-002;6.255825515836477E-003;3.205178654752672E-004;
2.416833333333334E+009;1.740292608737946E-001;-6.931972503662109E-002;6.298902444541454E-003;2.629792434163392E-004;
2.417000000000000E+009;1.733542382717133E-001;-6.947057694196701E-002;6.219681352376938E-003;-1.103216491173953E-004;
2.417166666666667E+009;1.731194257736206E-001;-6.946255266666412E-002;6.137881428003311E-003;-3.100519243162125E-004;
2.417333333333334E+009;1.726002395153046E-001;-6.957420706748962E-002;6.223999429494143E-003;-5.630463710986078E-004;
2.417500000000000E+009;1.719606220722199E-001;-6.973323971033096E-002;5.995306186378002E-003;-8.883493137545884E-004;
2.417666666666667E+009;1.712206900119782E-001;-6.976564228534699E-002;5.901283584535122E-003;-1.195701421238482E-003;
2.417833333333334E+009;1.705189794301987E-001;-6.991793960332871E-002;5.871059838682413E-003;-1.305997720919550E-003;
2.418000000000000E+009;1.694855690002441E-001;-7.031550258398056E-002;5.615505855530500E-003;-1.509810681454837E-003;
2.418166666666667E+009;1.684407740831375E-001;-7.030352950096130E-002;5.606913007795811E-003;-1.740941777825356E-003;
2.418333333333334E+009;1.677566617727280E-001;-7.062765210866928E-002;5.473662633448839E-003;-1.900585135444999E-003;
2.418500000000000E+009;1.664133518934250E-001;-7.086068391799927E-002;5.283837672322989E-003;-2.222520532086492E-003;
2.418666666666667E+009;1.654161661863327E-001;-7.134822010993958E-002;5.283176433295012E-003;-2.393659437075257E-003;
2.418833333333334E+009;1.639434546232224E-001;-7.185376435518265E-002;5.118471570312977E-003;-2.548645948991180E-003;
2.419000000000000E+009;1.626325994729996E-001;-7.225808501243591E-002;4.789898172020912E-003;-2.641610335558653E-003;
2.419166666666667E+009;1.615672111511231E-001;-7.291476428508759E-002;4.744642879813910E-003;-2.710049040615559E-003;
2.419333333333334E+009;1.598564535379410E-001;-7.337155938148499E-002;4.516887478530407E-003;-2.859445754438639E-003;
2.419500000000000E+009;1.586888432502747E-001;-7.427340000867844E-002;4.337813239544630E-003;-3.084512194618583E-003;
2.419666666666667E+009;1.574850231409073E-001;-7.523223012685776E-002;4.086388275027275E-003;-3.267863765358925E-003;
2.419833333333334E+009;1.560644358396530E-001;-7.601380348205566E-002;4.039675928652287E-003;-3.279187018051744E-003;
2.420000000000000E+009;1.549645364284515E-001;-7.716251909732819E-002;3.847921965643764E-003;-3.441787092015147E-003;
2.420166666666667E+009;1.534905880689621E-001;-7.810350507497788E-002;3.712495788931847E-003;-3.506990149617195E-003;
2.420333333333334E+009;1.523467302322388E-001;-7.940146327018738E-002;3.579511307179928E-003;-3.643684554845095E-003;
2.420500000000000E+009;1.512830853462219E-001;-8.044037967920303E-002;3.419365268200636E-003;-3.717639017850161E-003;
2.420666666666667E+009;1.500734686851502E-001;-8.180235326290131E-002;3.195420140400529E-003;-3.757667727768421E-003;
2.420833333333334E+009;1.489928811788559E-001;-8.324474841356278E-002;3.020025324076414E-003;-3.903141245245934E-003;
2.421000000000000E+009;1.480414271354675E-001;-8.478298783302307E-002;2.675507916137576E-003;-4.050968680530787E-003;
2.421166666666667E+009;1.470029950141907E-001;-8.629548549652100E-002;2.613859251141548E-003;-4.006600938737392E-003;
2.421333333333334E+009;1.460737138986588E-001;-8.794823288917542E-002;2.368647838011384E-003;-3.998218104243279E-003;
2.421500000000000E+009;1.453429609537125E-001;-8.961645513772965E-002;2.297115977853537E-003;-4.000653978437185E-003;
2.421666666666667E+009;1.446102708578110E-001;-9.123430401086807E-002;2.166083781048656E-003;-3.915651235729456E-003;
2.421833333333334E+009;1.441601365804672E-001;-9.309303760528565E-002;1.930187107063830E-003;-4.022828768938780E-003;
2.422000000000000E+009;1.434828937053680E-001;-9.465433657169342E-002;1.765379216521978E-003;-4.226801916956902E-003;
2.422166666666667E+009;1.432021409273148E-001;-9.674920886754990E-002;1.409539487212896E-003;-4.211349878460169E-003;
2.422333333333334E+009;1.428095996379852E-001;-9.844270348548889E-002;1.398700289428234E-003;-4.083987325429916E-003;
2.422500000000000E+009;1.425445973873138E-001;-1.001965999603272E-001;1.099272398278117E-003;-4.010225180536509E-003;
2.422666666666667E+009;1.424435228109360E-001;-1.019974052906036E-001;9.496383136138320E-004;-4.074949305504561E-003;
2.422833333333334E+009;1.423417180776596E-001;-1.039484739303589E-001;9.754447382874787E-004;-3.948432393372059E-003;
2.423000000000000E+009;1.423729211091995E-001;-1.056254208087921E-001;7.554246694780886E-004;-3.772128140553832E-003;
2.423166666666667E+009;1.426156014204025E-001;-1.074363514780998E-001;6.587312673218548E-004;-3.784146625548601E-003;
2.423333333333334E+009;1.427676230669022E-001;-1.089046895503998E-001;3.933485131710768E-004;-3.858137177303433E-003;
2.423500000000000E+009;1.429388374090195E-001;-1.107008531689644E-001;2.837824576999992E-004;-3.867465769872069E-003;
2.423666666666667E+009;1.431064009666443E-001;-1.123889982700348E-001;3.220158687327057E-004;-3.740681568160653E-003;
2.423833333333334E+009;1.436732560396195E-001;-1.139450445771217E-001;6.421437137760222E-005;-3.643391886726022E-003;
2.424000000000000E+009;1.439149379730225E-001;-1.151785328984261E-001;1.440302730770782E-004;-3.498977283015847E-003;
2.424166666666667E+009;1.441692113876343E-001;-1.166819408535957E-001;-6.713037146255374E-005;-3.498394740745425E-003;
2.424333333333334E+009;1.447959542274475E-001;-1.179162040352821E-001;-1.031365027301945E-004;-3.531811060383916E-003;
2.424500000000000E+009;1.452225744724274E-001;-1.191008090972900E-001;-3.226793487556279E-004;-3.507227636873722E-003;
2.424666666666667E+009;1.456540822982788E-001;-1.200402528047562E-001;-1.708109484752640E-004;-3.332280786707997E-003;
2.424833333333334E+009;1.460190564393997E-001;-1.212524995207787E-001;-3.942055627703667E-004;-3.309121122583747E-003;
2.425000000000000E+009;1.465824842453003E-001;-1.221094578504562E-001;-6.349643808789551E-004;-3.397568594664335E-003;
2.425166666666667E+009;1.468897014856339E-001;-1.229395344853401E-001;-5.542911239899695E-004;-3.225007792934775E-003;
2.425333333333334E+009;1.473976224660873E-001;-1.237179562449455E-001;-7.939726347103715E-004;-3.286373568698764E-003;
2.425500000000000E+009;1.477660834789276E-001;-1.243788450956345E-001;-6.865197210572660E-004;-3.202511230483651E-003;
2.425666666666667E+009;1.480214297771454E-001;-1.249822825193405E-001;-1.008666469715536E-003;-3.079151036217809E-003;
2.425833333333334E+009;1.483223438262940E-001;-1.254046559333801E-001;-8.549038902856410E-004;-3.048283280804753E-003;
2.426000000000000E+009;1.485323011875153E-001;-1.258774250745773E-001;-1.102673821151257E-003;-3.072366118431091E-003;
2.426166666666667E+009;1.487851589918137E-001;-1.261960566043854E-001;-1.237032352946699E-003;-2.877112012356520E-003;
2.426333333333334E+009;1.488475650548935E-001;-1.263796985149384E-001;-1.293784705922008E-003;-2.932234201580286E-003;
2.426500000000000E+009;1.487854719161987E-001;-1.264371573925018E-001;-1.328987535089254E-003;-2.698330907151103E-003;
2.426666666666667E+009;1.489005535840988E-001;-1.263192892074585E-001;-1.478482619859278E-003;-2.570975571870804E-003;
2.426833333333334E+009;1.486696600914002E-001;-1.265345960855484E-001;-1.428424147889018E-003;-2.652523573487997E-003;
2.427000000000000E+009;1.483927369117737E-001;-1.264702081680298E-001;-1.492787618190050E-003;-2.416893607005477E-003;
2.427166666666667E+009;1.479912996292114E-001;-1.262428313493729E-001;-1.601764117367566E-003;-2.437317278236151E-003;
2.427333333333334E+009;1.474826037883759E-001;-1.261978298425674E-001;-1.545836683362722E-003;-2.330754883587360E-003;
2.427500000000000E+009;1.471131294965744E-001;-1.260626614093781E-001;-1.582733821123838E-003;-2.261219313368201E-003;
2.427666666666667E+009;1.463025212287903E-001;-1.260371059179306E-001;-1.705119153484702E-003;-2.230570418760181E-003;
