# Version 1.00
#
freq[Hz];re:Trc1_S11;im:Trc1_S11;re:Trc2_S21;im:Trc2_S21;
2.400000000000000E+009;1.559548228979111E-001;1.047987565398216E-001;-8.325434289872646E-003;-1.904262229800224E-003;
2.400166666666667E+009;1.558974832296372E-001;1.024131774902344E-001;-8.193384855985642E-003;-1.466628746129572E-003;
2.400333333333334E+009;1.562031507492065E-001;1.001476645469666E-001;-8.301661349833012E-003;-1.209008740261197E-003;
2.400500000000000E+009;1.562068611383438E-001;9.759290516376495E-002;-8.229787461459637E-003;-1.026375335641205E-003;
2.400666666666667E+009;1.564073711633682E-001;9.526242315769196E-002;-8.228095248341560E-003;-6.887344061397016E-004;
2.400833333333334E+009;1.566358804702759E-001;9.246148914098740E-002;-8.095496334135532E-003;-3.910496307071298E-004;
2.401000000000000E+009;1.570825576782227E-001;8.974549919366837E-002;-8.191746659576893E-003;-3.207394911441952E-004;
2.401166666666667E+009;1.569489687681198E-001;8.726340532302856E-002;-8.125922642648220E-003;-9.419440175406635E-005;
2.401333333333334E+009;1.575234830379486E-001;8.433990925550461E-002;-8.141073398292065E-003;2.592776436358690E-004;
2.401500000000000E+009;1.579724252223969E-001;8.162273466587067E-002;-7.963054813444614E-003;5.767610273323953E-004;
2.401666666666667E+009;1.583808511495590E-001;7.895685732364655E-002;-8.081196807324886E-003;8.516191737726331E-004;
2.401833333333334E+009;1.590265184640884E-001;7.642238587141037E-002;-7.919261232018471E-003;1.092963735572994E-003;
2.402000000000000E+009;1.597366183996201E-001;7.372699677944183E-002;-8.074392564594746E-003;1.180146238766611E-003;
2.402166666666667E+009;1.603860259056091E-001;7.150600105524063E-002;-8.096367120742798E-003;1.526377745904028E-003;
2.402333333333334E+009;1.613792032003403E-001;6.903486698865891E-002;-7.839892990887165E-003;1.887271995656192E-003;
2.402500000000000E+009;1.624044328927994E-001;6.667537987232208E-002;-7.900661788880825E-003;2.236875938251615E-003;
2.402666666666667E+009;1.636174470186234E-001;6.449435651302338E-002;-7.682756055146456E-003;2.515178872272372E-003;
2.402833333333334E+009;1.649830341339111E-001;6.209901347756386E-002;-7.646644022315741E-003;2.732945838943124E-003;
2.403000000000000E+009;1.662259697914124E-001;5.982847139239311E-002;-7.503082510083914E-003;3.012918401509523E-003;
2.403166666666667E+009;1.677651256322861E-001;5.810207128524780E-002;-7.307135500013828E-003;3.181421896442771E-003;
2.403333333333334E+009;1.692680865526199E-001;5.603025108575821E-002;-7.208588998764753E-003;3.453483572229743E-003;
2.403500000000000E+009;1.708170622587204E-001;5.405841022729874E-002;-7.069991901516914E-003;3.608873113989830E-003;
2.403666666666667E+009;1.723331511020660E-001;5.219661071896553E-002;-6.867426913231611E-003;3.941414877772331E-003;
2.403833333333334E+009;1.736683845520020E-001;5.056693032383919E-002;-6.662513129413128E-003;4.309682641178370E-003;
2.404000000000000E+009;1.751289963722229E-001;4.883307591080666E-002;-6.577607709914446E-003;4.545449279248714E-003;
2.404166666666667E+009;1.766977161169052E-001;4.742055386304855E-002;-6.357889622449875E-003;4.560565575957298E-003;
2.404333333333334E+009;1.782473325729370E-001;4.597543925046921E-002;-6.159548647701740E-003;4.929498769342899E-003;
2.404500000000000E+009;1.796172410249710E-001;4.458556696772575E-002;-5.784402601420879E-003;4.994115792214871E-003;
2.404666666666667E+009;1.810619980096817E-001;4.341707006096840E-002;-5.721894092857838E-003;5.308264866471291E-003;
2.404833333333334E+009;1.825775057077408E-001;4.246774688363075E-002;-5.389682017266750E-003;5.399655550718308E-003;
2.405000000000000E+009;1.837685108184815E-001;4.174780100584030E-002;-5.105752032250166E-003;5.550564266741276E-003;
2.405166666666667E+009;1.851859241724014E-001;4.105910658836365E-002;-4.766903817653656E-003;5.641819443553686E-003;
2.405333333333334E+009;1.863552331924439E-001;4.051814228296280E-002;-4.531648010015488E-003;5.679965950548649E-003;
2.405500000000000E+009;1.875772327184677E-001;3.998829051852226E-002;-4.352161660790443E-003;5.799856036901474E-003;
2.405666666666667E+009;1.886349171400070E-001;3.959478810429573E-002;-4.184452816843987E-003;5.842956714332104E-003;
2.405833333333334E+009;1.897678226232529E-001;3.929557278752327E-002;-3.789382986724377E-003;5.817519035190344E-003;
2.406000000000000E+009;1.907256096601486E-001;3.909865766763687E-002;-3.691360587254167E-003;5.916944704949856E-003;
2.406166666666667E+009;1.915430575609207E-001;3.892680630087853E-002;-3.342070849612355E-003;5.916720256209374E-003;
2.406333333333334E+009;1.923895329236984E-001;3.872290253639221E-002;-3.174886573106051E-003;5.965856835246086E-003;
2.406500000000000E+009;1.930662989616394E-001;3.853224962949753E-002;-2.938169287517667E-003;5.962133407592773E-003;
2.406666666666667E+009;1.935642361640930E-001;3.841151297092438E-002;-2.799843903630972E-003;5.873008165508509E-003;
2.406833333333334E+009;1.941279470920563E-001;3.837066888809204E-002;-2.724591409787536E-003;5.772545468062162E-003;
2.407000000000000E+009;1.943198591470718E-001;3.833444043993950E-002;-2.490524901077151E-003;5.834151990711689E-003;
2.407166666666667E+009;1.946269422769547E-001;3.798541799187660E-002;-2.330204937607050E-003;5.810621194541454E-003;
2.407333333333334E+009;1.945487856864929E-001;3.797507286071777E-002;-2.149459207430482E-003;5.854245740920305E-003;
2.407500000000000E+009;1.946089118719101E-001;3.799010440707207E-002;-2.049923175945878E-003;5.898165982216597E-003;
2.407666666666667E+009;1.947043687105179E-001;3.765402361750603E-002;-1.983033260330558E-003;5.842400249093771E-003;
2.407833333333334E+009;1.941275000572205E-001;3.733935207128525E-002;-1.845565857365727E-003;5.859695374965668E-003;
2.408000000000000E+009;1.942349523305893E-001;3.716518357396126E-002;-1.658034976571798E-003;5.684881471097469E-003;
2.408166666666667E+009;1.935294270515442E-001;3.658138588070869E-002;-1.709543517790735E-003;5.804571788758040E-003;
2.408333333333334E+009;1.933591961860657E-001;3.599763289093971E-002;-1.487008645199239E-003;5.742291919887066E-003;
2.408500000000000E+009;1.926070600748062E-001;3.551159426569939E-002;-1.461456180550158E-003;5.826958455145359E-003;
2.408666666666667E+009;1.921800374984741E-001;3.478605300188065E-002;-1.388058299198747E-003;5.765720736235380E-003;
2.408833333333334E+009;1.914763003587723E-001;3.392686322331429E-002;-1.493870280683041E-003;5.663795862346888E-003;
2.409000000000000E+009;1.907083243131638E-001;3.294393792748451E-002;-1.378313405439258E-003;5.822862498462200E-003;
2.409166666666667E+009;1.899035722017288E-001;3.187244012951851E-002;-1.273243571631610E-003;5.937268026173115E-003;
2.409333333333334E+009;1.891305297613144E-001;3.078205138444901E-002;-1.156591461040080E-003;5.778845865279436E-003;
2.409500000000000E+009;1.883754283189774E-001;2.943328768014908E-002;-1.026786980219185E-003;5.854468327015638E-003;
2.409666666666667E+009;1.875328868627548E-001;2.803783304989338E-002;-9.876686381176114E-004;6.114480551332235E-003;
2.409833333333334E+009;1.865885406732559E-001;2.639444917440414E-002;-7.896902970969677E-004;6.157279480248690E-003;
2.410000000000000E+009;1.858356595039368E-001;2.485037967562676E-002;-6.160302436910570E-004;6.374328397214413E-003;
2.410166666666667E+009;1.848651319742203E-001;2.298698760569096E-002;-5.740128690376878E-004;6.439609918743372E-003;
2.410333333333334E+009;1.842484772205353E-001;2.110891416668892E-002;-2.620319719426334E-004;6.508207879960537E-003;
2.410500000000000E+009;1.834683269262314E-001;1.930809393525124E-002;-8.367506961803883E-005;6.520941853523254E-003;
2.410666666666667E+009;1.826649010181427E-001;1.708659157156944E-002;8.083661668933928E-005;6.558690220117569E-003;
2.410833333333334E+009;1.821924597024918E-001;1.506227441132069E-002;5.592670058831573E-004;6.566425319761038E-003;
2.411000000000000E+009;1.816727817058563E-001;1.278047636151314E-002;7.111949962563813E-004;6.530248560011387E-003;
2.411166666666667E+009;1.809875518083572E-001;1.064706780016422E-002;9.368660976178944E-004;6.354850251227617E-003;
2.411333333333334E+009;1.805818229913712E-001;8.193051442503929E-003;1.125094015151262E-003;6.300797220319510E-003;
2.411500000000000E+009;1.804132163524628E-001;5.891641136258841E-003;1.204863190650940E-003;6.304149515926838E-003;
2.411666666666667E+009;1.801837086677551E-001;3.763829590752721E-003;1.526429550722241E-003;6.223270203918219E-003;
2.411833333333334E+009;1.800506412982941E-001;1.558614196255803E-003;1.729711424559355E-003;6.421257276087999E-003;
2.412000000000000E+009;1.801899671554565E-001;-1.030205516144633E-003;1.950912293978035E-003;6.172771099954844E-003;
2.412166666666667E+009;1.802253574132919E-001;-3.240305464714766E-003;2.098184544593096E-003;6.337970495223999E-003;
2.412333333333334E+009;1.803835332393646E-001;-5.499549675732851E-003;2.191893989220262E-003;6.220951676368713E-003;
2.412500000000000E+009;1.810378879308701E-001;-7.759567815810442E-003;2.419335069134831E-003;6.148163694888353E-003;
2.412666666666667E+009;1.814280003309250E-001;-1.000010780990124E-002;2.521634567528963E-003;5.975154694169760E-003;
2.412833333333334E+009;1.821000277996063E-001;-1.236148830503225E-002;2.832061378285289E-003;5.859527736902237E-003;
2.413000000000000E+009;1.828802376985550E-001;-1.462748181074858E-002;2.814318286255002E-003;5.839018616825342E-003;
2.413166666666667E+009;1.834218204021454E-001;-1.659846864640713E-002;3.135475330054760E-003;5.624203011393547E-003;
2.413333333333334E+009;1.845032274723053E-001;-1.885802112519741E-002;3.053234657272697E-003;5.536040291190147E-003;
2.413500000000000E+009;1.851751059293747E-001;-2.091305144131184E-002;3.336263820528984E-003;5.479139275848866E-003;
2.413666666666667E+009;1.863597035408020E-001;-2.297783829271793E-002;3.481052583083510E-003;5.337329115718603E-003;
2.413833333333334E+009;1.873040348291397E-001;-2.491327933967114E-002;3.717815270647407E-003;5.235584452748299E-003;
2.414000000000000E+009;1.882122308015823E-001;-2.674569003283978E-002;3.931818529963493E-003;5.098700989037752E-003;
2.414166666666667E+009;1.893193274736404E-001;-2.837263047695160E-002;3.944804891943932E-003;4.888725932687521E-003;
2.414333333333334E+009;1.903578042984009E-001;-3.043339774012566E-002;4.082575440406799E-003;4.817460197955370E-003;
2.414500000000000E+009;1.914074718952179E-001;-3.171956166625023E-002;4.349598195403814E-003;4.779707174748182E-003;
2.414666666666667E+009;1.925235688686371E-001;-3.315420448780060E-002;4.547946155071259E-003;4.529033787548542E-003;
2.414833333333334E+009;1.933816671371460E-001;-3.445474058389664E-002;4.570838995277882E-003;4.306001123040915E-003;
2.415000000000000E+009;1.943180114030838E-001;-3.567891940474510E-002;4.654961172491312E-003;4.280119668692350E-003;
2.415166666666667E+009;1.954954117536545E-001;-3.669869154691696E-002;4.899155814200640E-003;4.018620587885380E-003;
2.415333333333334E+009;1.964395344257355E-001;-3.765620663762093E-002;5.118622444570065E-003;3.779418300837278E-003;
2.415500000000000E+009;1.974216848611832E-001;-3.844582661986351E-002;5.199682898819447E-003;3.639593953266740E-003;
2.415666666666667E+009;1.982768774032593E-001;-3.920809179544449E-002;5.055093672126532E-003;3.424897091463208E-003;
2.415833333333334E+009;1.990137845277786E-001;-3.978048264980316E-002;5.205826368182898E-003;3.331611864268780E-003;
2.416000000000000E+009;1.996117979288101E-001;-4.047957807779312E-002;5.215189885348082E-003;2.996935974806547E-003;
2.416166666666667E+009;2.001750022172928E-001;-4.119094088673592E-002;5.354297813028097E-003;2.936968579888344E-003;
2.416333333333334E+009;2.006933242082596E-001;-4.153120890259743E-002;5.327635444700718E-003;2.706503961235285E-003;
2.416500000000000E+009;2.009324133396149E-001;-4.168856143951416E-002;5.604014731943607E-003;2.605099463835359E-003;
2.416666666666667E+009;2.010765671730042E-001;-4.228942841291428E-002;5.365415010601282E-003;2.435592003166676E-003;
2.416833333333334E+009;2.011598944664002E-001;-4.232006892561913E-002;5.471973679959774E-003;2.181278308853507E-003;
2.417000000000000E+009;2.013590186834335E-001;-4.253349080681801E-002;5.683707073330879E-003;2.129963831976056E-003;
2.417166666666667E+009;2.009682953357697E-001;-4.272255674004555E-002;5.506040062755346E-003;1.826953375712037E-003;
2.417333333333334E+009;2.006655484437943E-001;-4.262334853410721E-002;5.711321253329516E-003;1.772045390680432E-003;
2.417500000000000E+009;2.002124935388565E-001;-4.277957975864410E-002;5.784210283309221E-003;1.787016750313342E-003;
2.417666666666667E+009;1.997599601745606E-001;-4.270907863974571E-002;5.774646066129208E-003;1.378241227939725E-003;
2.417833333333334E+009;1.992776393890381E-001;-4.269272089004517E-002;5.817019380629063E-003;1.223949831910431E-003;
2.418000000000000E+009;1.985769271850586E-001;-4.268773645162582E-002;5.895811133086681E-003;1.238874276168644E-003;
2.418166666666667E+009;1.978444010019302E-001;-4.279999434947968E-002;5.958736408501864E-003;8.152427617460489E-004;
2.418333333333334E+009;1.969352960586548E-001;-4.267209395766258E-002;5.819644778966904E-003;8.958110702224076E-004;
2.418500000000000E+009;1.959213763475418E-001;-4.287197068333626E-002;5.795340053737164E-003;6.308989832177758E-004;
2.418666666666667E+009;1.951600164175034E-001;-4.284972324967384E-002;5.853730719536543E-003;2.857710933312774E-004;
2.418833333333334E+009;1.937321573495865E-001;-4.326977580785751E-002;5.737653467804194E-003;1.960992376552895E-004;
2.419000000000000E+009;1.927560418844223E-001;-4.361937940120697E-002;5.822057835757732E-003;1.381178881274536E-004;
2.419166666666667E+009;1.914531886577606E-001;-4.398891702294350E-002;5.690540652722120E-003;-1.005365629680455E-004;
2.419333333333334E+009;1.900956332683563E-001;-4.456587508320808E-002;5.670805927366018E-003;-2.899139653891325E-004;
2.419500000000000E+009;1.889129281044006E-001;-4.509094730019569E-002;5.464323330670595E-003;-4.607774026226252E-004;
2.419666666666667E+009;1.873844116926193E-001;-4.593941196799278E-002;5.536167882382870E-003;-5.509956390596926E-004;
2.419833333333334E+009;1.859102845191956E-001;-4.662118479609489E-002;5.275430623441935E-003;-7.755131227895618E-004;
2.420000000000000E+009;1.844928264617920E-001;-4.753384366631508E-002;5.353483371436596E-003;-7.656994275748730E-004;
2.420166666666667E+009;1.829878091812134E-001;-4.860310629010201E-002;5.245395470410585E-003;-8.872928447090089E-004;
2.420333333333334E+009;1.815030425786972E-001;-4.963323101401329E-002;5.250706803053618E-003;-8.416592027060688E-004;
2.420500000000000E+009;1.800709664821625E-001;-5.104021728038788E-002;5.152247846126556E-003;-1.017762464471161E-003;
2.420666666666667E+009;1.784541904926300E-001;-5.223602429032326E-002;5.082231946289539E-003;-9.579904726706445E-004;
2.420833333333334E+009;1.771721690893173E-001;-5.363553017377853E-002;5.141587462276220E-003;-1.178174861706793E-003;
2.421000000000000E+009;1.758662462234497E-001;-5.518678203225136E-002;4.898392595350742E-003;-9.237538906745613E-004;
2.421166666666667E+009;1.745505630970001E-001;-5.687702447175980E-002;5.063127260655165E-003;-1.354464679025114E-003;
2.421333333333334E+009;1.730536669492722E-001;-5.822671949863434E-002;4.986142739653587E-003;-1.366829732432962E-003;
2.421500000000000E+009;1.716824471950531E-001;-6.016028299927712E-002;5.022482015192509E-003;-1.611963845789433E-003;
2.421666666666667E+009;1.706013828516007E-001;-6.179177388548851E-002;4.934279248118401E-003;-1.652711885981262E-003;
2.421833333333334E+009;1.696281582117081E-001;-6.362464278936386E-002;4.811551887542009E-003;-1.903816359117627E-003;
2.422000000000000E+009;1.684757620096207E-001;-6.528199464082718E-002;4.709309432655573E-003;-1.976686995476484E-003;
2.422166666666667E+009;1.678035706281662E-001;-6.733048707246780E-002;4.749691579490900E-003;-2.042534295469523E-003;
2.422333333333334E+009;1.668600887060165E-001;-6.918096542358398E-002;4.686215426772833E-003;-2.262792317196727E-003;
2.422500000000000E+009;1.660560220479965E-001;-7.095857709646225E-002;4.757854621857405E-003;-2.284882357344031E-003;
2.422666666666667E+009;1.653464883565903E-001;-7.285272330045700E-002;4.664593376219273E-003;-2.387980930507183E-003;
2.422833333333334E+009;1.648837178945541E-001;-7.468937337398529E-002;4.485995508730412E-003;-2.556419465690851E-003;
2.423000000000000E+009;1.642485857009888E-001;-7.665250450372696E-002;4.478795453906059E-003;-2.626970876008272E-003;
2.423166666666667E+009;1.639185845851898E-001;-7.835546135902405E-002;4.325443413108587E-003;-2.813025144860148E-003;
2.423333333333334E+009;1.637531071901321E-001;-8.018770813941956E-002;4.293854814022780E-003;-2.659182529896498E-003;
2.423500000000000E+009;1.635640114545822E-001;-8.181747049093247E-002;4.227458499372006E-003;-2.845909446477890E-003;
2.423666666666667E+009;1.636333614587784E-001;-8.367331326007843E-002;4.297159146517515E-003;-2.846531337127090E-003;
2.423833333333334E+009;1.634239703416824E-001;-8.527811616659164E-002;4.123068414628506E-003;-3.032492473721504E-003;
2.424000000000000E+009;1.634586155414581E-001;-8.680445700883865E-002;4.147115163505077E-003;-3.058724571019411E-003;
2.424166666666667E+009;1.635829806327820E-001;-8.814185857772827E-002;3.950769081711769E-003;-3.111577359959483E-003;
2.424333333333334E+009;1.637046933174133E-001;-8.955041319131851E-002;3.976201638579369E-003;-3.270239103585482E-003;
2.424500000000000E+009;1.639367043972015E-001;-9.124536067247391E-002;3.956263419240713E-003;-3.228737274184823E-003;
2.424666666666667E+009;1.639692485332489E-001;-9.245445579290390E-002;3.895931877195835E-003;-3.523608436807990E-003;
2.424833333333334E+009;1.645433455705643E-001;-9.364962577819824E-002;3.692300757393241E-003;-3.522297833114862E-003;
2.425000000000000E+009;1.649317592382431E-001;-9.469523280858994E-002;3.855625167489052E-003;-3.702241228893399E-003;
2.425166666666667E+009;1.649882495403290E-001;-9.572267532348633E-002;3.620496485382319E-003;-3.907798323780298E-003;
2.425333333333334E+009;1.651222109794617E-001;-9.663370996713638E-002;3.586882259696722E-003;-3.930961713194847E-003;
2.425500000000000E+009;1.655953079462051E-001;-9.749146550893784E-002;3.543496830388904E-003;-4.219878930598497E-003;
2.425666666666667E+009;1.658743321895599E-001;-9.816915541887283E-002;3.483683802187443E-003;-4.226368386298418E-003;
2.425833333333334E+009;1.660465747117996E-001;-9.906578809022903E-002;3.252949798479676E-003;-4.371634218841791E-003;
2.426000000000000E+009;1.664277911186218E-001;-9.947378933429718E-002;3.157245926558971E-003;-4.312122240662575E-003;
2.426166666666667E+009;1.667225807905197E-001;-1.000689789652824E-001;3.063526470214129E-003;-4.452736116945744E-003;
2.426333333333334E+009;1.666345298290253E-001;-1.005292683839798E-001;3.080337774008513E-003;-4.819692578166723E-003;
2.426500000000000E+009;1.669749766588211E-001;-1.008996739983559E-001;2.812137361615896E-003;-4.693490453064442E-003;
2.426666666666667E+009;1.671248227357864E-001;-1.012734174728394E-001;2.820577239617705E-003;-4.828560166060925E-003;
2.426833333333334E+009;1.672687381505966E-001;-1.015588045120239E-001;2.446944126859307E-003;-4.964102990925312E-003;
2.427000000000000E+009;1.670782715082169E-001;-1.018916517496109E-001;2.426429884508252E-003;-5.080938339233398E-003;
2.427166666666667E+009;1.670778542757034E-001;-1.020252183079720E-001;2.369122579693794E-003;-5.156977102160454E-003;
2.427333333333334E+009;1.668907254934311E-001;-1.024248450994492E-001;2.066300483420491E-003;-5.084365140646696E-003;
2.427500000000000E+009;1.665818691253662E-001;-1.027807816863060E-001;2.007638337090612E-003;-5.317077506333590E-003;
2.427666666666667E+009;1.662127375602722E-001;-1.030220314860344E-001;1.755761331878603E-003;-5.429974291473627E-003;
2.427833333333334E+009;1.658664494752884E-001;-1.031948775053024E-001;1.821018056944013E-003;-5.543543957173824E-003;
