# Version 1.00
#
freq[Hz];re:Trc1_S11;im:Trc1_S11;re:Trc2_S21;im:Trc2_S21;
2.400000000000000E+009;1.554976105690002E-001;1.053448989987373E-001;-8.182999677956104E-003;-1.902221585623920E-003;
2.400166666666667E+009;1.553193181753159E-001;1.028908714652062E-001;-8.173591457307339E-003;-1.579750794917345E-003;
2.400333333333334E+009;1.554779261350632E-001;1.007097139954567E-001;-8.158276788890362E-003;-1.270724111236632E-003;
2.400500000000000E+009;1.554333865642548E-001;9.809973090887070E-002;-8.297610096633434E-003;-9.909764630720019E-004;
2.400666666666667E+009;1.557121425867081E-001;9.557493776082993E-002;-8.050465025007725E-003;-7.011318812146783E-004;
2.400833333333334E+009;1.558867692947388E-001;9.283632785081863E-002;-8.190572261810303E-003;-5.721091874875128E-004;
2.401000000000000E+009;1.561250984668732E-001;8.998025208711624E-002;-8.072456344962120E-003;-3.591095155570656E-004;
2.401166666666667E+009;1.562785357236862E-001;8.726242929697037E-002;-8.308924734592438E-003;1.011264903354459E-004;
2.401333333333334E+009;1.566739231348038E-001;8.458349853754044E-002;-8.127018809318543E-003;1.691803481662646E-004;
2.401500000000000E+009;1.572230160236359E-001;8.185222744941711E-002;-8.267042227089405E-003;3.922153555322439E-004;
2.401666666666667E+009;1.576546728610992E-001;7.904672622680664E-002;-8.126046508550644E-003;6.816692766733468E-004;
2.401833333333334E+009;1.581648737192154E-001;7.650815695524216E-002;-8.128630928695202E-003;1.028380356729031E-003;
2.402000000000000E+009;1.588046699762344E-001;7.366041839122772E-002;-8.036746643483639E-003;1.435275888070464E-003;
2.402166666666667E+009;1.598732918500900E-001;7.145910710096359E-002;-7.899031043052673E-003;1.647684955969453E-003;
2.402333333333334E+009;1.608037650585175E-001;6.881954520940781E-002;-7.966880686581135E-003;1.896126312203705E-003;
2.402500000000000E+009;1.618005931377411E-001;6.618459522724152E-002;-7.793428376317024E-003;2.048539929091930E-003;
2.402666666666667E+009;1.633789241313934E-001;6.415470689535141E-002;-7.800645194947720E-003;2.353486604988575E-003;
2.402833333333334E+009;1.641718149185181E-001;6.171873956918716E-002;-7.640106137841940E-003;2.731633605435491E-003;
2.403000000000000E+009;1.656207442283630E-001;5.978313460946083E-002;-7.527117617428303E-003;2.890880219638348E-003;
2.403166666666667E+009;1.674462258815765E-001;5.742042139172554E-002;-7.461802102625370E-003;3.149817930534482E-003;
2.403333333333334E+009;1.687388122081757E-001;5.523285642266274E-002;-7.147759664803743E-003;3.371927421540022E-003;
2.403500000000000E+009;1.703448891639710E-001;5.360297113656998E-002;-6.979960016906261E-003;3.737590741366148E-003;
2.403666666666667E+009;1.719939857721329E-001;5.172764137387276E-002;-6.807435303926468E-003;3.914367873221636E-003;
2.403833333333334E+009;1.735095679759979E-001;4.987098276615143E-002;-6.704304832965136E-003;4.220504313707352E-003;
2.404000000000000E+009;1.749527305364609E-001;4.814121127128601E-002;-6.400893442332745E-003;4.414900206029415E-003;
2.404166666666667E+009;1.766798645257950E-001;4.672090336680412E-002;-6.453254260122776E-003;4.473519977182150E-003;
2.404333333333334E+009;1.780886650085449E-001;4.511210694909096E-002;-6.162133999168873E-003;4.960407968610525E-003;
2.404500000000000E+009;1.796776503324509E-001;4.397013783454895E-002;-5.860269069671631E-003;5.032944027334452E-003;
2.404666666666667E+009;1.812049448490143E-001;4.291007295250893E-002;-5.574373528361321E-003;5.269687622785568E-003;
2.404833333333334E+009;1.827990114688873E-001;4.177289456129074E-002;-5.284862592816353E-003;5.399112589657307E-003;
2.405000000000000E+009;1.837992966175079E-001;4.118589684367180E-002;-5.084439180791378E-003;5.595865659415722E-003;
2.405166666666667E+009;1.853215247392654E-001;4.039471223950386E-002;-5.116848740726709E-003;5.495789460837841E-003;
2.405333333333334E+009;1.866834163665772E-001;3.978824988007546E-002;-4.844983574002981E-003;5.848592147231102E-003;
2.405500000000000E+009;1.874908953905106E-001;3.934672847390175E-002;-4.093073308467865E-003;6.502249278128147E-003;
2.405666666666667E+009;1.893303692340851E-001;3.957190364599228E-002;-3.797633573412895E-003;4.972790833562613E-003;
2.405833333333334E+009;1.900925785303116E-001;3.905901685357094E-002;-3.477603895589709E-003;5.905461963266134E-003;
2.406000000000000E+009;1.912498623132706E-001;3.876334801316261E-002;-3.451500553637743E-003;5.620913580060005E-003;
2.406166666666667E+009;1.919653117656708E-001;3.857034072279930E-002;-3.189013339579105E-003;5.728899501264095E-003;
2.406333333333334E+009;1.932951211929321E-001;3.813747316598892E-002;-3.754523582756519E-003;5.442043300718069E-003;
2.406500000000000E+009;1.937131881713867E-001;3.831961005926132E-002;-3.089114325121045E-003;5.601050797849894E-003;
2.406666666666667E+009;1.941847205162048E-001;3.830565139651299E-002;-2.951551927253604E-003;5.798868369311094E-003;
2.406833333333334E+009;1.944525390863419E-001;3.823023289442062E-002;-2.774655586108565E-003;5.850412882864475E-003;
2.407000000000000E+009;1.947350054979324E-001;3.835770487785339E-002;-2.544653369113803E-003;5.843624938279390E-003;
2.407166666666667E+009;1.951868981122971E-001;3.816535696387291E-002;-2.392078517004848E-003;5.768359638750553E-003;
2.407333333333334E+009;1.950422823429108E-001;3.819367662072182E-002;-2.198241418227553E-003;5.878480616956949E-003;
2.407500000000000E+009;1.950718760490418E-001;3.805979341268539E-002;-2.010069321841002E-003;5.822934210300446E-003;
2.407666666666667E+009;1.950385272502899E-001;3.796583786606789E-002;-1.921463175676763E-003;5.885674618184567E-003;
2.407833333333334E+009;1.945616751909256E-001;3.763859346508980E-002;-1.711180899292231E-003;5.722817499190569E-003;
2.408000000000000E+009;1.946085542440414E-001;3.737751021981239E-002;-1.760663464665413E-003;5.820264574140310E-003;
2.408166666666667E+009;1.939276307821274E-001;3.702341392636299E-002;-1.543857972137630E-003;5.749308969825506E-003;
2.408333333333334E+009;1.936100870370865E-001;3.639057278633118E-002;-1.581046264618635E-003;5.679537542164326E-003;
2.408500000000000E+009;1.928869783878326E-001;3.594319522380829E-002;-1.497462741099298E-003;5.751690361648798E-003;
2.408666666666667E+009;1.924304664134979E-001;3.534948080778122E-002;-1.452849013730884E-003;5.794231314212084E-003;
2.408833333333334E+009;1.917736381292343E-001;3.454145044088364E-002;-1.392232836224139E-003;5.746850743889809E-003;
2.409000000000000E+009;1.908429712057114E-001;3.346163406968117E-002;-1.193979522213340E-003;5.740422755479813E-003;
2.409166666666667E+009;1.899920403957367E-001;3.261173889040947E-002;-1.342087984085083E-003;5.981441587209702E-003;
2.409333333333334E+009;1.892510801553726E-001;3.129887580871582E-002;-1.186179113574326E-003;5.861744750291109E-003;
2.409500000000000E+009;1.881303787231445E-001;3.004246391355991E-002;-1.045681885443628E-003;6.254303734749556E-003;
2.409666666666667E+009;1.872295290231705E-001;2.865763008594513E-002;-9.971813997253776E-004;6.117054261267185E-003;
2.409833333333334E+009;1.863803714513779E-001;2.708770334720612E-002;-9.671825682744384E-004;6.235232111066580E-003;
2.410000000000000E+009;1.857063770294190E-001;2.538876794278622E-002;-7.515274337492883E-004;6.394835654646158E-003;
2.410166666666667E+009;1.846593171358109E-001;2.348923683166504E-002;-4.020404012408108E-004;6.347805727273226E-003;
2.410333333333334E+009;1.838855743408203E-001;2.175317890942097E-002;-2.144788886653259E-004;6.424773950129747E-003;
2.410500000000000E+009;1.829901635646820E-001;1.980488933622837E-002;4.525285476120189E-005;6.651590578258038E-003;
2.410666666666667E+009;1.823963671922684E-001;1.757752336561680E-002;9.522801701677963E-005;6.519692018628120E-003;
2.410833333333334E+009;1.817734241485596E-001;1.559822354465723E-002;3.714889462571591E-004;6.611422169953585E-003;
2.411000000000000E+009;1.808574050664902E-001;1.327299792319536E-002;6.682528182864189E-004;6.604600697755814E-003;
2.411166666666667E+009;1.804652363061905E-001;1.109973806887865E-002;8.708128007128835E-004;6.694163661450148E-003;
2.411333333333334E+009;1.801795959472656E-001;8.745809085667133E-003;1.135313068516552E-003;6.482422817498446E-003;
2.411500000000000E+009;1.797432750463486E-001;6.441354285925627E-003;1.304602250456810E-003;6.469203624874353E-003;
2.411666666666667E+009;1.795836687088013E-001;4.137866664677858E-003;1.571775996126235E-003;6.241084076464176E-003;
2.411833333333334E+009;1.793161034584045E-001;1.698316540569067E-003;1.710341428406537E-003;6.340005435049534E-003;
2.412000000000000E+009;1.795750409364700E-001;-8.564660092815757E-004;1.758997561410070E-003;6.257348228245974E-003;
2.412166666666667E+009;1.797452121973038E-001;-2.946708118543029E-003;1.994379563257098E-003;6.110933143645525E-003;
2.412333333333334E+009;1.797072738409042E-001;-5.516316276043654E-003;2.215577522292733E-003;6.090393289923668E-003;
2.412500000000000E+009;1.803971081972122E-001;-7.778731640428305E-003;2.469531958922744E-003;5.987974349409342E-003;
2.412666666666667E+009;1.809114664793015E-001;-1.026991475373507E-002;2.506041433662176E-003;5.918875802308321E-003;
2.412833333333334E+009;1.815099716186523E-001;-1.234857738018036E-002;2.763049909844995E-003;5.872270092368126E-003;
2.413000000000000E+009;1.822392791509628E-001;-1.472712308168411E-002;2.897225087508559E-003;5.726346746087074E-003;
2.413166666666667E+009;1.830420643091202E-001;-1.665029861032963E-002;2.982615493237972E-003;5.629186052829027E-003;
2.413333333333334E+009;1.839881390333176E-001;-1.900329068303108E-002;3.080534981563687E-003;5.585732869803906E-003;
2.413500000000000E+009;1.848437041044235E-001;-2.126601710915566E-002;3.319697920233011E-003;5.516046658158302E-003;
2.413666666666667E+009;1.859721839427948E-001;-2.333621121942997E-002;3.453291486948729E-003;5.401063710451126E-003;
2.413833333333334E+009;1.869919002056122E-001;-2.528806775808334E-002;3.653166815638542E-003;5.107800010591745E-003;
2.414000000000000E+009;1.879843473434448E-001;-2.705543860793114E-002;3.745553083717823E-003;5.136028397828341E-003;
2.414166666666667E+009;1.892706751823425E-001;-2.873939275741577E-002;3.948471974581480E-003;4.968332126736641E-003;
2.414333333333334E+009;1.902148723602295E-001;-3.069846145808697E-002;4.016962368041277E-003;4.873391706496477E-003;
2.414500000000000E+009;1.915463805198669E-001;-3.210232034325600E-002;4.275992978364229E-003;4.667672328650951E-003;
2.414666666666667E+009;1.924532800912857E-001;-3.345303982496262E-002;4.538331180810928E-003;4.639206454157829E-003;
2.414833333333334E+009;1.934177130460739E-001;-3.482377529144287E-002;4.578540101647377E-003;4.340395797044039E-003;
2.415000000000000E+009;1.945293396711350E-001;-3.617333620786667E-002;4.734998103231192E-003;4.152634646743536E-003;
2.415166666666667E+009;1.957627534866333E-001;-3.716385737061501E-002;5.025455728173256E-003;4.176629241555929E-003;
2.415333333333334E+009;1.965607553720474E-001;-3.799157589673996E-002;5.097744520753622E-003;3.993002232164145E-003;
2.415500000000000E+009;1.975618749856949E-001;-3.875880315899849E-002;5.211985670030117E-003;3.815643489360809E-003;
2.415666666666667E+009;1.985352337360382E-001;-3.954958543181419E-002;5.282091442495585E-003;3.517555771395564E-003;
2.415833333333334E+009;1.993012130260468E-001;-4.013921692967415E-002;5.252137780189514E-003;3.295033704489470E-003;
2.416000000000000E+009;2.000175267457962E-001;-4.074782878160477E-002;5.427765194326639E-003;3.218272700905800E-003;
2.416166666666667E+009;2.005783766508102E-001;-4.148140549659729E-002;5.267012398689985E-003;3.041897900402546E-003;
2.416333333333334E+009;2.012104839086533E-001;-4.161432757973671E-002;5.414647981524468E-003;2.804896095767617E-003;
2.416500000000000E+009;2.014674544334412E-001;-4.204409569501877E-002;5.489765200763941E-003;2.687646308913827E-003;
2.416666666666667E+009;2.017691582441330E-001;-4.233715310692787E-002;5.477124359458685E-003;2.455719746649265E-003;
2.416833333333334E+009;2.018414884805679E-001;-4.248408973217011E-002;5.578212440013886E-003;2.257797867059708E-003;
2.417000000000000E+009;2.019861191511154E-001;-4.275871068239212E-002;5.560660734772682E-003;2.402336569502950E-003;
2.417166666666667E+009;2.014770060777664E-001;-4.261593893170357E-002;5.805177148431540E-003;2.003522356972098E-003;
2.417333333333334E+009;2.011628746986389E-001;-4.246391728520393E-002;5.657605826854706E-003;1.977187581360340E-003;
2.417500000000000E+009;2.009140104055405E-001;-4.270477592945099E-002;5.737649742513895E-003;1.610712730325759E-003;
2.417666666666667E+009;2.003070861101151E-001;-4.258993640542030E-002;5.796367302536964E-003;1.449241070076823E-003;
2.417833333333334E+009;1.999314576387405E-001;-4.244590550661087E-002;5.938324611634016E-003;1.474113669246435E-003;
2.418000000000000E+009;1.991696655750275E-001;-4.228445142507553E-002;5.971053615212441E-003;1.095298910513520E-003;
2.418166666666667E+009;1.984113603830338E-001;-4.234147444367409E-002;6.046956405043602E-003;9.380390984006226E-004;
2.418333333333334E+009;1.975070238113403E-001;-4.223226383328438E-002;5.928316619247198E-003;8.786971447989345E-004;
2.418500000000000E+009;1.964971274137497E-001;-4.248585924506187E-002;5.914329551160336E-003;7.935620378702879E-004;
2.418666666666667E+009;1.955448985099793E-001;-4.256509616971016E-002;5.798529833555222E-003;3.379077534191310E-004;
2.418833333333334E+009;1.943863630294800E-001;-4.275924712419510E-002;5.813160911202431E-003;2.469661703798920E-004;
2.419000000000000E+009;1.930923759937286E-001;-4.304461926221848E-002;5.821608472615480E-003;-2.130235952790827E-005;
2.419166666666667E+009;1.918626874685288E-001;-4.345690831542015E-002;5.791987758129835E-003;-1.552062021801248E-004;
2.419333333333334E+009;1.905582249164581E-001;-4.397741332650185E-002;5.689370911568403E-003;-2.645696222316474E-004;
2.419500000000000E+009;1.891880035400391E-001;-4.442783445119858E-002;5.506220273673534E-003;-5.457985098473728E-004;
2.419666666666667E+009;1.877337247133255E-001;-4.536818712949753E-002;5.546196829527617E-003;-6.370848859660327E-004;
2.419833333333334E+009;1.862343251705170E-001;-4.614546895027161E-002;5.517758429050446E-003;-6.227979902178049E-004;
2.420000000000000E+009;1.847038120031357E-001;-4.702359065413475E-002;5.395491141825914E-003;-7.133135222829878E-004;
2.420166666666667E+009;1.831166893243790E-001;-4.801212623715401E-002;5.207567941397429E-003;-8.599102729931474E-004;
2.420333333333334E+009;1.815814226865768E-001;-4.925246164202690E-002;5.330624058842659E-003;-9.326001163572073E-004;
2.420500000000000E+009;1.801610291004181E-001;-5.052120983600617E-002;5.197767168283463E-003;-1.033550710417330E-003;
2.420666666666667E+009;1.786556839942932E-001;-5.163682252168655E-002;5.231620278209448E-003;-1.133829471655190E-003;
2.420833333333334E+009;1.771965771913528E-001;-5.331259593367577E-002;5.060035269707441E-003;-1.075867447070777E-003;
2.421000000000000E+009;1.757791489362717E-001;-5.472636222839356E-002;5.049760453402996E-003;-1.202885294333100E-003;
2.421166666666667E+009;1.743958890438080E-001;-5.639941990375519E-002;5.094658117741346E-003;-1.305483863689005E-003;
2.421333333333334E+009;1.729014813899994E-001;-5.785644054412842E-002;5.116221494972706E-003;-1.342277391813695E-003;
2.421500000000000E+009;1.715583652257919E-001;-5.991131067276001E-002;5.081042647361755E-003;-1.555198919959366E-003;
2.421666666666667E+009;1.705361455678940E-001;-6.167757883667946E-002;5.004117731004953E-003;-1.577140530571342E-003;
2.421833333333334E+009;1.693909615278244E-001;-6.327111274003983E-002;5.012616515159607E-003;-1.832419657148421E-003;
2.422000000000000E+009;1.685205698013306E-001;-6.525245308876038E-002;4.870781209319830E-003;-1.975023420527577E-003;
2.422166666666667E+009;1.677788645029068E-001;-6.715649366378784E-002;4.939309321343899E-003;-2.018530620262027E-003;
2.422333333333334E+009;1.665776371955872E-001;-6.907805055379868E-002;4.611284006386995E-003;-2.197696827352047E-003;
2.422500000000000E+009;1.658239811658859E-001;-7.106744498014450E-002;4.664084874093533E-003;-2.551949117332697E-003;
2.422666666666667E+009;1.652539819478989E-001;-7.291568815708160E-002;4.679740406572819E-003;-2.302762353792787E-003;
2.422833333333334E+009;1.647533178329468E-001;-7.496237009763718E-002;4.592215176671743E-003;-2.431103959679604E-003;
2.423000000000000E+009;1.640583723783493E-001;-7.688915729522705E-002;4.518216941505671E-003;-2.651825314387679E-003;
2.423166666666667E+009;1.638094335794449E-001;-7.865922152996063E-002;4.552956204861403E-003;-2.674134448170662E-003;
2.423333333333334E+009;1.635738462209702E-001;-8.045117557048798E-002;4.305700771510601E-003;-2.692203735932708E-003;
2.423500000000000E+009;1.634461730718613E-001;-8.205074071884155E-002;4.417643882334232E-003;-2.950372174382210E-003;
2.423666666666667E+009;1.634759902954102E-001;-8.402706682682037E-002;4.193127155303955E-003;-2.917326986789703E-003;
2.423833333333334E+009;1.634452342987061E-001;-8.545149117708206E-002;4.092564806342125E-003;-3.048514248803258E-003;
2.424000000000000E+009;1.633991897106171E-001;-8.735761046409607E-002;4.138390067964792E-003;-3.077668603509665E-003;
2.424166666666667E+009;1.633574068546295E-001;-8.883080631494522E-002;4.092539660632610E-003;-3.344389144331217E-003;
2.424333333333334E+009;1.635617166757584E-001;-9.014566242694855E-002;4.155746195465326E-003;-3.280405187979341E-003;
2.424500000000000E+009;1.638855934143066E-001;-9.163720905780792E-002;3.912310115993023E-003;-3.468932816758752E-003;
2.424666666666667E+009;1.640371084213257E-001;-9.295419603586197E-002;4.032160155475140E-003;-3.481780411675572E-003;
2.424833333333334E+009;1.645003259181976E-001;-9.420815855264664E-002;3.773867152631283E-003;-3.637740388512611E-003;
2.425000000000000E+009;1.647315621376038E-001;-9.523169696331024E-002;3.866011509671807E-003;-3.921101801097393E-003;
2.425166666666667E+009;1.650179326534271E-001;-9.616500139236450E-002;3.667932935059071E-003;-3.946101292967796E-003;
2.425333333333334E+009;1.652751564979553E-001;-9.724319726228714E-002;3.603230929002166E-003;-3.941152244806290E-003;
2.425500000000000E+009;1.657811552286148E-001;-9.820675104856491E-002;3.406422445550561E-003;-4.217537119984627E-003;
2.425666666666667E+009;1.660625934600830E-001;-9.867968410253525E-002;3.301555756479502E-003;-4.228268284350634E-003;
2.425833333333334E+009;1.663116812705994E-001;-9.953276813030243E-002;3.407945623621345E-003;-4.476988688111305E-003;
2.426000000000000E+009;1.665121316909790E-001;-9.997013956308365E-002;3.166432026773691E-003;-4.571419674903154E-003;
2.426166666666667E+009;1.668654680252075E-001;-1.004333794116974E-001;3.211375558748841E-003;-4.677692428231239E-003;
2.426333333333334E+009;1.670197695493698E-001;-1.011827811598778E-001;2.961257705464959E-003;-4.870627541095018E-003;
2.426500000000000E+009;1.673152893781662E-001;-1.013344228267670E-001;2.745331032201648E-003;-4.985702689737082E-003;
2.426666666666667E+009;1.673881560564041E-001;-1.017323285341263E-001;2.689183223992586E-003;-4.991516936570406E-003;
2.426833333333334E+009;1.675635427236557E-001;-1.020757555961609E-001;2.561013214290142E-003;-4.946453496813774E-003;
2.427000000000000E+009;1.674909442663193E-001;-1.023608893156052E-001;2.478889422491193E-003;-5.098874215036631E-003;
2.427166666666667E+009;1.674653142690659E-001;-1.025190278887749E-001;2.207174897193909E-003;-5.200925283133984E-003;
2.427333333333334E+009;1.673044413328171E-001;-1.027868837118149E-001;2.154984977096319E-003;-5.302876699715853E-003;
2.427500000000000E+009;1.670475751161575E-001;-1.030453741550446E-001;2.074125921353698E-003;-5.423930007964373E-003;
2.427666666666667E+009;1.667650938034058E-001;-1.031954213976860E-001;1.937008462846279E-003;-5.454743281006813E-003;
2.427833333333334E+009;1.663032025098801E-001;-1.034070253372192E-001;1.755060045979917E-003;-5.513186566531658E-003;
