# Version 1.00
#
freq[Hz];re:Trc1_S11;im:Trc1_S11;re:Trc2_S21;im:Trc2_S21;
2.400000000000000E+009;1.565328836441040E-001;1.052148565649986E-001;-8.031010627746582E-003;-1.812769914977253E-003;
2.400166666666667E+009;1.564200967550278E-001;1.029510349035263E-001;-8.203675970435143E-003;-1.537373638711870E-003;
2.400333333333334E+009;1.565964519977570E-001;1.005600467324257E-001;-8.146353997290134E-003;-1.206920132972300E-003;
2.400500000000000E+009;1.566944569349289E-001;9.812989085912705E-002;-8.107820525765419E-003;-1.138626015745103E-003;
2.400666666666667E+009;1.568275690078735E-001;9.562084823846817E-002;-8.048012852668762E-003;-7.483247318305075E-004;
2.400833333333334E+009;1.567642390727997E-001;9.304697066545487E-002;-8.037023246288300E-003;-3.878145653288811E-004;
2.401000000000000E+009;1.571066975593567E-001;9.031769633293152E-002;-7.972829975187779E-003;-1.651388447498903E-004;
2.401166666666667E+009;1.571438908576965E-001;8.773817867040634E-002;-7.990769110620022E-003;1.046331235556863E-004;
2.401333333333334E+009;1.576187461614609E-001;8.508536964654923E-002;-7.982998155057430E-003;3.064134798478335E-004;
2.401500000000000E+009;1.579694151878357E-001;8.232340216636658E-002;-8.094510063529015E-003;3.117113374173641E-004;
2.401666666666667E+009;1.582306027412415E-001;7.965507358312607E-002;-8.061539381742477E-003;8.619118598289788E-004;
2.401833333333334E+009;1.587912738323212E-001;7.696542888879776E-002;-8.036555722355843E-003;9.049127693288028E-004;
2.402000000000000E+009;1.595194935798645E-001;7.439299672842026E-002;-7.966458797454834E-003;1.276607159525156E-003;
2.402166666666667E+009;1.603867113590241E-001;7.194561511278153E-002;-7.949582301080227E-003;1.575527130626142E-003;
2.402333333333334E+009;1.612260490655899E-001;6.952346116304398E-002;-7.775394711643457E-003;1.795915886759758E-003;
2.402500000000000E+009;1.623716503381729E-001;6.709292531013489E-002;-7.718559354543686E-003;2.217092551290989E-003;
2.402666666666667E+009;1.633866578340530E-001;6.473539769649506E-002;-7.714593317359686E-003;2.409273991361260E-003;
2.402833333333334E+009;1.644615381956101E-001;6.251638382673264E-002;-7.471564225852490E-003;2.692259615287185E-003;
2.403000000000000E+009;1.658401042222977E-001;6.028103828430176E-002;-7.381489500403404E-003;2.847937401384115E-003;
2.403166666666667E+009;1.674602180719376E-001;5.809809640049934E-002;-7.198480889201164E-003;3.226378466933966E-003;
2.403333333333334E+009;1.688490211963654E-001;5.607942119240761E-002;-7.216786500066519E-003;3.312151879072189E-003;
2.403500000000000E+009;1.703064292669296E-001;5.425603687763214E-002;-6.927563343197107E-003;3.708357224240899E-003;
2.403666666666667E+009;1.717564761638641E-001;5.227791890501976E-002;-6.981634534895420E-003;3.855108981952071E-003;
2.403833333333334E+009;1.733615845441818E-001;5.046229809522629E-002;-6.652028299868107E-003;4.186074249446392E-003;
2.404000000000000E+009;1.747662127017975E-001;4.880561307072640E-002;-6.503451615571976E-003;4.304818343371153E-003;
2.404166666666667E+009;1.761612445116043E-001;4.734294116497040E-002;-6.235335022211075E-003;4.428472369909287E-003;
2.404333333333334E+009;1.778320074081421E-001;4.570976644754410E-002;-5.928056314587593E-003;4.787697456777096E-003;
2.404500000000000E+009;1.792302727699280E-001;4.429658129811287E-002;-5.783709697425365E-003;4.972913768142462E-003;
2.404666666666667E+009;1.806041002273560E-001;4.340320825576782E-002;-5.534053780138493E-003;5.215534009039402E-003;
2.404833333333334E+009;1.821800470352173E-001;4.227362573146820E-002;-5.364672746509314E-003;5.342178512364626E-003;
2.405000000000000E+009;1.834813803434372E-001;4.163182154297829E-002;-5.164836533367634E-003;5.444101057946682E-003;
2.405166666666667E+009;1.847793012857437E-001;4.078473150730133E-002;-4.824134521186352E-003;5.754777695983648E-003;
2.405333333333334E+009;1.859354078769684E-001;4.005312919616699E-002;-4.480549599975348E-003;5.671699997037649E-003;
2.405500000000000E+009;1.871271431446075E-001;3.962068259716034E-002;-4.396722652018070E-003;5.629101302474737E-003;
2.405666666666667E+009;1.884192079305649E-001;3.915239125490189E-002;-4.104231018573046E-003;5.853727459907532E-003;
2.405833333333334E+009;1.895418763160706E-001;3.879566490650177E-002;-3.868654603138566E-003;5.873821210116148E-003;
2.406000000000000E+009;1.904311776161194E-001;3.841796144843102E-002;-3.639773698523641E-003;5.979538429528475E-003;
2.406166666666667E+009;1.912931501865387E-001;3.810162097215653E-002;-3.406682750210166E-003;5.840152036398649E-003;
2.406333333333334E+009;1.922797411680222E-001;3.813757002353668E-002;-3.170960582792759E-003;5.881550721824169E-003;
2.406500000000000E+009;1.930278390645981E-001;3.798315674066544E-002;-3.122538095340133E-003;5.899684503674507E-003;
2.406666666666667E+009;1.933961808681488E-001;3.797848150134087E-002;-2.834904473274946E-003;5.721478722989559E-003;
2.406833333333334E+009;1.940711736679077E-001;3.779511153697968E-002;-2.709127031266689E-003;5.828010849654675E-003;
2.407000000000000E+009;1.944245100021362E-001;3.787916153669357E-002;-2.537300344556570E-003;5.841663572937250E-003;
2.407166666666667E+009;1.947594881057739E-001;3.755638003349304E-002;-2.343380590900779E-003;5.806571338325739E-003;
2.407333333333334E+009;1.945605129003525E-001;3.752853348851204E-002;-2.209606813266873E-003;5.807118490338326E-003;
2.407500000000000E+009;1.945826560258865E-001;3.746983408927918E-002;-1.906617544591427E-003;5.560581106692553E-003;
2.407666666666667E+009;1.948028355836868E-001;3.724260255694389E-002;-1.978567568585277E-003;5.842300597578287E-003;
2.407833333333334E+009;1.943560540676117E-001;3.697458654642105E-002;-1.959050074219704E-003;5.745470989495516E-003;
2.408000000000000E+009;1.942785233259201E-001;3.666281700134277E-002;-1.792647875845432E-003;5.605480633676052E-003;
2.408166666666667E+009;1.939205080270767E-001;3.627391159534454E-002;-1.675657113082707E-003;5.723599344491959E-003;
2.408333333333334E+009;1.935205310583115E-001;3.574768081307411E-002;-1.583543140441179E-003;5.734351463615894E-003;
2.408500000000000E+009;1.929751336574554E-001;3.526287525892258E-002;-1.451944350264967E-003;5.695382133126259E-003;
2.408666666666667E+009;1.924238801002502E-001;3.461332619190216E-002;-1.341865514405072E-003;5.568702239543200E-003;
2.408833333333334E+009;1.918900460004807E-001;3.391464427113533E-002;-1.296129892580211E-003;5.702737253159285E-003;
2.409000000000000E+009;1.910153329372406E-001;3.292938321828842E-002;-1.295442110858858E-003;5.753339268267155E-003;
2.409166666666667E+009;1.903074830770493E-001;3.198219835758209E-002;-1.255165436305106E-003;5.932255182415247E-003;
2.409333333333334E+009;1.895915418863297E-001;3.093154728412628E-002;-1.216175500303507E-003;5.855865310877562E-003;
2.409500000000000E+009;1.885903030633926E-001;2.955183945596218E-002;-1.019774586893618E-003;5.934604443609715E-003;
2.409666666666667E+009;1.877813190221787E-001;2.826488949358463E-002;-9.446812327951193E-004;5.975276231765747E-003;
2.409833333333334E+009;1.868767142295837E-001;2.680146135389805E-002;-7.492034928873181E-004;6.243750452995300E-003;
2.410000000000000E+009;1.862342953681946E-001;2.511948905885220E-002;-5.191286909393966E-004;6.336992140859366E-003;
2.410166666666667E+009;1.853204071521759E-001;2.322669327259064E-002;-5.577090778388083E-004;6.365234032273293E-003;
2.410333333333334E+009;1.844396144151688E-001;2.162088267505169E-002;-2.832892641890794E-004;6.405562162399292E-003;
2.410500000000000E+009;1.836790889501572E-001;1.973673142492771E-002;-1.032608197419904E-004;6.395733449608088E-003;
2.410666666666667E+009;1.828758418560028E-001;1.761646382510662E-002;1.777259021764621E-004;6.443176418542862E-003;
2.410833333333334E+009;1.823871731758118E-001;1.538154575973749E-002;3.436308179516345E-004;6.518055684864521E-003;
2.411000000000000E+009;1.816915720701218E-001;1.340633817017078E-002;6.574437720701098E-004;6.603830959647894E-003;
2.411166666666667E+009;1.812189817428589E-001;1.123859640210867E-002;8.715584408491850E-004;6.422039587050676E-003;
2.411333333333334E+009;1.807895600795746E-001;8.915996178984642E-003;1.013950095511973E-003;6.350612267851830E-003;
2.411500000000000E+009;1.804243475198746E-001;6.641956511884928E-003;1.224502571858466E-003;6.383221130818129E-003;
2.411666666666667E+009;1.802659034729004E-001;4.481306299567223E-003;1.448651193641126E-003;6.230670493096113E-003;
2.411833333333334E+009;1.798605918884277E-001;2.186960773542523E-003;1.735150697641075E-003;6.282228045165539E-003;
2.412000000000000E+009;1.800920665264130E-001;-2.650532114785165E-004;1.865703845396638E-003;6.128293927758932E-003;
2.412166666666667E+009;1.799565106630325E-001;-2.516309032216668E-003;2.093570306897163E-003;5.999159067869186E-003;
2.412333333333334E+009;1.801134645938873E-001;-4.917402286082506E-003;2.229840960353613E-003;6.040834356099367E-003;
2.412500000000000E+009;1.806195825338364E-001;-7.091597653925419E-003;2.406100975349546E-003;5.951966624706984E-003;
2.412666666666667E+009;1.810405105352402E-001;-9.593467228114605E-003;2.534998347982764E-003;5.812612827867270E-003;
2.412833333333334E+009;1.817988455295563E-001;-1.182164158672094E-002;2.809367142617703E-003;6.028839852660894E-003;
2.413000000000000E+009;1.824373304843903E-001;-1.392833981662989E-002;2.921128878369927E-003;5.697658285498619E-003;
2.413166666666667E+009;1.832357048988342E-001;-1.616991497576237E-002;2.991187851876020E-003;5.635195411741734E-003;
2.413333333333334E+009;1.839521974325180E-001;-1.833143271505833E-002;3.052425570785999E-003;5.540795158594847E-003;
2.413500000000000E+009;1.847923696041107E-001;-2.052388153970242E-002;3.385438583791256E-003;5.364397540688515E-003;
2.413666666666667E+009;1.858939379453659E-001;-2.252514474093914E-002;3.428582800552249E-003;5.257519893348217E-003;
2.413833333333334E+009;1.867787241935730E-001;-2.442393079400063E-002;3.680611727759242E-003;5.232459399849176E-003;
2.414000000000000E+009;1.877907663583756E-001;-2.642920799553394E-002;3.843821119517088E-003;5.071267485618591E-003;
2.414166666666667E+009;1.889351755380631E-001;-2.811132185161114E-002;3.983598668128252E-003;5.031035747379065E-003;
2.414333333333334E+009;1.899272203445435E-001;-2.994849346578121E-002;4.073072690516710E-003;4.892589990049601E-003;
2.414500000000000E+009;1.909005343914032E-001;-3.146946802735329E-002;4.208061844110489E-003;4.754220135509968E-003;
2.414666666666667E+009;1.918476223945618E-001;-3.291333466768265E-002;4.287180025130510E-003;4.492480773478746E-003;
2.414833333333334E+009;1.930136084556580E-001;-3.422840312123299E-002;4.650963470339775E-003;4.311049357056618E-003;
2.415000000000000E+009;1.938931643962860E-001;-3.563696518540382E-002;4.672269336879253E-003;4.224941134452820E-003;
2.415166666666667E+009;1.949940770864487E-001;-3.659861534833908E-002;4.906904418021441E-003;4.030542448163033E-003;
2.415333333333334E+009;1.960139423608780E-001;-3.768837079405785E-002;4.817974288016558E-003;3.760945750400424E-003;
2.415500000000000E+009;1.968587189912796E-001;-3.837340697646141E-002;4.958972800523043E-003;3.726713592186570E-003;
2.415666666666667E+009;1.978288441896439E-001;-3.928600996732712E-002;5.150891374796629E-003;3.501034574583173E-003;
2.415833333333334E+009;1.985353678464890E-001;-3.992890939116478E-002;5.164399743080139E-003;3.419987158849835E-003;
2.416000000000000E+009;1.992600709199905E-001;-4.071021825075150E-002;5.126300267875195E-003;3.246369305998087E-003;
2.416166666666667E+009;1.998683363199234E-001;-4.132958874106407E-002;5.273412913084030E-003;2.886669244617224E-003;
2.416333333333334E+009;2.005104422569275E-001;-4.161090403795242E-002;5.328253377228975E-003;2.736958907917142E-003;
2.416500000000000E+009;2.007910758256912E-001;-4.199272394180298E-002;5.387675948441029E-003;2.618391998112202E-003;
2.416666666666667E+009;2.010221332311630E-001;-4.252237081527710E-002;5.429035983979702E-003;2.475823508575559E-003;
2.416833333333334E+009;2.012366056442261E-001;-4.257258400321007E-002;5.550735164433718E-003;2.350563183426857E-003;
2.417000000000000E+009;2.011532932519913E-001;-4.284352436661720E-002;5.524702835828066E-003;2.197945257648826E-003;
2.417166666666667E+009;2.010038495063782E-001;-4.284168407320976E-002;5.600171629339457E-003;2.117522526532412E-003;
2.417333333333334E+009;2.006581276655197E-001;-4.286040365695953E-002;5.584229715168476E-003;1.835963455960155E-003;
2.417500000000000E+009;2.004733234643936E-001;-4.298422858119011E-002;5.639257840812206E-003;1.767274807207286E-003;
2.417666666666667E+009;1.999127268791199E-001;-4.286615923047066E-002;5.711484700441361E-003;1.602814765647054E-003;
2.417833333333334E+009;1.993651837110519E-001;-4.289952293038368E-002;5.739150103181601E-003;1.513802679255605E-003;
2.418000000000000E+009;1.989423483610153E-001;-4.264228045940399E-002;5.714241880923510E-003;1.152226817794144E-003;
2.418166666666667E+009;1.981915235519409E-001;-4.282357916235924E-002;5.856669042259455E-003;9.296670323237777E-004;
2.418333333333334E+009;1.972426176071167E-001;-4.279511421918869E-002;5.731839220970869E-003;8.478501695208252E-004;
2.418500000000000E+009;1.963485479354858E-001;-4.300270229578018E-002;5.881124641746283E-003;5.932399653829634E-004;
2.418666666666667E+009;1.956694275140762E-001;-4.301371052861214E-002;5.748385563492775E-003;6.238145288079977E-004;
2.418833333333334E+009;1.943776607513428E-001;-4.315557703375816E-002;5.709629040211439E-003;2.000516979023814E-004;
2.419000000000000E+009;1.932318657636643E-001;-4.349699616432190E-002;5.827855318784714E-003;9.867403423413634E-005;
2.419166666666667E+009;1.920704096555710E-001;-4.383370652794838E-002;5.686584394425154E-003;-1.517235796200112E-004;
2.419333333333334E+009;1.908152848482132E-001;-4.446179792284966E-002;5.525290966033936E-003;-3.083414922002703E-004;
2.419500000000000E+009;1.894957274198532E-001;-4.492481797933579E-002;5.498020444065332E-003;-4.588640586007386E-004;
2.419666666666667E+009;1.879476010799408E-001;-4.570353776216507E-002;5.352963227778673E-003;-5.556733231060207E-004;
2.419833333333334E+009;1.865469515323639E-001;-4.651413485407829E-002;5.248114001005888E-003;-6.085267523303628E-004;
2.420000000000000E+009;1.850938796997070E-001;-4.731851071119309E-002;5.288775544613600E-003;-8.226102800108492E-004;
2.420166666666667E+009;1.835786551237106E-001;-4.822055622935295E-002;5.185029469430447E-003;-7.778789149597287E-004;
2.420333333333334E+009;1.822941899299622E-001;-4.935695603489876E-002;5.127812270075083E-003;-7.861013291403651E-004;
2.420500000000000E+009;1.806842833757401E-001;-5.075360834598541E-002;5.077466834336519E-003;-9.743166156113148E-004;
2.420666666666667E+009;1.790897697210312E-001;-5.172105133533478E-002;5.148890893906355E-003;-9.839894482865930E-004;
2.420833333333334E+009;1.776594817638397E-001;-5.322165787220001E-002;5.008534528315067E-003;-1.090617268346250E-003;
2.421000000000000E+009;1.762708872556686E-001;-5.477213859558106E-002;4.827390424907208E-003;-1.179443788714707E-003;
2.421166666666667E+009;1.749784052371979E-001;-5.620177462697029E-002;4.915191791951656E-003;-1.311215921305120E-003;
2.421333333333334E+009;1.733593791723251E-001;-5.768647417426109E-002;5.051475018262863E-003;-1.444295980036259E-003;
2.421500000000000E+009;1.722547560930252E-001;-5.966395512223244E-002;4.991942085325718E-003;-1.577086397446692E-003;
2.421666666666667E+009;1.709973514080048E-001;-6.121136993169785E-002;5.109636113047600E-003;-1.749398885294795E-003;
2.421833333333334E+009;1.699789613485336E-001;-6.308373808860779E-002;4.965710919350386E-003;-1.732850563712418E-003;
2.422000000000000E+009;1.687696576118469E-001;-6.459599733352661E-002;4.875742364674807E-003;-1.972481841221452E-003;
2.422166666666667E+009;1.679294556379318E-001;-6.671914458274841E-002;4.834297578781843E-003;-1.891153515316546E-003;
2.422333333333334E+009;1.669461578130722E-001;-6.856600195169449E-002;4.716622177511454E-003;-2.060494152829051E-003;
2.422500000000000E+009;1.662698090076447E-001;-7.039713114500046E-002;4.614362958818674E-003;-2.287375740706921E-003;
2.422666666666667E+009;1.656619310379028E-001;-7.229238748550415E-002;4.712531343102455E-003;-2.297728555276990E-003;
2.422833333333334E+009;1.651100814342499E-001;-7.415495067834854E-002;4.480907693505287E-003;-2.348022302612662E-003;
2.423000000000000E+009;1.644894778728485E-001;-7.606742531061173E-002;4.394722171127796E-003;-2.589007606729865E-003;
2.423166666666667E+009;1.641514152288437E-001;-7.780047506093979E-002;4.393825773149729E-003;-2.646454842761159E-003;
2.423333333333334E+009;1.638393253087997E-001;-7.966855913400650E-002;4.323633853346109E-003;-2.766923280432820E-003;
2.423500000000000E+009;1.636147350072861E-001;-8.136401325464249E-002;4.357456695288420E-003;-2.661034930497408E-003;
2.423666666666667E+009;1.634677648544312E-001;-8.305535465478897E-002;4.219926428049803E-003;-2.812150167301297E-003;
2.423833333333334E+009;1.633900552988052E-001;-8.479761332273483E-002;4.156985785812140E-003;-2.881177002564073E-003;
2.424000000000000E+009;1.633718311786652E-001;-8.641737699508667E-002;4.167879465967417E-003;-2.941536484286189E-003;
2.424166666666667E+009;1.634666025638580E-001;-8.787294477224350E-002;4.099785815924406E-003;-3.026166930794716E-003;
2.424333333333334E+009;1.634970456361771E-001;-8.928646892309189E-002;4.152373410761356E-003;-3.229337977245450E-003;
2.424500000000000E+009;1.637665331363678E-001;-9.093409776687622E-002;3.910331521183252E-003;-3.354426939040422E-003;
2.424666666666667E+009;1.639265716075897E-001;-9.222329407930374E-002;4.024747759103775E-003;-3.437520703300834E-003;
2.424833333333334E+009;1.643963307142258E-001;-9.346516430377960E-002;3.914163447916508E-003;-3.549340413883328E-003;
2.425000000000000E+009;1.645326316356659E-001;-9.466571360826492E-002;3.799663390964270E-003;-3.618554444983602E-003;
2.425166666666667E+009;1.647378802299500E-001;-9.568297117948532E-002;3.841010155156255E-003;-3.921893890947104E-003;
2.425333333333334E+009;1.651351600885391E-001;-9.668915718793869E-002;3.834416624158621E-003;-3.819952253252268E-003;
2.425500000000000E+009;1.654376536607742E-001;-9.763333201408386E-002;3.521990962326527E-003;-4.165222868323326E-003;
2.425666666666667E+009;1.656948626041412E-001;-9.842336177825928E-002;3.534518182277679E-003;-4.209037404507399E-003;
2.425833333333334E+009;1.658969223499298E-001;-9.913621842861176E-002;3.371824277564883E-003;-4.439802374690771E-003;
2.426000000000000E+009;1.662838459014893E-001;-9.964408725500107E-002;3.327099839225411E-003;-4.560981411486864E-003;
2.426166666666667E+009;1.666161715984345E-001;-1.001323014497757E-001;3.239714307710528E-003;-4.435169510543346E-003;
2.426333333333334E+009;1.666578799486160E-001;-1.008633449673653E-001;2.971492940559983E-003;-4.726704210042954E-003;
2.426500000000000E+009;1.669601351022720E-001;-1.011658012866974E-001;2.886802190914750E-003;-4.668228793889284E-003;
2.426666666666667E+009;1.670001596212387E-001;-1.016014516353607E-001;2.747306367382407E-003;-4.980558063834906E-003;
2.426833333333334E+009;1.673084646463394E-001;-1.019560322165489E-001;2.774914260953665E-003;-4.911619704216719E-003;
2.427000000000000E+009;1.672134697437286E-001;-1.022016853094101E-001;2.466700272634625E-003;-5.091489758342505E-003;
2.427166666666667E+009;1.672321856021881E-001;-1.024476513266563E-001;2.279930515214801E-003;-5.013574380427599E-003;
2.427333333333334E+009;1.671148538589478E-001;-1.028193384408951E-001;2.099588280543685E-003;-5.161871202290058E-003;
2.427500000000000E+009;1.668619215488434E-001;-1.030468866229057E-001;2.043736632913351E-003;-5.255478434264660E-003;
2.427666666666667E+009;1.663927733898163E-001;-1.032405495643616E-001;1.775961718522012E-003;-5.389255937188864E-003;
2.427833333333334E+009;1.661905497312546E-001;-1.034827008843422E-001;1.787525834515691E-003;-5.415370687842369E-003;
