# Version 1.00
#
freq[Hz];re:Trc1_S11;im:Trc1_S11;re:Trc2_S21;im:Trc2_S21;
2.400000000000000E+009;1.563280969858170E-001;1.050195321440697E-001;-8.021723479032517E-003;-1.638549729250372E-003;
2.400166666666667E+009;1.562690734863281E-001;1.025458350777626E-001;-8.216228336095810E-003;-1.303749741055071E-003;
2.400333333333334E+009;1.564136743545532E-001;1.004668623209000E-001;-8.200515061616898E-003;-1.219843979924917E-003;
2.400500000000000E+009;1.564749181270599E-001;9.786589443683624E-002;-7.954634726047516E-003;-8.544779848307371E-004;
2.400666666666667E+009;1.568047553300858E-001;9.566721320152283E-002;-7.996505126357079E-003;-7.084831595420837E-004;
2.400833333333334E+009;1.567415446043015E-001;9.268026053905487E-002;-8.033142425119877E-003;-4.000807239208370E-004;
2.401000000000000E+009;1.570540964603424E-001;8.999648690223694E-002;-7.987006567418575E-003;-2.221189934061840E-004;
2.401166666666667E+009;1.570990830659866E-001;8.741054683923721E-002;-8.071509189903736E-003;1.013527653412893E-004;
2.401333333333334E+009;1.574672907590866E-001;8.480811119079590E-002;-8.004473522305489E-003;2.169623039662838E-004;
2.401500000000000E+009;1.579376161098480E-001;8.207616209983826E-002;-8.013474754989147E-003;4.366283537819982E-004;
2.401666666666667E+009;1.582159548997879E-001;7.947986572980881E-002;-8.009378798305988E-003;7.579514058306813E-004;
2.401833333333334E+009;1.588938087224960E-001;7.684129476547241E-002;-7.931604981422424E-003;1.084312447346747E-003;
2.402000000000000E+009;1.595076769590378E-001;7.427524030208588E-002;-7.978818379342556E-003;1.141451299190521E-003;
2.402166666666667E+009;1.603149622678757E-001;7.189213484525681E-002;-7.963374257087708E-003;1.414032885804772E-003;
2.402333333333334E+009;1.611980944871903E-001;6.928302347660065E-002;-7.791202515363693E-003;1.850556232966483E-003;
2.402500000000000E+009;1.624107807874680E-001;6.696397066116333E-002;-7.823721505701542E-003;2.138841198757291E-003;
2.402666666666667E+009;1.631936877965927E-001;6.485420465469360E-002;-7.639700081199408E-003;2.509537618607283E-003;
2.402833333333334E+009;1.644532233476639E-001;6.228974089026451E-002;-7.511102128773928E-003;2.593191340565682E-003;
2.403000000000000E+009;1.658749431371689E-001;5.997820198535919E-002;-7.457478903234005E-003;2.968879416584969E-003;
2.403166666666667E+009;1.673897951841354E-001;5.789465457201004E-002;-7.226573769003153E-003;3.151876386255026E-003;
2.403333333333334E+009;1.686168760061264E-001;5.582660436630249E-002;-7.243975531309843E-003;3.475633217021823E-003;
2.403500000000000E+009;1.702448427677155E-001;5.387748032808304E-002;-7.116117980331183E-003;3.661694237962365E-003;
2.403666666666667E+009;1.717984527349472E-001;5.210625380277634E-002;-6.891893222928047E-003;3.910808358341456E-003;
2.403833333333334E+009;1.733207702636719E-001;5.036703869700432E-002;-6.643170490860939E-003;4.117337986826897E-003;
2.404000000000000E+009;1.745764911174774E-001;4.860820248723030E-002;-6.512948311865330E-003;4.413348622620106E-003;
2.404166666666667E+009;1.762953996658325E-001;4.743139073252678E-002;-6.272441707551479E-003;4.581198561936617E-003;
2.404333333333334E+009;1.774474978446960E-001;4.569550603628159E-002;-6.153883412480354E-003;4.797252360731363E-003;
2.404500000000000E+009;1.794806569814682E-001;4.419177770614624E-002;-5.817369092255831E-003;4.840415902435780E-003;
2.404666666666667E+009;1.807005256414414E-001;4.334516823291779E-002;-5.698290653526783E-003;5.002389661967754E-003;
2.404833333333334E+009;1.823392957448959E-001;4.204934835433960E-002;-5.405293777585030E-003;5.370555445551872E-003;
2.405000000000000E+009;1.833970397710800E-001;4.136408492922783E-002;-5.101419519633055E-003;5.551733542233706E-003;
2.405166666666667E+009;1.843426823616028E-001;4.056350514292717E-002;-4.868795629590750E-003;5.584741476923227E-003;
2.405333333333334E+009;1.857599020004273E-001;4.014240577816963E-002;-4.545186646282673E-003;5.707062780857086E-003;
2.405500000000000E+009;1.871976554393768E-001;3.975244611501694E-002;-4.194077569991350E-003;5.670288577675819E-003;
2.405666666666667E+009;1.881564855575562E-001;3.937236592173576E-002;-4.062050487846136E-003;5.618887022137642E-003;
2.405833333333334E+009;1.892684698104858E-001;3.855404630303383E-002;-3.917356487363577E-003;5.994373932480812E-003;
2.406000000000000E+009;1.901724934577942E-001;3.846303373575211E-002;-3.581103635951877E-003;5.804447457194328E-003;
2.406166666666667E+009;1.910666674375534E-001;3.818357363343239E-002;-3.360671456903219E-003;5.832578055560589E-003;
2.406333333333334E+009;1.919542402029038E-001;3.810190036892891E-002;-3.178980201482773E-003;5.770745687186718E-003;
2.406500000000000E+009;1.923145055770874E-001;3.787564113736153E-002;-2.713361056521535E-003;6.053975317627192E-003;
2.406666666666667E+009;1.931649446487427E-001;3.789537400007248E-002;-2.679734490811825E-003;6.044842768460512E-003;
2.406833333333334E+009;1.938640177249908E-001;3.762574866414070E-002;-2.751298947259784E-003;5.709024611860514E-003;
2.407000000000000E+009;1.942490637302399E-001;3.808519989252091E-002;-2.484062453731895E-003;5.405773874372244E-003;
2.407166666666667E+009;1.945230066776276E-001;3.773692995309830E-002;-2.156043425202370E-003;5.358235444873571E-003;
2.407333333333334E+009;1.943168342113495E-001;3.795333206653595E-002;-1.747501199133694E-003;5.801264196634293E-003;
2.407500000000000E+009;1.943708956241608E-001;3.735585883259773E-002;-2.029729308560491E-003;5.745461210608482E-003;
2.407666666666667E+009;1.944486647844315E-001;3.713863715529442E-002;-1.967734424397349E-003;5.744182504713535E-003;
2.407833333333334E+009;1.941397041082382E-001;3.700848668813705E-002;-1.829758519306779E-003;5.550672300159931E-003;
2.408000000000000E+009;1.940901726484299E-001;3.662597760558128E-002;-1.782028004527092E-003;5.717702209949493E-003;
2.408166666666667E+009;1.935984343290329E-001;3.615747764706612E-002;-1.533592469058931E-003;5.590795073658228E-003;
2.408333333333334E+009;1.933248639106751E-001;3.560613840818405E-002;-1.673622638918459E-003;5.705876741558313E-003;
2.408500000000000E+009;1.927044689655304E-001;3.520477563142777E-002;-1.607114681974053E-003;5.548312794417143E-003;
2.408666666666667E+009;1.922242939472199E-001;3.466215729713440E-002;-1.370199839584529E-003;5.668356548994780E-003;
2.408833333333334E+009;1.916977316141129E-001;3.379904851317406E-002;-1.362861134111881E-003;5.831616465002298E-003;
2.409000000000000E+009;1.908640414476395E-001;3.292087092995644E-002;-1.314624096266925E-003;5.734093487262726E-003;
2.409166666666667E+009;1.902772933244705E-001;3.186025843024254E-002;-1.199753838591278E-003;5.556658376008272E-003;
2.409333333333334E+009;1.893469691276550E-001;3.077774867415428E-002;-1.243388513103128E-003;6.056339945644140E-003;
2.409500000000000E+009;1.885954588651657E-001;2.937742322683334E-002;-1.150857075117528E-003;5.848712753504515E-003;
2.409666666666667E+009;1.875807344913483E-001;2.804715558886528E-002;-8.667382644489408E-004;6.093291565775871E-003;
2.409833333333334E+009;1.867342889308929E-001;2.664214745163918E-002;-9.491331875324249E-004;6.162429228425026E-003;
2.410000000000000E+009;1.859521120786667E-001;2.506800182163715E-002;-6.133756251074374E-004;6.258491426706314E-003;
2.410166666666667E+009;1.849820464849472E-001;2.323355525732040E-002;-4.923851811327040E-004;6.336219143122435E-003;
2.410333333333334E+009;1.843082159757614E-001;2.160240896046162E-002;-2.500655537005514E-004;6.422574631869793E-003;
2.410500000000000E+009;1.835532188415527E-001;1.968322508037090E-002;-2.006744398386218E-005;6.433659233152866E-003;
2.410666666666667E+009;1.828140318393707E-001;1.748198084533215E-002;1.081655718735419E-004;6.587417796254158E-003;
2.410833333333334E+009;1.822629272937775E-001;1.539413258433342E-002;4.592015757225454E-004;6.579778157174587E-003;
2.411000000000000E+009;1.815345585346222E-001;1.338192075490952E-002;6.198169430717826E-004;6.349820643663406E-003;
2.411166666666667E+009;1.809696257114410E-001;1.137058716267347E-002;8.213032269850373E-004;6.630674935877323E-003;
2.411333333333334E+009;1.806421428918839E-001;8.862133137881756E-003;1.066837925463915E-003;6.583780050277710E-003;
2.411500000000000E+009;1.800889968872070E-001;6.603124551475048E-003;1.296109636314213E-003;6.542002316564322E-003;
2.411666666666667E+009;1.799081563949585E-001;4.507465753704310E-003;1.414732891134918E-003;6.301570218056440E-003;
2.411833333333334E+009;1.795808374881744E-001;2.268714597448707E-003;1.561992801725864E-003;6.128377281129360E-003;
2.412000000000000E+009;1.798022091388702E-001;-1.795669377315790E-004;1.772783580236137E-003;6.227337289601564E-003;
2.412166666666667E+009;1.799387186765671E-001;-2.319640014320612E-003;1.994571182876825E-003;6.027147639542818E-003;
2.412333333333334E+009;1.799505650997162E-001;-4.776843357831240E-003;2.142522251233459E-003;6.151547655463219E-003;
2.412500000000000E+009;1.803984791040421E-001;-7.106311153620482E-003;2.381557831540704E-003;5.950322374701500E-003;
2.412666666666667E+009;1.809152513742447E-001;-9.597153402864933E-003;2.494016429409385E-003;5.876712035387754E-003;
2.412833333333334E+009;1.815067678689957E-001;-1.173971965909004E-002;2.671523950994015E-003;5.848070606589317E-003;
2.413000000000000E+009;1.820763349533081E-001;-1.394963916391134E-002;2.873293822631240E-003;5.684647709131241E-003;
2.413166666666667E+009;1.828407347202301E-001;-1.593196019530296E-002;2.954514697194099E-003;5.484851542860270E-003;
2.413333333333334E+009;1.840002536773682E-001;-1.807441189885140E-002;3.058222588151693E-003;5.418143700808287E-003;
2.413500000000000E+009;1.845519840717316E-001;-2.043995819985867E-002;3.371622879058123E-003;5.415877792984247E-003;
2.413666666666667E+009;1.856913268566132E-001;-2.236523479223251E-002;3.494015894830227E-003;5.310569424182177E-003;
2.413833333333334E+009;1.866245120763779E-001;-2.437538094818592E-002;3.678702283650637E-003;5.214813631027937E-003;
2.414000000000000E+009;1.875675320625305E-001;-2.611367404460907E-002;3.751424141228199E-003;5.042977631092072E-003;
2.414166666666667E+009;1.887261271476746E-001;-2.800499647855759E-002;3.987069707363844E-003;4.819413181394339E-003;
2.414333333333334E+009;1.896422654390335E-001;-2.985062077641487E-002;4.063991829752922E-003;4.669874906539917E-003;
2.414500000000000E+009;1.908622980117798E-001;-3.118221461772919E-002;4.191691987216473E-003;4.788761492818594E-003;
2.414666666666667E+009;1.917168349027634E-001;-3.256817907094955E-002;4.350085277110338E-003;4.627415910363197E-003;
2.414833333333334E+009;1.928952783346176E-001;-3.403659909963608E-002;4.581357818096876E-003;4.363837186247110E-003;
2.415000000000000E+009;1.938232630491257E-001;-3.536572307348251E-002;4.739030264317989E-003;4.104256629943848E-003;
2.415166666666667E+009;1.950538903474808E-001;-3.638698160648346E-002;4.950347822159529E-003;3.941518254578114E-003;
2.415333333333334E+009;1.959499865770340E-001;-3.720251098275185E-002;5.051301326602697E-003;3.961217589676380E-003;
2.415500000000000E+009;1.968983709812164E-001;-3.815500438213348E-002;5.078830290585756E-003;3.722911002114415E-003;
2.415666666666667E+009;1.978522986173630E-001;-3.909480944275856E-002;5.135308951139450E-003;3.539393655955792E-003;
2.415833333333334E+009;1.985400468111038E-001;-3.971428424119949E-002;5.156990606337786E-003;3.226750995963812E-003;
2.416000000000000E+009;1.992138922214508E-001;-4.042270034551621E-002;5.307839252054691E-003;2.988307969644666E-003;
2.416166666666667E+009;1.998085379600525E-001;-4.116841033101082E-002;5.121745169162750E-003;3.022959455847740E-003;
2.416333333333334E+009;2.003921717405319E-001;-4.134275764226914E-002;5.291623529046774E-003;2.732759341597557E-003;
2.416500000000000E+009;2.006674855947495E-001;-4.167204722762108E-002;5.367562174797058E-003;2.737701637670398E-003;
2.416666666666667E+009;2.010183483362198E-001;-4.228781163692474E-002;5.347426515072584E-003;2.462201518937945E-003;
2.416833333333334E+009;2.011381089687347E-001;-4.244666546583176E-002;5.360037088394165E-003;2.340444596484304E-003;
2.417000000000000E+009;2.012245357036591E-001;-4.254335537552834E-002;5.447212141007185E-003;2.113501308485866E-003;
2.417166666666667E+009;2.008373886346817E-001;-4.268039762973785E-002;5.561490077525377E-003;2.050940878689289E-003;
2.417333333333334E+009;2.006299048662186E-001;-4.267407953739166E-002;5.627496168017387E-003;1.895775552839041E-003;
2.417500000000000E+009;2.003827393054962E-001;-4.276515170931816E-002;5.739304237067699E-003;1.699208281934261E-003;
2.417666666666667E+009;1.998503357172012E-001;-4.271268099546433E-002;5.668431054800749E-003;1.499708276242018E-003;
2.417833333333334E+009;1.994276046752930E-001;-4.264321923255920E-002;5.794966127723455E-003;1.247300882823765E-003;
2.418000000000000E+009;1.989035308361054E-001;-4.247732460498810E-002;5.785020068287849E-003;1.156815676949918E-003;
2.418166666666667E+009;1.981014460325241E-001;-4.254625737667084E-002;5.977454595267773E-003;9.881055448204279E-004;
2.418333333333334E+009;1.973618716001511E-001;-4.254730418324471E-002;5.895281210541725E-003;8.696999284438789E-004;
2.418500000000000E+009;1.964624524116516E-001;-4.271844401955605E-002;5.819388665258884E-003;7.064939127303660E-004;
2.418666666666667E+009;1.955351829528809E-001;-4.268619418144226E-002;5.848638713359833E-003;5.651785177178681E-004;
2.418833333333334E+009;1.944645792245865E-001;-4.290304705500603E-002;5.775459110736847E-003;3.223047242499888E-004;
2.419000000000000E+009;1.933049559593201E-001;-4.331708326935768E-002;5.686373915523291E-003;5.715104998671450E-005;
2.419166666666667E+009;1.921150684356690E-001;-4.370638355612755E-002;5.686722230166197E-003;-2.669600071385503E-004;
2.419333333333334E+009;1.908229589462280E-001;-4.416638240218163E-002;5.603933706879616E-003;-2.278522151755169E-004;
2.419500000000000E+009;1.894660443067551E-001;-4.463272541761398E-002;5.564843304455280E-003;-3.422663721721619E-004;
2.419666666666667E+009;1.880699247121811E-001;-4.553275182843208E-002;5.468402989208698E-003;-4.891700809821487E-004;
2.419833333333334E+009;1.866823732852936E-001;-4.615206643939018E-002;5.428333766758442E-003;-6.658757920376957E-004;
2.420000000000000E+009;1.852029711008072E-001;-4.713029041886330E-002;5.269831046462059E-003;-6.730230525135994E-004;
2.420166666666667E+009;1.837657690048218E-001;-4.795704782009125E-002;5.129893776029348E-003;-7.471379358321428E-004;
2.420333333333334E+009;1.823069155216217E-001;-4.926970228552818E-002;5.157663021236658E-003;-8.597458945587277E-004;
2.420500000000000E+009;1.807340085506439E-001;-5.051469057798386E-002;4.972388036549091E-003;-1.078062108717859E-003;
2.420666666666667E+009;1.793152838945389E-001;-5.156421661376953E-002;5.102434195578098E-003;-1.080323592759669E-003;
2.420833333333334E+009;1.777210533618927E-001;-5.301246047019959E-002;5.103588569909334E-003;-1.054198015481234E-003;
2.421000000000000E+009;1.764198392629623E-001;-5.450222641229630E-002;5.009750369936228E-003;-1.094129402190447E-003;
2.421166666666667E+009;1.751009374856949E-001;-5.614434182643890E-002;5.069433711469173E-003;-1.231390517205000E-003;
2.421333333333334E+009;1.734032183885574E-001;-5.746778473258019E-002;5.073565989732742E-003;-1.390590216033161E-003;
2.421500000000000E+009;1.723809391260147E-001;-5.932774022221565E-002;5.083484575152397E-003;-1.524124643765390E-003;
2.421666666666667E+009;1.711826175451279E-001;-6.110263243317604E-002;4.870566539466381E-003;-1.604037242941558E-003;
2.421833333333334E+009;1.700949817895889E-001;-6.283080577850342E-002;4.834225401282311E-003;-1.780880498699844E-003;
2.422000000000000E+009;1.690083891153336E-001;-6.451204419136047E-002;4.866842180490494E-003;-1.907160854898393E-003;
2.422166666666667E+009;1.682326197624207E-001;-6.672553718090057E-002;4.817324690520763E-003;-2.020560204982758E-003;
2.422333333333334E+009;1.673056334257126E-001;-6.837261468172073E-002;4.807963501662016E-003;-2.085310174152255E-003;
2.422500000000000E+009;1.664837002754211E-001;-7.001120597124100E-002;4.677525255829096E-003;-2.066878601908684E-003;
2.422666666666667E+009;1.658426076173782E-001;-7.210859656333923E-002;4.527550190687180E-003;-2.291760407388210E-003;
2.422833333333334E+009;1.653437316417694E-001;-7.416623830795288E-002;4.468198865652084E-003;-2.477053087204695E-003;
2.423000000000000E+009;1.646524816751480E-001;-7.585583627223969E-002;4.660635720938444E-003;-2.557215513661504E-003;
2.423166666666667E+009;1.643236577510834E-001;-7.769779860973358E-002;4.445740021765232E-003;-2.479969058185816E-003;
2.423333333333334E+009;1.639567017555237E-001;-7.949685305356979E-002;4.402053076773882E-003;-2.691865200176835E-003;
2.423500000000000E+009;1.638141870498657E-001;-8.132454752922058E-002;4.335810896009207E-003;-2.777883317321539E-003;
2.423666666666667E+009;1.638647913932800E-001;-8.310419321060181E-002;4.121594130992889E-003;-2.790799131616950E-003;
2.423833333333334E+009;1.635963618755341E-001;-8.462061733007431E-002;4.126090090721846E-003;-2.868380164727569E-003;
2.424000000000000E+009;1.635823547840118E-001;-8.623954653739929E-002;4.234154243022203E-003;-2.957086078822613E-003;
2.424166666666667E+009;1.635265648365021E-001;-8.789455145597458E-002;4.245548974722624E-003;-3.110518446192145E-003;
2.424333333333334E+009;1.637720614671707E-001;-8.917929232120514E-002;4.051570780575275E-003;-3.190290182828903E-003;
2.424500000000000E+009;1.640662103891373E-001;-9.087035804986954E-002;4.065215121954680E-003;-3.220107872039080E-003;
2.424666666666667E+009;1.641279757022858E-001;-9.212373942136765E-002;3.934221342206001E-003;-3.350780345499516E-003;
2.424833333333334E+009;1.646025329828262E-001;-9.331244975328445E-002;3.932516556233168E-003;-3.462832886725664E-003;
2.425000000000000E+009;1.648498922586441E-001;-9.463278949260712E-002;3.911854233592749E-003;-3.691690275445581E-003;
2.425166666666667E+009;1.649423539638519E-001;-9.568411111831665E-002;3.846867708489299E-003;-3.696860047057271E-003;
2.425333333333334E+009;1.652571707963944E-001;-9.660546481609345E-002;3.792431671172380E-003;-3.896436886861920E-003;
2.425500000000000E+009;1.655876636505127E-001;-9.755805879831314E-002;3.613123437389731E-003;-4.117608536034823E-003;
2.425666666666667E+009;1.659321784973145E-001;-9.819535166025162E-002;3.573276801034808E-003;-4.162603989243507E-003;
2.425833333333334E+009;1.660775393247604E-001;-9.911305457353592E-002;3.414652543142438E-003;-4.406016785651445E-003;
2.426000000000000E+009;1.664167791604996E-001;-9.957696497440338E-002;3.369993763044477E-003;-4.422426689416170E-003;
2.426166666666667E+009;1.667283177375794E-001;-1.001797765493393E-001;3.121382556855679E-003;-4.641382489353418E-003;
2.426333333333334E+009;1.667602658271790E-001;-1.008373424410820E-001;2.972085960209370E-003;-4.670022521167994E-003;
2.426500000000000E+009;1.670331507921219E-001;-1.010535731911659E-001;2.877542050555348E-003;-4.750916734337807E-003;
2.426666666666667E+009;1.672807931900024E-001;-1.015144363045692E-001;2.704136772081256E-003;-4.859552253037691E-003;
2.426833333333334E+009;1.674592494964600E-001;-1.018733084201813E-001;2.515626372769475E-003;-5.014975555241108E-003;
2.427000000000000E+009;1.673980802297592E-001;-1.022627800703049E-001;2.452138345688582E-003;-5.031078122556210E-003;
2.427166666666667E+009;1.674523651599884E-001;-1.024169698357582E-001;2.367742592468858E-003;-5.098184105008841E-003;
2.427333333333334E+009;1.672555506229401E-001;-1.028560176491737E-001;2.159837167710066E-003;-5.131507292389870E-003;
2.427500000000000E+009;1.670452505350113E-001;-1.031259894371033E-001;1.980733592063189E-003;-5.169023759663105E-003;
2.427666666666667E+009;1.666252911090851E-001;-1.033640801906586E-001;1.811197609640658E-003;-5.426519550383091E-003;
2.427833333333334E+009;1.663617193698883E-001;-1.035078018903732E-001;1.714863930828869E-003;-5.394631996750832E-003;
