# Version 1.00
#
freq[Hz];re:Trc1_S11;im:Trc1_S11;re:Trc2_S21;im:Trc2_S21;
2.400000000000000E+009;1.566315293312073E-001;1.051232367753983E-001;-8.068171329796314E-003;-1.697364146821201E-003;
2.400166666666667E+009;1.564921885728836E-001;1.028697267174721E-001;-8.143981918692589E-003;-1.530148205347359E-003;
2.400333333333334E+009;1.565067321062088E-001;1.004976630210877E-001;-8.053736761212349E-003;-1.258271513506770E-003;
2.400500000000000E+009;1.566096395254135E-001;9.799224138259888E-002;-8.029443211853504E-003;-9.400077397003770E-004;
2.400666666666667E+009;1.567208617925644E-001;9.566058218479157E-002;-7.936097681522369E-003;-6.646076217293739E-004;
2.400833333333334E+009;1.568437665700913E-001;9.295746684074402E-002;-8.030431345105171E-003;-5.568687338382006E-004;
2.401000000000000E+009;1.570633202791214E-001;9.040550142526627E-002;-8.068387396633625E-003;-3.232845047023147E-004;
2.401166666666667E+009;1.570792496204376E-001;8.770617097616196E-002;-8.057877421379089E-003;-7.538605859735981E-005;
2.401333333333334E+009;1.576751768589020E-001;8.502641320228577E-002;-7.959261536598206E-003;1.637495151953772E-004;
2.401500000000000E+009;1.580372601747513E-001;8.224353194236755E-002;-7.989284582436085E-003;4.914553137496114E-004;
2.401666666666667E+009;1.582969278097153E-001;7.934671640396118E-002;-8.039616979658604E-003;7.013403810560703E-004;
2.401833333333334E+009;1.588752567768097E-001;7.686466723680496E-002;-7.904287427663803E-003;1.035402179695666E-003;
2.402000000000000E+009;1.595823168754578E-001;7.433027774095535E-002;-7.989678531885147E-003;1.198545098304749E-003;
2.402166666666667E+009;1.604260206222534E-001;7.200917601585388E-002;-7.981391623616219E-003;1.437814324162900E-003;
2.402333333333334E+009;1.611205190420151E-001;6.937456876039505E-002;-7.949279621243477E-003;1.797324046492577E-003;
2.402500000000000E+009;1.623138487339020E-001;6.693855673074722E-002;-7.812060415744782E-003;2.110752509906888E-003;
2.402666666666667E+009;1.632758975028992E-001;6.489782035350800E-002;-7.582555990666151E-003;2.376027405261993E-003;
2.402833333333334E+009;1.644847691059113E-001;6.242764741182327E-002;-7.499464321881533E-003;2.720219548791647E-003;
2.403000000000000E+009;1.659242510795593E-001;6.026789918541908E-002;-7.498529739677906E-003;2.842509420588613E-003;
2.403166666666667E+009;1.674779951572418E-001;5.811235308647156E-002;-7.258236408233643E-003;3.181421430781484E-003;
2.403333333333334E+009;1.686915308237076E-001;5.599974095821381E-002;-7.173266727477312E-003;3.319987095892429E-003;
2.403500000000000E+009;1.702527850866318E-001;5.415975674986839E-002;-7.018364034593105E-003;3.539009718224406E-003;
2.403666666666667E+009;1.719520539045334E-001;5.205522477626801E-002;-6.872043479233980E-003;3.808776615187526E-003;
2.403833333333334E+009;1.732871234416962E-001;5.050519108772278E-002;-6.673843134194613E-003;4.011386539787054E-003;
2.404000000000000E+009;1.747073680162430E-001;4.866359382867813E-002;-6.468092091381550E-003;4.406223073601723E-003;
2.404166666666667E+009;1.764409244060516E-001;4.731036722660065E-002;-6.424095015972853E-003;4.756767768412828E-003;
2.404333333333334E+009;1.778554916381836E-001;4.578528925776482E-002;-5.997673142701387E-003;4.905054345726967E-003;
2.404500000000000E+009;1.793169528245926E-001;4.429471865296364E-002;-6.019760854542255E-003;5.088868550956249E-003;
2.404666666666667E+009;1.807230859994888E-001;4.317401722073555E-002;-5.480720195919275E-003;5.167952738702297E-003;
2.404833333333334E+009;1.822408437728882E-001;4.219167679548264E-002;-5.329142790287733E-003;5.202452652156353E-003;
2.405000000000000E+009;1.833411157131195E-001;4.133870452642441E-002;-5.035405978560448E-003;5.404436029493809E-003;
2.405166666666667E+009;1.846602112054825E-001;4.066911339759827E-002;-4.872726742178202E-003;5.582162179052830E-003;
2.405333333333334E+009;1.858745813369751E-001;4.015706107020378E-002;-4.677992779761553E-003;5.517906975001097E-003;
2.405500000000000E+009;1.873940974473953E-001;3.952733799815178E-002;-4.202410113066435E-003;5.706401076167822E-003;
2.405666666666667E+009;1.883471608161926E-001;3.911101818084717E-002;-4.139253403991461E-003;5.711743142455816E-003;
2.405833333333334E+009;1.897362321615219E-001;3.864079341292381E-002;-3.849003231152892E-003;5.944790784269571E-003;
2.406000000000000E+009;1.905062943696976E-001;3.838963061571121E-002;-3.622898599132896E-003;5.698952823877335E-003;
2.406166666666667E+009;1.913308352231979E-001;3.806974366307259E-002;-3.437002655118704E-003;5.811493378132582E-003;
2.406333333333334E+009;1.923991441726685E-001;3.811614215373993E-002;-3.249644301831722E-003;5.710967350751162E-003;
2.406500000000000E+009;1.930774897336960E-001;3.780911490321159E-002;-2.927648834884167E-003;5.815544631332159E-003;
2.406666666666667E+009;1.936197131872177E-001;3.781870007514954E-002;-2.773124957457185E-003;5.778222810477018E-003;
2.406833333333334E+009;1.940411478281021E-001;3.768766671419144E-002;-2.683002967387438E-003;5.805916152894497E-003;
2.407000000000000E+009;1.943813711404800E-001;3.769052028656006E-002;-2.741605043411255E-003;5.826644599437714E-003;
2.407166666666667E+009;1.947822272777557E-001;3.747884184122086E-002;-2.422609832137823E-003;5.721787922084332E-003;
2.407333333333334E+009;1.946717351675034E-001;3.743148967623711E-002;-2.227083314210177E-003;5.721714347600937E-003;
2.407500000000000E+009;1.947388499975205E-001;3.731976076960564E-002;-2.145956503227353E-003;5.807534325867891E-003;
2.407666666666667E+009;1.948531419038773E-001;3.710629418492317E-002;-2.011431381106377E-003;5.772116128355265E-003;
2.407833333333334E+009;1.944027692079544E-001;3.685715049505234E-002;-1.764897140674293E-003;5.788521375507116E-003;
2.408000000000000E+009;1.943578422069550E-001;3.661688417196274E-002;-1.751516479998827E-003;5.710184574127197E-003;
2.408166666666667E+009;1.938723027706146E-001;3.616519272327423E-002;-1.788405235856772E-003;5.704565439373255E-003;
2.408333333333334E+009;1.936896741390228E-001;3.566485643386841E-002;-1.525894622318447E-003;5.702720955014229E-003;
2.408500000000000E+009;1.930160969495773E-001;3.517201542854309E-002;-1.562343211844564E-003;5.706314928829670E-003;
2.408666666666667E+009;1.924375295639038E-001;3.454219177365303E-002;-1.474648364819586E-003;5.710917990654707E-003;
2.408833333333334E+009;1.920183748006821E-001;3.372876718640328E-002;-1.299466006457806E-003;5.727085750550032E-003;
2.409000000000000E+009;1.910667121410370E-001;3.264483436942101E-002;-1.414743019267917E-003;5.661457311362028E-003;
2.409166666666667E+009;1.903543621301651E-001;3.177123516798019E-002;-1.274831593036652E-003;5.832281894981861E-003;
2.409333333333334E+009;1.896710991859436E-001;3.067983873188496E-002;-1.224570209160447E-003;5.868496838957071E-003;
2.409500000000000E+009;1.887021362781525E-001;2.950052358210087E-002;-1.099811517633498E-003;5.952550098299980E-003;
2.409666666666667E+009;1.878475993871689E-001;2.791131101548672E-002;-9.424183517694473E-004;5.933797918260098E-003;
2.409833333333334E+009;1.868499815464020E-001;2.637097984552383E-002;-8.545914315618575E-004;6.103935651481152E-003;
2.410000000000000E+009;1.860715001821518E-001;2.494964189827442E-002;-8.024264243431389E-004;6.259212736040354E-003;
2.410166666666667E+009;1.852045506238937E-001;2.311485446989536E-002;-3.938336449209601E-004;6.402141414582729E-003;
2.410333333333334E+009;1.843430995941162E-001;2.150345966219902E-002;-1.679352280916646E-004;6.401913240551949E-003;
2.410500000000000E+009;1.834689229726791E-001;1.962796784937382E-002;-1.074323663488030E-004;6.434398237615824E-003;
2.410666666666667E+009;1.828821897506714E-001;1.742469519376755E-002;1.350337843177840E-004;6.464066915214062E-003;
2.410833333333334E+009;1.823254227638245E-001;1.535500772297382E-002;3.128512180410326E-004;6.580191198736429E-003;
2.411000000000000E+009;1.816025972366333E-001;1.314841769635677E-002;6.622161017730832E-004;6.613204255700111E-003;
2.411166666666667E+009;1.810140758752823E-001;1.101924851536751E-002;9.728706791065633E-004;6.421856582164764E-003;
2.411333333333334E+009;1.806998550891876E-001;8.669258095324040E-003;1.060373848304153E-003;6.413013208657503E-003;
2.411500000000000E+009;1.803564727306366E-001;6.538422778248787E-003;1.276558497920632E-003;6.384979002177715E-003;
2.411666666666667E+009;1.801068037748337E-001;4.290416371077299E-003;1.319320057518780E-003;6.149840075522661E-003;
2.411833333333334E+009;1.797237098217011E-001;2.098908880725503E-003;1.552904956042767E-003;6.311056669801474E-003;
2.412000000000000E+009;1.800177991390228E-001;-4.753173561766744E-004;1.798101468011737E-003;6.231121718883514E-003;
2.412166666666667E+009;1.799914985895157E-001;-2.669114386662841E-003;1.977117033675313E-003;6.151672918349505E-003;
2.412333333333334E+009;1.800676882266998E-001;-4.915620200335980E-003;2.179201459512115E-003;6.035102996975184E-003;
2.412500000000000E+009;1.806606650352478E-001;-7.278090342879295E-003;2.372957998886704E-003;6.066232919692993E-003;
2.412666666666667E+009;1.810386180877686E-001;-9.599954821169376E-003;2.600841689854860E-003;5.866880994290113E-003;
2.412833333333334E+009;1.815866380929947E-001;-1.192570291459560E-002;2.623006235808134E-003;5.811173468828201E-003;
2.413000000000000E+009;1.824088841676712E-001;-1.407837308943272E-002;2.763179596513510E-003;5.710632540285587E-003;
2.413166666666667E+009;1.830366253852844E-001;-1.623176038265228E-002;3.022901946678758E-003;5.591446068137884E-003;
2.413333333333334E+009;1.838092952966690E-001;-1.846393384039402E-002;3.069569589570165E-003;5.445873830467463E-003;
2.413500000000000E+009;1.845959722995758E-001;-2.071418240666390E-002;3.265405772253871E-003;5.423589143902063E-003;
2.413666666666667E+009;1.856448650360107E-001;-2.262943238019943E-002;3.501874161884189E-003;5.366484634578228E-003;
2.413833333333334E+009;1.866799145936966E-001;-2.461306005716324E-002;3.641899209469557E-003;5.261200945824385E-003;
2.414000000000000E+009;1.876605749130249E-001;-2.638062089681625E-002;3.770728828385472E-003;5.162868648767471E-003;
2.414166666666667E+009;1.888000965118408E-001;-2.818502858281136E-002;3.915832843631506E-003;5.018737632781267E-003;
2.414333333333334E+009;1.896754652261734E-001;-3.011590242385864E-002;4.048848059028387E-003;4.962684586644173E-003;
2.414500000000000E+009;1.908087879419327E-001;-3.156489506363869E-002;4.269598051905632E-003;4.818801768124104E-003;
2.414666666666667E+009;1.918701231479645E-001;-3.300264477729797E-002;4.442221485078335E-003;4.494451917707920E-003;
2.414833333333334E+009;1.929030567407608E-001;-3.428418561816216E-002;4.634081851691008E-003;4.560349509119988E-003;
2.415000000000000E+009;1.938329488039017E-001;-3.576480597257614E-002;4.614403471350670E-003;4.208130761981010E-003;
2.415166666666667E+009;1.948183923959732E-001;-3.677006810903549E-002;4.933548625558615E-003;4.078496247529984E-003;
2.415333333333334E+009;1.958835422992706E-001;-3.762096166610718E-002;4.763395991176367E-003;4.004026763141155E-003;
2.415500000000000E+009;1.969249844551086E-001;-3.852894529700279E-002;4.943095147609711E-003;3.758232109248638E-003;
2.415666666666667E+009;1.978448927402496E-001;-3.939714655280113E-002;5.056413821876049E-003;3.540912177413702E-003;
2.415833333333334E+009;1.984935700893402E-001;-4.004333540797234E-002;5.288095213472843E-003;3.372669918462634E-003;
2.416000000000000E+009;1.990669667720795E-001;-4.066307097673416E-002;5.186063237488270E-003;3.232230432331562E-003;
2.416166666666667E+009;1.996890604496002E-001;-4.118350893259049E-002;5.274989176541567E-003;3.012961940839887E-003;
2.416333333333334E+009;2.002831101417542E-001;-4.160084575414658E-002;5.440416745841503E-003;2.835392719134688E-003;
2.416500000000000E+009;2.007204592227936E-001;-4.203845933079720E-002;5.369866732507944E-003;2.631270792335272E-003;
2.416666666666667E+009;2.009666860103607E-001;-4.257978871464729E-002;5.407857242971659E-003;2.558796899393201E-003;
2.416833333333334E+009;2.009660005569458E-001;-4.271603003144264E-002;5.452992394566536E-003;2.373016905039549E-003;
2.417000000000000E+009;2.010849714279175E-001;-4.286807030439377E-002;5.425257608294487E-003;2.212537918239832E-003;
2.417166666666667E+009;2.008061856031418E-001;-4.299944266676903E-002;5.528525449335575E-003;2.207021694630384E-003;
2.417333333333334E+009;2.005532830953598E-001;-4.283528774976730E-002;5.708883982151747E-003;1.886738464236260E-003;
2.417500000000000E+009;2.003412693738937E-001;-4.307236149907112E-002;5.734788719564676E-003;1.907065859995782E-003;
2.417666666666667E+009;1.998092681169510E-001;-4.295793175697327E-002;5.837342236191034E-003;1.707876101136208E-003;
2.417833333333334E+009;1.993328779935837E-001;-4.290572553873062E-002;5.743711255490780E-003;1.458166399970651E-003;
2.418000000000000E+009;1.987268030643463E-001;-4.267972335219383E-002;6.071379408240318E-003;1.265656785108149E-003;
2.418166666666667E+009;1.979710161685944E-001;-4.275681450963020E-002;5.816153716295958E-003;1.100797904655337E-003;
2.418333333333334E+009;1.971140354871750E-001;-4.283273592591286E-002;5.964721087366343E-003;7.732652593404055E-004;
2.418500000000000E+009;1.963170617818832E-001;-4.292616620659828E-002;5.785150919109583E-003;5.887867882847786E-004;
2.418666666666667E+009;1.954990923404694E-001;-4.296912997961044E-002;5.784304812550545E-003;4.370831593405455E-004;
2.418833333333334E+009;1.942274868488312E-001;-4.324982687830925E-002;5.673084408044815E-003;3.056139394175261E-004;
2.419000000000000E+009;1.932246536016464E-001;-4.350024089217186E-002;5.741783417761326E-003;1.689977216301486E-004;
2.419166666666667E+009;1.919903606176376E-001;-4.385609552264214E-002;5.754584912210703E-003;-2.498805588402320E-005;
2.419333333333334E+009;1.905550062656403E-001;-4.448560252785683E-002;5.601739976555109E-003;-5.987738040857948E-005;
2.419500000000000E+009;1.893602162599564E-001;-4.484971240162849E-002;5.651135463267565E-003;-2.895980142056942E-004;
2.419666666666667E+009;1.878022998571396E-001;-4.567880928516388E-002;5.458349362015724E-003;-4.635654913727194E-004;
2.419833333333334E+009;1.864481121301651E-001;-4.624100401997566E-002;5.379289854317904E-003;-6.214546156115830E-004;
2.420000000000000E+009;1.850386559963226E-001;-4.733327776193619E-002;5.382119212299585E-003;-8.228093502111733E-004;
2.420166666666667E+009;1.834362447261810E-001;-4.814964905381203E-002;5.222877021878958E-003;-7.542016101069748E-004;
2.420333333333334E+009;1.820463091135025E-001;-4.955341294407845E-002;5.149956792593002E-003;-8.516890229657292E-004;
2.420500000000000E+009;1.804054975509644E-001;-5.060321837663651E-002;5.011046770960093E-003;-7.909257546998560E-004;
2.420666666666667E+009;1.790337711572647E-001;-5.177233740687370E-002;5.105273798108101E-003;-8.958732942119241E-004;
2.420833333333334E+009;1.775729507207871E-001;-5.314097553491592E-002;5.143287591636181E-003;-1.069843070581555E-003;
2.421000000000000E+009;1.762592196464539E-001;-5.457096174359322E-002;4.970520734786987E-003;-1.137263490818441E-003;
2.421166666666667E+009;1.748601943254471E-001;-5.617064237594605E-002;5.090997554361820E-003;-1.180483610369265E-003;
2.421333333333334E+009;1.732691377401352E-001;-5.761265382170677E-002;5.041529890149832E-003;-1.365150790661573E-003;
2.421500000000000E+009;1.722215861082077E-001;-5.943808332085609E-002;4.993448033928871E-003;-1.456834725104272E-003;
2.421666666666667E+009;1.708987802267075E-001;-6.114992126822472E-002;4.977038130164146E-003;-1.622669515199959E-003;
2.421833333333334E+009;1.697906553745270E-001;-6.283946335315704E-002;4.979608580470085E-003;-1.680346089415252E-003;
2.422000000000000E+009;1.687177717685700E-001;-6.462554633617401E-002;4.939589649438858E-003;-1.760994317010045E-003;
2.422166666666667E+009;1.681001782417297E-001;-6.659390777349472E-002;4.858803469687700E-003;-1.925702323205769E-003;
2.422333333333334E+009;1.669945716857910E-001;-6.825399398803711E-002;4.807557910680771E-003;-2.225594129413366E-003;
2.422500000000000E+009;1.661936491727829E-001;-7.027077674865723E-002;4.785262979567051E-003;-2.257643733173609E-003;
2.422666666666667E+009;1.655750721693039E-001;-7.211144268512726E-002;4.788956139236689E-003;-2.181256888434291E-003;
2.422833333333334E+009;1.649197936058044E-001;-7.394067198038101E-002;4.601951222866774E-003;-2.431097440421581E-003;
2.423000000000000E+009;1.645490527153015E-001;-7.580669969320297E-002;4.470703192055225E-003;-2.474343637004495E-003;
2.423166666666667E+009;1.640513390302658E-001;-7.767494022846222E-002;4.500749520957470E-003;-2.504717558622360E-003;
2.423333333333334E+009;1.636291295289993E-001;-7.957871258258820E-002;4.404364153742790E-003;-2.595867495983839E-003;
2.423500000000000E+009;1.635185629129410E-001;-8.118469268083572E-002;4.283092450350523E-003;-2.780267503112555E-003;
2.423666666666667E+009;1.635584235191345E-001;-8.282071352005005E-002;4.171872977167368E-003;-2.828991739079356E-003;
2.423833333333334E+009;1.633290052413940E-001;-8.464105427265167E-002;4.290723707526922E-003;-2.879029838368297E-003;
2.424000000000000E+009;1.633155494928360E-001;-8.629544824361801E-002;4.388626664876938E-003;-2.812312450259924E-003;
2.424166666666667E+009;1.634047180414200E-001;-8.773632347583771E-002;4.100680816918612E-003;-3.029269166290760E-003;
2.424333333333334E+009;1.634207516908646E-001;-8.915460854768753E-002;4.237138666212559E-003;-3.239996032789350E-003;
2.424500000000000E+009;1.636500060558319E-001;-9.078092873096466E-002;4.190679639577866E-003;-3.405386582016945E-003;
2.424666666666667E+009;1.639076322317123E-001;-9.207239747047424E-002;4.181941971182823E-003;-3.502426669001579E-003;
2.424833333333334E+009;1.644037216901779E-001;-9.332282096147537E-002;3.949177451431751E-003;-3.526860615238547E-003;
2.425000000000000E+009;1.645221114158630E-001;-9.447855502367020E-002;3.954439423978329E-003;-3.610521787777543E-003;
2.425166666666667E+009;1.648805886507034E-001;-9.557490795850754E-002;3.837096970528364E-003;-3.855807008221746E-003;
2.425333333333334E+009;1.650429815053940E-001;-9.652711451053619E-002;3.757869359105825E-003;-3.873717505484819E-003;
2.425500000000000E+009;1.654579490423203E-001;-9.752976894378662E-002;3.568412968888879E-003;-4.129266366362572E-003;
2.425666666666667E+009;1.656860262155533E-001;-9.819857776165009E-002;3.560598939657211E-003;-4.189288709312677E-003;
2.425833333333334E+009;1.659850776195526E-001;-9.907601028680801E-002;3.408035729080439E-003;-4.383819177746773E-003;
2.426000000000000E+009;1.662520170211792E-001;-9.960918128490448E-002;3.319889074191451E-003;-4.525000695139170E-003;
2.426166666666667E+009;1.666135042905808E-001;-1.000037491321564E-001;3.218785626813769E-003;-4.643635358661413E-003;
2.426333333333334E+009;1.665654033422470E-001;-1.005837470293045E-001;3.020232077687979E-003;-4.712749738246203E-003;
2.426500000000000E+009;1.669683903455734E-001;-1.011220514774323E-001;2.984011312946677E-003;-4.805646371096373E-003;
2.426666666666667E+009;1.669843494892120E-001;-1.013948991894722E-001;2.709956141188741E-003;-4.841323941946030E-003;
2.426833333333334E+009;1.672634035348892E-001;-1.018039509654045E-001;2.643227111548185E-003;-4.918027669191361E-003;
2.427000000000000E+009;1.671919822692871E-001;-1.021447628736496E-001;2.530190628021956E-003;-5.152110941708088E-003;
2.427166666666667E+009;1.671830117702484E-001;-1.023366227746010E-001;2.348248381167650E-003;-5.190578754991293E-003;
2.427333333333334E+009;1.670668572187424E-001;-1.026994735002518E-001;2.095478586852551E-003;-5.363295786082745E-003;
2.427500000000000E+009;1.668535470962524E-001;-1.030388772487640E-001;2.087367465719581E-003;-5.271686241030693E-003;
2.427666666666667E+009;1.665246337652206E-001;-1.031461954116821E-001;1.818841090425849E-003;-5.336506292223930E-003;
2.427833333333334E+009;1.661485135555267E-001;-1.034300401806831E-001;1.718285144306719E-003;-5.358262453228235E-003;
