# Version 1.00
#
freq[Hz];re:Trc1_S11;im:Trc1_S11;re:Trc2_S21;im:Trc2_S21;
2.400000000000000E+009;1.552699804306030E-001;6.155274435877800E-002;-4.286781884729862E-003;-2.062004059553146E-003;
2.400166666666667E+009;1.552589833736420E-001;5.977543070912361E-002;-3.980823792517185E-003;-2.435183618217707E-003;
2.400333333333334E+009;1.552462726831436E-001;5.758921429514885E-002;-4.731123801320791E-003;-1.831646659411490E-003;
2.400500000000000E+009;1.553658843040466E-001;5.547801032662392E-002;-4.099017009139061E-003;-2.173072192817926E-003;
2.400666666666667E+009;1.556091457605362E-001;5.325852334499359E-002;-4.734054673463106E-003;-1.878450624644756E-003;
2.400833333333334E+009;1.558960378170013E-001;5.122655630111694E-002;-4.411597736179829E-003;-1.495824428275228E-003;
2.401000000000000E+009;1.560842543840408E-001;4.894078150391579E-002;-3.966212272644043E-003;-8.496320806443691E-004;
2.401166666666667E+009;1.564691066741943E-001;4.672139883041382E-002;-3.845703555271030E-003;-1.538460492156446E-003;
2.401333333333334E+009;1.569249927997589E-001;4.442992061376572E-002;-4.578310064971447E-003;-1.508861896581948E-003;
2.401500000000000E+009;1.575255542993546E-001;4.240957647562027E-002;-4.383735358715057E-003;-8.493302157148719E-004;
2.401666666666667E+009;1.580149829387665E-001;4.033346101641655E-002;-3.888620994985104E-003;-1.166947185993195E-003;
2.401833333333334E+009;1.585795581340790E-001;3.810126334428787E-002;-4.190801177173853E-003;-8.482391131110489E-004;
2.402000000000000E+009;1.590566337108612E-001;3.612155094742775E-002;-4.250302445143461E-003;-8.415147312916815E-004;
2.402166666666667E+009;1.600330621004105E-001;3.409577533602715E-002;-4.542821552604437E-003;-9.290745947510004E-004;
2.402333333333334E+009;1.608092784881592E-001;3.223843500018120E-002;-4.223088733851910E-003;-9.395620436407626E-004;
2.402500000000000E+009;1.617441624403000E-001;3.036586940288544E-002;-4.521017428487539E-003;-6.019466090947390E-004;
2.402666666666667E+009;1.626987457275391E-001;2.877603285014629E-002;-4.318943712860346E-003;-8.440237143076956E-004;
2.402833333333334E+009;1.635438352823257E-001;2.706923335790634E-002;-4.489095415920019E-003;-5.143717280589044E-004;
2.403000000000000E+009;1.646124273538590E-001;2.561660669744015E-002;-4.642230458557606E-003;-4.609344759956002E-004;
2.403166666666667E+009;1.655621677637100E-001;2.395085990428925E-002;-4.365925211459398E-003;-2.491999475751072E-004;
2.403333333333334E+009;1.667767614126205E-001;2.277330681681633E-002;-4.437191877514124E-003;-3.006044134963304E-004;
2.403500000000000E+009;1.677161753177643E-001;2.151285856962204E-002;-4.521708469837904E-003;-1.937575289048255E-004;
2.403666666666667E+009;1.689493358135223E-001;2.025936916470528E-002;-4.657987505197525E-003;-1.477291807532311E-004;
2.403833333333334E+009;1.701895147562027E-001;1.923612132668495E-002;-4.580737091600895E-003;5.769841209257720E-006;
2.404000000000000E+009;1.711248755455017E-001;1.836344599723816E-002;-4.606944043189287E-003;1.247870823135600E-004;
2.404166666666667E+009;1.721566915512085E-001;1.732129231095314E-002;-4.457076545804739E-003;2.864974667318165E-004;
2.404333333333334E+009;1.732344925403595E-001;1.669714413583279E-002;-4.581896122545004E-003;2.214824780821800E-004;
2.404500000000000E+009;1.741446554660797E-001;1.579579524695873E-002;-4.453422967344523E-003;3.304691636003554E-004;
2.404666666666667E+009;1.752737760543823E-001;1.525176037102938E-002;-4.761513322591782E-003;6.025198381394148E-004;
2.404833333333334E+009;1.761422902345657E-001;1.463679783046246E-002;-4.517573397606611E-003;6.694437470287085E-004;
2.405000000000000E+009;1.769482493400574E-001;1.427369937300682E-002;-4.592070356011391E-003;6.691837916150689E-004;
2.405166666666667E+009;1.776103079319000E-001;1.371682714670897E-002;-4.610679112374783E-003;1.029720180667937E-003;
2.405333333333334E+009;1.785048842430115E-001;1.334593631327152E-002;-4.467564169317484E-003;9.647735278122127E-004;
2.405500000000000E+009;1.792235970497131E-001;1.331819593906403E-002;-4.599819891154766E-003;1.101858681067824E-003;
2.405666666666667E+009;1.797096878290176E-001;1.296496484428644E-002;-4.570492543280125E-003;1.324644195847213E-003;
2.405833333333334E+009;1.800424158573151E-001;1.293686032295227E-002;-4.478415474295616E-003;1.441707485355437E-003;
2.406000000000000E+009;1.805525720119476E-001;1.254157070070505E-002;-4.447909537702799E-003;1.507890410721302E-003;
2.406166666666667E+009;1.806493103504181E-001;1.255818828940392E-002;-4.389859270304442E-003;1.671639853157103E-003;
2.406333333333334E+009;1.809447556734085E-001;1.232197787612677E-002;-4.266027361154556E-003;1.747214701026678E-003;
2.406500000000000E+009;1.811648756265640E-001;1.220433134585619E-002;-4.255311563611031E-003;1.876566908322275E-003;
2.406666666666667E+009;1.809490323066711E-001;1.217420212924480E-002;-4.222807940095663E-003;2.060949103906751E-003;
2.406833333333334E+009;1.809771656990051E-001;1.187932398170233E-002;-4.189108032733202E-003;2.102516125887632E-003;
2.407000000000000E+009;1.808201074600220E-001;1.159386243671179E-002;-4.004531074315310E-003;2.321495907381177E-003;
2.407166666666667E+009;1.807577461004257E-001;1.139909029006958E-002;-4.114160779863596E-003;2.254008781164885E-003;
2.407333333333334E+009;1.803198158740997E-001;1.091904193162918E-002;-3.840516321361065E-003;2.394306706264615E-003;
2.407500000000000E+009;1.799184381961823E-001;1.052792742848396E-002;-3.916905261576176E-003;2.418120624497533E-003;
2.407666666666667E+009;1.795198321342468E-001;1.012553367763758E-002;-3.853611182421446E-003;2.539856359362602E-003;
2.407833333333334E+009;1.787613928318024E-001;9.407827630639076E-003;-3.774766111746430E-003;2.696152776479721E-003;
2.408000000000000E+009;1.782811582088471E-001;8.945573121309280E-003;-3.666099626570940E-003;2.749110572040081E-003;
2.408166666666667E+009;1.775889396667481E-001;8.189635351300240E-003;-3.609594656154513E-003;2.915485762059689E-003;
2.408333333333334E+009;1.770501285791397E-001;7.439983543008566E-003;-3.595693269744515E-003;2.784109907224774E-003;
2.408500000000000E+009;1.761451661586762E-001;6.467030849307776E-003;-3.577417228370905E-003;3.069648519158363E-003;
2.408666666666667E+009;1.754418760538101E-001;5.408654920756817E-003;-3.483237000182271E-003;3.023697063326836E-003;
2.408833333333334E+009;1.744776666164398E-001;4.383430350571871E-003;-3.339900868013501E-003;3.158049890771508E-003;
2.409000000000000E+009;1.737327277660370E-001;3.140680026262999E-003;-3.342383075505495E-003;3.004234749823809E-003;
2.409166666666667E+009;1.729498058557510E-001;1.752503914758563E-003;-3.172941971570253E-003;3.103200346231461E-003;
2.409333333333334E+009;1.723212301731110E-001;3.340305702295154E-004;-3.048478392884135E-003;3.316044341772795E-003;
2.409500000000000E+009;1.713578253984451E-001;-1.316478825174272E-003;-3.025987884029746E-003;3.339499700814486E-003;
2.409666666666667E+009;1.705542802810669E-001;-2.694456838071346E-003;-2.992839086800814E-003;3.463923465460539E-003;
2.409833333333334E+009;1.698595285415649E-001;-4.266159608960152E-003;-2.795621752738953E-003;3.322602249681950E-003;
2.410000000000000E+009;1.692765206098557E-001;-6.091595161706209E-003;-2.829452510923147E-003;3.528204280883074E-003;
2.410166666666667E+009;1.686699986457825E-001;-7.899443618953228E-003;-2.768105827271938E-003;3.507249988615513E-003;
2.410333333333334E+009;1.681156307458878E-001;-9.758061729371548E-003;-2.600282663479447E-003;3.539727302268148E-003;
2.410500000000000E+009;1.676942855119705E-001;-1.166963018476963E-002;-2.615669742226601E-003;3.683956339955330E-003;
2.410666666666667E+009;1.669668853282929E-001;-1.375412475317717E-002;-2.515827072784305E-003;3.440539818257093E-003;
2.410833333333334E+009;1.668090969324112E-001;-1.552383508533239E-002;-2.512493636459112E-003;3.901187796145678E-003;
2.411000000000000E+009;1.664056777954102E-001;-1.771337538957596E-002;-2.406680490821600E-003;3.702318528667092E-003;
2.411166666666667E+009;1.662553995847702E-001;-1.982519403100014E-002;-2.386020729318261E-003;3.770525800064206E-003;
2.411333333333334E+009;1.661286950111389E-001;-2.198731899261475E-002;-2.395652933046222E-003;3.834358183667064E-003;
2.411500000000000E+009;1.662587821483612E-001;-2.406559698283672E-002;-2.266792347654700E-003;3.886134829372168E-003;
2.411666666666667E+009;1.661853939294815E-001;-2.618319727480412E-002;-2.316584577783942E-003;4.016013815999031E-003;
2.411833333333334E+009;1.664076894521713E-001;-2.812221460044384E-002;-2.112123649567366E-003;4.143435508012772E-003;
2.412000000000000E+009;1.667377948760986E-001;-3.020968101918697E-002;-2.095800358802080E-003;4.218373447656632E-003;
2.412166666666667E+009;1.669654101133347E-001;-3.227591142058373E-002;-1.919196802191436E-003;4.267411306500435E-003;
2.412333333333334E+009;1.676468849182129E-001;-3.407076746225357E-002;-1.948516932316124E-003;4.275421611964703E-003;
2.412500000000000E+009;1.678452789783478E-001;-3.602984175086021E-002;-1.730354852043092E-003;4.484845325350761E-003;
2.412666666666667E+009;1.685640364885330E-001;-3.823733329772949E-002;-1.770063885487616E-003;4.538990091532469E-003;
2.412833333333334E+009;1.691822707653046E-001;-4.003750532865524E-002;-1.612685387954116E-003;4.578424151986837E-003;
2.413000000000000E+009;1.696397066116333E-001;-4.166939109563828E-002;-1.638680696487427E-003;4.628089722245932E-003;
2.413166666666667E+009;1.702072024345398E-001;-4.328266158699989E-002;-1.447130809538066E-003;4.780528601258993E-003;
2.413333333333334E+009;1.709676384925842E-001;-4.494743421673775E-002;-1.269744127057493E-003;4.894621204584837E-003;
2.413500000000000E+009;1.716622263193131E-001;-4.669845104217529E-002;-1.175899058580399E-003;4.997992888092995E-003;
2.413666666666667E+009;1.725397408008575E-001;-4.805121570825577E-002;-1.201672712340951E-003;4.935407545417547E-003;
2.413833333333334E+009;1.731813997030258E-001;-4.933568835258484E-002;-9.334093774668872E-004;5.144260823726654E-003;
2.414000000000000E+009;1.737892031669617E-001;-5.069181695580483E-002;-7.978206849656999E-004;5.204829387366772E-003;
2.414166666666667E+009;1.748559027910233E-001;-5.175892636179924E-002;-5.061686388216913E-004;5.325710866600275E-003;
2.414333333333334E+009;1.753706037998200E-001;-5.288058146834374E-002;-4.589659220073372E-004;5.388490855693817E-003;
2.414500000000000E+009;1.761600077152252E-001;-5.373476818203926E-002;-3.513036062940955E-004;5.317771341651678E-003;
2.414666666666667E+009;1.767690032720566E-001;-5.467803403735161E-002;-5.133214290253818E-005;5.200675688683987E-003;
2.414833333333334E+009;1.772999167442322E-001;-5.538681894540787E-002;1.677096006460488E-004;5.419296212494373E-003;
2.415000000000000E+009;1.776741445064545E-001;-5.613277852535248E-002;3.094611165579408E-004;5.469676107168198E-003;
2.415166666666667E+009;1.782443970441818E-001;-5.668675899505615E-002;4.578335501719266E-004;5.558827426284552E-003;
2.415333333333334E+009;1.788312792778015E-001;-5.725562199950218E-002;6.478732684627175E-004;5.414382554590702E-003;
2.415500000000000E+009;1.790041178464890E-001;-5.758904293179512E-002;9.230210562236607E-004;5.665114149451256E-003;
2.415666666666667E+009;1.792630404233933E-001;-5.784168466925621E-002;9.620228665880859E-004;5.613943096250296E-003;
2.415833333333334E+009;1.794872581958771E-001;-5.817482247948647E-002;1.259015058167279E-003;5.381715018302202E-003;
2.416000000000000E+009;1.793986558914185E-001;-5.860526859760284E-002;1.444532186724246E-003;5.448027513921261E-003;
2.416166666666667E+009;1.795217692852020E-001;-5.864901840686798E-002;1.624336466193199E-003;5.365554708987474E-003;
2.416333333333334E+009;1.793855130672455E-001;-5.873109400272369E-002;1.823207829147577E-003;5.445390008389950E-003;
2.416500000000000E+009;1.791037917137146E-001;-5.895088985562325E-002;1.989327371120453E-003;5.329854320734739E-003;
2.416666666666667E+009;1.786435097455978E-001;-5.892547965049744E-002;2.130918903276324E-003;5.293366033583880E-003;
2.416833333333334E+009;1.784258186817169E-001;-5.915680527687073E-002;2.264208858832717E-003;5.241400096565485E-003;
2.417000000000000E+009;1.776890456676483E-001;-5.930552259087563E-002;2.460498129948974E-003;5.184864159673452E-003;
2.417166666666667E+009;1.770987063646317E-001;-5.930514633655548E-002;2.610569819808006E-003;4.980296827852726E-003;
2.417333333333334E+009;1.763940453529358E-001;-5.935341492295265E-002;2.717051422223449E-003;5.037164315581322E-003;
2.417500000000000E+009;1.755373030900955E-001;-5.971585959196091E-002;2.840439090505242E-003;4.858057945966721E-003;
2.417666666666667E+009;1.746327579021454E-001;-5.955360084772110E-002;3.053233725950122E-003;4.782732576131821E-003;
2.417833333333334E+009;1.735645383596420E-001;-5.985467880964279E-002;3.278155578300357E-003;4.637753590941429E-003;
2.418000000000000E+009;1.725033223628998E-001;-6.028028577566147E-002;3.365938086062670E-003;4.505745600908995E-003;
2.418166666666667E+009;1.713702827692032E-001;-6.040172651410103E-002;3.681657835841179E-003;4.543320275843144E-003;
2.418333333333334E+009;1.703429073095322E-001;-6.102497503161430E-002;3.597170347347856E-003;4.368089605122805E-003;
2.418500000000000E+009;1.690419763326645E-001;-6.147162616252899E-002;3.802160499617457E-003;4.204468801617622E-003;
2.418666666666667E+009;1.677621901035309E-001;-6.195465102791786E-002;3.926345147192478E-003;4.185720346868038E-003;
2.418833333333334E+009;1.662927865982056E-001;-6.257545948028565E-002;4.096040967851877E-003;3.781346371397376E-003;
2.419000000000000E+009;1.649448275566101E-001;-6.333193182945252E-002;4.204912111163139E-003;3.757889615371823E-003;
2.419166666666667E+009;1.635497510433197E-001;-6.421618908643723E-002;4.293824080377817E-003;3.723612520843744E-003;
2.419333333333334E+009;1.620957851409912E-001;-6.468407809734345E-002;4.315690137445927E-003;3.594043431803584E-003;
2.419500000000000E+009;1.608807295560837E-001;-6.586541980504990E-002;4.439159762114286E-003;3.495806595310569E-003;
2.419666666666667E+009;1.595867872238159E-001;-6.704206019639969E-002;4.545107949525118E-003;3.264798084273934E-003;
2.419833333333334E+009;1.581438630819321E-001;-6.795673072338104E-002;4.711221903562546E-003;3.143212525174022E-003;
2.420000000000000E+009;1.571395099163055E-001;-6.928271055221558E-002;4.703552462160587E-003;3.039703238755465E-003;
2.420166666666667E+009;1.557335406541824E-001;-7.073307782411575E-002;4.807330667972565E-003;2.850296208634973E-003;
2.420333333333334E+009;1.548774391412735E-001;-7.211384922266007E-002;4.927892237901688E-003;2.680489793419838E-003;
2.420500000000000E+009;1.538072079420090E-001;-7.337097823619843E-002;5.023498088121414E-003;2.485463395714760E-003;
2.420666666666667E+009;1.526063233613968E-001;-7.491534948348999E-002;4.973306786268950E-003;2.369570545852184E-003;
2.420833333333334E+009;1.518861949443817E-001;-7.652110606431961E-002;5.001376383006573E-003;2.218245761469007E-003;
2.421000000000000E+009;1.510475575923920E-001;-7.828599959611893E-002;5.159924738109112E-003;2.107818843796849E-003;
2.421166666666667E+009;1.503202617168427E-001;-7.986728847026825E-002;5.235886201262474E-003;1.894936198368669E-003;
2.421333333333334E+009;1.498889178037643E-001;-8.173786103725433E-002;5.205068271607161E-003;1.766742439940572E-003;
2.421500000000000E+009;1.490918248891830E-001;-8.339286595582962E-002;5.272110924124718E-003;1.706157810986042E-003;
2.421666666666667E+009;1.488020718097687E-001;-8.513887971639633E-002;5.370531696826220E-003;1.400858862325549E-003;
2.421833333333334E+009;1.483658850193024E-001;-8.703429996967316E-002;5.382122006267309E-003;1.170364790596068E-003;
2.422000000000000E+009;1.481148153543472E-001;-8.891320228576660E-002;5.178977269679308E-003;1.155664678663015E-003;
2.422166666666667E+009;1.480942219495773E-001;-9.071115404367447E-002;5.301030818372965E-003;9.077075519599021E-004;
2.422333333333334E+009;1.479598283767700E-001;-9.249553829431534E-002;5.150772165507078E-003;8.420214289799333E-004;
2.422500000000000E+009;1.481849253177643E-001;-9.410848468542099E-002;5.402481649070978E-003;5.820291698910296E-004;
2.422666666666667E+009;1.481680124998093E-001;-9.602414816617966E-002;5.387189332395792E-003;3.394541854504496E-004;
2.422833333333334E+009;1.484343409538269E-001;-9.784524142742157E-002;5.244477652013302E-003;3.098990418948233E-004;
2.423000000000000E+009;1.485089361667633E-001;-9.938346594572067E-002;5.336880218237639E-003;1.154608617071062E-004;
2.423166666666667E+009;1.490384191274643E-001;-1.010101512074471E-001;5.281040910631418E-003;6.795112858526409E-005;
2.423333333333334E+009;1.496457159519196E-001;-1.024676635861397E-001;5.218520760536194E-003;-1.488415728090331E-004;
2.423500000000000E+009;1.499796211719513E-001;-1.040571555495262E-001;5.296639632433653E-003;-3.554553259164095E-004;
2.423666666666667E+009;1.505309939384460E-001;-1.055850461125374E-001;5.319758318364620E-003;-3.158368926960975E-004;
2.423833333333334E+009;1.512690037488937E-001;-1.069364324212074E-001;5.200639832764864E-003;-5.755074089393020E-004;
2.424000000000000E+009;1.516106873750687E-001;-1.080526411533356E-001;5.110477097332478E-003;-5.821045488119125E-004;
2.424166666666667E+009;1.522157490253449E-001;-1.093028634786606E-001;5.143416114151478E-003;-9.299699449911714E-004;
2.424333333333334E+009;1.528533846139908E-001;-1.104068532586098E-001;5.188097245991230E-003;-8.716010488569737E-004;
2.424500000000000E+009;1.535876244306564E-001;-1.113451123237610E-001;4.977389704436064E-003;-1.091800513677299E-003;
2.424666666666667E+009;1.542354822158814E-001;-1.121430173516274E-001;5.099380854517222E-003;-1.219772035256028E-003;
2.424833333333334E+009;1.546890586614609E-001;-1.130696088075638E-001;5.043787881731987E-003;-1.323449774645269E-003;
2.425000000000000E+009;1.554005146026611E-001;-1.139448583126068E-001;4.932835698127747E-003;-1.523722195997834E-003;
2.425166666666667E+009;1.556881815195084E-001;-1.145148500800133E-001;4.857279360294342E-003;-1.726609421893954E-003;
2.425333333333334E+009;1.562374234199524E-001;-1.151044741272926E-001;4.837752319872379E-003;-1.759072416462004E-003;
2.425500000000000E+009;1.567410379648209E-001;-1.156107410788536E-001;4.751567263156176E-003;-1.845153514295816E-003;
2.425666666666667E+009;1.569257825613022E-001;-1.160007119178772E-001;4.647899884730578E-003;-1.968894852325320E-003;
2.425833333333334E+009;1.573731750249863E-001;-1.164091527462006E-001;4.713695961982012E-003;-2.371844835579395E-003;
2.426000000000000E+009;1.574780344963074E-001;-1.167054176330566E-001;4.621366038918495E-003;-2.441427204757929E-003;
2.426166666666667E+009;1.577241569757462E-001;-1.168834194540978E-001;4.549783654510975E-003;-2.525790827348828E-003;
2.426333333333334E+009;1.576025933027268E-001;-1.170562207698822E-001;4.468045197427273E-003;-2.798351459205151E-003;
2.426500000000000E+009;1.575992256402969E-001;-1.170725226402283E-001;4.388935398310423E-003;-2.823802642524242E-003;
2.426666666666667E+009;1.574951559305191E-001;-1.170171499252319E-001;4.272388294339180E-003;-2.777472371235490E-003;
2.426833333333334E+009;1.571928709745407E-001;-1.171627044677734E-001;4.167916253209114E-003;-3.029431216418743E-003;
2.427000000000000E+009;1.567600816488266E-001;-1.172314360737801E-001;4.166813101619482E-003;-3.164922352880240E-003;
2.427166666666667E+009;1.562504768371582E-001;-1.172687783837318E-001;3.881085896864533E-003;-3.310983767732978E-003;
2.427333333333334E+009;1.557038128376007E-001;-1.171727627515793E-001;3.830972360447049E-003;-3.407904645428062E-003;
2.427500000000000E+009;1.551477015018463E-001;-1.172353476285934E-001;3.783205756917596E-003;-3.453119192272425E-003;
2.427666666666667E+009;1.542367488145828E-001;-1.172990575432777E-001;3.554256865754724E-003;-3.611583029851317E-003;
2.427833333333334E+009;1.532054990530014E-001;-1.173444539308548E-001;3.504840889945626E-003;-3.781150793656707E-003;
