# Version 1.00
#
freq[Hz];re:Trc1_S11;im:Trc1_S11;re:Trc2_S21;im:Trc2_S21;
2.400000000000000E+009;1.551767587661743E-001;6.161540746688843E-002;-4.206690471619368E-003;-2.207182813435793E-003;
2.400166666666667E+009;1.553428620100021E-001;5.980165302753449E-002;-4.458692856132984E-003;-2.011476317420602E-003;
2.400333333333334E+009;1.552467793226242E-001;5.780056491494179E-002;-4.323036875575781E-003;-1.903691678307951E-003;
2.400500000000000E+009;1.554991304874420E-001;5.543547496199608E-002;-4.432712681591511E-003;-1.775814918801189E-003;
2.400666666666667E+009;1.555140763521195E-001;5.358058959245682E-002;-4.339095670729876E-003;-1.721960958093405E-003;
2.400833333333334E+009;1.557989120483398E-001;5.126120150089264E-002;-4.501917399466038E-003;-1.585705322213471E-003;
2.401000000000000E+009;1.559728533029556E-001;4.910821840167046E-002;-4.486276768147945E-003;-1.307195983827114E-003;
2.401166666666667E+009;1.564055383205414E-001;4.668226093053818E-002;-4.500369075685740E-003;-1.317341462709010E-003;
2.401333333333334E+009;1.567777693271637E-001;4.453936591744423E-002;-4.641171544790268E-003;-1.240596175193787E-003;
2.401500000000000E+009;1.574189066886902E-001;4.239116236567497E-002;-4.608670249581337E-003;-1.147848553955555E-003;
2.401666666666667E+009;1.580045074224472E-001;4.036353155970573E-002;-4.426226485520601E-003;-1.054422697052360E-003;
2.401833333333334E+009;1.585009098052979E-001;3.817671909928322E-002;-4.470933228731155E-003;-9.158002794720233E-004;
2.402000000000000E+009;1.589923202991486E-001;3.626742213964462E-002;-4.369641654193401E-003;-7.828289526514709E-004;
2.402166666666667E+009;1.599481403827667E-001;3.409262746572495E-002;-4.354511387646198E-003;-6.777439266443253E-004;
2.402333333333334E+009;1.607097983360291E-001;3.215270861983299E-002;-4.442539997398853E-003;-5.990046774968505E-004;
2.402500000000000E+009;1.617070585489273E-001;3.047706186771393E-002;-4.565755836665630E-003;-4.169221792835742E-004;
2.402666666666667E+009;1.628160029649735E-001;2.872359380126000E-002;-4.330906551331282E-003;-3.124863433185965E-004;
2.402833333333334E+009;1.635972261428833E-001;2.702886052429676E-002;-4.348983056843281E-003;-5.307095707394183E-004;
2.403000000000000E+009;1.647043228149414E-001;2.541402541100979E-002;-4.494874272495508E-003;-3.891603846568614E-004;
2.403166666666667E+009;1.657005548477173E-001;2.408788911998272E-002;-4.385775420814753E-003;-2.159672731067985E-004;
2.403333333333334E+009;1.667060405015945E-001;2.283704280853272E-002;-4.472375381737948E-003;-3.419273125473410E-004;
2.403500000000000E+009;1.678487360477448E-001;2.165720053017139E-002;-4.501604475080967E-003;2.644143023644574E-005;
2.403666666666667E+009;1.690693646669388E-001;2.032826468348503E-002;-4.582520108669996E-003;1.372993938275613E-005;
2.403833333333334E+009;1.702484339475632E-001;1.903721690177918E-002;-4.588020499795675E-003;-2.037381455011200E-005;
2.404000000000000E+009;1.712379008531570E-001;1.829579658806324E-002;-4.613298457115889E-003;2.052863128483295E-004;
2.404166666666667E+009;1.721835136413574E-001;1.743648760020733E-002;-4.667673725634813E-003;2.851527824532241E-004;
2.404333333333334E+009;1.732695549726486E-001;1.658018678426743E-002;-4.477715119719505E-003;3.017761628143489E-004;
2.404500000000000E+009;1.741413325071335E-001;1.581631042063236E-002;-4.461333155632019E-003;6.950370152480900E-004;
2.404666666666667E+009;1.751589030027390E-001;1.525939349085093E-002;-4.336503800004721E-003;7.505013491027057E-004;
2.404833333333334E+009;1.761125326156616E-001;1.467731036245823E-002;-4.661413375288248E-003;8.735446608625352E-004;
2.405000000000000E+009;1.768502146005631E-001;1.418743375688791E-002;-4.443871323019266E-003;9.093348635360599E-004;
2.405166666666667E+009;1.776985824108124E-001;1.374381128698587E-002;-4.596276674419642E-003;9.649042040109634E-004;
2.405333333333334E+009;1.784826517105103E-001;1.346168480813503E-002;-4.525113385170698E-003;1.271660788916051E-003;
2.405500000000000E+009;1.791111826896668E-001;1.312355604022741E-002;-4.411058034747839E-003;1.341947587206960E-003;
2.405666666666667E+009;1.796019673347473E-001;1.296351663768292E-002;-4.490667488425970E-003;1.282818149775267E-003;
2.405833333333334E+009;1.800184100866318E-001;1.285516284406185E-002;-4.392865113914013E-003;1.489420305006206E-003;
2.406000000000000E+009;1.806147843599320E-001;1.248554605990648E-002;-4.485267680138350E-003;1.617376110516489E-003;
2.406166666666667E+009;1.806545406579971E-001;1.257921662181616E-002;-4.341878928244114E-003;1.781469560228288E-003;
2.406333333333334E+009;1.810528486967087E-001;1.228948589414358E-002;-4.064923152327538E-003;1.861592871136963E-003;
2.406500000000000E+009;1.811183840036392E-001;1.225366815924645E-002;-4.250044934451580E-003;2.079066121950746E-003;
2.406666666666667E+009;1.810534000396729E-001;1.212857197970152E-002;-4.067047499120235E-003;2.100074896588922E-003;
2.406833333333334E+009;1.810491979122162E-001;1.180777885019779E-002;-4.038057755678892E-003;2.240661298856139E-003;
2.407000000000000E+009;1.808657348155975E-001;1.165184192359448E-002;-3.973894752562046E-003;2.333285054191947E-003;
2.407166666666667E+009;1.807276308536530E-001;1.142959669232369E-002;-3.795708995312452E-003;2.401973819360137E-003;
2.407333333333334E+009;1.803366839885712E-001;1.098688505589962E-002;-3.852134803310037E-003;2.443201374262571E-003;
2.407500000000000E+009;1.799598932266235E-001;1.074106618762016E-002;-3.670382779091597E-003;2.547934884205461E-003;
2.407666666666667E+009;1.795063465833664E-001;1.026646140962839E-002;-3.659476293250918E-003;2.698573283851147E-003;
2.407833333333334E+009;1.787783354520798E-001;9.555081836879253E-003;-3.653049003332853E-003;2.706290455535054E-003;
2.408000000000000E+009;1.782480925321579E-001;8.886348456144333E-003;-3.572641406208277E-003;2.786920638754964E-003;
2.408166666666667E+009;1.776734143495560E-001;8.433599956333637E-003;-3.501583123579621E-003;2.933936426416040E-003;
2.408333333333334E+009;1.769614815711975E-001;7.448568940162659E-003;-3.416339866816998E-003;3.002288285642862E-003;
2.408500000000000E+009;1.762344092130661E-001;6.577423773705959E-003;-3.322265576571226E-003;3.085407428443432E-003;
2.408666666666667E+009;1.755030304193497E-001;5.498018115758896E-003;-3.232743358239532E-003;3.085458651185036E-003;
2.408833333333334E+009;1.745775640010834E-001;4.413317423313856E-003;-3.164445981383324E-003;3.156583290547133E-003;
2.409000000000000E+009;1.737402379512787E-001;3.155624959617853E-003;-3.036019159480929E-003;3.196101170033217E-003;
2.409166666666667E+009;1.730379611253738E-001;1.859361887909472E-003;-3.070266917347908E-003;3.288510488346219E-003;
2.409333333333334E+009;1.723079085350037E-001;3.530402900651097E-004;-2.968621905893087E-003;3.354998072609305E-003;
2.409500000000000E+009;1.714316010475159E-001;-1.206291606649756E-003;-2.809855854138732E-003;3.369113197550178E-003;
2.409666666666667E+009;1.706487387418747E-001;-2.693566260859370E-003;-2.774304943159223E-003;3.544328035786748E-003;
2.409833333333334E+009;1.698684841394424E-001;-4.315855447202921E-003;-2.810540609061718E-003;3.396468237042427E-003;
2.410000000000000E+009;1.693758219480515E-001;-6.194861605763435E-003;-2.621764549985528E-003;3.413719125092030E-003;
2.410166666666667E+009;1.687242537736893E-001;-7.896292954683304E-003;-2.538551576435566E-003;3.668618854135275E-003;
2.410333333333334E+009;1.680225431919098E-001;-9.677266702055931E-003;-2.415775787085295E-003;3.622742369771004E-003;
2.410500000000000E+009;1.676974445581436E-001;-1.175598893314600E-002;-2.353924792259932E-003;3.679768182337284E-003;
2.410666666666667E+009;1.670558899641037E-001;-1.388044096529484E-002;-2.315654885023832E-003;3.725356422364712E-003;
2.410833333333334E+009;1.669835448265076E-001;-1.551541499793530E-002;-2.374516101554036E-003;3.734467783942819E-003;
2.411000000000000E+009;1.666141748428345E-001;-1.769545301795006E-002;-2.248090691864491E-003;3.765477566048503E-003;
2.411166666666667E+009;1.663655042648315E-001;-1.980502717196941E-002;-2.255555009469390E-003;3.782563144341111E-003;
2.411333333333334E+009;1.662176251411438E-001;-2.205287292599678E-002;-2.119531854987145E-003;3.888838691636920E-003;
2.411500000000000E+009;1.661068648099899E-001;-2.412260323762894E-002;-2.088985405862331E-003;3.826956264674664E-003;
2.411666666666667E+009;1.664456725120544E-001;-2.612253651022911E-002;-1.996935578063130E-003;3.975613974034786E-003;
2.411833333333334E+009;1.664175391197205E-001;-2.820269949734211E-002;-1.999519765377045E-003;3.972622565925121E-003;
2.412000000000000E+009;1.668627858161926E-001;-3.034789673984051E-002;-2.044194377958775E-003;4.187615122646093E-003;
2.412166666666667E+009;1.670977920293808E-001;-3.235115855932236E-002;-1.840641605667770E-003;4.367503337562084E-003;
2.412333333333334E+009;1.676653772592545E-001;-3.428555279970169E-002;-1.719565014354885E-003;4.316078964620829E-003;
2.412500000000000E+009;1.679571866989136E-001;-3.620515763759613E-002;-1.602802774868906E-003;4.258797038346529E-003;
2.412666666666667E+009;1.684226989746094E-001;-3.815022483468056E-002;-1.629231846891344E-003;4.565130453556776E-003;
2.412833333333334E+009;1.690844893455505E-001;-3.977430984377861E-002;-1.595768844708800E-003;4.527509678155184E-003;
2.413000000000000E+009;1.698480397462845E-001;-4.169262573122978E-002;-1.254304079338908E-003;4.665891639888287E-003;
2.413166666666667E+009;1.702747642993927E-001;-4.347528517246246E-002;-1.218422898091376E-003;4.723226651549339E-003;
2.413333333333334E+009;1.709681600332260E-001;-4.509126767516136E-002;-1.212445320561528E-003;4.805771633982658E-003;
2.413500000000000E+009;1.717828661203384E-001;-4.669191315770149E-002;-9.040492586791515E-004;4.880635533481836E-003;
2.413666666666667E+009;1.726221889257431E-001;-4.810507968068123E-002;-8.837749483063817E-004;4.968968685716391E-003;
2.413833333333334E+009;1.732225716114044E-001;-4.940708726644516E-002;-6.783506250940263E-004;4.995973315089941E-003;
2.414000000000000E+009;1.738451719284058E-001;-5.078323930501938E-002;-7.228260510601103E-004;5.028301849961281E-003;
2.414166666666667E+009;1.745916604995728E-001;-5.170945078134537E-002;-4.233928048051894E-004;5.140983499586582E-003;
2.414333333333334E+009;1.753865033388138E-001;-5.290624871850014E-002;-3.767482121475041E-004;5.183472298085690E-003;
2.414500000000000E+009;1.763440072536469E-001;-5.384807661175728E-002;-3.374056905158795E-005;5.168161354959011E-003;
2.414666666666667E+009;1.766538023948669E-001;-5.466572940349579E-002;1.779241392796394E-005;5.278251133859158E-003;
2.414833333333334E+009;1.772235333919525E-001;-5.541641265153885E-002;2.318068873137236E-004;5.322330631315708E-003;
2.415000000000000E+009;1.777758896350861E-001;-5.604384839534760E-002;3.269886656198651E-004;5.432005040347576E-003;
2.415166666666667E+009;1.782569289207459E-001;-5.677969008684158E-002;5.362892989069223E-004;5.443777423352003E-003;
2.415333333333334E+009;1.786676496267319E-001;-5.736725777387619E-002;7.106449338607490E-004;5.366106983274221E-003;
2.415500000000000E+009;1.790334284305573E-001;-5.758485943078995E-002;1.080330344848335E-003;5.419195629656315E-003;
2.415666666666667E+009;1.792059838771820E-001;-5.776640772819519E-002;1.137474202550948E-003;5.206425674259663E-003;
2.415833333333334E+009;1.794633269309998E-001;-5.810573697090149E-002;1.107783056795597E-003;5.375016015022993E-003;
2.416000000000000E+009;1.794067919254303E-001;-5.853684991598129E-002;1.484129810705781E-003;5.418417975306511E-003;
2.416166666666667E+009;1.796121448278427E-001;-5.865912884473801E-002;1.784720690920949E-003;5.299564916640520E-003;
2.416333333333334E+009;1.793480217456818E-001;-5.877536907792091E-002;1.992604695260525E-003;5.208179354667664E-003;
2.416500000000000E+009;1.791129559278488E-001;-5.888216570019722E-002;2.036454156041145E-003;5.145972594618797E-003;
2.416666666666667E+009;1.786524057388306E-001;-5.900374054908752E-002;2.123707206919789E-003;5.142437294125557E-003;
2.416833333333334E+009;1.784789115190506E-001;-5.920942127704620E-002;2.275204285979271E-003;4.831123631447554E-003;
2.417000000000000E+009;1.777408719062805E-001;-5.918067693710327E-002;2.692045876756311E-003;5.059027578681707E-003;
2.417166666666667E+009;1.771229058504105E-001;-5.923344194889069E-002;2.550078323110938E-003;4.826365038752556E-003;
2.417333333333334E+009;1.763111501932144E-001;-5.935702100396156E-002;2.925373846665025E-003;4.805325996130705E-003;
2.417500000000000E+009;1.754545867443085E-001;-5.963248014450073E-002;2.953794784843922E-003;4.613653756678104E-003;
2.417666666666667E+009;1.746598333120346E-001;-5.957743898034096E-002;3.048523096367717E-003;4.557470325380564E-003;
2.417833333333334E+009;1.735320985317230E-001;-5.989324674010277E-002;3.237937111407518E-003;4.546056967228651E-003;
2.418000000000000E+009;1.723991632461548E-001;-6.032812595367432E-002;3.491448005661368E-003;4.467602353543043E-003;
2.418166666666667E+009;1.712831854820252E-001;-6.044565513730049E-002;3.631527768447995E-003;4.225576296448708E-003;
2.418333333333334E+009;1.702912747859955E-001;-6.091688200831413E-002;3.678467590361834E-003;4.102350212633610E-003;
2.418500000000000E+009;1.689917147159576E-001;-6.139214709401131E-002;3.833461087197065E-003;4.031617194414139E-003;
2.418666666666667E+009;1.677109897136688E-001;-6.188112497329712E-002;3.795248223468661E-003;3.962671384215355E-003;
2.418833333333334E+009;1.663148403167725E-001;-6.262758374214172E-002;4.027668386697769E-003;3.804407780990005E-003;
2.419000000000000E+009;1.648185849189758E-001;-6.322094798088074E-002;4.221821669489145E-003;3.788403235375881E-003;
2.419166666666667E+009;1.636257916688919E-001;-6.403009593486786E-002;4.132064059376717E-003;3.536645555868745E-003;
2.419333333333334E+009;1.621493995189667E-001;-6.477096676826477E-002;4.229743033647537E-003;3.482946427538991E-003;
2.419500000000000E+009;1.609196215867996E-001;-6.589838117361069E-002;4.400035366415978E-003;3.330008126795292E-003;
2.419666666666667E+009;1.597474515438080E-001;-6.711020320653915E-002;4.642962478101254E-003;3.206600667908788E-003;
2.419833333333334E+009;1.581587940454483E-001;-6.809306889772415E-002;4.650643561035395E-003;3.151684533804655E-003;
2.420000000000000E+009;1.569821089506149E-001;-6.940039992332459E-002;4.623951856046915E-003;2.910511801019311E-003;
2.420166666666667E+009;1.557794660329819E-001;-7.056753337383270E-002;4.657858982682228E-003;2.831654623150826E-003;
2.420333333333334E+009;1.546949297189713E-001;-7.209247350692749E-002;4.893827717751265E-003;2.621904946863651E-003;
2.420500000000000E+009;1.539193242788315E-001;-7.344195246696472E-002;4.839081317186356E-003;2.481585834175348E-003;
2.420666666666667E+009;1.527318954467773E-001;-7.494803518056870E-002;4.959061741828919E-003;2.335384255275130E-003;
2.420833333333334E+009;1.518297791481018E-001;-7.648130506277084E-002;5.142929032444954E-003;2.199134556576610E-003;
2.421000000000000E+009;1.509806513786316E-001;-7.818005979061127E-002;5.164295900613070E-003;2.000104868784547E-003;
2.421166666666667E+009;1.503216177225113E-001;-7.985171675682068E-002;5.022677127271891E-003;1.860562479123473E-003;
2.421333333333334E+009;1.496906876564026E-001;-8.168476074934006E-002;5.036646034568548E-003;1.678605447523296E-003;
2.421500000000000E+009;1.490695476531982E-001;-8.338644355535507E-002;5.151235032826662E-003;1.509044435806572E-003;
2.421666666666667E+009;1.487295329570770E-001;-8.517563343048096E-002;5.262733437120915E-003;1.348832738585770E-003;
2.421833333333334E+009;1.484605222940445E-001;-8.702451735734940E-002;5.181702319532633E-003;1.268123975023627E-003;
2.422000000000000E+009;1.482386887073517E-001;-8.897157758474350E-002;5.410923156887293E-003;9.072521934285760E-004;
2.422166666666667E+009;1.479635387659073E-001;-9.079017490148544E-002;5.273479968309403E-003;8.191391825675964E-004;
2.422333333333334E+009;1.479580104351044E-001;-9.257238358259201E-002;5.174653604626656E-003;7.492305594496429E-004;
2.422500000000000E+009;1.480360329151154E-001;-9.421023726463318E-002;5.234813317656517E-003;6.033713580109179E-004;
2.422666666666667E+009;1.480074226856232E-001;-9.589235484600067E-002;5.307502578943968E-003;3.791710187215358E-004;
2.422833333333334E+009;1.483397334814072E-001;-9.775582700967789E-002;5.270494148135185E-003;3.345279837958515E-004;
2.423000000000000E+009;1.485917270183563E-001;-9.932415187358856E-002;5.187239032238722E-003;2.169065410271287E-004;
2.423166666666667E+009;1.490841209888458E-001;-1.010202392935753E-001;5.241856444627047E-003;-1.170363157143584E-005;
2.423333333333334E+009;1.493734270334244E-001;-1.025677621364594E-001;5.287889391183853E-003;-2.375433978158981E-004;
2.423500000000000E+009;1.500888913869858E-001;-1.041187793016434E-001;5.256286356598139E-003;-2.897105878219008E-004;
2.423666666666667E+009;1.503862589597702E-001;-1.055848747491837E-001;5.234389565885067E-003;-4.795113054569811E-004;
2.423833333333334E+009;1.511683315038681E-001;-1.070264056324959E-001;5.183510482311249E-003;-6.388058536686003E-004;
2.424000000000000E+009;1.516011357307434E-001;-1.080385595560074E-001;4.934631288051605E-003;-6.523378542624414E-004;
2.424166666666667E+009;1.523040980100632E-001;-1.093848794698715E-001;5.166996270418167E-003;-9.434888488613069E-004;
2.424333333333334E+009;1.529183387756348E-001;-1.104184314608574E-001;4.984458908438683E-003;-1.013176166452467E-003;
2.424500000000000E+009;1.535865068435669E-001;-1.114059463143349E-001;5.014858674257994E-003;-1.197897829115391E-003;
2.424666666666667E+009;1.543167084455490E-001;-1.121710613369942E-001;4.898809362202883E-003;-1.325972611084580E-003;
2.424833333333334E+009;1.546830534934998E-001;-1.131231188774109E-001;4.813693463802338E-003;-1.424146234057844E-003;
2.425000000000000E+009;1.554141491651535E-001;-1.139781549572945E-001;4.884789232164621E-003;-1.585781574249268E-003;
2.425166666666667E+009;1.557699739933014E-001;-1.144424602389336E-001;4.897838458418846E-003;-1.729009789414704E-003;
2.425333333333334E+009;1.561590135097504E-001;-1.150915771722794E-001;4.791397135704756E-003;-1.717869075946510E-003;
2.425500000000000E+009;1.567000299692154E-001;-1.156858876347542E-001;4.847915377467871E-003;-1.985258655622602E-003;
2.425666666666667E+009;1.568877398967743E-001;-1.161124408245087E-001;4.581696353852749E-003;-2.167023252695799E-003;
2.425833333333334E+009;1.572462469339371E-001;-1.162915527820587E-001;4.542880225926638E-003;-2.191452542319894E-003;
2.426000000000000E+009;1.573551744222641E-001;-1.167525649070740E-001;4.642436280846596E-003;-2.415966941043735E-003;
2.426166666666667E+009;1.576450169086456E-001;-1.169135645031929E-001;4.512279760092497E-003;-2.511757425963879E-003;
2.426333333333334E+009;1.576367616653442E-001;-1.170620471239090E-001;4.347915761172772E-003;-2.653153147548437E-003;
2.426500000000000E+009;1.575744003057480E-001;-1.170580759644508E-001;4.267527721822262E-003;-2.785104559734464E-003;
2.426666666666667E+009;1.574745923280716E-001;-1.170897111296654E-001;4.367105197161436E-003;-2.950712805613875E-003;
2.426833333333334E+009;1.572589278221130E-001;-1.172182857990265E-001;4.160649143159390E-003;-3.004857338964939E-003;
2.427000000000000E+009;1.567620784044266E-001;-1.173473522067070E-001;3.943372052162886E-003;-3.243798855692148E-003;
2.427166666666667E+009;1.562949270009995E-001;-1.171616315841675E-001;3.922576084733009E-003;-3.369242185726762E-003;
2.427333333333334E+009;1.556086391210556E-001;-1.172457784414291E-001;3.822983941063285E-003;-3.448976436629891E-003;
2.427500000000000E+009;1.550980359315872E-001;-1.172252818942070E-001;3.824317362159491E-003;-3.483451902866364E-003;
2.427666666666667E+009;1.542112380266190E-001;-1.172559261322022E-001;3.469197079539299E-003;-3.681875998154283E-003;
2.427833333333334E+009;1.531838327646256E-001;-1.173179969191551E-001;3.372618928551674E-003;-3.743893001228571E-003;
