# Version 1.00
#
freq[Hz];re:Trc1_S11;im:Trc1_S11;re:Trc2_S21;im:Trc2_S21;
2.400000000000000E+009;1.553097665309906E-001;6.160157918930054E-002;-4.106980282813311E-003;-2.256898442283273E-003;
2.400166666666667E+009;1.553964763879776E-001;5.981476604938507E-002;-4.095277283340693E-003;-2.076297998428345E-003;
2.400333333333334E+009;1.553323715925217E-001;5.758516862988472E-002;-4.179787356406450E-003;-2.049193717539311E-003;
2.400500000000000E+009;1.554754078388214E-001;5.558998137712479E-002;-4.324247129261494E-003;-1.962795853614807E-003;
2.400666666666667E+009;1.555540710687637E-001;5.323680490255356E-002;-4.323452245444059E-003;-1.911316532641649E-003;
2.400833333333334E+009;1.558771282434464E-001;5.127403140068054E-002;-4.291123244911432E-003;-1.732403179630637E-003;
2.401000000000000E+009;1.560054868459702E-001;4.886587709188461E-002;-4.194806795567274E-003;-1.668659038841724E-003;
2.401166666666667E+009;1.564597189426422E-001;4.666008427739143E-002;-4.255641251802445E-003;-1.461853506043553E-003;
2.401333333333334E+009;1.566037386655808E-001;4.439132288098335E-002;-4.240660928189755E-003;-1.491515780799091E-003;
2.401500000000000E+009;1.573996990919113E-001;4.232591763138771E-002;-4.346871748566628E-003;-1.417650491930544E-003;
2.401666666666667E+009;1.579151600599289E-001;4.028284922242165E-002;-4.355823155492544E-003;-1.189521630294621E-003;
2.401833333333334E+009;1.584945470094681E-001;3.797481581568718E-002;-4.237015265971422E-003;-1.231306581757963E-003;
2.402000000000000E+009;1.591391265392304E-001;3.597515076398850E-002;-4.371399991214275E-003;-1.192457857541740E-003;
2.402166666666667E+009;1.599950939416885E-001;3.401713445782661E-002;-4.286763723939657E-003;-8.929538889788091E-004;
2.402333333333334E+009;1.605296432971954E-001;3.222860395908356E-002;-4.251616075634956E-003;-8.867912692949176E-004;
2.402500000000000E+009;1.616892963647842E-001;3.033060766756535E-002;-4.221195355057716E-003;-9.381677373312414E-004;
2.402666666666667E+009;1.625228226184845E-001;2.868205122649670E-002;-4.239116795361042E-003;-7.537638884969056E-004;
2.402833333333334E+009;1.636246740818024E-001;2.699796110391617E-002;-4.315610509365797E-003;-5.629322840832174E-004;
2.403000000000000E+009;1.647504419088364E-001;2.552410401403904E-002;-4.401650279760361E-003;-5.720409099012613E-004;
2.403166666666667E+009;1.656367033720017E-001;2.387523464858532E-002;-4.415493458509445E-003;-5.455503705888987E-004;
2.403333333333334E+009;1.667330563068390E-001;2.279620803892613E-002;-4.360517952591181E-003;-4.757847636938095E-004;
2.403500000000000E+009;1.676760911941528E-001;2.170381136238575E-002;-4.428670741617680E-003;-3.262380196247250E-004;
2.403666666666667E+009;1.688348799943924E-001;2.016727067530155E-002;-4.481793381273747E-003;-2.611194795463234E-004;
2.403833333333334E+009;1.700122803449631E-001;1.923895254731178E-002;-4.589691758155823E-003;-3.343942516949028E-004;
2.404000000000000E+009;1.712709218263626E-001;1.825049333274365E-002;-4.428178537636995E-003;-5.301272722135764E-006;
2.404166666666667E+009;1.721973270177841E-001;1.722787879407406E-002;-4.606273490935564E-003;4.502792216953822E-005;
2.404333333333334E+009;1.731648296117783E-001;1.649994589388371E-002;-4.717020783573389E-003;8.608053758507595E-005;
2.404500000000000E+009;1.741970926523209E-001;1.563271321356297E-002;-4.581711255013943E-003;2.820733643602580E-004;
2.404666666666667E+009;1.751185804605484E-001;1.520277839154005E-002;-4.608929622918367E-003;2.763076045084745E-004;
2.404833333333334E+009;1.761344969272614E-001;1.461109053343535E-002;-4.540276713669300E-003;5.749096744693816E-004;
2.405000000000000E+009;1.769253015518189E-001;1.416098792105913E-002;-4.560801200568676E-003;7.264045998454094E-004;
2.405166666666667E+009;1.778002083301544E-001;1.365463528782129E-002;-4.571080673485994E-003;8.342613000422716E-004;
2.405333333333334E+009;1.784627586603165E-001;1.324324402958155E-002;-4.625249654054642E-003;8.921926491893828E-004;
2.405500000000000E+009;1.792147159576416E-001;1.318070106208324E-002;-4.548928234726191E-003;1.120021799579263E-003;
2.405666666666667E+009;1.797219961881638E-001;1.290889922529459E-002;-4.602780565619469E-003;1.263990066945553E-003;
2.405833333333334E+009;1.800233572721481E-001;1.283080130815506E-002;-4.531110636889935E-003;1.402323832735419E-003;
2.406000000000000E+009;1.806165724992752E-001;1.247873902320862E-002;-4.391205031424761E-003;1.461553969420493E-003;
2.406166666666667E+009;1.807723045349121E-001;1.248224172741175E-002;-4.416299052536488E-003;1.619727932848036E-003;
2.406333333333334E+009;1.810420006513596E-001;1.244752481579781E-002;-4.156973678618670E-003;1.585370511747897E-003;
2.406500000000000E+009;1.812238544225693E-001;1.221823133528233E-002;-4.433897323906422E-003;1.784489257261157E-003;
2.406666666666667E+009;1.809904128313065E-001;1.222761534154415E-002;-4.300696775317192E-003;2.034305594861507E-003;
2.406833333333334E+009;1.810519993305206E-001;1.182104647159576E-002;-4.297335632145405E-003;2.057040575891733E-003;
2.407000000000000E+009;1.808744370937347E-001;1.160289533436298E-002;-4.196727648377419E-003;2.211240120232105E-003;
2.407166666666667E+009;1.806969940662384E-001;1.133935526013374E-002;-4.102335311472416E-003;2.214004285633564E-003;
2.407333333333334E+009;1.803247034549713E-001;1.092241425067186E-002;-4.001339431852102E-003;2.357583260163665E-003;
2.407500000000000E+009;1.799454987049103E-001;1.056050509214401E-002;-3.981842193752527E-003;2.311848336830735E-003;
2.407666666666667E+009;1.795985549688339E-001;1.013477798551321E-002;-3.910874016582966E-003;2.570925746113062E-003;
2.407833333333334E+009;1.787265241146088E-001;9.544945321977139E-003;-3.703846130520105E-003;2.567271469160914E-003;
2.408000000000000E+009;1.783146411180496E-001;8.907170034945011E-003;-3.799352096393704E-003;2.747009042650461E-003;
2.408166666666667E+009;1.775658726692200E-001;8.366829715669155E-003;-3.732223762199283E-003;2.801934257149696E-003;
2.408333333333334E+009;1.770130842924118E-001;7.473813835531473E-003;-3.495598444715142E-003;2.803115639835596E-003;
2.408500000000000E+009;1.762039959430695E-001;6.566938944160938E-003;-3.397553227841854E-003;2.900898456573486E-003;
2.408666666666667E+009;1.754316389560700E-001;5.490636918693781E-003;-3.569737542420626E-003;2.920686034485698E-003;
2.408833333333334E+009;1.746149212121964E-001;4.417251329869032E-003;-3.272859379649162E-003;2.930921269580722E-003;
2.409000000000000E+009;1.737800240516663E-001;3.078460460528731E-003;-3.321708412840962E-003;3.143638139590621E-003;
2.409166666666667E+009;1.730467081069946E-001;1.890801591798663E-003;-3.327232785522938E-003;3.174512647092342E-003;
2.409333333333334E+009;1.723746806383133E-001;3.414156381040812E-004;-3.161938628181815E-003;3.187713213264942E-003;
2.409500000000000E+009;1.714201271533966E-001;-1.273040776140988E-003;-3.022590419277549E-003;3.373079234734178E-003;
2.409666666666667E+009;1.704180538654327E-001;-2.844013739377260E-003;-2.973572118207812E-003;3.254367504268885E-003;
2.409833333333334E+009;1.698297262191773E-001;-4.186879843473434E-003;-2.941112499684095E-003;3.324201563373208E-003;
2.410000000000000E+009;1.692084670066834E-001;-6.090498063713312E-003;-2.758861985057592E-003;3.358420217409730E-003;
2.410166666666667E+009;1.685212999582291E-001;-7.852714508771896E-003;-2.895036945119500E-003;3.396295709535480E-003;
2.410333333333334E+009;1.679282188415527E-001;-9.858135133981705E-003;-2.871520118787885E-003;3.614901099354029E-003;
2.410500000000000E+009;1.673649102449417E-001;-1.173893921077251E-002;-2.581803826615214E-003;3.542799735441804E-003;
2.410666666666667E+009;1.668102592229843E-001;-1.379393041133881E-002;-2.750054700300098E-003;3.673594910651445E-003;
2.410833333333334E+009;1.667744517326355E-001;-1.562275364995003E-002;-2.628108486533165E-003;3.641558811068535E-003;
2.411000000000000E+009;1.664230376482010E-001;-1.772481016814709E-002;-2.496837871149182E-003;3.831454785540700E-003;
2.411166666666667E+009;1.662210226058960E-001;-1.996879465878010E-002;-2.585991052910686E-003;3.691660473123193E-003;
2.411333333333334E+009;1.659533232450485E-001;-2.189268171787262E-002;-2.450908301398158E-003;3.827005624771118E-003;
2.411500000000000E+009;1.660268902778626E-001;-2.399106323719025E-002;-2.465882338583469E-003;3.887932049110532E-003;
2.411666666666667E+009;1.663406938314438E-001;-2.612634189426899E-002;-2.347336383536458E-003;4.026242066174746E-003;
2.411833333333334E+009;1.664714515209198E-001;-2.826084196567535E-002;-2.196527784690261E-003;4.119551740586758E-003;
2.412000000000000E+009;1.668101996183395E-001;-3.013482503592968E-002;-2.165905898436904E-003;4.174372646957636E-003;
2.412166666666667E+009;1.668259203433991E-001;-3.224353864789009E-002;-2.124784979969263E-003;4.381848964840174E-003;
2.412333333333334E+009;1.675963848829269E-001;-3.422544524073601E-002;-2.060336759313941E-003;4.343353677541018E-003;
2.412500000000000E+009;1.679095178842545E-001;-3.609787672758102E-002;-1.961537403985858E-003;4.468784201890230E-003;
2.412666666666667E+009;1.685464382171631E-001;-3.812980279326439E-002;-1.744419569149613E-003;4.590774420648813E-003;
2.412833333333334E+009;1.690306365489960E-001;-3.993434831500053E-002;-1.702577457763255E-003;4.611998330801725E-003;
2.413000000000000E+009;1.697171777486801E-001;-4.171938821673393E-002;-1.556586823426187E-003;4.713613074272871E-003;
2.413166666666667E+009;1.703522801399231E-001;-4.335168004035950E-002;-1.548808184452355E-003;4.781636875122786E-003;
2.413333333333334E+009;1.708339303731918E-001;-4.511838033795357E-002;-1.355582731775940E-003;4.818472079932690E-003;
2.413500000000000E+009;1.717476546764374E-001;-4.650845751166344E-002;-1.350797829218209E-003;5.039641167968512E-003;
2.413666666666667E+009;1.726408898830414E-001;-4.803106561303139E-002;-1.249164110049605E-003;5.062975455075502E-003;
2.413833333333334E+009;1.731092035770416E-001;-4.950811341404915E-002;-9.877224219962955E-004;5.224319640547037E-003;
2.414000000000000E+009;1.739540845155716E-001;-5.084014683961868E-002;-8.067665039561689E-004;5.340246949344873E-003;
2.414166666666667E+009;1.746638119220734E-001;-5.183879286050797E-002;-7.128639263100922E-004;5.439276341348887E-003;
2.414333333333334E+009;1.753366589546204E-001;-5.290298163890839E-002;-6.198815535753965E-004;5.278605502098799E-003;
2.414500000000000E+009;1.761266887187958E-001;-5.388279259204865E-002;-3.854114911518991E-004;5.454150959849358E-003;
2.414666666666667E+009;1.767268478870392E-001;-5.470310896635056E-002;-2.128924825228751E-004;5.479399580508471E-003;
2.414833333333334E+009;1.772847026586533E-001;-5.551690980792046E-002;5.791254443465732E-005;5.493528675287962E-003;
2.415000000000000E+009;1.778526455163956E-001;-5.624042078852654E-002;2.224038616986945E-004;5.501513369381428E-003;
2.415166666666667E+009;1.782484948635101E-001;-5.674854293465614E-002;3.593562869355083E-004;5.557559896260500E-003;
2.415333333333334E+009;1.786645650863648E-001;-5.733355134725571E-002;5.644998163916171E-004;5.550435278564692E-003;
2.415500000000000E+009;1.790576428174973E-001;-5.769885331392288E-002;9.309292654506862E-004;5.654767155647278E-003;
2.415666666666667E+009;1.794110387563705E-001;-5.798366665840149E-002;9.250085568055511E-004;5.491220857948065E-003;
2.415833333333334E+009;1.794947832822800E-001;-5.831051990389824E-002;1.162098487839103E-003;5.565426778048277E-003;
2.416000000000000E+009;1.795268356800079E-001;-5.845674127340317E-002;1.499823643825948E-003;5.482655949890614E-003;
2.416166666666667E+009;1.796106398105621E-001;-5.865523219108582E-002;1.587911508977413E-003;5.547955632209778E-003;
2.416333333333334E+009;1.794319897890091E-001;-5.881044641137123E-002;1.745836110785604E-003;5.377159453928471E-003;
2.416500000000000E+009;1.790546029806137E-001;-5.905451253056526E-002;1.913075451739132E-003;5.392489023506641E-003;
2.416666666666667E+009;1.787400990724564E-001;-5.885237455368042E-002;2.323694294318557E-003;5.287961568683386E-003;
2.416833333333334E+009;1.784971207380295E-001;-5.917392298579216E-002;2.315434860065579E-003;5.402109585702419E-003;
2.417000000000000E+009;1.777496784925461E-001;-5.920209363102913E-002;2.560167806223035E-003;5.135247018188238E-003;
2.417166666666667E+009;1.770853549242020E-001;-5.919133499264717E-002;2.611235016956925E-003;5.034378729760647E-003;
2.417333333333334E+009;1.764845550060272E-001;-5.934235826134682E-002;2.786348573863506E-003;5.033651366829872E-003;
2.417500000000000E+009;1.755014359951019E-001;-5.967184901237488E-002;3.009374951943755E-003;5.009013693779707E-003;
2.417666666666667E+009;1.747720241546631E-001;-5.975285917520523E-002;3.168127965182066E-003;4.838434979319572E-003;
2.417833333333334E+009;1.737337261438370E-001;-5.994087085127831E-002;3.257001750171185E-003;4.825903568416834E-003;
2.418000000000000E+009;1.724517941474915E-001;-6.031497567892075E-002;3.415155690163374E-003;4.551460500806570E-003;
2.418166666666667E+009;1.713343411684036E-001;-6.050060689449310E-002;3.637890797108412E-003;4.501231480389834E-003;
2.418333333333334E+009;1.704012155532837E-001;-6.095917522907257E-002;3.548028413206339E-003;4.346327856183052E-003;
2.418500000000000E+009;1.690078377723694E-001;-6.141898408532143E-002;3.870346117764711E-003;4.267171956598759E-003;
2.418666666666667E+009;1.679701358079910E-001;-6.199964135885239E-002;4.028020426630974E-003;4.186580423265696E-003;
2.418833333333334E+009;1.662622690200806E-001;-6.268501281738281E-002;4.042608663439751E-003;3.906308207660914E-003;
2.419000000000000E+009;1.649703532457352E-001;-6.330547481775284E-002;4.194596316665411E-003;3.988057840615511E-003;
2.419166666666667E+009;1.635673046112061E-001;-6.408441811800003E-002;4.384227097034454E-003;3.850331064313650E-003;
2.419333333333334E+009;1.622321605682373E-001;-6.486372649669647E-002;4.382606595754623E-003;3.694276791065931E-003;
2.419500000000000E+009;1.608633100986481E-001;-6.602638959884644E-002;4.506805911660194E-003;3.519654506817460E-003;
2.419666666666667E+009;1.595560759305954E-001;-6.718089431524277E-002;4.552433732897043E-003;3.353552659973502E-003;
2.419833333333334E+009;1.582879573106766E-001;-6.794425845146179E-002;4.708495922386646E-003;3.246672451496124E-003;
2.420000000000000E+009;1.570111215114594E-001;-6.918922811746597E-002;4.631946329027414E-003;3.047724720090628E-003;
2.420166666666667E+009;1.558689773082733E-001;-7.071007788181305E-002;4.755346104502678E-003;3.026625839993358E-003;
2.420333333333334E+009;1.548233479261398E-001;-7.217327505350113E-002;4.812083672732115E-003;2.806606004014611E-003;
2.420500000000000E+009;1.537691354751587E-001;-7.335840910673142E-002;5.078276619315147E-003;2.580491825938225E-003;
2.420666666666667E+009;1.526352018117905E-001;-7.487407326698303E-002;5.149133037775755E-003;2.550411503762007E-003;
2.420833333333334E+009;1.519161462783814E-001;-7.661116868257523E-002;5.095829255878925E-003;2.274726983159781E-003;
2.421000000000000E+009;1.508750617504120E-001;-7.834021002054215E-002;4.997032228857279E-003;2.053979085758328E-003;
2.421166666666667E+009;1.501627564430237E-001;-7.995073497295380E-002;5.266980733722448E-003;1.882652519270778E-003;
2.421333333333334E+009;1.496998071670532E-001;-8.177028596401215E-002;5.191794596612454E-003;1.839623670093715E-003;
2.421500000000000E+009;1.490327715873718E-001;-8.325894922018051E-002;5.366120487451553E-003;1.526399515569210E-003;
2.421666666666667E+009;1.488091647624970E-001;-8.522807806730270E-002;5.267715081572533E-003;1.332944142632186E-003;
2.421833333333334E+009;1.483980715274811E-001;-8.696956187486649E-002;5.255764350295067E-003;1.326586585491896E-003;
2.422000000000000E+009;1.480886638164520E-001;-8.880476653575897E-002;5.463178269565105E-003;1.190681010484695E-003;
2.422166666666667E+009;1.480041295289993E-001;-9.079687297344208E-002;5.294377915561199E-003;1.047360477969050E-003;
2.422333333333334E+009;1.480050534009934E-001;-9.238673746585846E-002;5.279188044369221E-003;7.766655762679875E-004;
2.422500000000000E+009;1.478538960218430E-001;-9.415055811405182E-002;5.471546668559313E-003;6.569593679159880E-004;
2.422666666666667E+009;1.480256617069244E-001;-9.591589123010635E-002;5.490375217050314E-003;5.566178006120026E-004;
2.422833333333334E+009;1.484063714742661E-001;-9.769200533628464E-002;5.312834400683641E-003;3.589423722587526E-004;
2.423000000000000E+009;1.486733257770538E-001;-9.936029464006424E-002;5.237913690507412E-003;3.053996479138732E-004;
2.423166666666667E+009;1.490931361913681E-001;-1.009666621685028E-001;5.286753177642822E-003;6.838534773123683E-006;
2.423333333333334E+009;1.495979726314545E-001;-1.023893952369690E-001;5.394368432462215E-003;-1.019247065414675E-004;
2.423500000000000E+009;1.499986797571182E-001;-1.041378974914551E-001;5.290746688842773E-003;-3.631585859693587E-004;
2.423666666666667E+009;1.505426019430161E-001;-1.056059077382088E-001;5.305828060954809E-003;-3.792384231928736E-004;
2.423833333333334E+009;1.512077152729034E-001;-1.069632917642593E-001;5.283510312438011E-003;-4.259413108229637E-004;
2.424000000000000E+009;1.516374498605728E-001;-1.080992072820664E-001;5.290027242153883E-003;-7.382575422525406E-004;
2.424166666666667E+009;1.522475481033325E-001;-1.093856245279312E-001;5.181604065001011E-003;-8.782742079347372E-004;
2.424333333333334E+009;1.530039608478546E-001;-1.103722080588341E-001;5.210084374994040E-003;-1.022406271658838E-003;
2.424500000000000E+009;1.536129117012024E-001;-1.114227473735809E-001;5.122879054397345E-003;-1.125156995840371E-003;
2.424666666666667E+009;1.542843133211136E-001;-1.123017147183418E-001;5.154062062501907E-003;-1.289193169213831E-003;
2.424833333333334E+009;1.548035889863968E-001;-1.131970211863518E-001;5.026477854698896E-003;-1.550013315863907E-003;
2.425000000000000E+009;1.553591191768646E-001;-1.139679923653603E-001;5.043442361056805E-003;-1.516959397122264E-003;
2.425166666666667E+009;1.556649804115295E-001;-1.146005764603615E-001;5.019778851419687E-003;-1.732580480165780E-003;
2.425333333333334E+009;1.561758518218994E-001;-1.152241080999374E-001;4.827902186661959E-003;-1.907190540805459E-003;
2.425500000000000E+009;1.566805094480515E-001;-1.156733930110931E-001;5.013268906623125E-003;-2.058848738670349E-003;
2.425666666666667E+009;1.568102091550827E-001;-1.162317097187042E-001;4.729300271719694E-003;-2.129611559212208E-003;
2.425833333333334E+009;1.572682559490204E-001;-1.164534538984299E-001;4.717045929282904E-003;-2.209358848631382E-003;
2.426000000000000E+009;1.573127657175064E-001;-1.167843341827393E-001;4.660429898649454E-003;-2.518338384106755E-003;
2.426166666666667E+009;1.576396822929382E-001;-1.169826686382294E-001;4.520942922681570E-003;-2.674032934010029E-003;
2.426333333333334E+009;1.575115472078323E-001;-1.171183213591576E-001;4.463654011487961E-003;-2.714205067604780E-003;
2.426500000000000E+009;1.575842797756195E-001;-1.172321736812592E-001;4.429241642355919E-003;-2.926419256255031E-003;
2.426666666666667E+009;1.574568748474121E-001;-1.171282753348351E-001;4.271884448826313E-003;-2.922466490417719E-003;
2.426833333333334E+009;1.571898758411408E-001;-1.171617507934570E-001;4.224187694489956E-003;-3.106803633272648E-003;
2.427000000000000E+009;1.567618399858475E-001;-1.173947900533676E-001;4.024112597107887E-003;-3.236865159124136E-003;
2.427166666666667E+009;1.562490016222000E-001;-1.171366423368454E-001;4.014322534203529E-003;-3.375827800482512E-003;
2.427333333333334E+009;1.556219607591629E-001;-1.172841563820839E-001;3.950105980038643E-003;-3.448336850851774E-003;
2.427500000000000E+009;1.550657600164414E-001;-1.172818392515183E-001;3.662261413410306E-003;-3.445011796429753E-003;
2.427666666666667E+009;1.541516631841660E-001;-1.173409670591354E-001;3.744355635717511E-003;-3.742298809811473E-003;
2.427833333333334E+009;1.531993597745895E-001;-1.173613965511322E-001;3.677055006846786E-003;-3.716854145750403E-003;
