# Version 1.00
#
freq[Hz];re:Trc1_S11;im:Trc1_S11;re:Trc2_S21;im:Trc2_S21;
2.400000000000000E+009;1.568653434514999E-001;1.059497296810150E-001;5.136818159371615E-003;-3.469759365543723E-003;
2.400166666666667E+009;1.567890793085098E-001;1.035689711570740E-001;4.932413343340159E-003;-3.518936224281788E-003;
2.400333333333334E+009;1.570291519165039E-001;1.014278009533882E-001;4.819619003683329E-003;-3.525619162246585E-003;
2.400500000000000E+009;1.573073267936707E-001;9.885924309492111E-002;4.870380740612745E-003;-3.902919124811888E-003;
2.400666666666667E+009;1.575155556201935E-001;9.660618752241135E-002;4.865897353738546E-003;-4.040443804115057E-003;
2.400833333333334E+009;1.576592475175858E-001;9.379869699478149E-002;4.811283666640520E-003;-4.375806078314781E-003;
2.401000000000000E+009;1.582161337137222E-001;9.104759991168976E-002;4.696830641478300E-003;-4.611816722899675E-003;
2.401166666666667E+009;1.583645790815353E-001;8.852115273475647E-002;4.543091170489788E-003;-4.738803021609783E-003;
2.401333333333334E+009;1.586299389600754E-001;8.603890240192413E-002;4.365187138319016E-003;-5.067543592303991E-003;
2.401500000000000E+009;1.593504995107651E-001;8.325021713972092E-002;4.174761008471251E-003;-5.391540471464396E-003;
2.401666666666667E+009;1.597441732883453E-001;8.053246885538101E-002;3.949445672333241E-003;-5.607318598777056E-003;
2.401833333333334E+009;1.601703315973282E-001;7.783691585063934E-002;3.539063269272447E-003;-5.751711782068014E-003;
2.402000000000000E+009;1.613722741603851E-001;7.519481331110001E-002;3.282519755885005E-003;-5.858012475073338E-003;
2.402166666666667E+009;1.619277894496918E-001;7.292895764112473E-002;2.953508170321584E-003;-6.093464791774750E-003;
2.402333333333334E+009;1.629156917333603E-001;7.041645050048828E-002;2.698021009564400E-003;-6.096605211496353E-003;
2.402500000000000E+009;1.639100611209869E-001;6.801690906286240E-002;2.356101758778095E-003;-6.339234299957752E-003;
2.402666666666667E+009;1.650696396827698E-001;6.592001765966415E-002;1.938039786182344E-003;-6.398292258381844E-003;
2.402833333333334E+009;1.662388443946838E-001;6.367585808038712E-002;1.578134251758456E-003;-6.280740723013878E-003;
2.403000000000000E+009;1.676986217498779E-001;6.157716736197472E-002;1.334601198323071E-003;-6.496046669781208E-003;
2.403166666666667E+009;1.691269725561142E-001;5.932600423693657E-002;8.726933156140149E-004;-6.266401614993811E-003;
2.403333333333334E+009;1.705146282911301E-001;5.716395750641823E-002;6.263923714868724E-004;-6.103215273469687E-003;
2.403500000000000E+009;1.718934327363968E-001;5.522961169481278E-002;1.875822199508548E-004;-5.935396999120712E-003;
2.403666666666667E+009;1.736454218626022E-001;5.340150371193886E-002;-2.852621946658474E-005;-5.677659995853901E-003;
2.403833333333334E+009;1.750789433717728E-001;5.169305577874184E-002;-3.009617212228477E-004;-5.482608452439308E-003;
2.404000000000000E+009;1.764436215162277E-001;4.998695105314255E-002;-5.262367194518447E-004;-5.244542844593525E-003;
2.404166666666667E+009;1.779727786779404E-001;4.846587777137756E-002;-6.462422315962613E-004;-5.114535801112652E-003;
2.404333333333334E+009;1.794322729110718E-001;4.692358151078224E-002;-7.470871787518263E-004;-4.818055778741837E-003;
2.404500000000000E+009;1.806383132934570E-001;4.561899974942207E-002;-7.469560368917882E-004;-4.751999862492085E-003;
2.404666666666667E+009;1.823019832372665E-001;4.468161985278130E-002;-6.369136390276253E-004;-4.434674512594938E-003;
2.404833333333334E+009;1.836863160133362E-001;4.327259212732315E-002;-6.408261833712459E-004;-4.355243407189846E-003;
2.405000000000000E+009;1.847294121980667E-001;4.264897853136063E-002;-7.478041225112975E-004;-4.290476907044649E-003;
2.405166666666667E+009;1.861022859811783E-001;4.171955585479736E-002;-5.882912082597613E-004;-4.273414146155119E-003;
2.405333333333334E+009;1.871096193790436E-001;4.115541651844978E-002;-5.890862667001784E-004;-4.227297380566597E-003;
2.405500000000000E+009;1.885136365890503E-001;4.068903625011444E-002;-7.872314890846610E-004;-4.307272378355265E-003;
2.405666666666667E+009;1.893931925296783E-001;4.015331342816353E-002;-7.613929919898510E-004;-4.315682221204042E-003;
2.405833333333334E+009;1.905340999364853E-001;3.975533321499825E-002;-7.992440368980169E-004;-4.242215771228075E-003;
2.406000000000000E+009;1.912791579961777E-001;3.943562880158424E-002;-8.887960575520992E-004;-4.258756060153246E-003;
2.406166666666667E+009;1.922179907560349E-001;3.915393725037575E-002;-8.394377655349672E-004;-4.123395308852196E-003;
2.406333333333334E+009;1.929309219121933E-001;3.896689414978027E-002;-9.941128082573414E-004;-4.167639650404453E-003;
2.406500000000000E+009;1.935498863458633E-001;3.881582245230675E-002;-1.113316975533962E-003;-4.262640140950680E-003;
2.406666666666667E+009;1.940273046493530E-001;3.872183337807655E-002;-1.216893200762570E-003;-3.933263942599297E-003;
2.406833333333334E+009;1.944965124130249E-001;3.853464871644974E-002;-1.121231354773045E-003;-3.912558313459158E-003;
2.407000000000000E+009;1.946644186973572E-001;3.858549520373344E-002;-1.007187762297690E-003;-3.917680587619543E-003;
2.407166666666667E+009;1.951219886541367E-001;3.822088241577148E-002;-1.116817002184689E-003;-3.787414869293571E-003;
2.407333333333334E+009;1.949497461318970E-001;3.830714523792267E-002;-1.127526862546802E-003;-3.669947152957320E-003;
2.407500000000000E+009;1.949457079172134E-001;3.800649195909500E-002;-1.263638259842992E-003;-3.745998488739133E-003;
2.407666666666667E+009;1.950895637273789E-001;3.796749562025070E-002;-1.000321470201016E-003;-3.785533830523491E-003;
2.407833333333334E+009;1.945975869894028E-001;3.760137036442757E-002;-1.083562034182251E-003;-3.823646344244480E-003;
2.408000000000000E+009;1.946400105953217E-001;3.732609748840332E-002;-1.040155999362469E-003;-3.658619243651629E-003;
2.408166666666667E+009;1.940970569849014E-001;3.687548637390137E-002;-1.090956968255341E-003;-3.885178826749325E-003;
2.408333333333334E+009;1.938077211380005E-001;3.612517192959786E-002;-9.368864702992141E-004;-4.039613530039787E-003;
2.408500000000000E+009;1.931140273809433E-001;3.582828491926193E-002;-1.031062100082636E-003;-4.105476196855307E-003;
2.408666666666667E+009;1.926998794078827E-001;3.500174731016159E-002;-1.223704894073308E-003;-4.166013561189175E-003;
2.408833333333334E+009;1.919953376054764E-001;3.424245119094849E-002;-1.155233709141612E-003;-4.262250848114491E-003;
2.409000000000000E+009;1.913569569587708E-001;3.321952745318413E-002;-1.227115630172193E-003;-4.452278837561607E-003;
2.409166666666667E+009;1.906728595495224E-001;3.227092325687408E-002;-1.367635792121291E-003;-4.434858914464712E-003;
2.409333333333334E+009;1.898938566446304E-001;3.125385567545891E-002;-1.468537026084960E-003;-4.618993494659662E-003;
2.409500000000000E+009;1.889271140098572E-001;2.985903806984425E-002;-1.561805955134332E-003;-4.700561054050922E-003;
2.409666666666667E+009;1.880822479724884E-001;2.856981195509434E-002;-1.615217421203852E-003;-4.944222513586283E-003;
2.409833333333334E+009;1.873890906572342E-001;2.706884779036045E-002;-1.845258404500783E-003;-4.942326340824366E-003;
2.410000000000000E+009;1.867410987615585E-001;2.554021589457989E-002;-2.104227198287845E-003;-4.852504469454289E-003;
2.410166666666667E+009;1.859053820371628E-001;2.358861826360226E-002;-2.427369356155396E-003;-4.945171996951103E-003;
2.410333333333334E+009;1.850344538688660E-001;2.197946794331074E-002;-2.426530001685023E-003;-5.004720762372017E-003;
2.410500000000000E+009;1.842757612466812E-001;2.002458460628986E-002;-2.812753897160292E-003;-5.090786609798670E-003;
2.410666666666667E+009;1.835149973630905E-001;1.799144409596920E-002;-2.872615819796920E-003;-5.024114623665810E-003;
2.410833333333334E+009;1.833178400993347E-001;1.594609208405018E-002;-3.235065843909979E-003;-5.157492589205504E-003;
2.411000000000000E+009;1.825345754623413E-001;1.396054029464722E-002;-3.362098010256887E-003;-5.110214930027723E-003;
2.411166666666667E+009;1.820975095033646E-001;1.181668229401112E-002;-3.722091438248754E-003;-5.191123578697443E-003;
2.411333333333334E+009;1.816814392805100E-001;9.458919987082481E-003;-4.083828534930944E-003;-5.105052608996630E-003;
2.411500000000000E+009;1.813398152589798E-001;7.399975787848234E-003;-4.220980219542980E-003;-4.974910523742437E-003;
2.411666666666667E+009;1.812861412763596E-001;5.070094484835863E-003;-4.472357686609030E-003;-5.080731585621834E-003;
2.411833333333334E+009;1.809684187173843E-001;2.980614313855767E-003;-4.787084180861712E-003;-4.891558084636927E-003;
2.412000000000000E+009;1.812916696071625E-001;5.700169713236392E-004;-5.180266220122576E-003;-4.919284954667091E-003;
2.412166666666667E+009;1.812353283166885E-001;-1.726694405078888E-003;-5.508014000952244E-003;-4.743572790175676E-003;
2.412333333333334E+009;1.815453767776489E-001;-3.871819237247109E-003;-5.809863097965717E-003;-4.747177008539438E-003;
2.412500000000000E+009;1.819034069776535E-001;-6.154287140816450E-003;-6.080312654376030E-003;-4.317456390708685E-003;
2.412666666666667E+009;1.823920905590057E-001;-8.326699957251549E-003;-6.527245044708252E-003;-4.211081191897392E-003;
2.412833333333334E+009;1.830695867538452E-001;-1.050306577235460E-002;-6.833981722593308E-003;-4.009435884654522E-003;
2.413000000000000E+009;1.837116330862045E-001;-1.272317767143250E-002;-7.043858990073204E-003;-3.659675829112530E-003;
2.413166666666667E+009;1.844393610954285E-001;-1.474597491323948E-002;-7.484634406864643E-003;-3.303899196907878E-003;
2.413333333333334E+009;1.855788826942444E-001;-1.685695536434650E-002;-7.689666002988815E-003;-2.918417332693934E-003;
2.413500000000000E+009;1.860992908477783E-001;-1.904543489217758E-002;-8.054909296333790E-003;-2.567935502156615E-003;
2.413666666666667E+009;1.873230785131455E-001;-2.100998908281326E-002;-8.211975917220116E-003;-2.007401082664728E-003;
2.413833333333334E+009;1.882127672433853E-001;-2.274721860885620E-002;-8.388601243495941E-003;-1.575940987095237E-003;
2.414000000000000E+009;1.892211288213730E-001;-2.457422949373722E-002;-8.456343784928322E-003;-8.611440425738692E-004;
2.414166666666667E+009;1.903517693281174E-001;-2.620898187160492E-002;-8.433999493718147E-003;-4.764152108691633E-004;
2.414333333333334E+009;1.912348419427872E-001;-2.803128585219383E-002;-8.550354279577732E-003;1.081040536519140E-004;
2.414500000000000E+009;1.924349516630173E-001;-2.951749041676521E-002;-8.454418741166592E-003;4.099711659364402E-004;
2.414666666666667E+009;1.934519559144974E-001;-3.099603578448296E-002;-8.255899883806706E-003;9.862206643447280E-004;
2.414833333333334E+009;1.943559646606445E-001;-3.223885223269463E-002;-8.206689730286598E-003;1.295392168685794E-003;
2.415000000000000E+009;1.952409297227860E-001;-3.353546932339668E-002;-7.969988510012627E-003;1.745072426274419E-003;
2.415166666666667E+009;1.965577006340027E-001;-3.464724123477936E-002;-7.768848445266485E-003;2.068890957161784E-003;
2.415333333333334E+009;1.975222527980804E-001;-3.557953983545303E-002;-7.491514086723328E-003;2.472007181495428E-003;
2.415500000000000E+009;1.984756141901016E-001;-3.625371307134628E-002;-7.358365692198277E-003;2.742707030847669E-003;
2.415666666666667E+009;1.993001252412796E-001;-3.716690465807915E-002;-7.204354275017977E-003;2.997444942593575E-003;
2.415833333333334E+009;1.999738663434982E-001;-3.788672387599945E-002;-7.014726754277945E-003;3.168835071846843E-003;
2.416000000000000E+009;2.005500942468643E-001;-3.865749388933182E-002;-6.944107823073864E-003;3.573459107428789E-003;
2.416166666666667E+009;2.011481076478958E-001;-3.931710124015808E-002;-6.691972259432077E-003;3.982299007475376E-003;
2.416333333333334E+009;2.017152756452560E-001;-3.974852338433266E-002;-6.353380158543587E-003;4.200601950287819E-003;
2.416500000000000E+009;2.020130157470703E-001;-4.012939706444740E-002;-6.192838773131371E-003;4.437086172401905E-003;
2.416666666666667E+009;2.022055834531784E-001;-4.060358926653862E-002;-5.846919491887093E-003;4.593887366354466E-003;
2.416833333333334E+009;2.022026479244232E-001;-4.074574261903763E-002;-5.559934303164482E-003;4.805028904229403E-003;
2.417000000000000E+009;2.022981196641922E-001;-4.107901826500893E-002;-5.261227954179049E-003;5.057184956967831E-003;
2.417166666666667E+009;2.018764764070511E-001;-4.114954918622971E-002;-4.899681080132723E-003;5.217806436121464E-003;
2.417333333333334E+009;2.016088068485260E-001;-4.111283645033836E-002;-4.600489977747202E-003;5.272677168250084E-003;
2.417500000000000E+009;2.013319730758667E-001;-4.137777909636498E-002;-4.101427737623453E-003;5.364394281059504E-003;
2.417666666666667E+009;2.008509784936905E-001;-4.133173078298569E-002;-3.916610497981310E-003;5.554679315537214E-003;
2.417833333333334E+009;2.004647701978684E-001;-4.141691327095032E-002;-3.555787960067391E-003;5.583836231380701E-003;
2.418000000000000E+009;1.998213976621628E-001;-4.127799719572067E-002;-3.185840556398034E-003;5.645492114126682E-003;
2.418166666666667E+009;1.988578736782074E-001;-4.145873710513115E-002;-2.872738055884838E-003;5.403314251452684E-003;
2.418333333333334E+009;1.981510967016220E-001;-4.150294512510300E-002;-2.637010067701340E-003;5.414709448814392E-003;
2.418500000000000E+009;1.972132623195648E-001;-4.178899526596069E-002;-2.357722027227283E-003;5.340178497135639E-003;
2.418666666666667E+009;1.962704956531525E-001;-4.186351224780083E-002;-2.186187542974949E-003;5.132392048835754E-003;
2.418833333333334E+009;1.951162219047546E-001;-4.212252795696259E-002;-1.918114256113768E-003;5.063953343778849E-003;
2.419000000000000E+009;1.939171552658081E-001;-4.262422397732735E-002;-1.829278888180852E-003;5.072402302175760E-003;
2.419166666666667E+009;1.927084773778915E-001;-4.307642206549645E-002;-1.716163591481745E-003;4.824425559490919E-003;
2.419333333333334E+009;1.913987100124359E-001;-4.352124407887459E-002;-1.479376573115587E-003;4.659695085138083E-003;
2.419500000000000E+009;1.902244240045548E-001;-4.411645978689194E-002;-1.487481873482466E-003;4.681997001171112E-003;
2.419666666666667E+009;1.887268722057343E-001;-4.490717500448227E-002;-1.273642177693546E-003;4.524792078882456E-003;
2.419833333333334E+009;1.872946321964264E-001;-4.574830457568169E-002;-1.277950708754361E-003;4.415455739945173E-003;
2.420000000000000E+009;1.858734339475632E-001;-4.666783660650253E-002;-1.268106512725353E-003;4.349288064986467E-003;
2.420166666666667E+009;1.844422817230225E-001;-4.775135219097138E-002;-1.195556367747486E-003;4.269484430551529E-003;
2.420333333333334E+009;1.828999817371368E-001;-4.890433698892593E-002;-1.208953559398651E-003;4.382142797112465E-003;
2.420500000000000E+009;1.814865469932556E-001;-5.023417621850967E-002;-1.116442610509694E-003;4.250731319189072E-003;
2.420666666666667E+009;1.800146251916885E-001;-5.132024735212326E-002;-1.135571626946330E-003;4.317929502576590E-003;
2.420833333333334E+009;1.786266416311264E-001;-5.284540727734566E-002;-1.124140690080822E-003;4.259763285517693E-003;
2.421000000000000E+009;1.772075444459915E-001;-5.435189232230187E-002;-1.006878446787596E-003;4.156225360929966E-003;
2.421166666666667E+009;1.760545372962952E-001;-5.601612478494644E-002;-9.374278015457094E-004;4.341393243521452E-003;
2.421333333333334E+009;1.744745522737503E-001;-5.741327628493309E-002;-9.291240130551159E-004;4.345104563981295E-003;
2.421500000000000E+009;1.734233945608139E-001;-5.927183479070664E-002;-7.382333278656006E-004;4.189905244857073E-003;
2.421666666666667E+009;1.723035424947739E-001;-6.101249903440476E-002;-6.444726022891700E-004;4.147735890001059E-003;
2.421833333333334E+009;1.711756885051727E-001;-6.263858079910278E-002;-6.521213217638433E-004;4.302958492189646E-003;
2.422000000000000E+009;1.700547635555267E-001;-6.451960653066635E-002;-5.095179658383131E-004;4.285728558897972E-003;
2.422166666666667E+009;1.693723499774933E-001;-6.654076278209686E-002;-5.475551588460803E-004;4.251687787473202E-003;
2.422333333333334E+009;1.684611141681671E-001;-6.826934963464737E-002;-3.338648821227253E-004;4.243513569235802E-003;
2.422500000000000E+009;1.677208691835403E-001;-7.025508582592011E-002;-3.008467319887132E-004;4.184529650956392E-003;
2.422666666666667E+009;1.671772897243500E-001;-7.231739908456802E-002;-3.111274854745716E-004;4.246785771101713E-003;
2.422833333333334E+009;1.666949093341827E-001;-7.391678541898727E-002;-2.916131925303489E-004;4.277818370610476E-003;
2.423000000000000E+009;1.661954671144486E-001;-7.583023607730866E-002;-1.748955401126295E-004;4.117040429264307E-003;
2.423166666666667E+009;1.657186448574066E-001;-7.752297073602676E-002;-1.706803595880047E-004;4.064992535859346E-003;
2.423333333333334E+009;1.654748916625977E-001;-7.951219379901886E-002;-1.094186009140685E-004;4.102813545614481E-003;
2.423500000000000E+009;1.652448624372482E-001;-8.114388585090637E-002;-1.547979045426473E-004;4.049896262586117E-003;
2.423666666666667E+009;1.652902215719223E-001;-8.287378400564194E-002;-7.230904157040641E-005;4.206423647701740E-003;
2.423833333333334E+009;1.651112437248230E-001;-8.458088338375092E-002;-1.169649767689407E-004;4.084896296262741E-003;
2.424000000000000E+009;1.652431637048721E-001;-8.630200475454330E-002;-5.624013283522800E-005;4.251180216670036E-003;
2.424166666666667E+009;1.651082038879395E-001;-8.776518702507019E-002;-9.723214316181839E-005;4.285661038011313E-003;
2.424333333333334E+009;1.653877496719360E-001;-8.916330337524414E-002;-1.125178387155756E-004;4.311038181185722E-003;
2.424500000000000E+009;1.656696647405624E-001;-9.097812324762344E-002;2.705236693145707E-005;4.442398902028799E-003;
2.424666666666667E+009;1.656783819198608E-001;-9.208495914936066E-002;1.303279132116586E-004;4.645907320082188E-003;
2.424833333333334E+009;1.662504374980927E-001;-9.336551278829575E-002;2.366278786212206E-004;4.750149790197611E-003;
2.425000000000000E+009;1.664597541093826E-001;-9.444826096296310E-002;4.781605093739927E-004;4.886270035058260E-003;
2.425166666666667E+009;1.665728092193604E-001;-9.561862796545029E-002;5.705942166969180E-004;4.904208704829216E-003;
2.425333333333334E+009;1.668156534433365E-001;-9.663186967372894E-002;7.363103213720024E-004;4.978291224688292E-003;
2.425500000000000E+009;1.672278344631195E-001;-9.759590029716492E-002;1.019227085635066E-003;4.994762595742941E-003;
2.425666666666667E+009;1.673892438411713E-001;-9.829007834196091E-002;1.301815966144204E-003;5.104917567223311E-003;
2.425833333333334E+009;1.676574200391769E-001;-9.922482073307037E-002;1.327331643551588E-003;5.133218131959438E-003;
2.426000000000000E+009;1.678788512945175E-001;-9.958904236555100E-002;1.608741586096585E-003;5.094881635159254E-003;
2.426166666666667E+009;1.681770235300064E-001;-1.002042740583420E-001;1.692774123512209E-003;5.200518295168877E-003;
2.426333333333334E+009;1.682572513818741E-001;-1.008908972144127E-001;2.098824596032500E-003;5.029485560953617E-003;
2.426500000000000E+009;1.686272025108337E-001;-1.012145355343819E-001;2.320531057193875E-003;5.023756995797157E-003;
2.426666666666667E+009;1.687024831771851E-001;-1.015509366989136E-001;2.572815865278244E-003;4.925722256302834E-003;
2.426833333333334E+009;1.689334213733673E-001;-1.018812432885170E-001;2.645398024469614E-003;4.902600310742855E-003;
2.427000000000000E+009;1.689477264881134E-001;-1.023391187191010E-001;2.808926627039909E-003;4.907477181404829E-003;
2.427166666666667E+009;1.688286513090134E-001;-1.025528162717819E-001;3.112869570031762E-003;4.754202906042337E-003;
2.427333333333334E+009;1.687556505203247E-001;-1.029044017195702E-001;3.184532281011343E-003;4.649050068110228E-003;
2.427500000000000E+009;1.685536652803421E-001;-1.031943261623383E-001;3.348654136061668E-003;4.335592966526747E-003;
2.427666666666667E+009;1.682845801115036E-001;-1.033894792199135E-001;3.603964112699032E-003;4.230962600558996E-003;
