# Version 1.00
#
freq[Hz];re:Trc1_S11;im:Trc1_S11;re:Trc2_S21;im:Trc2_S21;
2.400000000000000E+009;1.550194472074509E-001;1.063021048903465E-001;-6.696575321257114E-003;-5.670329555869103E-003;
2.400166666666667E+009;1.546466052532196E-001;1.040408238768578E-001;-6.969478912651539E-003;-5.445769522339106E-003;
2.400333333333334E+009;1.548474282026291E-001;1.015755310654640E-001;-7.407403551042080E-003;-5.113339517265558E-003;
2.400500000000000E+009;1.546076089143753E-001;9.900511056184769E-002;-7.592209614813328E-003;-4.864575807005167E-003;
2.400666666666667E+009;1.548421531915665E-001;9.652613103389740E-002;-7.856178097426891E-003;-4.433926660567522E-003;
2.400833333333334E+009;1.548508405685425E-001;9.372767806053162E-002;-8.063007146120071E-003;-4.289069212973118E-003;
2.401000000000000E+009;1.550852060317993E-001;9.095171838998795E-002;-8.235732093453407E-003;-3.896956332027912E-003;
2.401166666666667E+009;1.551901102066040E-001;8.822868019342423E-002;-8.437869139015675E-003;-3.695372492074966E-003;
2.401333333333334E+009;1.555183380842209E-001;8.546331524848938E-002;-8.669701404869556E-003;-3.211364382877946E-003;
2.401500000000000E+009;1.558745503425598E-001;8.264440298080444E-002;-8.774588815867901E-003;-2.939608180895448E-003;
2.401666666666667E+009;1.563546508550644E-001;7.983645796775818E-002;-8.732848800718784E-003;-2.499581081792712E-003;
2.401833333333334E+009;1.568319052457809E-001;7.727061957120895E-002;-8.970069698989391E-003;-2.282465808093548E-003;
2.402000000000000E+009;1.577252596616745E-001;7.454046607017517E-002;-8.939084596931934E-003;-2.024989109486342E-003;
2.402166666666667E+009;1.587495207786560E-001;7.200763374567032E-002;-9.074170142412186E-003;-1.585417194291949E-003;
2.402333333333334E+009;1.596430987119675E-001;6.949073821306229E-002;-9.052425622940064E-003;-1.310873078182340E-003;
2.402500000000000E+009;1.607987433671951E-001;6.704425066709518E-002;-9.096303023397923E-003;-8.380858344025910E-004;
2.402666666666667E+009;1.619655936956406E-001;6.466697901487351E-002;-9.272566996514797E-003;-6.215955945663154E-004;
2.402833333333334E+009;1.632498800754547E-001;6.231128796935082E-002;-9.285104461014271E-003;-6.134733121143654E-005;
2.403000000000000E+009;1.648421734571457E-001;6.001569330692291E-002;-9.280911646783352E-003;1.476961479056627E-004;
2.403166666666667E+009;1.664908528327942E-001;5.778253823518753E-002;-8.980658836662769E-003;7.276390097104013E-004;
2.403333333333334E+009;1.680717468261719E-001;5.575863271951675E-002;-9.220689535140991E-003;1.031177351251245E-003;
2.403500000000000E+009;1.697593629360199E-001;5.348949134349823E-002;-9.160342626273632E-003;1.354426261968911E-003;
2.403666666666667E+009;1.714379489421845E-001;5.182817950844765E-002;-8.994230069220066E-003;1.628351514227688E-003;
2.403833333333334E+009;1.731807887554169E-001;5.003801733255386E-002;-8.869402110576630E-003;1.947196666151285E-003;
2.404000000000000E+009;1.746957004070282E-001;4.831410199403763E-002;-8.723394945263863E-003;2.448141342028976E-003;
2.404166666666667E+009;1.765509247779846E-001;4.662609100341797E-002;-8.803139440715313E-003;2.895080950111151E-003;
2.404333333333334E+009;1.781246811151505E-001;4.522624239325523E-002;-8.433722890913487E-003;3.117066109552980E-003;
2.404500000000000E+009;1.797282695770264E-001;4.389066994190216E-002;-8.293715305626392E-003;3.323062323033810E-003;
2.404666666666667E+009;1.812716871500015E-001;4.264230653643608E-002;-8.099177852272987E-003;3.772544674575329E-003;
2.404833333333334E+009;1.829616129398346E-001;4.154798761010170E-002;-7.801747880876064E-003;4.119325429201126E-003;
2.405000000000000E+009;1.844287812709808E-001;4.085207358002663E-002;-7.672540843486786E-003;4.298415035009384E-003;
2.405166666666667E+009;1.858143955469132E-001;4.014357924461365E-002;-7.372305262833834E-003;4.620237275958061E-003;
2.405333333333334E+009;1.872957050800324E-001;3.948338329792023E-002;-7.096279412508011E-003;4.880766384303570E-003;
2.405500000000000E+009;1.886360049247742E-001;3.930735960602760E-002;-6.906099151819944E-003;5.021465010941029E-003;
2.405666666666667E+009;1.897559314966202E-001;3.875498846173286E-002;-6.395509466528893E-003;5.347241647541523E-003;
2.405833333333334E+009;1.910352557897568E-001;3.853594139218330E-002;-6.156943738460541E-003;5.319439340382814E-003;
2.406000000000000E+009;1.920050531625748E-001;3.821804746985436E-002;-6.033138837665319E-003;5.715545266866684E-003;
2.406166666666667E+009;1.929373741149902E-001;3.800269216299057E-002;-5.669173318892717E-003;5.629922263324261E-003;
2.406333333333334E+009;1.939229816198349E-001;3.800930827856064E-002;-5.418664310127497E-003;5.646581295877695E-003;
2.406500000000000E+009;1.947010308504105E-001;3.811840340495110E-002;-5.143106915056706E-003;5.836865864694119E-003;
2.406666666666667E+009;1.951374709606171E-001;3.795928508043289E-002;-4.916703794151545E-003;5.889505147933960E-003;
2.406833333333334E+009;1.957870572805405E-001;3.801473975181580E-002;-4.572898615151644E-003;5.856432486325502E-003;
2.407000000000000E+009;1.958770304918289E-001;3.803061693906784E-002;-4.275800660252571E-003;5.913548637181521E-003;
2.407166666666667E+009;1.963207572698593E-001;3.802168741822243E-002;-4.135694820433855E-003;5.849550478160381E-003;
2.407333333333334E+009;1.962514519691467E-001;3.804183751344681E-002;-3.836390329524875E-003;5.816221702843905E-003;
2.407500000000000E+009;1.962842196226120E-001;3.800791501998901E-002;-3.705743001773953E-003;5.905301310122013E-003;
2.407666666666667E+009;1.962956041097641E-001;3.792661800980568E-002;-3.572446992620826E-003;5.879108328372240E-003;
2.407833333333334E+009;1.957977712154388E-001;3.774567320942879E-002;-3.413080470636487E-003;5.752013530582190E-003;
2.408000000000000E+009;1.957979202270508E-001;3.754086419939995E-002;-3.142823232337833E-003;5.858424119651318E-003;
2.408166666666667E+009;1.950734555721283E-001;3.712297230958939E-002;-3.019765252247453E-003;5.867904517799616E-003;
2.408333333333334E+009;1.946198940277100E-001;3.658222407102585E-002;-2.896567573770881E-003;5.676290486007929E-003;
2.408500000000000E+009;1.939428895711899E-001;3.621380776166916E-002;-2.807318000122905E-003;5.588489584624767E-003;
2.408666666666667E+009;1.933105140924454E-001;3.563956916332245E-002;-2.881681080907583E-003;5.714134313166142E-003;
2.408833333333334E+009;1.925736814737320E-001;3.489734977483749E-002;-2.751014661043882E-003;5.651683080941439E-003;
2.409000000000000E+009;1.916248351335526E-001;3.389322385191917E-002;-2.708273474127054E-003;5.509554408490658E-003;
2.409166666666667E+009;1.907090842723846E-001;3.291040658950806E-002;-2.554642735049129E-003;5.685792304575443E-003;
2.409333333333334E+009;1.898684054613113E-001;3.185789287090302E-002;-2.518425462767482E-003;5.681310780346394E-003;
2.409500000000000E+009;1.887089312076569E-001;3.061312623322010E-002;-2.450636588037014E-003;5.721460096538067E-003;
2.409666666666667E+009;1.878890693187714E-001;2.912204153835774E-002;-2.654965734109283E-003;5.697146989405155E-003;
2.409833333333334E+009;1.867184638977051E-001;2.755708806216717E-002;-2.354637021198869E-003;5.758476443588734E-003;
2.410000000000000E+009;1.856164485216141E-001;2.601986750960350E-002;-2.444866346195340E-003;5.808363668620586E-003;
2.410166666666667E+009;1.848440319299698E-001;2.428808063268662E-002;-2.452329499647021E-003;5.978328175842762E-003;
2.410333333333334E+009;1.838114708662033E-001;2.249766141176224E-002;-2.237889915704727E-003;6.104500964283943E-003;
2.410500000000000E+009;1.828903108835220E-001;2.040090598165989E-002;-2.156340982764959E-003;5.988605320453644E-003;
2.410666666666667E+009;1.819751560688019E-001;1.827395707368851E-002;-2.171537838876247E-003;6.196104921400547E-003;
2.410833333333334E+009;1.814023703336716E-001;1.605075970292091E-002;-2.082279417663813E-003;6.138077471405268E-003;
2.411000000000000E+009;1.807020008563995E-001;1.370008476078510E-002;-1.892588683404028E-003;6.430528592318296E-003;
2.411166666666667E+009;1.800523996353149E-001;1.157204806804657E-002;-1.817729440517724E-003;6.392809562385082E-003;
2.411333333333334E+009;1.795815676450729E-001;9.117460809648037E-003;-1.748259877786040E-003;6.477520801126957E-003;
2.411500000000000E+009;1.790678054094315E-001;6.725617684423924E-003;-1.531919697299600E-003;6.582282017916441E-003;
2.411666666666667E+009;1.789053827524185E-001;4.356961697340012E-003;-1.499003847129643E-003;6.685753818601370E-003;
2.411833333333334E+009;1.786357313394547E-001;1.866473234258592E-003;-1.290050684474409E-003;6.715969648212194E-003;
2.412000000000000E+009;1.788194626569748E-001;-5.203555920161307E-004;-1.172146643511951E-003;6.802449002861977E-003;
2.412166666666667E+009;1.788976341485977E-001;-3.031714586541057E-003;-1.103114103898406E-003;6.956372875720263E-003;
2.412333333333334E+009;1.791390925645828E-001;-5.375545471906662E-003;-9.312387555837631E-004;6.995996925979853E-003;
2.412500000000000E+009;1.795283257961273E-001;-7.748780306428671E-003;-8.154055685736239E-004;6.934293080121279E-003;
2.412666666666667E+009;1.800511032342911E-001;-1.023447979241610E-002;-5.967105389572680E-004;7.333544548600912E-003;
2.412833333333334E+009;1.807111799716950E-001;-1.268886588513851E-002;-5.132058286108077E-004;7.313787471503019E-003;
2.413000000000000E+009;1.815067678689957E-001;-1.497242320328951E-002;-2.412741014268249E-004;7.497446145862341E-003;
2.413166666666667E+009;1.821168214082718E-001;-1.704970374703407E-002;-1.843142963480204E-004;7.593731395900250E-003;
2.413333333333334E+009;1.831077933311462E-001;-1.955667324364185E-002;1.746202906360850E-004;7.643834687769413E-003;
2.413500000000000E+009;1.839847713708878E-001;-2.176878787577152E-002;3.954593557864428E-004;7.836694829165936E-003;
2.413666666666667E+009;1.851180195808411E-001;-2.374251559376717E-002;5.896753864362836E-004;7.806546520441771E-003;
2.413833333333334E+009;1.861682683229446E-001;-2.582775801420212E-002;8.094353834167123E-004;7.913532666862011E-003;
2.414000000000000E+009;1.872312426567078E-001;-2.775789611041546E-002;1.022311043925583E-003;8.130636997520924E-003;
2.414166666666667E+009;1.885314732789993E-001;-2.948319539427757E-002;1.452780095860362E-003;8.157867938280106E-003;
2.414333333333334E+009;1.894622147083283E-001;-3.140677884221077E-002;1.614610664546490E-003;8.227172307670116E-003;
2.414500000000000E+009;1.906882077455521E-001;-3.289188444614410E-002;1.932618790306151E-003;8.256188593804836E-003;
2.414666666666667E+009;1.918024420738220E-001;-3.436350822448731E-002;2.275117440149188E-003;8.293815888464451E-003;
2.414833333333334E+009;1.930009722709656E-001;-3.564231097698212E-002;2.845662645995617E-003;8.144630119204521E-003;
2.415000000000000E+009;1.940190941095352E-001;-3.697916865348816E-002;3.097903449088335E-003;8.239415474236012E-003;
2.415166666666667E+009;1.952331364154816E-001;-3.800229355692864E-002;3.386067925021052E-003;8.189666084945202E-003;
2.415333333333334E+009;1.963378787040710E-001;-3.898192197084427E-002;3.889803076162934E-003;8.223380893468857E-003;
2.415500000000000E+009;1.973014473915100E-001;-3.975266590714455E-002;4.167863633483648E-003;7.995159365236759E-003;
2.415666666666667E+009;1.982031911611557E-001;-4.054248332977295E-002;4.617988131940365E-003;7.864858955144882E-003;
2.415833333333334E+009;1.991160213947296E-001;-4.107295349240303E-002;4.968510009348393E-003;7.746070157736540E-003;
2.416000000000000E+009;1.997563689947128E-001;-4.150952771306038E-002;5.266386549919844E-003;7.459163665771484E-003;
2.416166666666667E+009;2.004781067371368E-001;-4.224240407347679E-002;5.445787683129311E-003;7.377482485026121E-003;
2.416333333333334E+009;2.010371685028076E-001;-4.239960014820099E-002;5.797974765300751E-003;7.252889219671488E-003;
2.416500000000000E+009;2.014472484588623E-001;-4.264183714985848E-002;6.187933962792158E-003;6.830444093793631E-003;
2.416666666666667E+009;2.016746401786804E-001;-4.290022701025009E-002;6.411365233361721E-003;6.576172076165676E-003;
2.416833333333334E+009;2.018182426691055E-001;-4.291322827339172E-002;6.723540835082531E-003;6.359306629747152E-003;
2.417000000000000E+009;2.018878012895584E-001;-4.309228062629700E-002;6.856713443994522E-003;6.103564519435167E-003;
2.417166666666667E+009;2.015608102083206E-001;-4.291745647788048E-002;7.172803860157728E-003;5.766337271779776E-003;
2.417333333333334E+009;2.012591660022736E-001;-4.275951534509659E-002;7.338145282119513E-003;5.413167178630829E-003;
2.417500000000000E+009;2.009024322032929E-001;-4.297783598303795E-002;7.512128911912441E-003;5.098190624266863E-003;
2.417666666666667E+009;2.004324644804001E-001;-4.258682951331139E-002;7.555384654551745E-003;4.901449661701918E-003;
2.417833333333334E+009;1.999324560165405E-001;-4.238939285278320E-002;7.890009321272373E-003;4.555195569992065E-003;
2.418000000000000E+009;1.992965340614319E-001;-4.213953018188477E-002;7.816557772457600E-003;4.090423695743084E-003;
2.418166666666667E+009;1.984539180994034E-001;-4.198956489562988E-002;7.910486310720444E-003;3.947235178202391E-003;
2.418333333333334E+009;1.975455731153488E-001;-4.188964888453484E-002;8.166058920323849E-003;3.748217597603798E-003;
2.418500000000000E+009;1.964563280344009E-001;-4.191901907324791E-002;8.123137056827545E-003;3.408917691558600E-003;
2.418666666666667E+009;1.954960674047470E-001;-4.181747511029244E-002;8.215706795454025E-003;3.020137315616012E-003;
2.418833333333334E+009;1.943263560533524E-001;-4.194780439138413E-002;8.247689343988895E-003;2.886160742491484E-003;
2.419000000000000E+009;1.930344700813294E-001;-4.217152297496796E-002;8.269775658845902E-003;2.568718278780580E-003;
2.419166666666667E+009;1.916935443878174E-001;-4.244806617498398E-002;8.365648798644543E-003;2.370299305766821E-003;
2.419333333333334E+009;1.904435455799103E-001;-4.288899526000023E-002;8.380172774195671E-003;2.181064337491989E-003;
2.419500000000000E+009;1.889043897390366E-001;-4.337188601493835E-002;8.418020792305470E-003;1.909465296193957E-003;
2.419666666666667E+009;1.873932331800461E-001;-4.408521577715874E-002;8.460409007966518E-003;1.550887478515506E-003;
2.419833333333334E+009;1.859809011220932E-001;-4.473834857344627E-002;8.461292833089829E-003;1.306694350205362E-003;
2.420000000000000E+009;1.844750046730042E-001;-4.547316581010819E-002;8.501783013343811E-003;1.143775531090796E-003;
2.420166666666667E+009;1.827984005212784E-001;-4.653997719287872E-002;8.497655391693115E-003;9.223920060321689E-004;
2.420333333333334E+009;1.813232749700546E-001;-4.761949181556702E-002;8.517810143530369E-003;7.554347976110876E-004;
2.420500000000000E+009;1.796358972787857E-001;-4.911705479025841E-002;8.482651785016060E-003;3.082222538068891E-004;
2.420666666666667E+009;1.780537962913513E-001;-5.014048516750336E-002;8.540716953575611E-003;2.890816176659428E-005;
2.420833333333334E+009;1.765521168708801E-001;-5.163796618580818E-002;8.405837230384350E-003;-2.261276677018032E-004;
2.421000000000000E+009;1.752473264932632E-001;-5.330082774162293E-002;8.530512452125549E-003;-4.438873147591949E-004;
2.421166666666667E+009;1.738917529582977E-001;-5.486111342906952E-002;8.491386659443378E-003;-6.488806102424860E-004;
2.421333333333334E+009;1.723071485757828E-001;-5.635709688067436E-002;8.457642048597336E-003;-9.582035709172487E-004;
2.421500000000000E+009;1.710231453180313E-001;-5.833105742931366E-002;8.290090598165989E-003;-1.280452823266387E-003;
2.421666666666667E+009;1.700189113616943E-001;-6.008364632725716E-002;8.155694231390953E-003;-1.427444512955844E-003;
2.421833333333334E+009;1.688462495803833E-001;-6.193137913942337E-002;8.083392865955830E-003;-1.828111708164215E-003;
2.422000000000000E+009;1.677283495664597E-001;-6.386064738035202E-002;8.090592920780182E-003;-1.923344447277486E-003;
2.422166666666667E+009;1.668446063995361E-001;-6.596037000417709E-002;7.808511611074209E-003;-2.131647197529674E-003;
2.422333333333334E+009;1.661129295825958E-001;-6.797567009925842E-002;7.780039217323065E-003;-2.448599785566330E-003;
2.422500000000000E+009;1.653123795986176E-001;-6.985039263963699E-002;7.775460369884968E-003;-2.747400430962443E-003;
2.422666666666667E+009;1.646392494440079E-001;-7.189908623695374E-002;7.400413509458304E-003;-2.902339911088347E-003;
2.422833333333334E+009;1.641214787960053E-001;-7.401438057422638E-002;7.302389480173588E-003;-3.014767775312066E-003;
2.423000000000000E+009;1.637908667325974E-001;-7.597648352384567E-002;7.039630785584450E-003;-3.228107001632452E-003;
2.423166666666667E+009;1.633342355489731E-001;-7.787185907363892E-002;6.969843059778214E-003;-3.447225084528327E-003;
2.423333333333334E+009;1.631547510623932E-001;-7.978550344705582E-002;6.879227701574564E-003;-3.659283975139260E-003;
2.423500000000000E+009;1.630970984697342E-001;-8.168070763349533E-002;6.651936564594507E-003;-3.726408351212740E-003;
2.423666666666667E+009;1.630859076976776E-001;-8.353585749864578E-002;6.410337053239346E-003;-3.807814326137304E-003;
2.423833333333334E+009;1.630891561508179E-001;-8.518492430448532E-002;6.381007377058268E-003;-3.937713336199522E-003;
2.424000000000000E+009;1.631775349378586E-001;-8.694943040609360E-002;6.286081857979298E-003;-4.291828256100416E-003;
2.424166666666667E+009;1.633263826370239E-001;-8.849936723709106E-002;5.983839277178049E-003;-4.258692264556885E-003;
2.424333333333334E+009;1.634849160909653E-001;-9.002002328634262E-002;5.871158558875322E-003;-4.357634577900171E-003;
2.424500000000000E+009;1.639292538166046E-001;-9.177030622959137E-002;5.806915462017059E-003;-4.496125038713217E-003;
2.424666666666667E+009;1.641222089529038E-001;-9.320995211601257E-002;5.668458063155413E-003;-4.603724461048842E-003;
2.424833333333334E+009;1.646339446306229E-001;-9.428872168064117E-002;5.583332851529121E-003;-4.550028592348099E-003;
2.425000000000000E+009;1.650422215461731E-001;-9.542222321033478E-002;5.521911662071943E-003;-4.891186486929655E-003;
2.425166666666667E+009;1.652748137712479E-001;-9.656460583209992E-002;5.259022116661072E-003;-4.910216201096773E-003;
2.425333333333334E+009;1.655721962451935E-001;-9.745270013809204E-002;5.030829925090075E-003;-4.895561374723911E-003;
2.425500000000000E+009;1.660253852605820E-001;-9.847344458103180E-002;5.077502690255642E-003;-5.167795345187187E-003;
2.425666666666667E+009;1.664709746837616E-001;-9.905343502759934E-002;4.945794120430946E-003;-5.298291798681021E-003;
2.425833333333334E+009;1.667596846818924E-001;-9.997896105051041E-002;4.967814311385155E-003;-5.192143376916647E-003;
2.426000000000000E+009;1.671696603298187E-001;-1.004176661372185E-001;4.734995309263468E-003;-5.340897478163242E-003;
2.426166666666667E+009;1.675485819578171E-001;-1.008751392364502E-001;4.553935490548611E-003;-5.569227039813995E-003;
2.426333333333334E+009;1.676123291254044E-001;-1.013367697596550E-001;4.444677382707596E-003;-5.869845859706402E-003;
2.426500000000000E+009;1.680850982666016E-001;-1.016669273376465E-001;4.353938624262810E-003;-5.829465109854937E-003;
2.426666666666667E+009;1.681880801916122E-001;-1.019042879343033E-001;4.239948932081461E-003;-6.045924965292215E-003;
2.426833333333334E+009;1.684584021568298E-001;-1.022351756691933E-001;4.148911684751511E-003;-6.278661079704762E-003;
2.427000000000000E+009;1.683954596519470E-001;-1.023985594511032E-001;3.823356702923775E-003;-6.248666439205408E-003;
2.427166666666667E+009;1.684201955795288E-001;-1.024909466505051E-001;3.722569672390819E-003;-6.473281420767307E-003;
2.427333333333334E+009;1.682967990636826E-001;-1.027606874704361E-001;3.677030326798558E-003;-6.407035980373621E-003;
2.427500000000000E+009;1.680652946233749E-001;-1.029720604419708E-001;3.359160851687193E-003;-6.604212801903486E-003;
2.427666666666667E+009;1.677009314298630E-001;-1.032412126660347E-001;3.134123282507062E-003;-6.766599137336016E-003;
2.427833333333334E+009;1.672929078340530E-001;-1.032144427299500E-001;3.059069393202663E-003;-6.756992544978857E-003;
