# Version 1.00
#
freq[Hz];re:Trc1_S11;im:Trc1_S11;re:Trc2_S21;im:Trc2_S21;
2.400000000000000E+009;1.548365652561188E-001;1.062826886773109E-001;-6.663382053375244E-003;-5.623928271234036E-003;
2.400166666666667E+009;1.547281295061112E-001;1.039231866598129E-001;-7.088890764862299E-003;-5.304246675223112E-003;
2.400333333333334E+009;1.547416597604752E-001;1.017521396279335E-001;-7.376180030405521E-003;-5.282739643007517E-003;
2.400500000000000E+009;1.545520126819611E-001;9.900130331516266E-002;-7.684311363846064E-003;-4.825162701308727E-003;
2.400666666666667E+009;1.547327488660812E-001;9.653214365243912E-002;-7.918294519186020E-003;-4.583181347697973E-003;
2.400833333333334E+009;1.547345072031021E-001;9.365630894899368E-002;-8.206592872738838E-003;-4.282855894416571E-003;
2.401000000000000E+009;1.548526883125305E-001;9.089852869510651E-002;-8.409013040363789E-003;-3.917191643267870E-003;
2.401166666666667E+009;1.549772620201111E-001;8.829003572463989E-002;-8.497383445501328E-003;-3.596954979002476E-003;
2.401333333333334E+009;1.553848981857300E-001;8.544261008501053E-002;-8.500637486577034E-003;-3.216311102733016E-003;
2.401500000000000E+009;1.559028625488281E-001;8.271504193544388E-002;-8.673135191202164E-003;-2.927877707406879E-003;
2.401666666666667E+009;1.563574820756912E-001;7.981920987367630E-002;-8.899788372218609E-003;-2.727295737713575E-003;
2.401833333333334E+009;1.567875295877457E-001;7.729093730449677E-002;-8.882409892976284E-003;-2.225959207862616E-003;
2.402000000000000E+009;1.577209085226059E-001;7.450092583894730E-002;-9.012775495648384E-003;-1.870580599643290E-003;
2.402166666666667E+009;1.585752964019775E-001;7.207432389259338E-002;-9.238052181899548E-003;-1.502326340414584E-003;
2.402333333333334E+009;1.596003323793411E-001;6.938350200653076E-002;-9.180802851915360E-003;-1.303339260630310E-003;
2.402500000000000E+009;1.607555449008942E-001;6.691841781139374E-002;-9.236279875040054E-003;-9.160761255770922E-004;
2.402666666666667E+009;1.616936326026917E-001;6.467575579881668E-002;-9.223149158060551E-003;-5.929486360400915E-004;
2.402833333333334E+009;1.632021516561508E-001;6.231707707047463E-002;-9.305014275014401E-003;-1.735236437525600E-004;
2.403000000000000E+009;1.646878272294998E-001;5.995547771453857E-002;-9.331773966550827E-003;1.040503921103664E-004;
2.403166666666667E+009;1.664343327283859E-001;5.784940347075462E-002;-9.313914924860001E-003;7.215096266008914E-004;
2.403333333333334E+009;1.679251790046692E-001;5.557778477668762E-002;-9.243562817573547E-003;1.091009122319520E-003;
2.403500000000000E+009;1.696074157953262E-001;5.380265414714813E-002;-9.135065600275993E-003;1.497892430052161E-003;
2.403666666666667E+009;1.713881492614746E-001;5.187302082777023E-002;-9.069988504052162E-003;1.732089556753635E-003;
2.403833333333334E+009;1.729944348335266E-001;4.997209087014198E-002;-9.076280519366264E-003;2.209429163485766E-003;
2.404000000000000E+009;1.744286268949509E-001;4.809587448835373E-002;-8.939498104155064E-003;2.607336500659585E-003;
2.404166666666667E+009;1.764298081398010E-001;4.671102017164230E-002;-8.606246672570705E-003;3.054640954360366E-003;
2.404333333333334E+009;1.780295968055725E-001;4.524708911776543E-002;-8.425819687545300E-003;3.250271314755082E-003;
2.404500000000000E+009;1.795049011707306E-001;4.387085512280464E-002;-8.253832347691059E-003;3.556329989805818E-003;
2.404666666666667E+009;1.812728345394135E-001;4.279500991106033E-002;-7.990946993231773E-003;3.987578209489584E-003;
2.404833333333334E+009;1.828230023384094E-001;4.173505678772926E-002;-7.915344089269638E-003;4.111805930733681E-003;
2.405000000000000E+009;1.843017637729645E-001;4.101141169667244E-002;-7.535957265645266E-003;4.320491570979357E-003;
2.405166666666667E+009;1.856726855039597E-001;4.028088971972466E-002;-7.325637619942427E-003;4.564953967928886E-003;
2.405333333333334E+009;1.870507597923279E-001;3.971323370933533E-002;-7.083011325448751E-003;4.855904262512922E-003;
2.405500000000000E+009;1.885120868682861E-001;3.932297229766846E-002;-6.931557785719633E-003;5.002279765903950E-003;
2.405666666666667E+009;1.896428018808365E-001;3.886741027235985E-002;-6.532997824251652E-003;5.199428647756577E-003;
2.405833333333334E+009;1.909355819225311E-001;3.857498243451119E-002;-6.335600279271603E-003;5.436826962977648E-003;
2.406000000000000E+009;1.917984783649445E-001;3.841919824481010E-002;-5.853455979377031E-003;5.664295982569456E-003;
2.406166666666667E+009;1.927010416984558E-001;3.826364874839783E-002;-5.707102827727795E-003;5.715020466595888E-003;
2.406333333333334E+009;1.938045471906662E-001;3.816678002476692E-002;-5.434247199445963E-003;5.828904919326305E-003;
2.406500000000000E+009;1.945908516645432E-001;3.823361545801163E-002;-5.047398619353771E-003;6.042340304702520E-003;
2.406666666666667E+009;1.951909363269806E-001;3.827188536524773E-002;-4.775703418999910E-003;5.994904786348343E-003;
2.406833333333334E+009;1.956532150506973E-001;3.813444823026657E-002;-4.594849422574043E-003;5.943116266280413E-003;
2.407000000000000E+009;1.958479732275009E-001;3.851452097296715E-002;-4.403090570122004E-003;6.054842378944159E-003;
2.407166666666667E+009;1.962823420763016E-001;3.807210549712181E-002;-4.067181143909693E-003;6.000272929668427E-003;
2.407333333333334E+009;1.962476670742035E-001;3.832462057471275E-002;-3.829038701951504E-003;6.077887024730444E-003;
2.407500000000000E+009;1.960699558258057E-001;3.839864581823349E-002;-3.664814168587327E-003;5.989129655063152E-003;
2.407666666666667E+009;1.962487250566483E-001;3.814360871911049E-002;-3.299281001091003E-003;6.064882036298513E-003;
2.407833333333334E+009;1.956515014171600E-001;3.795750439167023E-002;-3.346958197653294E-003;5.936498288065195E-003;
2.408000000000000E+009;1.956150382757187E-001;3.772445768117905E-002;-3.124116221442819E-003;5.885242484509945E-003;
2.408166666666667E+009;1.949250549077988E-001;3.746107220649719E-002;-3.121296642348170E-003;5.869740620255470E-003;
2.408333333333334E+009;1.945513188838959E-001;3.689764440059662E-002;-2.772050909698010E-003;5.898043513298035E-003;
2.408500000000000E+009;1.938812285661697E-001;3.662247583270073E-002;-2.803508657962084E-003;5.901805125176907E-003;
2.408666666666667E+009;1.932403445243835E-001;3.595113754272461E-002;-2.717674011364579E-003;5.701483227312565E-003;
2.408833333333334E+009;1.925545781850815E-001;3.511263802647591E-002;-2.727149985730648E-003;5.645014811307192E-003;
2.409000000000000E+009;1.916300356388092E-001;3.422736749053001E-002;-2.568677300587297E-003;5.751052405685186E-003;
2.409166666666667E+009;1.908428072929382E-001;3.335551545023918E-002;-2.598994411528111E-003;5.658744834363461E-003;
2.409333333333334E+009;1.898359507322311E-001;3.232967481017113E-002;-2.382570644840598E-003;5.670752841979265E-003;
2.409500000000000E+009;1.887801438570023E-001;3.086202032864094E-002;-2.502619987353683E-003;5.641731433570385E-003;
2.409666666666667E+009;1.876622885465622E-001;2.946311607956886E-002;-2.465367084369063E-003;5.953337997198105E-003;
2.409833333333334E+009;1.868214011192322E-001;2.793827466666699E-002;-2.400987315922976E-003;5.843172315508127E-003;
2.410000000000000E+009;1.858590394258499E-001;2.638730965554714E-002;-2.401847392320633E-003;5.785742774605751E-003;
2.410166666666667E+009;1.849452704191208E-001;2.439416013658047E-002;-2.209560712799430E-003;6.092570256441832E-003;
2.410333333333334E+009;1.839520931243897E-001;2.272098138928413E-002;-2.299436135217547E-003;6.148030515760183E-003;
2.410500000000000E+009;1.829587668180466E-001;2.083704806864262E-002;-2.065353794023395E-003;6.097998935729265E-003;
2.410666666666667E+009;1.820624321699143E-001;1.845903880894184E-002;-2.034599427133799E-003;6.354529410600662E-003;
2.410833333333334E+009;1.815764605998993E-001;1.617094129323959E-002;-1.941196387633681E-003;6.480767391622067E-003;
2.411000000000000E+009;1.808302998542786E-001;1.412114128470421E-002;-1.796526601538062E-003;6.457357201725245E-003;
2.411166666666667E+009;1.801631301641464E-001;1.191932242363691E-002;-1.810332643799484E-003;6.465693935751915E-003;
2.411333333333334E+009;1.796828359365463E-001;9.375908412039280E-003;-1.481928979046643E-003;6.632252596318722E-003;
2.411500000000000E+009;1.794600486755371E-001;6.951107643544674E-003;-1.386309508234263E-003;6.818980444222689E-003;
2.411666666666667E+009;1.791996806859970E-001;4.722680896520615E-003;-1.305835205130279E-003;6.723692640662193E-003;
2.411833333333334E+009;1.789686828851700E-001;2.302721841260791E-003;-1.302388962358236E-003;6.840063259005547E-003;
2.412000000000000E+009;1.790538132190704E-001;-2.895924844779074E-004;-1.084120594896376E-003;6.951538380235434E-003;
2.412166666666667E+009;1.792691498994827E-001;-2.479303395375609E-003;-9.195328457280994E-004;7.024403195828199E-003;
2.412333333333334E+009;1.791650205850601E-001;-5.198517348617315E-003;-9.342047269456089E-004;7.035858929157257E-003;
2.412500000000000E+009;1.797871440649033E-001;-7.403464522212744E-003;-6.106612272560597E-004;7.216969039291143E-003;
2.412666666666667E+009;1.803169250488281E-001;-9.949311614036560E-003;-3.780089609790593E-004;7.418289780616760E-003;
2.412833333333334E+009;1.809928566217423E-001;-1.234885584563017E-002;-2.929596230387688E-004;7.262513041496277E-003;
2.413000000000000E+009;1.817012578248978E-001;-1.493231859058142E-002;-1.933315361384302E-004;7.620457094162703E-003;
2.413166666666667E+009;1.823998391628265E-001;-1.681833155453205E-002;1.250762288691476E-004;7.636928930878639E-003;
2.413333333333334E+009;1.833744496107101E-001;-1.922372542321682E-002;2.078471588902175E-004;7.824186235666275E-003;
2.413500000000000E+009;1.843090951442719E-001;-2.136424928903580E-002;5.211883108131588E-004;7.765822112560272E-003;
2.413666666666667E+009;1.854454278945923E-001;-2.359493821859360E-002;6.361335399560630E-004;7.992732338607311E-003;
2.413833333333334E+009;1.864244043827057E-001;-2.556523866951466E-002;1.034684479236603E-003;8.106958121061325E-003;
2.414000000000000E+009;1.875746995210648E-001;-2.755380235612392E-002;1.367565011605620E-003;8.084654808044434E-003;
2.414166666666667E+009;1.888945549726486E-001;-2.915957942605019E-002;1.511900103650987E-003;8.171530440449715E-003;
2.414333333333334E+009;1.898568123579025E-001;-3.129699453711510E-002;1.827637548558414E-003;8.156152442097664E-003;
2.414500000000000E+009;1.910210400819778E-001;-3.266287595033646E-002;2.297170925885439E-003;8.231183513998985E-003;
2.414666666666667E+009;1.921381950378418E-001;-3.412060067057610E-002;2.599983010441065E-003;8.376478217542172E-003;
2.414833333333334E+009;1.934075206518173E-001;-3.543369099497795E-002;2.934521995484829E-003;8.220532909035683E-003;
2.415000000000000E+009;1.943837851285934E-001;-3.674278408288956E-002;3.347109304741025E-003;8.116205222904682E-003;
2.415166666666667E+009;1.956560462713242E-001;-3.777110204100609E-002;3.597165690734983E-003;8.114855736494064E-003;
2.415333333333334E+009;1.966084092855454E-001;-3.875606134533882E-002;3.843781072646380E-003;8.130022324621677E-003;
2.415500000000000E+009;1.976307332515717E-001;-3.942518308758736E-002;4.220126196742058E-003;8.109122514724731E-003;
2.415666666666667E+009;1.986504048109055E-001;-4.027730599045754E-002;4.747948609292507E-003;7.898016832768917E-003;
2.415833333333334E+009;1.994789689779282E-001;-4.084792733192444E-002;5.013689398765564E-003;7.624307647347450E-003;
2.416000000000000E+009;2.001601159572601E-001;-4.144227504730225E-002;5.256952252238989E-003;7.503211032599211E-003;
2.416166666666667E+009;2.008740752935410E-001;-4.207149893045425E-002;5.681267473846674E-003;7.265175692737103E-003;
2.416333333333334E+009;2.013849318027496E-001;-4.222401976585388E-002;6.104188505560160E-003;7.129026576876640E-003;
2.416500000000000E+009;2.018236070871353E-001;-4.256797954440117E-002;6.375458091497421E-003;6.715052761137486E-003;
2.416666666666667E+009;2.020599842071533E-001;-4.289971664547920E-002;6.624022033065558E-003;6.352534051984549E-003;
2.416833333333334E+009;2.022028565406799E-001;-4.288103058934212E-002;6.858281325548887E-003;6.267955526709557E-003;
2.417000000000000E+009;2.022867351770401E-001;-4.299703985452652E-002;7.161700166761875E-003;5.864792037755251E-003;
2.417166666666667E+009;2.020317912101746E-001;-4.297772794961929E-002;7.311701308935881E-003;5.435931030660868E-003;
2.417333333333334E+009;2.018443942070007E-001;-4.273371025919914E-002;7.432723417878151E-003;5.339791066944599E-003;
2.417500000000000E+009;2.014741897583008E-001;-4.270889237523079E-002;7.733823731541634E-003;4.873254336416721E-003;
2.417666666666667E+009;2.008713185787201E-001;-4.252728074789047E-002;7.695557549595833E-003;4.607598297297955E-003;
2.417833333333334E+009;2.004243731498718E-001;-4.243616387248039E-002;7.928472012281418E-003;4.321037326008081E-003;
2.418000000000000E+009;1.996427476406097E-001;-4.218756780028343E-002;7.863283157348633E-003;3.977696411311626E-003;
2.418166666666667E+009;1.989204734563828E-001;-4.200943186879158E-002;7.882431149482727E-003;3.686828305944800E-003;
2.418333333333334E+009;1.979899704456329E-001;-4.190847650170326E-002;8.107823319733143E-003;3.522767219692469E-003;
2.418500000000000E+009;1.970347911119461E-001;-4.194547981023789E-002;8.216139860451222E-003;3.168362658470869E-003;
2.418666666666667E+009;1.960610300302506E-001;-4.179954156279564E-002;8.220932446420193E-003;3.037686226889491E-003;
2.418833333333334E+009;1.947982907295227E-001;-4.197560623288155E-002;8.297478780150414E-003;2.725976053625345E-003;
2.419000000000000E+009;1.934795379638672E-001;-4.210915043950081E-002;8.461670018732548E-003;2.292724791914225E-003;
2.419166666666667E+009;1.923662126064301E-001;-4.253892600536346E-002;8.438144810497761E-003;2.085290150716901E-003;
2.419333333333334E+009;1.908451467752457E-001;-4.299788549542427E-002;8.549955673515797E-003;1.858595176599920E-003;
2.419500000000000E+009;1.894891411066055E-001;-4.344740882515907E-002;8.374468423426151E-003;1.604501740075648E-003;
2.419666666666667E+009;1.880850940942764E-001;-4.425414279103279E-002;8.411945775151253E-003;1.391291734762490E-003;
2.419833333333334E+009;1.864183843135834E-001;-4.499492421746254E-002;8.563940413296223E-003;1.197421574033797E-003;
2.420000000000000E+009;1.849057227373123E-001;-4.576174169778824E-002;8.536349050700665E-003;9.642505901865661E-004;
2.420166666666667E+009;1.833231300115585E-001;-4.680891335010529E-002;8.515083231031895E-003;7.278534467332065E-004;
2.420333333333334E+009;1.819315254688263E-001;-4.797369986772537E-002;8.598680607974529E-003;5.046313162893057E-004;
2.420500000000000E+009;1.801615506410599E-001;-4.907550662755966E-002;8.597834967076778E-003;2.489229082129896E-004;
2.420666666666667E+009;1.787003576755524E-001;-5.038863420486450E-002;8.480883203446865E-003;-5.159061038284563E-005;
2.420833333333334E+009;1.771861612796783E-001;-5.173014476895332E-002;8.553360588848591E-003;-2.653514093253762E-004;
2.421000000000000E+009;1.757863312959671E-001;-5.350122973322868E-002;8.435068652033806E-003;-5.958186811767519E-004;
2.421166666666667E+009;1.742869764566422E-001;-5.511836335062981E-002;8.427411317825317E-003;-9.444220340810716E-004;
2.421333333333334E+009;1.726465523242950E-001;-5.654405802488327E-002;8.289441466331482E-003;-1.141290413215756E-003;
2.421500000000000E+009;1.715257167816162E-001;-5.854350328445435E-002;8.356259204447269E-003;-1.489484217017889E-003;
2.421666666666667E+009;1.703207939863205E-001;-6.052725017070770E-002;8.127419278025627E-003;-1.625907607376576E-003;
2.421833333333334E+009;1.691911667585373E-001;-6.230063736438751E-002;8.274037390947342E-003;-1.916008652187884E-003;
2.422000000000000E+009;1.682169288396835E-001;-6.429521739482880E-002;8.024811744689941E-003;-2.081567188724876E-003;
2.422166666666667E+009;1.675213724374771E-001;-6.633777916431427E-002;7.758954539895058E-003;-2.393826376646757E-003;
2.422333333333334E+009;1.663586646318436E-001;-6.846366077661514E-002;7.682279217988253E-003;-2.600417472422123E-003;
2.422500000000000E+009;1.657473891973496E-001;-7.023998349905014E-002;7.601344957947731E-003;-2.871226985007525E-003;
2.422666666666667E+009;1.650870442390442E-001;-7.227250188589096E-002;7.586333435028791E-003;-3.072855994105339E-003;
2.422833333333334E+009;1.645156145095825E-001;-7.440685480833054E-002;7.206422276794910E-003;-3.354977350682020E-003;
2.423000000000000E+009;1.640632599592209E-001;-7.641322910785675E-002;6.998265627771616E-003;-3.447328926995397E-003;
2.423166666666667E+009;1.636781841516495E-001;-7.847046852111816E-002;6.867846474051476E-003;-3.632659791037440E-003;
2.423333333333334E+009;1.634911596775055E-001;-8.040953427553177E-002;6.781836040318012E-003;-3.700332483276725E-003;
2.423500000000000E+009;1.633966714143753E-001;-8.205100148916245E-002;6.390156690031290E-003;-3.929901402443647E-003;
2.423666666666667E+009;1.635821163654327E-001;-8.401159197092056E-002;6.358125712722540E-003;-3.988218028098345E-003;
2.423833333333334E+009;1.634083539247513E-001;-8.566477149724960E-002;6.242267321795225E-003;-4.196116700768471E-003;
2.424000000000000E+009;1.635589748620987E-001;-8.744622021913528E-002;5.998747423291206E-003;-4.152487032115459E-003;
2.424166666666667E+009;1.634625047445297E-001;-8.896679431200028E-002;5.977966357022524E-003;-4.464288242161274E-003;
2.424333333333334E+009;1.637203395366669E-001;-9.066013991832733E-002;5.783177912235260E-003;-4.463831894099712E-003;
2.424500000000000E+009;1.641228049993515E-001;-9.236522763967514E-002;5.696692969650030E-003;-4.551054444164038E-003;
2.424666666666667E+009;1.642567664384842E-001;-9.377999603748322E-002;5.537536926567555E-003;-4.648413043469191E-003;
2.424833333333334E+009;1.648998707532883E-001;-9.484916925430298E-002;5.440100096166134E-003;-4.687116481363773E-003;
2.425000000000000E+009;1.651806533336639E-001;-9.614352136850357E-002;5.292579066008329E-003;-4.943613428622484E-003;
2.425166666666667E+009;1.654425114393234E-001;-9.718161821365356E-002;5.126421339809895E-003;-5.093371961265802E-003;
2.425333333333334E+009;1.658157110214233E-001;-9.803996235132217E-002;5.049293860793114E-003;-5.168658681213856E-003;
2.425500000000000E+009;1.661337018013001E-001;-9.908717125654221E-002;5.014856345951557E-003;-5.151703953742981E-003;
2.425666666666667E+009;1.665158271789551E-001;-9.966885298490524E-002;4.783311393111944E-003;-5.316102877259255E-003;
2.425833333333334E+009;1.668408960103989E-001;-1.006150618195534E-001;4.725300241261721E-003;-5.394713953137398E-003;
2.426000000000000E+009;1.672043204307556E-001;-1.009313166141510E-001;4.701565951108933E-003;-5.641933530569077E-003;
2.426166666666667E+009;1.675446033477783E-001;-1.014453396201134E-001;4.445917904376984E-003;-5.676822736859322E-003;
2.426333333333334E+009;1.676366329193115E-001;-1.019486859440804E-001;4.496512003242970E-003;-5.806941539049149E-003;
2.426500000000000E+009;1.680252403020859E-001;-1.022724285721779E-001;4.176096990704536E-003;-6.049440708011389E-003;
2.426666666666667E+009;1.681456118822098E-001;-1.026011630892754E-001;4.043873399496079E-003;-6.127865053713322E-003;
2.426833333333334E+009;1.683508902788162E-001;-1.028467416763306E-001;3.844223683699966E-003;-6.167953833937645E-003;
2.427000000000000E+009;1.682733595371246E-001;-1.030159443616867E-001;3.833062015473843E-003;-6.280304864048958E-003;
2.427166666666667E+009;1.683922260999680E-001;-1.031285598874092E-001;3.635131986811757E-003;-6.555539090186358E-003;
2.427333333333334E+009;1.681751757860184E-001;-1.033544167876244E-001;3.406527452170849E-003;-6.398012861609459E-003;
2.427500000000000E+009;1.679454445838928E-001;-1.035756915807724E-001;3.309808671474457E-003;-6.719734985381365E-003;
2.427666666666667E+009;1.676419377326965E-001;-1.035852730274200E-001;3.050017869099975E-003;-6.721062585711479E-003;
2.427833333333334E+009;1.671925783157349E-001;-1.038544625043869E-001;2.776534529402852E-003;-6.791174411773682E-003;
