# Version 1.00
#
freq[Hz];re:Trc1_S11;im:Trc1_S11;re:Trc2_S21;im:Trc2_S21;
2.400000000000000E+009;1.551474481821060E-001;1.064264699816704E-001;-6.728393957018852E-003;-5.564504768699408E-003;
2.400166666666667E+009;1.548993587493897E-001;1.040818691253662E-001;-7.083532866090536E-003;-5.287429783493280E-003;
2.400333333333334E+009;1.548141092061997E-001;1.018628329038620E-001;-7.372352760285139E-003;-5.076362751424313E-003;
2.400500000000000E+009;1.550113707780838E-001;9.911490976810455E-002;-7.622758857905865E-003;-4.839590284973383E-003;
2.400666666666667E+009;1.549998372793198E-001;9.657138586044312E-002;-7.976991124451160E-003;-4.578617401421070E-003;
2.400833333333334E+009;1.550783663988113E-001;9.369260072708130E-002;-8.116496726870537E-003;-4.265597555786371E-003;
2.401000000000000E+009;1.552334725856781E-001;9.107143431901932E-002;-8.375891484320164E-003;-3.811213653534651E-003;
2.401166666666667E+009;1.553061157464981E-001;8.832300454378128E-002;-8.473440073430538E-003;-3.492966294288635E-003;
2.401333333333334E+009;1.558129340410233E-001;8.561909943819046E-002;-8.716514334082604E-003;-3.177776699885726E-003;
2.401500000000000E+009;1.562892645597458E-001;8.263685554265976E-002;-8.786032907664776E-003;-2.802856033667922E-003;
2.401666666666667E+009;1.566028445959091E-001;7.996163517236710E-002;-8.891128003597260E-003;-2.561050234362483E-003;
2.401833333333334E+009;1.571456044912338E-001;7.726207375526428E-002;-8.846204727888107E-003;-2.116617746651173E-003;
2.402000000000000E+009;1.579963564872742E-001;7.471778243780136E-002;-8.966648019850254E-003;-1.815568539313972E-003;
2.402166666666667E+009;1.587191671133041E-001;7.206474244594574E-002;-9.103664197027683E-003;-1.413432299159467E-003;
2.402333333333334E+009;1.598461717367172E-001;6.933902204036713E-002;-9.271965362131596E-003;-1.004013349302113E-003;
2.402500000000000E+009;1.610908657312393E-001;6.697521358728409E-002;-9.288797155022621E-003;-8.066708687692881E-004;
2.402666666666667E+009;1.622313112020493E-001;6.462207436561585E-002;-9.216908365488052E-003;-4.739216237794608E-004;
2.402833333333334E+009;1.636663377285004E-001;6.224001944065094E-002;-9.317295625805855E-003;-1.569918822497129E-005;
2.403000000000000E+009;1.650380194187164E-001;6.005948409438133E-002;-9.251535870134831E-003;4.272523510735482E-004;
2.403166666666667E+009;1.666306853294373E-001;5.785641446709633E-002;-9.102423675358295E-003;7.217706297524273E-004;
2.403333333333334E+009;1.682340353727341E-001;5.556032434105873E-002;-9.188519790768623E-003;1.213519135490060E-003;
2.403500000000000E+009;1.698990166187286E-001;5.364184081554413E-002;-9.174997918307781E-003;1.394421560689807E-003;
2.403666666666667E+009;1.716321557760239E-001;5.162616074085236E-002;-9.015969932079315E-003;1.710859360173345E-003;
2.403833333333334E+009;1.734004467725754E-001;4.990074411034584E-002;-8.998036384582520E-003;2.158630639314652E-003;
2.404000000000000E+009;1.749608516693115E-001;4.811297357082367E-002;-8.856887929141522E-003;2.600834937766194E-003;
2.404166666666667E+009;1.766531020402908E-001;4.657785221934319E-002;-8.467327803373337E-003;2.944080391898751E-003;
2.404333333333334E+009;1.783833503723145E-001;4.514747858047485E-002;-8.439065888524056E-003;3.172711469233036E-003;
2.404500000000000E+009;1.798423081636429E-001;4.384317994117737E-002;-8.315410465002060E-003;3.536072093993425E-003;
2.404666666666667E+009;1.814436316490173E-001;4.269003495573998E-002;-8.083866909146309E-003;3.849949920549989E-003;
2.404833333333334E+009;1.832882016897202E-001;4.151783511042595E-002;-7.871601730585098E-003;4.282063804566860E-003;
2.405000000000000E+009;1.845243573188782E-001;4.085176438093185E-002;-7.478027138859034E-003;4.371190443634987E-003;
2.405166666666667E+009;1.859972178936005E-001;4.000359401106834E-002;-7.352644111961126E-003;4.741725977510214E-003;
2.405333333333334E+009;1.873214095830917E-001;3.960994631052017E-002;-7.005708757787943E-003;4.898167215287685E-003;
2.405500000000000E+009;1.887037456035614E-001;3.902913630008698E-002;-6.732308771461248E-003;5.211005918681622E-003;
2.405666666666667E+009;1.898727566003799E-001;3.874256089329720E-002;-6.608571857213974E-003;5.280534271150827E-003;
2.405833333333334E+009;1.910501420497894E-001;3.841673582792282E-002;-6.144165527075529E-003;5.493923556059599E-003;
2.406000000000000E+009;1.922444999217987E-001;3.831057250499725E-002;-5.897195078432560E-003;5.587966181337833E-003;
2.406166666666667E+009;1.931472867727280E-001;3.801702708005905E-002;-5.700196139514446E-003;5.705756600946188E-003;
2.406333333333334E+009;1.939075589179993E-001;3.794048726558685E-002;-5.492724478244782E-003;5.761883221566677E-003;
2.406500000000000E+009;1.946883797645569E-001;3.797439113259316E-002;-5.067345220595598E-003;6.194721441715956E-003;
2.406666666666667E+009;1.952784806489945E-001;3.793888166546822E-002;-4.766645375639200E-003;6.046378053724766E-003;
2.406833333333334E+009;1.958984881639481E-001;3.793979436159134E-002;-4.567408002912998E-003;6.042313296347857E-003;
2.407000000000000E+009;1.960842609405518E-001;3.811730816960335E-002;-4.330468364059925E-003;6.052360869944096E-003;
2.407166666666667E+009;1.964571774005890E-001;3.785171732306480E-002;-4.028619732707739E-003;6.121035199612379E-003;
2.407333333333334E+009;1.964118927717209E-001;3.793982043862343E-002;-3.782925428822637E-003;5.978763569146395E-003;
2.407500000000000E+009;1.963384300470352E-001;3.792539983987808E-002;-3.644289914518595E-003;6.058642640709877E-003;
2.407666666666667E+009;1.963928043842316E-001;3.776251152157784E-002;-3.379212692379952E-003;5.964047275483608E-003;
2.407833333333334E+009;1.959486156702042E-001;3.756937012076378E-002;-3.201171290129423E-003;5.998791661113501E-003;
2.408000000000000E+009;1.959002166986466E-001;3.736020624637604E-002;-3.207923844456673E-003;5.919872783124447E-003;
2.408166666666667E+009;1.951440125703812E-001;3.716449066996574E-002;-3.150353906676173E-003;5.754468962550163E-003;
2.408333333333334E+009;1.947920620441437E-001;3.651168197393417E-002;-2.838485175743699E-003;5.754165351390839E-003;
2.408500000000000E+009;1.941986083984375E-001;3.619332611560822E-002;-2.894806442782283E-003;5.721363704651594E-003;
2.408666666666667E+009;1.933551579713821E-001;3.553507849574089E-002;-2.731833606958389E-003;5.629447288811207E-003;
2.408833333333334E+009;1.927295178174973E-001;3.473388403654099E-002;-2.670489950105548E-003;5.640378687530756E-003;
2.409000000000000E+009;1.917069852352142E-001;3.374630212783814E-002;-2.467882353812456E-003;5.699512083083391E-003;
2.409166666666667E+009;1.907783746719360E-001;3.281356766819954E-002;-2.470696577802301E-003;5.536012817174196E-003;
2.409333333333334E+009;1.898022145032883E-001;3.184276074171066E-002;-2.438188530504704E-003;5.597161594778299E-003;
2.409500000000000E+009;1.887391805648804E-001;3.047503717243671E-002;-2.330077579244971E-003;5.465107038617134E-003;
2.409666666666667E+009;1.879359483718872E-001;2.905186451971531E-002;-2.452794462442398E-003;5.674843210726976E-003;
2.409833333333334E+009;1.868993192911148E-001;2.752176113426685E-002;-2.331393072381616E-003;5.804417654871941E-003;
2.410000000000000E+009;1.857867240905762E-001;2.580924890935421E-002;-2.414678456261754E-003;5.838944111019373E-003;
2.410166666666667E+009;1.850190162658691E-001;2.390948869287968E-002;-2.354992553591728E-003;5.900566931813955E-003;
2.410333333333334E+009;1.837893575429916E-001;2.214714139699936E-002;-2.089024987071753E-003;6.014661397784948E-003;
2.410500000000000E+009;1.830085664987564E-001;2.028583921492100E-002;-2.125995699316263E-003;6.092267110943794E-003;
2.410666666666667E+009;1.821393817663193E-001;1.800441741943359E-002;-1.974375220015645E-003;6.134055554866791E-003;
2.410833333333334E+009;1.815017014741898E-001;1.592314243316650E-002;-1.942443195730448E-003;6.093030795454979E-003;
2.411000000000000E+009;1.806475520133972E-001;1.368959806859493E-002;-1.887832535430789E-003;6.395658943802118E-003;
2.411166666666667E+009;1.800220906734467E-001;1.139371097087860E-002;-1.712242257781327E-003;6.398514844477177E-003;
2.411333333333334E+009;1.795687824487686E-001;8.952435106039047E-003;-1.494529307819903E-003;6.507736165076494E-003;
2.411500000000000E+009;1.791765838861466E-001;6.569694261997938E-003;-1.600284245796502E-003;6.458988413214684E-003;
2.411666666666667E+009;1.791192144155502E-001;4.106198903173208E-003;-1.398342428728938E-003;6.746849045157433E-003;
2.411833333333334E+009;1.787662804126740E-001;1.829464104957879E-003;-1.203851657919586E-003;6.648408714681864E-003;
2.412000000000000E+009;1.789171993732452E-001;-7.746590417809784E-004;-1.139508211053908E-003;6.773761007934809E-003;
2.412166666666667E+009;1.788532286882401E-001;-2.996023278683424E-003;-8.363806991837919E-004;6.819533649832010E-003;
2.412333333333334E+009;1.790557503700256E-001;-5.306337960064411E-003;-1.001868629828095E-003;6.971149705350399E-003;
2.412500000000000E+009;1.794817894697189E-001;-7.913728244602680E-003;-7.980908849276602E-004;7.071224041283131E-003;
2.412666666666667E+009;1.802395582199097E-001;-1.042197179049254E-002;-6.396103417500854E-004;7.278647273778915E-003;
2.412833333333334E+009;1.806985884904862E-001;-1.284622680395842E-002;-4.035887541249394E-004;7.297044154256582E-003;
2.413000000000000E+009;1.813827753067017E-001;-1.510609220713377E-002;-2.918563841376454E-004;7.382926996797323E-003;
2.413166666666667E+009;1.822821646928787E-001;-1.732281036674976E-002;-8.815946057438850E-005;7.477965205907822E-003;
2.413333333333334E+009;1.833431869745255E-001;-1.960507966578007E-002;1.570487656863406E-004;7.611292880028486E-003;
2.413500000000000E+009;1.840200275182724E-001;-2.175077423453331E-002;4.416786832734942E-004;7.764487992972136E-003;
2.413666666666667E+009;1.851844489574432E-001;-2.392409183084965E-002;6.505518103949726E-004;7.902710698544979E-003;
2.413833333333334E+009;1.861233115196228E-001;-2.604814432561398E-002;8.561175200156868E-004;7.893611676990986E-003;
2.414000000000000E+009;1.872895807027817E-001;-2.799625694751740E-002;1.180849270895124E-003;8.065289817750454E-003;
2.414166666666667E+009;1.884406954050064E-001;-2.959745004773140E-002;1.509262481704354E-003;8.040279150009155E-003;
2.414333333333334E+009;1.896259188652039E-001;-3.160735219717026E-002;1.837358693592250E-003;8.234814740717411E-003;
2.414500000000000E+009;1.908388882875443E-001;-3.307711705565453E-002;2.256197389215231E-003;8.189737796783447E-003;
2.414666666666667E+009;1.918594092130661E-001;-3.436986729502678E-002;2.406417625024915E-003;8.281372487545013E-003;
2.414833333333334E+009;1.929915994405747E-001;-3.577087447047234E-002;2.696309471502900E-003;8.212517015635967E-003;
2.415000000000000E+009;1.940814852714539E-001;-3.698080778121948E-002;3.174580167979002E-003;8.129258640110493E-003;
2.415166666666667E+009;1.951624602079392E-001;-3.826315701007843E-002;3.573986468836665E-003;8.091102354228497E-003;
2.415333333333334E+009;1.964005380868912E-001;-3.911957889795303E-002;3.816121257841587E-003;7.990723475813866E-003;
2.415500000000000E+009;1.972730755805969E-001;-3.977380320429802E-002;4.352296702563763E-003;7.927889935672283E-003;
2.415666666666667E+009;1.983422040939331E-001;-4.061092436313629E-002;4.599921405315399E-003;7.739589549601078E-003;
2.415833333333334E+009;1.990312933921814E-001;-4.110862687230110E-002;4.953788593411446E-003;7.669821847230196E-003;
2.416000000000000E+009;1.997288465499878E-001;-4.174529016017914E-002;5.265179555863142E-003;7.437510415911675E-003;
2.416166666666667E+009;2.004071772098541E-001;-4.233505949378014E-002;5.446251016110182E-003;7.343252189457417E-003;
2.416333333333334E+009;2.010266333818436E-001;-4.243048280477524E-002;5.951457656919956E-003;6.994884926825762E-003;
2.416500000000000E+009;2.013288736343384E-001;-4.280197992920876E-002;6.256210152059794E-003;6.912376265972853E-003;
2.416666666666667E+009;2.016383260488510E-001;-4.301447048783302E-002;6.568884011358023E-003;6.527887191623449E-003;
2.416833333333334E+009;2.017178833484650E-001;-4.305455088615418E-002;6.790861487388611E-003;6.293958984315395E-003;
2.417000000000000E+009;2.018227428197861E-001;-4.325074329972267E-002;6.844604853540659E-003;5.823818966746330E-003;
2.417166666666667E+009;2.015228718519211E-001;-4.309183359146118E-002;7.204898167401552E-003;5.668594501912594E-003;
2.417333333333334E+009;2.012774795293808E-001;-4.290155693888664E-002;7.359379436820746E-003;5.299981683492661E-003;
2.417500000000000E+009;2.009100466966629E-001;-4.293147101998329E-002;7.681656163185835E-003;5.063083022832871E-003;
2.417666666666667E+009;2.003252059221268E-001;-4.275039210915566E-002;7.716069463640451E-003;4.838954657316208E-003;
2.417833333333334E+009;1.999643445014954E-001;-4.260025545954704E-002;7.808756083250046E-003;4.361535422503948E-003;
2.418000000000000E+009;1.990903466939926E-001;-4.222079738974571E-002;8.036809042096138E-003;4.082783591002226E-003;
2.418166666666667E+009;1.983955204486847E-001;-4.208897426724434E-002;7.923834957182407E-003;3.889065701514483E-003;
2.418333333333334E+009;1.974376440048218E-001;-4.198430851101875E-002;8.044897578656673E-003;3.591275541111827E-003;
2.418500000000000E+009;1.963314712047577E-001;-4.202105477452278E-002;8.212472312152386E-003;3.357505192980170E-003;
2.418666666666667E+009;1.954635381698608E-001;-4.185760021209717E-002;8.284836076200008E-003;2.973521826788783E-003;
2.418833333333334E+009;1.941705197095871E-001;-4.199453815817833E-002;8.270521648228169E-003;2.837365493178368E-003;
2.419000000000000E+009;1.929470300674439E-001;-4.215759411454201E-002;8.395648561418057E-003;2.358869649469852E-003;
2.419166666666667E+009;1.918007582426071E-001;-4.252608865499497E-002;8.368371054530144E-003;2.145466860383749E-003;
2.419333333333334E+009;1.903538405895233E-001;-4.304207861423492E-002;8.312228135764599E-003;1.914713531732559E-003;
2.419500000000000E+009;1.888189464807510E-001;-4.334302246570587E-002;8.406654931604862E-003;1.744139357469976E-003;
2.419666666666667E+009;1.873201131820679E-001;-4.416140168905258E-002;8.473486639559269E-003;1.485102344304323E-003;
2.419833333333334E+009;1.857760846614838E-001;-4.481549933552742E-002;8.358383551239967E-003;1.265143277123570E-003;
2.420000000000000E+009;1.842362582683563E-001;-4.571033269166946E-002;8.428187109529972E-003;1.145913265645504E-003;
2.420166666666667E+009;1.827144026756287E-001;-4.663873463869095E-002;8.521948941051960E-003;6.927220965735614E-004;
2.420333333333334E+009;1.812450736761093E-001;-4.771201685070992E-002;8.472240529954433E-003;5.159894353710115E-004;
2.420500000000000E+009;1.795278489589691E-001;-4.896809905767441E-002;8.412870578467846E-003;2.745990932453424E-004;
2.420666666666667E+009;1.780847609043121E-001;-5.012979730963707E-002;8.427774533629417E-003;-4.413285205373541E-005;
2.420833333333334E+009;1.764798611402512E-001;-5.165756121277809E-002;8.523897267878056E-003;-1.703116286080331E-004;
2.421000000000000E+009;1.751606762409210E-001;-5.331279337406158E-002;8.532342500984669E-003;-5.572716472670436E-004;
2.421166666666667E+009;1.737443208694458E-001;-5.489452928304672E-002;8.534623309969902E-003;-7.067282567732036E-004;
2.421333333333334E+009;1.722515374422073E-001;-5.641871318221092E-002;8.401817642152309E-003;-1.115916878916323E-003;
2.421500000000000E+009;1.710517257452011E-001;-5.835970863699913E-002;8.227482438087463E-003;-1.348493155092001E-003;
2.421666666666667E+009;1.698590070009232E-001;-6.025174260139465E-002;8.311119861900806E-003;-1.679997425526381E-003;
2.421833333333334E+009;1.687364280223846E-001;-6.210630387067795E-002;8.114737458527088E-003;-1.909999293275178E-003;
2.422000000000000E+009;1.675081104040146E-001;-6.391457468271256E-002;7.910491898655891E-003;-2.226733835414052E-003;
2.422166666666667E+009;1.666711866855621E-001;-6.602405756711960E-002;7.959789596498013E-003;-2.372349379584193E-003;
2.422333333333334E+009;1.658002883195877E-001;-6.786111742258072E-002;7.913335226476193E-003;-2.596652833744884E-003;
2.422500000000000E+009;1.651122570037842E-001;-7.004823535680771E-002;7.574480026960373E-003;-2.842148765921593E-003;
2.422666666666667E+009;1.644443869590759E-001;-7.199741899967194E-002;7.404080126434565E-003;-3.111118450760841E-003;
2.422833333333334E+009;1.640722006559372E-001;-7.403736561536789E-002;7.195015437901020E-003;-3.243278246372938E-003;
2.423000000000000E+009;1.635110676288605E-001;-7.594630867242813E-002;7.063934113830328E-003;-3.338979789987207E-003;
2.423166666666667E+009;1.632380783557892E-001;-7.784644514322281E-002;6.859412416815758E-003;-3.645347431302071E-003;
2.423333333333334E+009;1.630388796329498E-001;-7.988420128822327E-002;6.717759184539318E-003;-3.856707131490111E-003;
2.423500000000000E+009;1.629945486783981E-001;-8.163461834192276E-002;6.595216225832701E-003;-3.835077397525311E-003;
2.423666666666667E+009;1.629305034875870E-001;-8.352143317461014E-002;6.367753725498915E-003;-3.991243429481983E-003;
2.423833333333334E+009;1.629287600517273E-001;-8.533468097448349E-002;6.305590737611055E-003;-3.991395700722933E-003;
2.424000000000000E+009;1.629606634378433E-001;-8.716867119073868E-002;6.164432037621737E-003;-4.097807221114636E-003;
2.424166666666667E+009;1.632073372602463E-001;-8.867023885250092E-002;5.850766785442829E-003;-4.141140263527632E-003;
2.424333333333334E+009;1.633064448833466E-001;-9.012550115585327E-002;5.951977800577879E-003;-4.308246076107025E-003;
2.424500000000000E+009;1.636786907911301E-001;-9.175365418195725E-002;5.711425095796585E-003;-4.435275681316853E-003;
2.424666666666667E+009;1.639322489500046E-001;-9.309696406126022E-002;5.510308779776096E-003;-4.597615450620651E-003;
2.424833333333334E+009;1.645051836967468E-001;-9.430360794067383E-002;5.484310910105705E-003;-4.703903105109930E-003;
2.425000000000000E+009;1.647287160158157E-001;-9.554708003997803E-002;5.398769862949848E-003;-4.660852253437042E-003;
2.425166666666667E+009;1.650108695030212E-001;-9.658519178628922E-002;5.128753371536732E-003;-4.942286293953657E-003;
2.425333333333334E+009;1.654913723468781E-001;-9.760189056396484E-002;5.023808218538761E-003;-5.076135974377394E-003;
2.425500000000000E+009;1.657833606004715E-001;-9.850274771451950E-002;5.105503834784031E-003;-5.041546188294888E-003;
2.425666666666667E+009;1.662129610776901E-001;-9.914501756429672E-002;4.984764382243156E-003;-5.225894507020712E-003;
2.425833333333334E+009;1.665312945842743E-001;-1.000022515654564E-001;4.823358729481697E-003;-5.346269346773624E-003;
2.426000000000000E+009;1.668693423271179E-001;-1.003643944859505E-001;4.772219341248274E-003;-5.498295649886131E-003;
2.426166666666667E+009;1.673025637865067E-001;-1.009064540266991E-001;4.600050859153271E-003;-5.607336293905973E-003;
2.426333333333334E+009;1.673958152532578E-001;-1.013474389910698E-001;4.385345615446568E-003;-5.674502346664667E-003;
2.426500000000000E+009;1.677611321210861E-001;-1.016600728034973E-001;4.242327995598316E-003;-5.895102862268686E-003;
2.426666666666667E+009;1.680691987276077E-001;-1.020245924592018E-001;4.176861606538296E-003;-5.911390297114849E-003;
2.426833333333334E+009;1.682394593954086E-001;-1.022705957293510E-001;3.953658509999514E-003;-6.144726648926735E-003;
2.427000000000000E+009;1.682628691196442E-001;-1.024359315633774E-001;3.825834486633539E-003;-6.274886894971132E-003;
2.427166666666667E+009;1.682532131671906E-001;-1.025372445583344E-001;3.621384268626571E-003;-6.337855011224747E-003;
2.427333333333334E+009;1.681628972291946E-001;-1.028766110539436E-001;3.433948382735252E-003;-6.540734786540270E-003;
2.427500000000000E+009;1.679246276617050E-001;-1.030618622899056E-001;3.304025391116738E-003;-6.478398572653532E-003;
2.427666666666667E+009;1.675267964601517E-001;-1.030141413211823E-001;3.045841818675399E-003;-6.572306156158447E-003;
2.427833333333334E+009;1.672548502683640E-001;-1.032729819417000E-001;2.831577323377132E-003;-6.671262439340353E-003;
