# Version 1.00
#
freq[Hz];re:Trc1_S11;im:Trc1_S11;re:Trc2_S21;im:Trc2_S21;
2.400000000000000E+009;1.550850719213486E-001;1.060620993375778E-001;-6.686171516776085E-003;-5.631635431200266E-003;
2.400166666666667E+009;1.548794806003571E-001;1.036884784698486E-001;-7.069454528391361E-003;-5.646567326039076E-003;
2.400333333333334E+009;1.548785716295242E-001;1.016048714518547E-001;-7.270549423992634E-003;-5.288387183099985E-003;
2.400500000000000E+009;1.549250781536102E-001;9.872042387723923E-002;-7.519161794334650E-003;-4.942160099744797E-003;
2.400666666666667E+009;1.549182385206223E-001;9.622112661600113E-002;-7.797857746481895E-003;-4.562821704894304E-003;
2.400833333333334E+009;1.548634916543961E-001;9.346043318510056E-002;-8.121867664158344E-003;-4.282203502953053E-003;
2.401000000000000E+009;1.550832688808441E-001;9.080805629491806E-002;-8.220879361033440E-003;-4.023390822112560E-003;
2.401166666666667E+009;1.552097797393799E-001;8.808510005474091E-002;-8.469095453619957E-003;-3.700010711327195E-003;
2.401333333333334E+009;1.555669605731964E-001;8.527442067861557E-002;-8.722707629203796E-003;-3.306686179712415E-003;
2.401500000000000E+009;1.561426222324371E-001;8.250548690557480E-002;-8.676648139953613E-003;-3.157489933073521E-003;
2.401666666666667E+009;1.563899219036102E-001;7.964588701725006E-002;-8.890528231859207E-003;-2.716786460950971E-003;
2.401833333333334E+009;1.568511277437210E-001;7.702182233333588E-002;-9.060641750693321E-003;-2.319930819794536E-003;
2.402000000000000E+009;1.578020602464676E-001;7.440015673637390E-002;-8.916702121496201E-003;-2.011642325669527E-003;
2.402166666666667E+009;1.587489247322083E-001;7.191365957260132E-002;-8.997978642582893E-003;-1.724789035506547E-003;
2.402333333333334E+009;1.595379114151001E-001;6.912185251712799E-002;-9.062162600457668E-003;-1.334899803623557E-003;
2.402500000000000E+009;1.609773337841034E-001;6.669544428586960E-002;-9.238936007022858E-003;-1.024488592520356E-003;
2.402666666666667E+009;1.619338691234589E-001;6.459351629018784E-002;-9.244751185178757E-003;-5.560918361879885E-004;
2.402833333333334E+009;1.634038686752319E-001;6.201222538948059E-002;-9.189387783408165E-003;-3.183122316841036E-004;
2.403000000000000E+009;1.647711247205734E-001;5.968087166547775E-002;-9.417207911610603E-003;9.453512029722333E-005;
2.403166666666667E+009;1.665361374616623E-001;5.753337219357491E-002;-9.285633452236652E-003;6.352323107421398E-004;
2.403333333333334E+009;1.678815335035324E-001;5.555927008390427E-002;-9.225485846400261E-003;9.891388472169638E-004;
2.403500000000000E+009;1.696723699569702E-001;5.340203642845154E-002;-9.151679463684559E-003;1.280597527511418E-003;
2.403666666666667E+009;1.714392006397247E-001;5.150708183646202E-002;-8.895050734281540E-003;1.743064611218870E-003;
2.403833333333334E+009;1.730574816465378E-001;4.965103045105934E-002;-8.800588548183441E-003;2.115017268806696E-003;
2.404000000000000E+009;1.745029091835022E-001;4.797722399234772E-002;-8.919337764382362E-003;2.473226515576243E-003;
2.404166666666667E+009;1.763897240161896E-001;4.633995145559311E-002;-8.703215979039669E-003;2.861131681129336E-003;
2.404333333333334E+009;1.778500080108643E-001;4.477791115641594E-002;-8.393071591854096E-003;3.130791708827019E-003;
2.404500000000000E+009;1.796095222234726E-001;4.354870319366455E-002;-8.240207098424435E-003;3.447870258241892E-003;
2.404666666666667E+009;1.812081933021545E-001;4.244657233357430E-002;-7.994368672370911E-003;3.613530192524195E-003;
2.404833333333334E+009;1.828093230724335E-001;4.130613803863525E-002;-7.899307645857334E-003;3.983314149081707E-003;
2.405000000000000E+009;1.840369403362274E-001;4.082089290022850E-002;-7.587494328618050E-003;4.389497917145491E-003;
2.405166666666667E+009;1.856052130460739E-001;3.993003070354462E-002;-7.324943318963051E-003;4.563618451356888E-003;
2.405333333333334E+009;1.869962364435196E-001;3.940293565392494E-002;-7.143439725041390E-003;4.734650719910860E-003;
2.405500000000000E+009;1.883638501167297E-001;3.889530152082443E-002;-6.894492544233799E-003;5.001490935683250E-003;
2.405666666666667E+009;1.895865201950073E-001;3.857129439711571E-002;-6.533037405461073E-003;5.165005102753639E-003;
2.405833333333334E+009;1.908232569694519E-001;3.841533511877060E-002;-6.472175475209951E-003;5.351029802113771E-003;
2.406000000000000E+009;1.917767673730850E-001;3.809449449181557E-002;-6.041698623448610E-003;5.541924387216568E-003;
2.406166666666667E+009;1.927065998315811E-001;3.802841529250145E-002;-5.861836951225996E-003;5.695625673979521E-003;
2.406333333333334E+009;1.936835795640945E-001;3.802961483597755E-002;-5.416420754045248E-003;5.828401073813438E-003;
2.406500000000000E+009;1.943828463554382E-001;3.802997991442680E-002;-5.316752940416336E-003;5.882819648832083E-003;
2.406666666666667E+009;1.949088871479034E-001;3.801125660538673E-002;-5.071828141808510E-003;5.939799360930920E-003;
2.406833333333334E+009;1.955238878726959E-001;3.790784254670143E-002;-4.607957787811756E-003;5.993019323796034E-003;
2.407000000000000E+009;1.958155483007431E-001;3.805186226963997E-002;-4.423185251653194E-003;5.974492058157921E-003;
2.407166666666667E+009;1.960825622081757E-001;3.776863589882851E-002;-4.355312790721655E-003;5.911751650273800E-003;
2.407333333333334E+009;1.960752159357071E-001;3.806081414222717E-002;-3.982916008681059E-003;5.895130336284638E-003;
2.407500000000000E+009;1.961446404457092E-001;3.798735886812210E-002;-3.615373047068715E-003;6.100218743085861E-003;
2.407666666666667E+009;1.960020214319229E-001;3.799590468406677E-002;-3.529494162648916E-003;5.757884588092566E-003;
2.407833333333334E+009;1.955235600471497E-001;3.773050382733345E-002;-3.547074273228645E-003;5.827942397445440E-003;
2.408000000000000E+009;1.954265534877777E-001;3.764026984572411E-002;-3.437197301536799E-003;5.769914016127586E-003;
2.408166666666667E+009;1.947329938411713E-001;3.708427399396896E-002;-3.124809823930264E-003;5.685178562998772E-003;
2.408333333333334E+009;1.943592876195908E-001;3.655028343200684E-002;-3.124095965176821E-003;5.773724988102913E-003;
2.408500000000000E+009;1.936108469963074E-001;3.621761500835419E-002;-3.129041520878673E-003;5.764046218246222E-003;
2.408666666666667E+009;1.930302381515503E-001;3.572819754481316E-002;-2.839972730726004E-003;5.659072659909725E-003;
2.408833333333334E+009;1.923508942127228E-001;3.490338101983070E-002;-2.674217103049159E-003;5.592846777290106E-003;
2.409000000000000E+009;1.914489418268204E-001;3.397666662931442E-002;-2.743053482845426E-003;5.625679157674313E-003;
2.409166666666667E+009;1.904512196779251E-001;3.295061364769936E-002;-2.612721174955368E-003;5.640621762722731E-003;
2.409333333333334E+009;1.897004395723343E-001;3.200321644544601E-002;-2.641195431351662E-003;5.609106738120318E-003;
2.409500000000000E+009;1.884469836950302E-001;3.064412809908390E-002;-2.583896508440375E-003;5.563214421272278E-003;
2.409666666666667E+009;1.875739544630051E-001;2.929560467600822E-002;-2.465067664161325E-003;5.681936629116535E-003;
2.409833333333334E+009;1.865373402833939E-001;2.772615849971771E-002;-2.559916814789176E-003;5.732682999223471E-003;
2.410000000000000E+009;1.854188442230225E-001;2.604970522224903E-002;-2.490650396794081E-003;5.785926710814238E-003;
2.410166666666667E+009;1.846022903919220E-001;2.435684762895107E-002;-2.452919492498040E-003;5.787861533463001E-003;
2.410333333333334E+009;1.835972666740418E-001;2.262062579393387E-002;-2.554360078647733E-003;6.060446612536907E-003;
2.410500000000000E+009;1.826897859573364E-001;2.064240351319313E-002;-2.244004281237721E-003;6.208671722561121E-003;
2.410666666666667E+009;1.818201243877411E-001;1.850119978189468E-002;-2.226766664534807E-003;6.229520775377750E-003;
2.410833333333334E+009;1.812317222356796E-001;1.613965258002281E-002;-1.857112161815167E-003;6.248397752642632E-003;
2.411000000000000E+009;1.805636286735535E-001;1.392076816409826E-002;-1.986082410439849E-003;6.453891284763813E-003;
2.411166666666667E+009;1.797335594892502E-001;1.171205751597881E-002;-1.924197422340512E-003;6.465446203947067E-003;
2.411333333333334E+009;1.792319566011429E-001;9.402760304510593E-003;-1.736695063300431E-003;6.632097531110048E-003;
2.411500000000000E+009;1.791132539510727E-001;6.905257701873779E-003;-1.641924725845456E-003;6.608905736356974E-003;
2.411666666666667E+009;1.786723434925079E-001;4.637318197637796E-003;-1.486797002144158E-003;6.661701947450638E-003;
2.411833333333334E+009;1.785333305597305E-001;2.319281455129385E-003;-1.298536430113018E-003;6.934942211955786E-003;
2.412000000000000E+009;1.785511523485184E-001;-4.133089969400317E-004;-1.153791672550142E-003;6.952028721570969E-003;
2.412166666666667E+009;1.788020133972168E-001;-2.705366583541036E-003;-1.127468072809279E-003;6.972471717745066E-003;
2.412333333333334E+009;1.789053678512573E-001;-5.242481827735901E-003;-9.421859867870808E-004;7.065441925078630E-003;
2.412500000000000E+009;1.794765144586563E-001;-7.603905629366636E-003;-7.189526804722846E-004;7.079586852341890E-003;
2.412666666666667E+009;1.798666268587112E-001;-1.005357317626476E-002;-6.837996770627797E-004;7.338610943406820E-003;
2.412833333333334E+009;1.807291656732559E-001;-1.237489376217127E-002;-3.728922165464610E-004;7.483631372451782E-003;
2.413000000000000E+009;1.814057081937790E-001;-1.473495736718178E-002;-3.323651908431202E-004;7.554301992058754E-003;
2.413166666666667E+009;1.820606142282486E-001;-1.693081110715866E-002;-1.050469218171202E-004;7.455806713551283E-003;
2.413333333333334E+009;1.831363439559937E-001;-1.917001232504845E-002;1.267769257538021E-004;7.760056760162115E-003;
2.413500000000000E+009;1.840245574712753E-001;-2.150591090321541E-002;3.321132680866867E-004;8.006894029676914E-003;
2.413666666666667E+009;1.853137910366058E-001;-2.375423163175583E-002;5.271369591355324E-004;7.837298326194286E-003;
2.413833333333334E+009;1.862425059080124E-001;-2.551499195396900E-002;8.545238524675369E-004;7.937571033835411E-003;
2.414000000000000E+009;1.872665286064148E-001;-2.737315557897091E-002;1.018426730297506E-003;8.188809268176556E-003;
2.414166666666667E+009;1.884635537862778E-001;-2.937680669128895E-002;1.307928236201406E-003;8.319276385009289E-003;
2.414333333333334E+009;1.895282417535782E-001;-3.129464387893677E-002;1.902227639220655E-003;8.237744681537151E-003;
2.414500000000000E+009;1.908085942268372E-001;-3.267018869519234E-002;2.208414953202009E-003;8.180079050362110E-003;
2.414666666666667E+009;1.918738186359406E-001;-3.391963988542557E-002;2.337374025955796E-003;8.296696469187737E-003;
2.414833333333334E+009;1.929698437452316E-001;-3.550380095839500E-002;2.815637271851301E-003;8.275607600808144E-003;
2.415000000000000E+009;1.941262483596802E-001;-3.676553443074226E-002;3.284106263890863E-003;8.282553404569626E-003;
2.415166666666667E+009;1.952446103096008E-001;-3.775954619050026E-002;3.559665521606803E-003;8.064651861786842E-003;
2.415333333333334E+009;1.964411288499832E-001;-3.867057338356972E-002;3.911504987627268E-003;8.104689419269562E-003;
2.415500000000000E+009;1.973000466823578E-001;-3.937002643942833E-002;4.206690937280655E-003;7.977808825671673E-003;
2.415666666666667E+009;1.983727663755417E-001;-4.028814658522606E-002;4.573166836053133E-003;7.918758317828178E-003;
2.415833333333334E+009;1.991064846515656E-001;-4.080917313694954E-002;4.882178734987974E-003;7.768298964947462E-003;
2.416000000000000E+009;1.999002844095230E-001;-4.137128219008446E-002;5.147513933479786E-003;7.675000932067633E-003;
2.416166666666667E+009;2.005430608987808E-001;-4.197645559906960E-002;5.525020416826010E-003;7.471609394997358E-003;
2.416333333333334E+009;2.011609971523285E-001;-4.212537035346031E-002;6.004216149449348E-003;7.000169716775417E-003;
2.416500000000000E+009;2.014665305614471E-001;-4.239621385931969E-002;6.076145917177200E-003;6.872869096696377E-003;
2.416666666666667E+009;2.017821669578552E-001;-4.264133796095848E-002;6.450395565479994E-003;6.579395383596420E-003;
2.416833333333334E+009;2.019549161195755E-001;-4.268684610724449E-002;6.603431887924671E-003;6.226461380720139E-003;
2.417000000000000E+009;2.020620703697205E-001;-4.283948987722397E-002;6.881988607347012E-003;5.951702594757080E-003;
2.417166666666667E+009;2.017289400100708E-001;-4.272493347525597E-002;7.324380334466696E-003;5.652504973113537E-003;
2.417333333333334E+009;2.013726383447647E-001;-4.257485643029213E-002;7.595470640808344E-003;5.548868793994188E-003;
2.417500000000000E+009;2.011851817369461E-001;-4.261722415685654E-002;7.524853572249413E-003;5.013844463974237E-003;
2.417666666666667E+009;2.005969285964966E-001;-4.238673672080040E-002;7.599597331136465E-003;4.769421182572842E-003;
2.417833333333334E+009;2.001206129789352E-001;-4.213390126824379E-002;7.903880439698696E-003;4.515644628554583E-003;
2.418000000000000E+009;1.994551718235016E-001;-4.194706305861473E-002;7.943977601826191E-003;4.355868324637413E-003;
2.418166666666667E+009;1.985411942005158E-001;-4.180380702018738E-002;8.000141941010952E-003;3.975673578679562E-003;
2.418333333333334E+009;1.976382285356522E-001;-4.168566688895226E-002;8.185333572328091E-003;3.609477309510112E-003;
2.418500000000000E+009;1.967460811138153E-001;-4.173249006271362E-002;8.234411478042603E-003;3.252876223996282E-003;
2.418666666666667E+009;1.956990808248520E-001;-4.170023649930954E-002;8.378224447369576E-003;3.009808948263526E-003;
2.418833333333334E+009;1.945596784353256E-001;-4.169958084821701E-002;8.435075171291828E-003;2.931178547441959E-003;
2.419000000000000E+009;1.931843459606171E-001;-4.196079447865486E-002;8.333217352628708E-003;2.501345006749034E-003;
2.419166666666667E+009;1.920532435178757E-001;-4.222341999411583E-002;8.443903177976608E-003;2.274495549499989E-003;
2.419333333333334E+009;1.906512528657913E-001;-4.269995912909508E-002;8.343958295881748E-003;2.146364189684391E-003;
2.419500000000000E+009;1.891709119081497E-001;-4.318832606077194E-002;8.597839623689652E-003;1.826953492127359E-003;
2.419666666666667E+009;1.877112090587616E-001;-4.392826184630394E-002;8.562077768146992E-003;1.533384434878826E-003;
2.419833333333334E+009;1.861051023006439E-001;-4.471644014120102E-002;8.461392484605312E-003;1.259873039089143E-003;
2.420000000000000E+009;1.847222000360489E-001;-4.533005133271217E-002;8.591852150857449E-003;1.013813307508826E-003;
2.420166666666667E+009;1.830238401889801E-001;-4.643451049923897E-002;8.429503068327904E-003;7.877197349444032E-004;
2.420333333333334E+009;1.814867109060288E-001;-4.765032976865768E-002;8.471962064504623E-003;6.449568318203092E-004;
2.420500000000000E+009;1.798506230115891E-001;-4.883531853556633E-002;8.630285039544106E-003;1.564115809742361E-004;
2.420666666666667E+009;1.783916503190994E-001;-5.005780234932900E-002;8.486703969538212E-003;5.621893069474027E-005;
2.420833333333334E+009;1.768227517604828E-001;-5.156991258263588E-002;8.384328335523605E-003;-3.170823329128325E-004;
2.421000000000000E+009;1.753857880830765E-001;-5.295884236693382E-002;8.537661284208298E-003;-5.714019644074142E-004;
2.421166666666667E+009;1.740563958883286E-001;-5.483524873852730E-002;8.514240384101868E-003;-6.586600211448968E-004;
2.421333333333334E+009;1.726177334785461E-001;-5.634674802422524E-002;8.496048860251904E-003;-9.870483772829175E-004;
2.421500000000000E+009;1.712681055068970E-001;-5.819320306181908E-002;8.291445672512054E-003;-1.268564956262708E-003;
2.421666666666667E+009;1.701222807168961E-001;-6.000532582402229E-002;8.357078768312931E-003;-1.520386082120240E-003;
2.421833333333334E+009;1.691489070653915E-001;-6.192401051521301E-002;8.196678012609482E-003;-1.552320318296552E-003;
2.422000000000000E+009;1.680044978857040E-001;-6.367607414722443E-002;8.044246584177017E-003;-2.046583918854594E-003;
2.422166666666667E+009;1.672330200672150E-001;-6.601148843765259E-002;7.935394532978535E-003;-2.245862036943436E-003;
2.422333333333334E+009;1.662196666002274E-001;-6.783293187618256E-002;7.775698788464069E-003;-2.530686790123582E-003;
2.422500000000000E+009;1.655753850936890E-001;-6.984568387269974E-002;7.710743695497513E-003;-2.867783885449171E-003;
2.422666666666667E+009;1.648451387882233E-001;-7.173952460289002E-002;7.501534186303616E-003;-3.040389390662313E-003;
2.422833333333334E+009;1.644723862409592E-001;-7.396989315748215E-002;7.245515473186970E-003;-3.352909348905087E-003;
2.423000000000000E+009;1.640487760305405E-001;-7.599894702434540E-002;7.242039777338505E-003;-3.308262908831239E-003;
2.423166666666667E+009;1.636450141668320E-001;-7.793799042701721E-002;6.998090073466301E-003;-3.566818544641137E-003;
2.423333333333334E+009;1.633502691984177E-001;-7.978176325559616E-002;6.728665903210640E-003;-3.593001281842589E-003;
2.423500000000000E+009;1.632250994443893E-001;-8.166726678609848E-002;6.591633427888155E-003;-3.940106369554997E-003;
2.423666666666667E+009;1.635119616985321E-001;-8.364898711442947E-002;6.444748956710100E-003;-4.029254429042339E-003;
2.423833333333334E+009;1.632598489522934E-001;-8.526969701051712E-002;6.305993534624577E-003;-4.131624475121498E-003;
2.424000000000000E+009;1.634390205144882E-001;-8.711604773998261E-002;6.256621796637774E-003;-4.198621027171612E-003;
2.424166666666667E+009;1.636255234479904E-001;-8.857224881649017E-002;6.063240580260754E-003;-4.232465289533138E-003;
2.424333333333334E+009;1.637880057096481E-001;-9.006423503160477E-002;5.895962473005056E-003;-4.518287722021341E-003;
2.424500000000000E+009;1.641377359628677E-001;-9.175067394971848E-002;5.769628100097179E-003;-4.507118836045265E-003;
2.424666666666667E+009;1.642261594533920E-001;-9.312013536691666E-002;5.695543717592955E-003;-4.627013113349676E-003;
2.424833333333334E+009;1.648402810096741E-001;-9.440753608942032E-002;5.569716915488243E-003;-4.743778612464666E-003;
2.425000000000000E+009;1.652510911226273E-001;-9.572102129459381E-002;5.320171825587750E-003;-4.665593151003122E-003;
2.425166666666667E+009;1.655798703432083E-001;-9.681833535432816E-002;5.222241859883070E-003;-5.022441036999226E-003;
2.425333333333334E+009;1.658389419317246E-001;-9.764781594276428E-002;5.232635885477066E-003;-5.100726615637541E-003;
2.425500000000000E+009;1.661743819713593E-001;-9.861882776021957E-002;5.107000935822725E-003;-5.093368701636791E-003;
2.425666666666667E+009;1.665706932544708E-001;-9.921486675739288E-002;5.119865294545889E-003;-5.306574050337076E-003;
2.425833333333334E+009;1.669366210699081E-001;-1.001011729240418E-001;4.763963166624308E-003;-5.364203359931707E-003;
2.426000000000000E+009;1.673164367675781E-001;-1.004543676972389E-001;4.706215579062700E-003;-5.565052852034569E-003;
2.426166666666667E+009;1.676929146051407E-001;-1.010709330439568E-001;4.472684115171433E-003;-5.695900414139032E-003;
2.426333333333334E+009;1.677193194627762E-001;-1.015469506382942E-001;4.480248317122459E-003;-5.799154285341501E-003;
2.426500000000000E+009;1.681405156850815E-001;-1.018547490239143E-001;4.330894909799099E-003;-6.048737559467554E-003;
2.426666666666667E+009;1.683826148509979E-001;-1.021520048379898E-001;4.229438025504351E-003;-5.986864212900400E-003;
2.426833333333334E+009;1.685971915721893E-001;-1.024663895368576E-001;4.146032501012087E-003;-6.199872586876154E-003;
2.427000000000000E+009;1.685212105512619E-001;-1.026708558201790E-001;3.900147741660476E-003;-6.215989589691162E-003;
2.427166666666667E+009;1.686480343341827E-001;-1.027874425053597E-001;3.765017027035356E-003;-6.459482945501804E-003;
2.427333333333334E+009;1.684686690568924E-001;-1.029953956604004E-001;3.542473772540689E-003;-6.542919669300318E-003;
2.427500000000000E+009;1.681472063064575E-001;-1.032026782631874E-001;3.261171979829669E-003;-6.683056242763996E-003;
2.427666666666667E+009;1.678638011217117E-001;-1.033262908458710E-001;3.033219603821635E-003;-6.742853671312332E-003;
2.427833333333334E+009;1.675087064504623E-001;-1.034678071737289E-001;2.980592427775264E-003;-6.787444464862347E-003;
