# Version 1.00
#
freq[Hz];re:Trc1_S11;im:Trc1_S11;re:Trc2_S21;im:Trc2_S21;
2.400000000000000E+009;1.687618941068649E-001;4.631676897406578E-002;-2.930805552750826E-003;1.664935494773090E-003;
2.400166666666667E+009;1.698602735996246E-001;4.538460075855255E-002;-2.970447065308690E-003;1.691006589680910E-003;
2.400333333333334E+009;1.705385446548462E-001;4.420956969261169E-002;-2.882956061512232E-003;1.908327802084386E-003;
2.400500000000000E+009;1.717811971902847E-001;4.308278858661652E-002;-3.084539435803890E-003;1.677497872151434E-003;
2.400666666666667E+009;1.724573820829392E-001;4.219913482666016E-002;-3.104906762018800E-003;1.977296313270927E-003;
2.400833333333334E+009;1.734051704406738E-001;4.157730191946030E-002;-3.270927118137479E-003;1.938755041919649E-003;
2.401000000000000E+009;1.742037087678909E-001;4.068519920110703E-002;-3.317225258797407E-003;2.200508257374167E-003;
2.401166666666667E+009;1.749747246503830E-001;3.990817442536354E-002;-3.171405056491494E-003;2.370542613789439E-003;
2.401333333333334E+009;1.755602657794952E-001;3.934435918927193E-002;-3.166219685226679E-003;2.523736096918583E-003;
2.401500000000000E+009;1.764591634273529E-001;3.868293017148972E-002;-3.377331420779228E-003;2.335321391001344E-003;
2.401666666666667E+009;1.770773231983185E-001;3.826027363538742E-002;-3.313228487968445E-003;2.817494561895728E-003;
2.401833333333334E+009;1.774660646915436E-001;3.759034723043442E-002;-3.453366225585342E-003;2.886302070692182E-003;
2.402000000000000E+009;1.778740137815476E-001;3.695353120565414E-002;-3.467780305072665E-003;2.968519227579236E-003;
2.402166666666667E+009;1.783344149589539E-001;3.630827367305756E-002;-3.202129155397415E-003;3.238348523154855E-003;
2.402333333333334E+009;1.784352809190750E-001;3.588249534368515E-002;-3.689439268782735E-003;3.442415967583656E-003;
2.402500000000000E+009;1.790946722030640E-001;3.522020950913429E-002;-3.476532641798258E-003;3.550969297066331E-003;
2.402666666666667E+009;1.793478131294251E-001;3.462613373994827E-002;-3.335848217830062E-003;3.768706228584051E-003;
2.402833333333334E+009;1.793396472930908E-001;3.394684940576553E-002;-3.480804152786732E-003;4.007779061794281E-003;
2.403000000000000E+009;1.793865114450455E-001;3.324859216809273E-002;-3.308412386104465E-003;4.200804978609085E-003;
2.403166666666667E+009;1.795148700475693E-001;3.237883001565933E-002;-3.282726975157857E-003;4.462396726012230E-003;
2.403333333333334E+009;1.795423179864883E-001;3.180833160877228E-002;-3.162862267345190E-003;4.696075338870287E-003;
2.403500000000000E+009;1.791989952325821E-001;3.075488097965717E-002;-3.072422463446856E-003;4.889044445008040E-003;
2.403666666666667E+009;1.789876073598862E-001;2.975575439631939E-002;-2.980685792863369E-003;5.268875509500504E-003;
2.403833333333334E+009;1.788671463727951E-001;2.881350181996822E-002;-2.946943510323763E-003;5.551315844058991E-003;
2.404000000000000E+009;1.784820556640625E-001;2.760631218552589E-002;-2.709820633754134E-003;5.925729405134916E-003;
2.404166666666667E+009;1.781198680400848E-001;2.630367316305637E-002;-2.535405103117228E-003;6.134249735623598E-003;
2.404333333333334E+009;1.775702536106110E-001;2.534903213381767E-002;-2.309416420757771E-003;6.347749382257462E-003;
2.404500000000000E+009;1.771505177021027E-001;2.365324832499027E-002;-1.980536384508014E-003;6.794308312237263E-003;
2.404666666666667E+009;1.765076220035553E-001;2.249077148735523E-002;-1.638515153899789E-003;7.021010387688875E-003;
2.404833333333334E+009;1.761348843574524E-001;2.090078592300415E-002;-1.300701987929642E-003;7.091058418154717E-003;
2.405000000000000E+009;1.756993830204010E-001;1.944369263947010E-002;-7.592008332721889E-004;7.270308677107096E-003;
2.405166666666667E+009;1.753532737493515E-001;1.781160011887550E-002;-4.462659999262542E-004;7.488238625228405E-003;
2.405333333333334E+009;1.748700886964798E-001;1.584063284099102E-002;-1.700469583738595E-004;7.671665865927935E-003;
2.405500000000000E+009;1.743307262659073E-001;1.427325978875160E-002;3.275695780757815E-004;7.645693141967058E-003;
2.405666666666667E+009;1.740017235279083E-001;1.264127995818853E-002;8.225548663176596E-004;7.694187108427286E-003;
2.405833333333334E+009;1.735295504331589E-001;1.089706830680370E-002;1.398663502186537E-003;7.577049080282450E-003;
2.406000000000000E+009;1.733077466487885E-001;8.814802393317223E-003;1.780948019586504E-003;7.644454017281532E-003;
2.406166666666667E+009;1.728360354900360E-001;7.004213053733110E-003;2.068094676360488E-003;7.621714379638434E-003;
2.406333333333334E+009;1.728838980197907E-001;5.006451625376940E-003;2.528562908992171E-003;7.443547714501619E-003;
2.406500000000000E+009;1.726585030555725E-001;2.902678214013577E-003;2.888349350541830E-003;7.222002372145653E-003;
2.406666666666667E+009;1.724384874105454E-001;8.099640836007893E-004;3.383872099220753E-003;7.071281783282757E-003;
2.406833333333334E+009;1.724286079406738E-001;-1.220160746015608E-003;3.871608059853315E-003;6.905278656631708E-003;
2.407000000000000E+009;1.724867969751358E-001;-3.464549314230681E-003;4.168444313108921E-003;6.689938250929117E-003;
2.407166666666667E+009;1.726646870374680E-001;-5.456164013594389E-003;4.497452173382044E-003;6.584186572581530E-003;
2.407333333333334E+009;1.726790070533752E-001;-7.698633242398500E-003;4.673718940466642E-003;6.248210091143847E-003;
2.407500000000000E+009;1.729890555143356E-001;-9.612040594220161E-003;4.972230643033981E-003;5.867489613592625E-003;
2.407666666666667E+009;1.732577383518219E-001;-1.179473940283060E-002;5.175332538783550E-003;5.669649690389633E-003;
2.407833333333334E+009;1.732710748910904E-001;-1.397314015775919E-002;5.419173277914524E-003;5.395367741584778E-003;
2.408000000000000E+009;1.737646907567978E-001;-1.594329066574574E-002;5.690858233720064E-003;5.109515041112900E-003;
2.408166666666667E+009;1.741123646497726E-001;-1.775061152875423E-002;5.819040816277266E-003;4.826756659895182E-003;
2.408333333333334E+009;1.746772229671478E-001;-1.983330026268959E-002;6.074066739529371E-003;4.347796551883221E-003;
2.408500000000000E+009;1.750399321317673E-001;-2.167644724249840E-002;6.229666061699390E-003;4.044609609991312E-003;
2.408666666666667E+009;1.755187958478928E-001;-2.359168045222759E-002;6.288009230047464E-003;3.734391415491700E-003;
2.408833333333334E+009;1.758117079734802E-001;-2.536893263459206E-002;6.302638910710812E-003;3.510722890496254E-003;
2.409000000000000E+009;1.763082295656204E-001;-2.683514915406704E-002;6.377662997692823E-003;3.108249278739095E-003;
2.409166666666667E+009;1.768289506435394E-001;-2.846435271203518E-002;6.341673433780670E-003;2.741330070421100E-003;
2.409333333333334E+009;1.772374212741852E-001;-2.995623089373112E-002;6.348122842609882E-003;2.672718372195959E-003;
2.409500000000000E+009;1.778232306241989E-001;-3.131541982293129E-002;6.396702025085688E-003;2.381420927122235E-003;
2.409666666666667E+009;1.781243979930878E-001;-3.251378983259201E-002;6.468284409493208E-003;2.164711011573672E-003;
2.409833333333334E+009;1.785926669836044E-001;-3.335655108094215E-002;6.390682421624661E-003;1.944156829267740E-003;
2.410000000000000E+009;1.792534738779068E-001;-3.430509939789772E-002;6.460065022110939E-003;1.696840743534267E-003;
2.410166666666667E+009;1.796687841415405E-001;-3.537952527403832E-002;6.694115232676268E-003;1.549758017063141E-003;
2.410333333333334E+009;1.800757795572281E-001;-3.619642928242683E-002;6.569446064531803E-003;1.260217279195786E-003;
2.410500000000000E+009;1.806241273880005E-001;-3.681059926748276E-002;6.633784156292677E-003;1.211750903166831E-003;
2.410666666666667E+009;1.809431314468384E-001;-3.762973845005035E-002;6.693273317068815E-003;8.428103174082935E-004;
2.410833333333334E+009;1.813894808292389E-001;-3.803195804357529E-002;6.812489591538906E-003;6.413406808860600E-004;
2.411000000000000E+009;1.815018802881241E-001;-3.866884112358093E-002;6.822807714343071E-003;4.468567203730345E-004;
2.411166666666667E+009;1.818701922893524E-001;-3.927883505821228E-002;6.776296533644199E-003;2.151745429728180E-004;
2.411333333333334E+009;1.820455938577652E-001;-3.949077799916267E-002;7.046681828796864E-003;-7.368314254563302E-005;
2.411500000000000E+009;1.820503324270248E-001;-4.014055058360100E-002;6.794934161007404E-003;-3.055334382224828E-004;
2.411666666666667E+009;1.821442246437073E-001;-4.034773632884026E-002;6.866799667477608E-003;-6.795728695578873E-004;
2.411833333333334E+009;1.822358816862106E-001;-4.063671082258225E-002;6.893777754157782E-003;-8.755745366215706E-004;
2.412000000000000E+009;1.819937229156494E-001;-4.108417779207230E-002;6.808365695178509E-003;-1.190156675875187E-003;
2.412166666666667E+009;1.815704703330994E-001;-4.138610512018204E-002;6.779384799301624E-003;-1.340622431598604E-003;
2.412333333333334E+009;1.815095841884613E-001;-4.166284576058388E-002;6.766298785805702E-003;-1.808824134059250E-003;
2.412500000000000E+009;1.808749437332153E-001;-4.204477369785309E-002;6.634501740336418E-003;-2.053457545116544E-003;
2.412666666666667E+009;1.801444292068481E-001;-4.245292022824287E-002;6.696955766528845E-003;-2.209970727562904E-003;
2.412833333333334E+009;1.795475929975510E-001;-4.280690103769302E-002;6.439986173063517E-003;-2.366084605455399E-003;
2.413000000000000E+009;1.789060235023499E-001;-4.309894144535065E-002;6.362474057823420E-003;-2.607359783723950E-003;
2.413166666666667E+009;1.779040545225143E-001;-4.349170625209808E-002;6.278145592659712E-003;-2.882866188883781E-003;
2.413333333333334E+009;1.769273281097412E-001;-4.403413087129593E-002;6.090283859521151E-003;-3.273557173088193E-003;
2.413500000000000E+009;1.760867834091187E-001;-4.436406493186951E-002;6.140627432614565E-003;-3.454841440543532E-003;
2.413666666666667E+009;1.751502305269241E-001;-4.486937820911408E-002;5.925276782363653E-003;-3.791049355641007E-003;
2.413833333333334E+009;1.737306118011475E-001;-4.561755806207657E-002;5.795288365334272E-003;-3.906980156898499E-003;
2.414000000000000E+009;1.726634651422501E-001;-4.637572169303894E-002;5.603902041912079E-003;-4.196380730718374E-003;
2.414166666666667E+009;1.716293096542358E-001;-4.696297273039818E-002;5.535258911550045E-003;-4.502732306718826E-003;
2.414333333333334E+009;1.704366505146027E-001;-4.769666120409966E-002;5.209880415350199E-003;-4.744090139865875E-003;
2.414500000000000E+009;1.692882925271988E-001;-4.862672463059425E-002;5.092821549624205E-003;-4.844693001359701E-003;
2.414666666666667E+009;1.679704040288925E-001;-4.940783232450485E-002;4.920139908790588E-003;-5.120559129863977E-003;
2.414833333333334E+009;1.665654927492142E-001;-5.069992318749428E-002;4.630151204764843E-003;-5.190484225749970E-003;
2.415000000000000E+009;1.653359979391098E-001;-5.169358849525452E-002;4.332202486693859E-003;-5.420892965048552E-003;
2.415166666666667E+009;1.641533821821213E-001;-5.287122726440430E-002;4.000786226242781E-003;-5.680723115801811E-003;
2.415333333333334E+009;1.630427688360214E-001;-5.433425307273865E-002;3.820762038230896E-003;-5.779882427304983E-003;
2.415500000000000E+009;1.618867665529251E-001;-5.565686896443367E-002;3.595964284613729E-003;-5.900994408875704E-003;
2.415666666666667E+009;1.606895029544830E-001;-5.706180259585381E-002;3.374571911990643E-003;-5.897300317883492E-003;
2.415833333333334E+009;1.597259640693665E-001;-5.867410451173782E-002;2.987050218507648E-003;-6.099802907556295E-003;
2.416000000000000E+009;1.584792435169220E-001;-6.051754206418991E-002;2.761990064755082E-003;-6.105408072471619E-003;
2.416166666666667E+009;1.576522588729858E-001;-6.217442080378532E-002;2.567562740296125E-003;-6.199815310537815E-003;
2.416333333333334E+009;1.565334796905518E-001;-6.395577639341354E-002;2.263154136016965E-003;-6.260280963033438E-003;
2.416500000000000E+009;1.556455492973328E-001;-6.606088578701019E-002;1.951557584106922E-003;-6.303518079221249E-003;
2.416666666666667E+009;1.546420007944107E-001;-6.778585910797119E-002;1.669694203883410E-003;-6.047380156815052E-003;
2.416833333333334E+009;1.539994627237320E-001;-6.984769552946091E-002;1.421996392309666E-003;-6.149720866233110E-003;
2.417000000000000E+009;1.529351174831390E-001;-7.180038839578629E-002;1.128487638197839E-003;-6.202322430908680E-003;
2.417166666666667E+009;1.524137556552887E-001;-7.373440265655518E-002;8.012705948203802E-004;-6.116835866123438E-003;
2.417333333333334E+009;1.518613547086716E-001;-7.564371824264526E-002;6.349407485686243E-004;-5.812636576592922E-003;
2.417500000000000E+009;1.512473523616791E-001;-7.791931927204132E-002;5.168897914700210E-004;-6.009767763316631E-003;
2.417666666666667E+009;1.509962528944016E-001;-7.956722378730774E-002;2.091673231916502E-004;-5.938234273344278E-003;
2.417833333333334E+009;1.505195051431656E-001;-8.144685626029968E-002;-1.524957679066574E-005;-5.926722660660744E-003;
2.418000000000000E+009;1.501017063856125E-001;-8.349701017141342E-002;-1.982692483579740E-004;-5.738273728638887E-003;
2.418166666666667E+009;1.498134285211563E-001;-8.519395440816879E-002;-2.710438857320696E-004;-5.802906583994627E-003;
2.418333333333334E+009;1.498862951993942E-001;-8.695215731859207E-002;-6.137775490060449E-004;-5.696372129023075E-003;
2.418500000000000E+009;1.497088819742203E-001;-8.856966346502304E-002;-6.612537545152009E-004;-5.745158996433020E-003;
2.418666666666667E+009;1.496416181325913E-001;-9.016893804073334E-002;-8.444781997241080E-004;-5.776928272098303E-003;
2.418833333333334E+009;1.495257318019867E-001;-9.175554662942886E-002;-9.475880069658160E-004;-5.590405315160751E-003;
2.419000000000000E+009;1.494931876659393E-001;-9.310753643512726E-002;-1.220457023009658E-003;-5.647444166243076E-003;
2.419166666666667E+009;1.497131139039993E-001;-9.430223703384399E-002;-1.485498039983213E-003;-5.543523002415896E-003;
2.419333333333334E+009;1.496288031339645E-001;-9.537414461374283E-002;-1.747242524288595E-003;-5.693193059414625E-003;
2.419500000000000E+009;1.499411463737488E-001;-9.657932072877884E-002;-2.092374255880714E-003;-5.345505662262440E-003;
2.419666666666667E+009;1.502136588096619E-001;-9.762040525674820E-002;-2.120612654834986E-003;-5.281437188386917E-003;
2.419833333333334E+009;1.502929031848908E-001;-9.822710603475571E-002;-2.483521355316043E-003;-5.336677189916372E-003;
2.420000000000000E+009;1.507533490657806E-001;-9.896023571491242E-002;-2.723767189309001E-003;-5.053539294749498E-003;
2.420166666666667E+009;1.509216874837875E-001;-9.949095547199249E-002;-2.925265114754438E-003;-4.815298598259687E-003;
2.420333333333334E+009;1.512718647718430E-001;-1.000210568308830E-001;-2.966339001432061E-003;-4.668410401791334E-003;
2.420500000000000E+009;1.517060846090317E-001;-1.002128645777702E-001;-3.352687926962972E-003;-4.498715512454510E-003;
2.420666666666667E+009;1.517036855220795E-001;-1.004751622676849E-001;-3.453076817095280E-003;-4.249441903084517E-003;
2.420833333333334E+009;1.521586179733276E-001;-1.006200760602951E-001;-3.633440705016255E-003;-4.145598970353603E-003;
2.421000000000000E+009;1.523019075393677E-001;-1.006019338965416E-001;-3.723552916198969E-003;-3.799965372309089E-003;
2.421166666666667E+009;1.524758040904999E-001;-1.006027385592461E-001;-3.877574577927589E-003;-3.646505530923605E-003;
2.421333333333334E+009;1.527429074048996E-001;-1.005872562527657E-001;-3.861445933580399E-003;-3.528668079525232E-003;
2.421500000000000E+009;1.526848822832108E-001;-1.003429815173149E-001;-4.014552570879459E-003;-3.223585663363338E-003;
2.421666666666667E+009;1.527948528528214E-001;-1.001666337251663E-001;-4.104520194232464E-003;-2.982131205499172E-003;
2.421833333333334E+009;1.527985483407974E-001;-9.986097365617752E-002;-4.035711754113436E-003;-2.817159285768867E-003;
2.422000000000000E+009;1.525862216949463E-001;-9.951297938823700E-002;-4.012470599263907E-003;-2.475516870617867E-003;
2.422166666666667E+009;1.523395180702210E-001;-9.934843331575394E-002;-4.135250579565764E-003;-2.505732933059335E-003;
2.422333333333334E+009;1.521992236375809E-001;-9.888449311256409E-002;-4.150113556534052E-003;-2.256376203149557E-003;
2.422500000000000E+009;1.516672074794769E-001;-9.831483662128449E-002;-4.031600430607796E-003;-2.156215719878674E-003;
2.422666666666667E+009;1.507407277822495E-001;-9.805631637573242E-002;-4.041566513478756E-003;-1.857914612628520E-003;
2.422833333333334E+009;1.503569632768631E-001;-9.782623499631882E-002;-3.937611822038889E-003;-1.812979811802506E-003;
2.423000000000000E+009;1.494591534137726E-001;-9.727792441844940E-002;-3.993362654000521E-003;-1.503950334154069E-003;
2.423166666666667E+009;1.488218009471893E-001;-9.687864780426025E-002;-4.143542610108852E-003;-1.375546446070075E-003;
2.423333333333334E+009;1.478436291217804E-001;-9.630288183689117E-002;-4.082579631358385E-003;-1.207634573802352E-003;
2.423500000000000E+009;1.466505676507950E-001;-9.615977853536606E-002;-3.930787090212107E-003;-1.211422262713313E-003;
2.423666666666667E+009;1.454583406448364E-001;-9.594582766294479E-002;-4.041740205138922E-003;-9.661720832809806E-004;
2.423833333333334E+009;1.443944722414017E-001;-9.561584144830704E-002;-3.838244127109647E-003;-8.562013972550631E-004;
2.424000000000000E+009;1.427872776985169E-001;-9.514778107404709E-002;-3.846980165690184E-003;-7.102993549779058E-004;
2.424166666666667E+009;1.415054798126221E-001;-9.501282870769501E-002;-3.728074720129371E-003;-5.798774072900415E-004;
2.424333333333334E+009;1.402372270822525E-001;-9.475871920585632E-002;-3.607455408200622E-003;-3.556209558155388E-004;
2.424500000000000E+009;1.387257874011993E-001;-9.489705413579941E-002;-3.715255763381720E-003;-2.259213943034411E-004;
2.424666666666667E+009;1.374550461769104E-001;-9.490156918764114E-002;-3.579457756131887E-003;-2.760301285889000E-004;
2.424833333333334E+009;1.356659680604935E-001;-9.505867213010788E-002;-3.416032530367374E-003;-1.348370715277270E-004;
2.425000000000000E+009;1.342336684465408E-001;-9.537734091281891E-002;-3.337339032441378E-003;6.213615415617824E-005;
2.425166666666667E+009;1.325501203536987E-001;-9.579151123762131E-002;-3.320903284475207E-003;-2.342478364880662E-005;
2.425333333333334E+009;1.310170441865921E-001;-9.617231786251068E-002;-3.225697902962565E-003;2.186183846788481E-004;
2.425500000000000E+009;1.297174245119095E-001;-9.692299365997315E-002;-2.996874507516623E-003;2.106001484207809E-004;
2.425666666666667E+009;1.281197071075440E-001;-9.771806746721268E-002;-3.006553277373314E-003;2.700014738366008E-004;
2.425833333333334E+009;1.266381591558456E-001;-9.848856925964356E-002;-2.991231391206384E-003;2.004067937377840E-004;
2.426000000000000E+009;1.251096874475479E-001;-9.960763156414032E-002;-2.817898523062468E-003;4.701855068560690E-004;
2.426166666666667E+009;1.240188404917717E-001;-1.006526127457619E-001;-2.841367386281490E-003;3.877192211803049E-004;
2.426333333333334E+009;1.225110068917275E-001;-1.018878445029259E-001;-2.725572790950537E-003;4.694277886301279E-004;
2.426500000000000E+009;1.213994920253754E-001;-1.031588613986969E-001;-2.756034722551704E-003;6.491698441095650E-004;
2.426666666666667E+009;1.203129217028618E-001;-1.045137345790863E-001;-2.467080252245069E-003;5.646800855174661E-004;
2.426833333333334E+009;1.190787255764008E-001;-1.061112657189369E-001;-2.451496664434671E-003;5.236526485532522E-004;
2.427000000000000E+009;1.179093122482300E-001;-1.078180298209190E-001;-2.398857381194830E-003;4.918143386021256E-004;
2.427166666666667E+009;1.169845983386040E-001;-1.093191802501679E-001;-2.355088712647557E-003;7.407597731798887E-004;
2.427333333333334E+009;1.160232499241829E-001;-1.110222265124321E-001;-2.285318449139595E-003;6.689462461508811E-004;
2.427500000000000E+009;1.154086515307427E-001;-1.127669513225555E-001;-2.182682277634740E-003;6.813564687035978E-004;
2.427666666666667E+009;1.145354807376862E-001;-1.145814061164856E-001;-2.141011413186789E-003;6.628654082305729E-004;
