# Version 1.00
#
freq[Hz];re:Trc1_S11;im:Trc1_S11;re:Trc2_S21;im:Trc2_S21;
2.400000000000000E+009;1.687118113040924E-001;4.620727524161339E-002;-2.858736785128713E-003;1.739531173370779E-003;
2.400166666666667E+009;1.698044687509537E-001;4.536315426230431E-002;-2.774710534140468E-003;1.724693342112005E-003;
2.400333333333334E+009;1.706926077604294E-001;4.409811645746231E-002;-2.822654321789742E-003;1.809660112485290E-003;
2.400500000000000E+009;1.718519032001495E-001;4.325419291853905E-002;-2.986426698043943E-003;1.894930610433221E-003;
2.400666666666667E+009;1.724721342325211E-001;4.228762164711952E-002;-3.125457325950265E-003;2.007846022024751E-003;
2.400833333333334E+009;1.735312193632126E-001;4.148289933800697E-002;-3.056753426790237E-003;2.053015166893601E-003;
2.401000000000000E+009;1.742924153804779E-001;4.085489735007286E-002;-3.236785298213363E-003;2.112486399710178E-003;
2.401166666666667E+009;1.749487072229385E-001;3.999556601047516E-002;-3.154613310471177E-003;2.207600278779864E-003;
2.401333333333334E+009;1.757277995347977E-001;3.918766230344772E-002;-3.197959158569574E-003;2.443908946588635E-003;
2.401500000000000E+009;1.763959228992462E-001;3.872430697083473E-002;-3.217309946194291E-003;2.508698264136910E-003;
2.401666666666667E+009;1.769078522920609E-001;3.819905221462250E-002;-3.304021200165153E-003;2.571653574705124E-003;
2.401833333333334E+009;1.775832176208496E-001;3.767018020153046E-002;-3.327155020087957E-003;2.795391483232379E-003;
2.402000000000000E+009;1.779956519603729E-001;3.695631399750710E-002;-3.291391069069505E-003;2.999583724886179E-003;
2.402166666666667E+009;1.784506738185883E-001;3.639147058129311E-002;-3.241180675104260E-003;3.116852836683393E-003;
2.402333333333334E+009;1.786774992942810E-001;3.587330877780914E-002;-3.279008669778705E-003;3.336518770083785E-003;
2.402500000000000E+009;1.790475398302078E-001;3.528902679681778E-002;-3.266425570473075E-003;3.456826554611325E-003;
2.402666666666667E+009;1.791691929101944E-001;3.467813506722450E-002;-3.472878364846110E-003;3.736380720511079E-003;
2.402833333333334E+009;1.792137026786804E-001;3.398209810256958E-002;-3.290038323029876E-003;4.001123830676079E-003;
2.403000000000000E+009;1.795596778392792E-001;3.322194889187813E-002;-3.286018967628479E-003;4.206149838864803E-003;
2.403166666666667E+009;1.796021163463593E-001;3.243149816989899E-002;-3.189880866557360E-003;4.438626114279032E-003;
2.403333333333334E+009;1.793495565652847E-001;3.170856833457947E-002;-3.158466657623649E-003;4.660496022552252E-003;
2.403500000000000E+009;1.791941672563553E-001;3.067733719944954E-002;-3.053629072383046E-003;4.953466355800629E-003;
2.403666666666667E+009;1.791100203990936E-001;2.965129166841507E-002;-2.950703259557486E-003;5.122415255755186E-003;
2.403833333333334E+009;1.788925975561142E-001;2.860555611550808E-002;-2.830078359693289E-003;5.457819905132055E-003;
2.404000000000000E+009;1.783978193998337E-001;2.769184112548828E-002;-2.810555975884199E-003;5.721715744584799E-003;
2.404166666666667E+009;1.780151277780533E-001;2.640782110393047E-002;-2.478067530319095E-003;5.992976482957602E-003;
2.404333333333334E+009;1.775778830051422E-001;2.518600225448608E-002;-2.138662151992321E-003;6.575433537364006E-003;
2.404500000000000E+009;1.770741194486618E-001;2.378933131694794E-002;-2.061219420284033E-003;6.380140781402588E-003;
2.404666666666667E+009;1.766780763864517E-001;2.231999486684799E-002;-1.792972907423973E-003;6.853283382952213E-003;
2.404833333333334E+009;1.761478334665299E-001;2.083585970103741E-002;-1.235273899510503E-003;7.055221125483513E-003;
2.405000000000000E+009;1.755169630050659E-001;1.943242922425270E-002;-1.056325505487621E-003;7.179737091064453E-003;
2.405166666666667E+009;1.752039492130280E-001;1.782123744487763E-002;-5.113306106068194E-004;7.370219565927982E-003;
2.405333333333334E+009;1.749146580696106E-001;1.606267504394054E-002;1.166738547908608E-005;7.700044661760330E-003;
2.405500000000000E+009;1.743492037057877E-001;1.439483184367418E-002;3.972311969846487E-004;7.717186119407415E-003;
2.405666666666667E+009;1.739538311958313E-001;1.263379491865635E-002;8.326810784637928E-004;7.725455332547426E-003;
2.405833333333334E+009;1.736080050468445E-001;1.098050829023123E-002;1.198017154820263E-003;7.794123142957687E-003;
2.406000000000000E+009;1.732163578271866E-001;8.898844942450523E-003;1.649955520406365E-003;7.637331727892160E-003;
2.406166666666667E+009;1.729562133550644E-001;6.967662833631039E-003;2.174157416447997E-003;7.632151246070862E-003;
2.406333333333334E+009;1.727950423955917E-001;5.034141708165407E-003;2.625134540721774E-003;7.441556081175804E-003;
2.406500000000000E+009;1.726393699645996E-001;2.989719621837139E-003;2.902397187426686E-003;7.279024925082922E-003;
2.406666666666667E+009;1.724191009998322E-001;9.076684946194291E-004;3.492679214105010E-003;7.231055758893490E-003;
2.406833333333334E+009;1.723507344722748E-001;-1.223973929882050E-003;3.644141135737300E-003;6.910825148224831E-003;
2.407000000000000E+009;1.726661771535873E-001;-3.336985129863024E-003;4.135006573051214E-003;6.885657086968422E-003;
2.407166666666667E+009;1.726923286914825E-001;-5.270925350487232E-003;4.330749623477459E-003;6.591128185391426E-003;
2.407333333333334E+009;1.727617383003235E-001;-7.590384688228369E-003;4.798105917870998E-003;6.196791771799326E-003;
2.407500000000000E+009;1.730570197105408E-001;-9.627792984247208E-003;5.000340286642313E-003;5.929831881076098E-003;
2.407666666666667E+009;1.732745468616486E-001;-1.172697264701128E-002;5.394654814153910E-003;5.781556013971567E-003;
2.407833333333334E+009;1.734837442636490E-001;-1.385751459747553E-002;5.613157059997320E-003;5.261423997581005E-003;
2.408000000000000E+009;1.738242506980896E-001;-1.606003195047379E-002;5.712721496820450E-003;5.013612564653158E-003;
2.408166666666667E+009;1.741754561662674E-001;-1.781301759183407E-002;5.992406979203224E-003;4.682010505348444E-003;
2.408333333333334E+009;1.747869998216629E-001;-1.979127153754234E-002;6.140700075775385E-003;4.251214675605297E-003;
2.408500000000000E+009;1.750637888908386E-001;-2.173950709402561E-002;6.277539767324925E-003;4.015326034277678E-003;
2.408666666666667E+009;1.755080074071884E-001;-2.359998226165772E-002;6.363085936754942E-003;3.576368559151888E-003;
2.408833333333334E+009;1.758492588996887E-001;-2.530550770461559E-002;6.341926287859678E-003;3.382906550541520E-003;
2.409000000000000E+009;1.764516681432724E-001;-2.684071101248264E-002;6.350763607770205E-003;3.063858952373266E-003;
2.409166666666667E+009;1.770093739032745E-001;-2.842578664422035E-002;6.462576799094677E-003;2.965500345453620E-003;
2.409333333333334E+009;1.775106340646744E-001;-2.986412681639195E-002;6.510780192911625E-003;2.654006006196141E-003;
2.409500000000000E+009;1.777331382036209E-001;-3.133855015039444E-002;6.452215835452080E-003;2.208302263170481E-003;
2.409666666666667E+009;1.781396120786667E-001;-3.238752856850624E-002;6.437876261770725E-003;2.196119865402579E-003;
2.409833333333334E+009;1.785808801651001E-001;-3.343660384416580E-002;6.457097362726927E-003;1.869719009846449E-003;
2.410000000000000E+009;1.791701912879944E-001;-3.424960374832153E-002;6.534331478178501E-003;1.718559768050909E-003;
2.410166666666667E+009;1.796174943447113E-001;-3.519348800182343E-002;6.596843246370554E-003;1.413345569744706E-003;
2.410333333333334E+009;1.801369786262512E-001;-3.604954481124878E-002;6.700408644974232E-003;1.263694139197469E-003;
2.410500000000000E+009;1.805659979581833E-001;-3.682697191834450E-002;6.741478107869625E-003;1.120091415941715E-003;
2.410666666666667E+009;1.808963268995285E-001;-3.766563162207604E-002;6.643348839133978E-003;9.724687552079558E-004;
2.410833333333334E+009;1.814216524362564E-001;-3.804812207818031E-002;6.725127343088388E-003;6.907014176249504E-004;
2.411000000000000E+009;1.815548241138458E-001;-3.863324224948883E-002;6.737550254911184E-003;3.710170858539641E-004;
2.411166666666667E+009;1.818236112594605E-001;-3.904836997389793E-002;6.876903586089611E-003;1.865111407823861E-004;
2.411333333333334E+009;1.821391284465790E-001;-3.949867561459541E-002;6.814465858042240E-003;-4.717068077297881E-005;
2.411500000000000E+009;1.819723844528198E-001;-4.009586945176125E-002;6.826353259384632E-003;-3.642629599198699E-004;
2.411666666666667E+009;1.822347640991211E-001;-4.031546786427498E-002;6.935683079063892E-003;-6.242416566237807E-004;
2.411833333333334E+009;1.821433752775192E-001;-4.060478881001473E-002;6.869233679026365E-003;-8.619235595688224E-004;
2.412000000000000E+009;1.818915605545044E-001;-4.099467024207115E-002;6.770927924662828E-003;-1.259766519069672E-003;
2.412166666666667E+009;1.815304309129715E-001;-4.150210320949554E-002;6.816109176725149E-003;-1.418561092577875E-003;
2.412333333333334E+009;1.815021187067032E-001;-4.169386252760887E-002;6.717662326991558E-003;-1.729984651319683E-003;
2.412500000000000E+009;1.809025406837463E-001;-4.188800603151321E-002;6.657199468463659E-003;-2.175657078623772E-003;
2.412666666666667E+009;1.801903247833252E-001;-4.222271591424942E-002;6.605679169297218E-003;-2.285917522385716E-003;
2.412833333333334E+009;1.796250194311142E-001;-4.266025498509407E-002;6.516139488667250E-003;-2.547244308516383E-003;
2.413000000000000E+009;1.787992268800736E-001;-4.300080239772797E-002;6.386497523635626E-003;-2.730783307924867E-003;
2.413166666666667E+009;1.780745983123779E-001;-4.346039891242981E-002;6.147156935185194E-003;-2.832510275766254E-003;
2.413333333333334E+009;1.770996749401093E-001;-4.401094466447830E-002;6.147310137748718E-003;-3.159036859869957E-003;
2.413500000000000E+009;1.761107742786408E-001;-4.437746107578278E-002;6.037836894392967E-003;-3.524926956743002E-003;
2.413666666666667E+009;1.751794666051865E-001;-4.498840868473053E-002;6.007748190313578E-003;-3.665925236418843E-003;
2.413833333333334E+009;1.738017648458481E-001;-4.552058503031731E-002;5.818305537104607E-003;-3.980380482971668E-003;
2.414000000000000E+009;1.726102083921433E-001;-4.625882953405380E-002;5.518925841897726E-003;-4.275049082934856E-003;
2.414166666666667E+009;1.715900748968124E-001;-4.685717821121216E-002;5.456510465592146E-003;-4.334750585258007E-003;
2.414333333333334E+009;1.703452169895172E-001;-4.773298278450966E-002;5.043227225542069E-003;-4.606749396771193E-003;
2.414500000000000E+009;1.693379431962967E-001;-4.866442084312439E-002;5.059262271970511E-003;-4.807889461517334E-003;
2.414666666666667E+009;1.679000556468964E-001;-4.937933385372162E-002;4.666338209062815E-003;-5.094967782497406E-003;
2.414833333333334E+009;1.664766073226929E-001;-5.065234005451202E-002;4.529858473688364E-003;-5.242544226348400E-003;
2.415000000000000E+009;1.654105186462402E-001;-5.167320743203163E-002;4.136791452765465E-003;-5.389656871557236E-003;
2.415166666666667E+009;1.641716808080673E-001;-5.292882770299912E-002;4.028668161481619E-003;-5.521449726074934E-003;
2.415333333333334E+009;1.630142629146576E-001;-5.423486605286598E-002;3.725897753611207E-003;-5.666746757924557E-003;
2.415500000000000E+009;1.617759317159653E-001;-5.552430078387260E-002;3.673679428175092E-003;-5.842145066708326E-003;
2.415666666666667E+009;1.606391966342926E-001;-5.718678981065750E-002;3.162501379847527E-003;-5.877900868654251E-003;
2.415833333333334E+009;1.596015393733978E-001;-5.878270417451859E-002;3.132845275104046E-003;-5.921141710132361E-003;
2.416000000000000E+009;1.583508849143982E-001;-6.057138741016388E-002;2.671658294275403E-003;-5.982812028378248E-003;
2.416166666666667E+009;1.575562357902527E-001;-6.229156628251076E-002;2.353508491069078E-003;-6.264940369874239E-003;
2.416333333333334E+009;1.565065979957581E-001;-6.394296884536743E-002;2.191662322729826E-003;-6.238230038434267E-003;
2.416500000000000E+009;1.557049155235291E-001;-6.594377011060715E-002;1.866108621470630E-003;-6.052570417523384E-003;
2.416666666666667E+009;1.547916829586029E-001;-6.781946867704392E-002;1.563317026011646E-003;-6.044661626219750E-003;
2.416833333333334E+009;1.540117263793945E-001;-6.984733790159226E-002;1.313224202021956E-003;-6.147669628262520E-003;
2.417000000000000E+009;1.531558781862259E-001;-7.185783982276917E-002;1.128633739426732E-003;-6.066464819014072E-003;
2.417166666666667E+009;1.525104343891144E-001;-7.380550354719162E-002;8.887982112355530E-004;-6.099680438637734E-003;
2.417333333333334E+009;1.519092917442322E-001;-7.567843049764633E-002;6.918793660588563E-004;-5.986613221466541E-003;
2.417500000000000E+009;1.513304263353348E-001;-7.784151285886765E-002;3.683723334688693E-004;-6.071873940527439E-003;
2.417666666666667E+009;1.508676260709763E-001;-7.962998002767563E-002;3.301640972495079E-004;-5.857122130692005E-003;
2.417833333333334E+009;1.505872458219528E-001;-8.152448385953903E-002;1.009235256788088E-005;-5.966468248516321E-003;
2.418000000000000E+009;1.501081138849258E-001;-8.353443443775177E-002;-1.314853579970077E-004;-5.814906209707260E-003;
2.418166666666667E+009;1.499039679765701E-001;-8.517668396234512E-002;-4.074126773048192E-004;-5.654038861393929E-003;
2.418333333333334E+009;1.498923301696777E-001;-8.698450773954392E-002;-4.905165405943990E-004;-5.764673464000225E-003;
2.418500000000000E+009;1.495478004217148E-001;-8.860791474580765E-002;-4.791448882315308E-004;-5.695494357496500E-003;
2.418666666666667E+009;1.497314423322678E-001;-9.023649245500565E-002;-9.814953664317727E-004;-5.568960681557655E-003;
2.418833333333334E+009;1.495555490255356E-001;-9.161885827779770E-002;-1.079021021723747E-003;-5.630366038531065E-003;
2.419000000000000E+009;1.494975835084915E-001;-9.307319670915604E-002;-1.191416755318642E-003;-5.628705956041813E-003;
2.419166666666667E+009;1.497607231140137E-001;-9.437821805477142E-002;-1.451054005883634E-003;-5.703861825168133E-003;
2.419333333333334E+009;1.497602611780167E-001;-9.533434361219406E-002;-1.735693076625466E-003;-5.354320164769888E-003;
2.419500000000000E+009;1.498700827360153E-001;-9.666079282760620E-002;-1.893030246719718E-003;-5.478713661432266E-003;
2.419666666666667E+009;1.501713097095490E-001;-9.748706966638565E-002;-2.131932182237506E-003;-5.254925694316626E-003;
2.419833333333334E+009;1.504897624254227E-001;-9.829825907945633E-002;-2.407298423349857E-003;-5.149906501173973E-003;
2.420000000000000E+009;1.507528424263001E-001;-9.882134199142456E-002;-2.584027592092753E-003;-5.020502023398876E-003;
2.420166666666667E+009;1.508648991584778E-001;-9.941505640745163E-002;-2.847194205969572E-003;-4.862340167164803E-003;
2.420333333333334E+009;1.512240916490555E-001;-9.989592432975769E-002;-2.958552213385701E-003;-4.664547275751829E-003;
2.420500000000000E+009;1.516838967800140E-001;-1.001464799046516E-001;-3.174556419253349E-003;-4.523203242570162E-003;
2.420666666666667E+009;1.517551094293594E-001;-1.003084555268288E-001;-3.342298325151205E-003;-4.183542449027300E-003;
2.420833333333334E+009;1.521355658769608E-001;-1.005137860774994E-001;-3.500578459352255E-003;-4.077601712197065E-003;
2.421000000000000E+009;1.521683037281036E-001;-1.006976291537285E-001;-3.682737005874515E-003;-3.856239374727011E-003;
2.421166666666667E+009;1.524800509214401E-001;-1.006595566868782E-001;-3.888827981427312E-003;-3.626965451985598E-003;
2.421333333333334E+009;1.526545733213425E-001;-1.005263626575470E-001;-3.870564745739102E-003;-3.471185918897390E-003;
2.421500000000000E+009;1.525476127862930E-001;-1.002663075923920E-001;-3.983533941209316E-003;-3.286766586825252E-003;
2.421666666666667E+009;1.528403311967850E-001;-1.001464799046516E-001;-4.034964367747307E-003;-2.952770795673132E-003;
2.421833333333334E+009;1.527234017848969E-001;-9.993108361959457E-002;-4.058691672980785E-003;-2.879845211282373E-003;
2.422000000000000E+009;1.527505666017532E-001;-9.954583644866943E-002;-4.004244226962328E-003;-2.587324474006891E-003;
2.422166666666667E+009;1.522732526063919E-001;-9.928404539823532E-002;-4.321015905588865E-003;-2.307730494067073E-003;
2.422333333333334E+009;1.522146165370941E-001;-9.873791038990021E-002;-4.169187974184752E-003;-2.173485932871699E-003;
2.422500000000000E+009;1.516068279743195E-001;-9.828461706638336E-002;-4.199361428618431E-003;-2.030630130320787E-003;
2.422666666666667E+009;1.510173678398132E-001;-9.801392257213593E-002;-4.141079261898994E-003;-1.877419417724013E-003;
2.422833333333334E+009;1.503555327653885E-001;-9.776115417480469E-002;-4.061690997332335E-003;-1.740877982228994E-003;
2.423000000000000E+009;1.496361345052719E-001;-9.726427495479584E-002;-4.049032460898161E-003;-1.375514548271895E-003;
2.423166666666667E+009;1.486411839723587E-001;-9.681151062250137E-002;-3.999437205493450E-003;-1.279074698686600E-003;
2.423333333333334E+009;1.478505134582520E-001;-9.626007080078125E-002;-3.955243621021509E-003;-1.183772110380232E-003;
2.423500000000000E+009;1.466053426265717E-001;-9.606133401393890E-002;-3.807661822065711E-003;-1.168621587567031E-003;
2.423666666666667E+009;1.455521881580353E-001;-9.582448005676270E-002;-3.915733192116022E-003;-9.384537115693092E-004;
2.423833333333334E+009;1.443142592906952E-001;-9.551658481359482E-002;-3.987994510680437E-003;-6.913940305821598E-004;
2.424000000000000E+009;1.428630650043488E-001;-9.526696056127548E-002;-3.986336290836334E-003;-8.170738001354039E-004;
2.424166666666667E+009;1.413527131080627E-001;-9.499608725309372E-002;-3.768715076148510E-003;-4.935492761433125E-004;
2.424333333333334E+009;1.402211487293243E-001;-9.480516612529755E-002;-3.669345751404762E-003;-3.621850628405809E-004;
2.424500000000000E+009;1.387366056442261E-001;-9.495685994625092E-002;-3.586762119084597E-003;-2.015109203057364E-004;
2.424666666666667E+009;1.373597532510757E-001;-9.482708573341370E-002;-3.522671526297927E-003;-7.743663445580751E-005;
2.424833333333334E+009;1.356928795576096E-001;-9.513346850872040E-002;-3.310262458398938E-003;2.629423215694260E-005;
2.425000000000000E+009;1.342377215623856E-001;-9.542375802993774E-002;-3.320250427350402E-003;2.158526149287354E-005;
2.425166666666667E+009;1.324821859598160E-001;-9.585212171077728E-002;-3.292519366368651E-003;2.395467017777264E-004;
2.425333333333334E+009;1.311211287975311E-001;-9.628093987703323E-002;-3.142696572467685E-003;1.447800896130502E-004;
2.425500000000000E+009;1.297241300344467E-001;-9.701810032129288E-002;-3.157822648063302E-003;2.466004225425422E-004;
2.425666666666667E+009;1.280925124883652E-001;-9.765536338090897E-002;-3.058355767279863E-003;3.050010418519378E-004;
2.425833333333334E+009;1.266378760337830E-001;-9.862603247165680E-002;-2.983715385198593E-003;4.733152454718947E-004;
2.426000000000000E+009;1.251494735479355E-001;-9.969166666269302E-002;-2.864362904801965E-003;5.210342351347208E-004;
2.426166666666667E+009;1.240538954734802E-001;-1.007084622979164E-001;-2.828774973750114E-003;4.176125221420080E-004;
2.426333333333334E+009;1.224950477480888E-001;-1.019241213798523E-001;-2.731431275606155E-003;3.523352497722954E-004;
2.426500000000000E+009;1.213365197181702E-001;-1.031660139560700E-001;-2.675770781934261E-003;4.604042042046785E-004;
2.426666666666667E+009;1.202644705772400E-001;-1.045571118593216E-001;-2.649542177096009E-003;5.826056003570557E-004;
2.426833333333334E+009;1.190520450472832E-001;-1.060513779520989E-001;-2.456084825098515E-003;6.486604688689113E-004;
2.427000000000000E+009;1.179751306772232E-001;-1.076878085732460E-001;-2.546394011005759E-003;7.920498028397560E-004;
2.427166666666667E+009;1.170090809464455E-001;-1.092158704996109E-001;-2.348566893488169E-003;6.607188843190670E-004;
2.427333333333334E+009;1.161464825272560E-001;-1.110106185078621E-001;-2.259126864373684E-003;6.345112342387438E-004;
2.427500000000000E+009;1.153669357299805E-001;-1.127728894352913E-001;-2.160132629796863E-003;6.341115222312510E-004;
2.427666666666667E+009;1.145902723073959E-001;-1.146349087357521E-001;-2.107061911374331E-003;5.697238957509399E-004;
