# Version 1.00
#
freq[Hz];re:Trc1_S11;im:Trc1_S11;re:Trc2_S21;im:Trc2_S21;
2.400000000000000E+009;1.603805273771286E-001;5.673793330788612E-002;3.592600114643574E-003;3.940898459404707E-003;
2.400166666666667E+009;1.605372726917267E-001;5.537316203117371E-002;3.753883298486471E-003;4.079779144376516E-003;
2.400333333333334E+009;1.606233417987824E-001;5.352383106946945E-002;3.866271115839481E-003;4.049335140734911E-003;
2.400500000000000E+009;1.606206297874451E-001;5.166662484407425E-002;3.947146702557802E-003;4.030972719192505E-003;
2.400666666666667E+009;1.606242358684540E-001;4.993585497140884E-002;4.244831856340170E-003;3.895776346325874E-003;
2.400833333333334E+009;1.609560996294022E-001;4.823914542794228E-002;4.394999705255032E-003;3.769355127587915E-003;
2.401000000000000E+009;1.611422598361969E-001;4.618454724550247E-002;4.448482301086187E-003;3.801103914156556E-003;
2.401166666666667E+009;1.614789813756943E-001;4.449725896120071E-002;4.779041744768620E-003;3.723807167261839E-003;
2.401333333333334E+009;1.616280227899551E-001;4.247701168060303E-002;4.957988858222961E-003;3.705482697114348E-003;
2.401500000000000E+009;1.620376855134964E-001;4.062671586871147E-002;5.155770573765039E-003;3.604153869673610E-003;
2.401666666666667E+009;1.622031182050705E-001;3.900042176246643E-002;5.407623946666718E-003;3.409803612157702E-003;
2.401833333333334E+009;1.627758741378784E-001;3.699155151844025E-002;5.524546373635531E-003;3.323868615552783E-003;
2.402000000000000E+009;1.630695462226868E-001;3.529557958245277E-002;5.776242353022099E-003;3.201032988727093E-003;
2.402166666666667E+009;1.637156605720520E-001;3.342430666089058E-002;6.327384151518345E-003;2.978747943416238E-003;
2.402333333333334E+009;1.641141325235367E-001;3.201770409941673E-002;6.407902110368013E-003;2.841149689629674E-003;
2.402500000000000E+009;1.649667620658875E-001;3.014469519257546E-002;6.562604568898678E-003;2.672058530151844E-003;
2.402666666666667E+009;1.655020117759705E-001;2.870091982185841E-002;6.758664269000292E-003;2.502147573977709E-003;
2.402833333333334E+009;1.662044674158096E-001;2.724411897361279E-002;7.028835359960794E-003;2.217978937551379E-003;
2.403000000000000E+009;1.669582873582840E-001;2.573304995894432E-002;7.330672815442085E-003;1.938912319019437E-003;
2.403166666666667E+009;1.676745563745499E-001;2.436223067343235E-002;7.412549108266830E-003;1.499897334724665E-003;
2.403333333333334E+009;1.685343384742737E-001;2.326489239931107E-002;7.723906543105841E-003;1.239406294189394E-003;
2.403500000000000E+009;1.690129637718201E-001;2.191720344126225E-002;7.834224961698055E-003;8.327084942720830E-004;
2.403666666666667E+009;1.698449701070786E-001;2.055813744664192E-002;7.892944850027561E-003;3.737053484655917E-004;
2.403833333333334E+009;1.708119362592697E-001;1.928299665451050E-002;7.892607711255550E-003;-4.683808583649807E-006;
2.404000000000000E+009;1.713404208421707E-001;1.844357885420322E-002;8.094263263046742E-003;-2.088306355290115E-004;
2.404166666666667E+009;1.720964908599854E-001;1.737499237060547E-002;8.066936396062374E-003;-7.257165852934122E-004;
2.404333333333334E+009;1.728772521018982E-001;1.652039773762226E-002;8.010673336684704E-003;-1.031994936056435E-003;
2.404500000000000E+009;1.735346764326096E-001;1.554691977798939E-002;8.139116689562798E-003;-1.323800301179290E-003;
2.404666666666667E+009;1.741911023855209E-001;1.481819245964289E-002;7.996449247002602E-003;-1.922447700053453E-003;
2.404833333333334E+009;1.749051958322525E-001;1.407641824334860E-002;8.124451152980328E-003;-2.423540456220508E-003;
2.405000000000000E+009;1.756347119808197E-001;1.329674664884806E-002;7.917146198451519E-003;-2.753683133050799E-003;
2.405166666666667E+009;1.762893795967102E-001;1.258553471416235E-002;7.944441400468350E-003;-3.262869780883193E-003;
2.405333333333334E+009;1.767109185457230E-001;1.189561374485493E-002;7.765716873109341E-003;-3.427369287237525E-003;
2.405500000000000E+009;1.771204024553299E-001;1.159969158470631E-002;7.450451608747244E-003;-3.812649985775352E-003;
2.405666666666667E+009;1.775332540273666E-001;1.108466181904078E-002;7.281050551682711E-003;-4.305741284042597E-003;
2.405833333333334E+009;1.778413653373718E-001;1.072126720100641E-002;7.198004517704248E-003;-4.502848256379366E-003;
2.406000000000000E+009;1.782958507537842E-001;1.010885555297136E-002;6.737115792930126E-003;-4.777785390615463E-003;
2.406166666666667E+009;1.784395724534988E-001;9.815527126193047E-003;6.725747138261795E-003;-5.168584641069174E-003;
2.406333333333334E+009;1.786184608936310E-001;9.376658126711845E-003;6.328289397060871E-003;-5.307757295668125E-003;
2.406500000000000E+009;1.788270026445389E-001;9.045248851180077E-003;6.291636265814304E-003;-5.764144472777844E-003;
2.406666666666667E+009;1.787059754133225E-001;8.536555804312229E-003;5.785380955785513E-003;-5.908553488552570E-003;
2.406833333333334E+009;1.788061708211899E-001;8.113522082567215E-003;5.652274005115032E-003;-6.090912502259016E-003;
2.407000000000000E+009;1.787605583667755E-001;7.576906587928534E-003;5.257298704236746E-003;-6.335678044706583E-003;
2.407166666666667E+009;1.788766533136368E-001;7.196124643087387E-003;5.112571176141501E-003;-6.562286987900734E-003;
2.407333333333334E+009;1.785128861665726E-001;6.524452008306980E-003;4.840569570660591E-003;-6.697860080748797E-003;
2.407500000000000E+009;1.782293617725372E-001;6.003708112984896E-003;4.458176437765360E-003;-6.891827099025250E-003;
2.407666666666667E+009;1.780148595571518E-001;5.419809371232987E-003;4.118604585528374E-003;-6.887759547680616E-003;
2.407833333333334E+009;1.773629188537598E-001;4.668633453547955E-003;3.749816212803125E-003;-6.931943353265524E-003;
2.408000000000000E+009;1.770669221878052E-001;3.896673908457160E-003;3.454972058534622E-003;-7.155744824558497E-003;
2.408166666666667E+009;1.767083704471588E-001;3.130695782601833E-003;3.174811601638794E-003;-7.168271578848362E-003;
2.408333333333334E+009;1.763886362314224E-001;2.249726327136159E-003;2.876866143196821E-003;-7.227153982967138E-003;
2.408500000000000E+009;1.755896210670471E-001;1.245070830918849E-003;2.514207502827048E-003;-7.243986241519451E-003;
2.408666666666667E+009;1.751939505338669E-001;2.925078442785889E-004;2.221888629719615E-003;-7.247308734804392E-003;
2.408833333333334E+009;1.745028793811798E-001;-8.112579816952348E-004;2.047064015641809E-003;-7.263226900249720E-003;
2.409000000000000E+009;1.738801598548889E-001;-2.042833948507905E-003;1.791271613910794E-003;-7.280008867383003E-003;
2.409166666666667E+009;1.733171194791794E-001;-3.191701835021377E-003;1.529680681414902E-003;-7.169891614466906E-003;
2.409333333333334E+009;1.727229803800583E-001;-4.522625356912613E-003;1.203568885102868E-003;-7.044907193630934E-003;
2.409500000000000E+009;1.721106171607971E-001;-6.168326362967491E-003;1.082793227396905E-003;-7.094481028616428E-003;
2.409666666666667E+009;1.715292036533356E-001;-7.558276876807213E-003;8.103393483906984E-004;-7.093920838087797E-003;
2.409833333333334E+009;1.708704829216003E-001;-8.778691291809082E-003;4.937725025229156E-004;-6.817567627876997E-003;
2.410000000000000E+009;1.705294847488403E-001;-1.051722653210163E-002;2.931615454144776E-004;-6.907750852406025E-003;
2.410166666666667E+009;1.699576526880264E-001;-1.205527409911156E-002;2.360475918976590E-004;-6.958650425076485E-003;
2.410333333333334E+009;1.693788021802902E-001;-1.378297246992588E-002;4.407182859722525E-005;-6.754867266863585E-003;
2.410500000000000E+009;1.691160500049591E-001;-1.548616774380207E-002;-8.787905244389549E-005;-6.697655655443668E-003;
2.410666666666667E+009;1.687319725751877E-001;-1.738155446946621E-002;-3.458380524534732E-004;-6.748177576810122E-003;
2.410833333333334E+009;1.686888784170151E-001;-1.909896917641163E-002;-3.951377584598959E-004;-6.700961384922266E-003;
2.411000000000000E+009;1.681694388389587E-001;-2.087627537548542E-002;-5.042106495238841E-004;-6.581404246389866E-003;
2.411166666666667E+009;1.679104119539261E-001;-2.263948135077953E-002;-6.363401771523058E-004;-6.573155056685209E-003;
2.411333333333334E+009;1.679107695817947E-001;-2.461895905435085E-002;-9.110727114602923E-004;-6.529208272695541E-003;
2.411500000000000E+009;1.676971465349197E-001;-2.654672041535378E-002;-1.013086060993373E-003;-6.488458253443241E-003;
2.411666666666667E+009;1.677718907594681E-001;-2.844149619340897E-002;-1.158891711384058E-003;-6.561418063938618E-003;
2.411833333333334E+009;1.677708923816681E-001;-3.020189888775349E-002;-1.361293252557516E-003;-6.447710096836090E-003;
2.412000000000000E+009;1.678786277770996E-001;-3.226224705576897E-002;-1.406201976351440E-003;-6.520244292914867E-003;
2.412166666666667E+009;1.679356247186661E-001;-3.389401733875275E-002;-1.540478668175638E-003;-6.507931742817164E-003;
2.412333333333334E+009;1.685550063848496E-001;-3.586160764098167E-002;-1.862520352005959E-003;-6.582708097994328E-003;
2.412500000000000E+009;1.684674024581909E-001;-3.745249286293984E-002;-1.954449340701103E-003;-6.450085900723934E-003;
2.412666666666667E+009;1.689554750919342E-001;-3.974109515547752E-002;-2.162796678021550E-003;-6.532195955514908E-003;
2.412833333333334E+009;1.693516075611115E-001;-4.127084836363792E-002;-2.433628309518099E-003;-6.616524420678616E-003;
2.413000000000000E+009;1.696319580078125E-001;-4.276355355978012E-002;-2.838018583133817E-003;-6.716276519000530E-003;
2.413166666666667E+009;1.700126677751541E-001;-4.445540904998779E-002;-2.919197315350175E-003;-6.488738115876913E-003;
2.413333333333334E+009;1.705695539712906E-001;-4.589566215872765E-002;-3.191984724253416E-003;-6.177144590765238E-003;
2.413500000000000E+009;1.709913015365601E-001;-4.736514762043953E-002;-3.485987195745111E-003;-6.265675183385611E-003;
2.413666666666667E+009;1.715584546327591E-001;-4.897373542189598E-002;-3.621793352067471E-003;-6.218875292688608E-003;
2.413833333333334E+009;1.718960553407669E-001;-5.022168159484863E-002;-3.988189157098532E-003;-5.996608640998602E-003;
2.414000000000000E+009;1.723318397998810E-001;-5.144064500927925E-002;-4.216015804558992E-003;-5.854714661836624E-003;
2.414166666666667E+009;1.730067878961563E-001;-5.260502547025681E-002;-4.512147512286902E-003;-5.727164447307587E-003;
2.414333333333334E+009;1.734127998352051E-001;-5.369503051042557E-002;-4.789002705365419E-003;-5.661656614392996E-003;
2.414500000000000E+009;1.741514205932617E-001;-5.473830923438072E-002;-5.020528100430965E-003;-5.348480772227049E-003;
2.414666666666667E+009;1.745931804180145E-001;-5.552192777395248E-002;-5.165019072592259E-003;-5.103977862745524E-003;
2.414833333333334E+009;1.748438924551010E-001;-5.641896277666092E-002;-5.444395355880261E-003;-5.016730166971684E-003;
2.415000000000000E+009;1.751624345779419E-001;-5.713041871786118E-002;-5.439430940896273E-003;-4.937161225825548E-003;
2.415166666666667E+009;1.755592674016953E-001;-5.791188031435013E-002;-5.842001643031836E-003;-4.388440866023302E-003;
2.415333333333334E+009;1.759170442819595E-001;-5.849758163094521E-002;-5.952633917331696E-003;-4.248518031090498E-003;
2.415500000000000E+009;1.761688441038132E-001;-5.894871801137924E-002;-6.020300090312958E-003;-4.063987173140049E-003;
2.415666666666667E+009;1.763845831155777E-001;-5.942944437265396E-002;-6.102791521698237E-003;-3.922113217413425E-003;
2.415833333333334E+009;1.765645593404770E-001;-5.994833633303642E-002;-6.350149400532246E-003;-3.595578484237194E-003;
2.416000000000000E+009;1.764315813779831E-001;-6.034601107239723E-002;-6.342301145195961E-003;-3.243265207856894E-003;
2.416166666666667E+009;1.767255961894989E-001;-6.057915464043617E-002;-6.434777285903692E-003;-3.026992082595825E-003;
2.416333333333334E+009;1.764601320028305E-001;-6.081396341323853E-002;-6.480182986706495E-003;-2.809315919876099E-003;
2.416500000000000E+009;1.762357950210571E-001;-6.112138554453850E-002;-6.592581514269114E-003;-2.693802351132035E-003;
2.416666666666667E+009;1.759670525789261E-001;-6.127589195966721E-002;-6.570374127477408E-003;-2.293419558554888E-003;
2.416833333333334E+009;1.756966710090637E-001;-6.158091872930527E-002;-6.699773482978344E-003;-2.079759025946260E-003;
2.417000000000000E+009;1.751368194818497E-001;-6.188065186142921E-002;-6.844981107860804E-003;-1.629381207749248E-003;
2.417166666666667E+009;1.746584028005600E-001;-6.201687082648277E-002;-6.709627341479063E-003;-1.481893821619451E-003;
2.417333333333334E+009;1.740313917398453E-001;-6.213830783963203E-002;-6.790636107325554E-003;-1.177130849100649E-003;
2.417500000000000E+009;1.734188795089722E-001;-6.250168383121491E-002;-6.612570025026798E-003;-1.165215391665697E-003;
2.417666666666667E+009;1.727411001920700E-001;-6.256574392318726E-002;-6.737518124282360E-003;-7.149223238229752E-004;
2.417833333333334E+009;1.718977093696594E-001;-6.292176246643066E-002;-6.706081330776215E-003;-6.749109015800059E-004;
2.418000000000000E+009;1.709960699081421E-001;-6.330163031816483E-002;-6.615821272134781E-003;-2.566628972999752E-004;
2.418166666666667E+009;1.699923425912857E-001;-6.344326585531235E-002;-6.605939939618111E-003;-5.178821447771043E-005;
2.418333333333334E+009;1.691990196704865E-001;-6.390822678804398E-002;-6.552619393914938E-003;3.159737025271170E-005;
2.418500000000000E+009;1.680142581462860E-001;-6.439391523599625E-002;-6.395399104803801E-003;1.538081123726443E-004;
2.418666666666667E+009;1.670947372913361E-001;-6.479088962078095E-002;-6.472029723227024E-003;4.562246322166175E-004;
2.418833333333334E+009;1.656921654939652E-001;-6.547880172729492E-002;-6.290468387305737E-003;5.928293103352189E-004;
2.419000000000000E+009;1.645439267158508E-001;-6.603376567363739E-002;-6.328072864562273E-003;7.379308226518333E-004;
2.419166666666667E+009;1.634629815816879E-001;-6.681086868047714E-002;-6.375560071319342E-003;9.467881172895432E-004;
2.419333333333334E+009;1.620690673589706E-001;-6.740563362836838E-002;-6.149485707283020E-003;1.088883727788925E-003;
2.419500000000000E+009;1.610407233238220E-001;-6.832472980022430E-002;-5.963216070085764E-003;1.325265155173838E-003;
2.419666666666667E+009;1.599017530679703E-001;-6.948478519916534E-002;-6.043095607310534E-003;1.450326642952859E-003;
2.419833333333334E+009;1.586740761995316E-001;-7.013242691755295E-002;-5.870555061846972E-003;1.577773247845471E-003;
2.420000000000000E+009;1.575849056243897E-001;-7.130894809961319E-002;-5.934532266110182E-003;1.916645560413599E-003;
2.420166666666667E+009;1.563876718282700E-001;-7.246715575456619E-002;-5.853179376572371E-003;2.025592140853405E-003;
2.420333333333334E+009;1.553672254085541E-001;-7.374593615531921E-002;-5.542766768485308E-003;2.279676264151931E-003;
2.420500000000000E+009;1.542796492576599E-001;-7.492905855178833E-002;-5.754592362791300E-003;2.246631076559424E-003;
2.420666666666667E+009;1.533326655626297E-001;-7.619877904653549E-002;-5.512372124940157E-003;2.401045523583889E-003;
2.420833333333334E+009;1.523528993129730E-001;-7.771012932062149E-002;-5.456487648189068E-003;2.395813586190343E-003;
2.421000000000000E+009;1.514346599578857E-001;-7.910871505737305E-002;-5.251610185950995E-003;2.664973260834813E-003;
2.421166666666667E+009;1.506518870592117E-001;-8.080634474754334E-002;-5.274432245641947E-003;2.773480489850044E-003;
2.421333333333334E+009;1.499768644571304E-001;-8.233983814716339E-002;-4.878706764429808E-003;2.943220781162381E-003;
2.421500000000000E+009;1.492132246494293E-001;-8.398618549108505E-002;-5.095306318253279E-003;3.088193014264107E-003;
2.421666666666667E+009;1.487935930490494E-001;-8.555299043655396E-002;-4.901139996945858E-003;3.284047357738018E-003;
2.421833333333334E+009;1.482666432857513E-001;-8.725576102733612E-002;-4.826640710234642E-003;3.349034115672112E-003;
2.422000000000000E+009;1.476675122976303E-001;-8.890312165021896E-002;-4.671985749155283E-003;3.564651124179363E-003;
2.422166666666667E+009;1.474520862102509E-001;-9.080858528614044E-002;-4.386981949210167E-003;3.634111490100622E-003;
2.422333333333334E+009;1.472345292568207E-001;-9.227863699197769E-002;-4.207364749163389E-003;3.767589805647731E-003;
2.422500000000000E+009;1.470521837472916E-001;-9.397474676370621E-002;-3.980740439146757E-003;3.710848977789283E-003;
2.422666666666667E+009;1.467862725257874E-001;-9.577297419309616E-002;-3.900335403159261E-003;3.937936853617430E-003;
2.422833333333334E+009;1.469951122999191E-001;-9.767650067806244E-002;-3.713893936946988E-003;3.928789868950844E-003;
2.423000000000000E+009;1.470229625701904E-001;-9.907440096139908E-002;-3.605136414989829E-003;4.103276878595352E-003;
2.423166666666667E+009;1.469078660011292E-001;-1.007548049092293E-001;-3.498925594612956E-003;4.123164340853691E-003;
2.423333333333334E+009;1.472504436969757E-001;-1.022856980562210E-001;-3.383598523214459E-003;4.241776186972857E-003;
2.423500000000000E+009;1.472827047109604E-001;-1.040131822228432E-001;-3.211078932508826E-003;4.166170489042997E-003;
2.423666666666667E+009;1.475366801023483E-001;-1.055966094136238E-001;-3.099516732618213E-003;4.441022407263517E-003;
2.423833333333334E+009;1.480162590742111E-001;-1.070246398448944E-001;-2.833294449374080E-003;4.372785333544016E-003;
2.424000000000000E+009;1.482197642326355E-001;-1.083191707730293E-001;-2.849478507414460E-003;4.376017954200506E-003;
2.424166666666667E+009;1.484361439943314E-001;-1.096593067049980E-001;-2.782358555123210E-003;4.412000533193350E-003;
2.424333333333334E+009;1.489685028791428E-001;-1.107913479208946E-001;-2.498388988897204E-003;4.504557698965073E-003;
2.424500000000000E+009;1.492730379104614E-001;-1.121056303381920E-001;-2.367897657677531E-003;4.538781009614468E-003;
2.424666666666667E+009;1.497849971055985E-001;-1.129632219672203E-001;-2.351901028305292E-003;4.676986485719681E-003;
2.424833333333334E+009;1.499557495117188E-001;-1.140606775879860E-001;-2.161976648494601E-003;4.697051830589771E-003;
2.425000000000000E+009;1.504047065973282E-001;-1.149825528264046E-001;-1.991115277633071E-003;4.728134721517563E-003;
2.425166666666667E+009;1.506860405206680E-001;-1.159310862421989E-001;-1.877417322248220E-003;4.744747653603554E-003;
2.425333333333334E+009;1.510480940341950E-001;-1.166525334119797E-001;-1.707359217107296E-003;4.599282983690500E-003;
2.425500000000000E+009;1.513601988554001E-001;-1.174295991659164E-001;-1.447533140890300E-003;4.731595516204834E-003;
2.425666666666667E+009;1.514020562171936E-001;-1.181091591715813E-001;-1.452737604267895E-003;4.688802640885115E-003;
2.425833333333334E+009;1.517289429903030E-001;-1.186114549636841E-001;-1.423245994374156E-003;4.754434805363417E-003;
2.426000000000000E+009;1.519190967082977E-001;-1.192622259259224E-001;-1.153983059339225E-003;4.816956818103790E-003;
2.426166666666667E+009;1.519283801317215E-001;-1.196567267179489E-001;-1.026979414746165E-003;4.765964578837156E-003;
2.426333333333334E+009;1.520080417394638E-001;-1.198762580752373E-001;-8.992373477667570E-004;4.670115653425455E-003;
2.426500000000000E+009;1.519566923379898E-001;-1.202611476182938E-001;-7.192538469098508E-004;4.775428678840399E-003;
2.426666666666667E+009;1.519555896520615E-001;-1.203401386737824E-001;-7.893550791777670E-004;4.837431944906712E-003;
2.426833333333334E+009;1.516937017440796E-001;-1.206328049302101E-001;-6.194454035721719E-004;4.815577995032072E-003;
2.427000000000000E+009;1.513116508722305E-001;-1.209352314472199E-001;-5.352769512683153E-004;4.781716968864203E-003;
2.427166666666667E+009;1.510034948587418E-001;-1.209113150835037E-001;-3.996317391283810E-004;4.860266111791134E-003;
2.427333333333334E+009;1.504778712987900E-001;-1.211987808346748E-001;-2.609364164527506E-004;4.724489524960518E-003;
2.427500000000000E+009;1.500587612390518E-001;-1.212391629815102E-001;-9.195576421916485E-005;4.614293109625578E-003;
2.427666666666667E+009;1.493547856807709E-001;-1.213989630341530E-001;1.274726382689551E-004;4.697935190051794E-003;
