# Version 1.00
#
freq[Hz];re:Trc1_S11;im:Trc1_S11;re:Trc2_S21;im:Trc2_S21;
2.400000000000000E+009;1.589028835296631E-001;6.259781122207642E-002;-7.381347008049488E-003;1.662736875005066E-003;
2.400166666666667E+009;1.587264388799667E-001;6.120352074503899E-002;-7.387530989944935E-003;1.973081845790148E-003;
2.400333333333334E+009;1.584738045930862E-001;5.945044383406639E-002;-7.213213946670294E-003;2.011552918702364E-003;
2.400500000000000E+009;1.585857719182968E-001;5.757686123251915E-002;-7.091532927006483E-003;2.342100953683257E-003;
2.400666666666667E+009;1.583534181118012E-001;5.545504763722420E-002;-7.193615660071373E-003;2.466144505888224E-003;
2.400833333333334E+009;1.584276556968689E-001;5.366334691643715E-002;-7.131525781005621E-003;2.611337928101420E-003;
2.401000000000000E+009;1.586786061525345E-001;5.159122496843338E-002;-7.147227413952351E-003;2.875886159017682E-003;
2.401166666666667E+009;1.585334390401840E-001;4.951146990060806E-002;-6.771527230739594E-003;3.025584854185581E-003;
2.401333333333334E+009;1.586306542158127E-001;4.752727597951889E-002;-6.893547717481852E-003;3.349677892401815E-003;
2.401500000000000E+009;1.589286327362061E-001;4.541091993451119E-002;-6.813688203692436E-003;3.479509847238660E-003;
2.401666666666667E+009;1.591410189867020E-001;4.362555593252182E-002;-6.669683381915093E-003;3.685652744024992E-003;
2.401833333333334E+009;1.595566570758820E-001;4.137269034981728E-002;-6.507979705929756E-003;3.931726329028606E-003;
2.402000000000000E+009;1.597927659749985E-001;3.947661072015762E-002;-6.484896410256624E-003;4.218287765979767E-003;
2.402166666666667E+009;1.602900326251984E-001;3.730496764183044E-002;-6.328754592686892E-003;4.405001178383827E-003;
2.402333333333334E+009;1.606325060129166E-001;3.536420315504074E-002;-6.238471716642380E-003;4.670042544603348E-003;
2.402500000000000E+009;1.614271104335785E-001;3.373352065682411E-002;-6.119124591350555E-003;5.087794270366430E-003;
2.402666666666667E+009;1.619811505079269E-001;3.192145004868507E-002;-5.801448132842779E-003;5.276538897305727E-003;
2.402833333333334E+009;1.627850830554962E-001;3.016738593578339E-002;-5.789953749626875E-003;5.356043111532927E-003;
2.403000000000000E+009;1.635428518056870E-001;2.844299748539925E-002;-5.576037336140871E-003;5.551657173782587E-003;
2.403166666666667E+009;1.643723845481873E-001;2.665675058960915E-002;-5.125029478222132E-003;5.865412764251232E-003;
2.403333333333334E+009;1.649623811244965E-001;2.527569234371185E-002;-5.056823603808880E-003;6.187469698488712E-003;
2.403500000000000E+009;1.659062653779984E-001;2.389523759484291E-002;-4.765497054904699E-003;6.236779969185591E-003;
2.403666666666667E+009;1.667239964008331E-001;2.218532562255859E-002;-4.289141390472651E-003;6.484685000032187E-003;
2.403833333333334E+009;1.678472757339478E-001;2.107943408191204E-002;-4.046882502734661E-003;6.654849741607904E-003;
2.404000000000000E+009;1.687803566455841E-001;1.982385478913784E-002;-3.851244691759348E-003;6.867868825793266E-003;
2.404166666666667E+009;1.696603149175644E-001;1.852011494338512E-002;-3.735596779733896E-003;6.923964247107506E-003;
2.404333333333334E+009;1.706928014755249E-001;1.759339496493340E-002;-3.393941791728139E-003;6.940450984984636E-003;
2.404500000000000E+009;1.715667545795441E-001;1.643603108823299E-002;-3.016830654814839E-003;7.262980099767447E-003;
2.404666666666667E+009;1.727425754070282E-001;1.557896565645933E-002;-2.753224922344089E-003;7.207821123301983E-003;
2.404833333333334E+009;1.734108477830887E-001;1.479356642812491E-002;-2.378164092078805E-003;7.317210081964731E-003;
2.405000000000000E+009;1.743858009576798E-001;1.390955690294504E-002;-2.069140784442425E-003;7.425835356116295E-003;
2.405166666666667E+009;1.750234067440033E-001;1.334887277334929E-002;-1.630370970815420E-003;7.442400790750980E-003;
2.405333333333334E+009;1.759174615144730E-001;1.263575814664364E-002;-1.416809740476310E-003;7.403132971376181E-003;
2.405500000000000E+009;1.768009513616562E-001;1.213600765913725E-002;-9.519272716715932E-004;7.413417566567659E-003;
2.405666666666667E+009;1.774737089872360E-001;1.158215291798115E-002;-6.909747608006001E-004;7.467391900718212E-003;
2.405833333333334E+009;1.780354380607605E-001;1.120170764625073E-002;-3.734236524906009E-004;7.389665581285954E-003;
2.406000000000000E+009;1.786391139030457E-001;1.072044484317303E-002;-7.814529089955613E-005;7.233078591525555E-003;
2.406166666666667E+009;1.791508644819260E-001;1.052969787269831E-002;1.621536939637736E-004;7.188062649220228E-003;
2.406333333333334E+009;1.797742694616318E-001;1.011059060692787E-002;4.011869605164975E-004;7.095118518918753E-003;
2.406500000000000E+009;1.798995584249497E-001;9.751483798027039E-003;6.221932708285749E-004;7.039840333163738E-003;
2.406666666666667E+009;1.801370233297348E-001;9.657892398536205E-003;1.004094607196748E-003;7.128159049898386E-003;
2.406833333333334E+009;1.805826574563980E-001;9.186309762299061E-003;1.385940238833427E-003;6.900088395923376E-003;
2.407000000000000E+009;1.807336509227753E-001;8.845237083733082E-003;1.642151037231088E-003;6.730210036039352E-003;
2.407166666666667E+009;1.808034777641296E-001;8.696468546986580E-003;1.806882675737143E-003;6.545750889927149E-003;
2.407333333333334E+009;1.805803626775742E-001;8.086790330708027E-003;2.150935353711247E-003;6.229520309716463E-003;
2.407500000000000E+009;1.806291490793228E-001;7.861130870878696E-003;2.335602650418878E-003;6.285312119871378E-003;
2.407666666666667E+009;1.804365366697311E-001;7.311413995921612E-003;2.479565097019076E-003;5.956209730356932E-003;
2.407833333333334E+009;1.800575852394104E-001;6.652981508523226E-003;2.527598291635513E-003;5.676181055605412E-003;
2.408000000000000E+009;1.798027455806732E-001;6.141292862594128E-003;2.860148437321186E-003;5.618419498205185E-003;
2.408166666666667E+009;1.795232892036438E-001;5.763575900346041E-003;2.935805823653936E-003;5.366715602576733E-003;
2.408333333333334E+009;1.792465150356293E-001;5.084773525595665E-003;3.090346930548549E-003;5.248974077403545E-003;
2.408500000000000E+009;1.785560399293900E-001;4.159348085522652E-003;3.139250213280320E-003;4.959543235599995E-003;
2.408666666666667E+009;1.780963093042374E-001;3.370995866134763E-003;3.229771275073290E-003;4.788524471223354E-003;
2.408833333333334E+009;1.772361546754837E-001;2.360670128837228E-003;3.356402972713113E-003;4.698968026787043E-003;
2.409000000000000E+009;1.767278015613556E-001;1.513360999524593E-003;3.336316905915737E-003;4.550138488411903E-003;
2.409166666666667E+009;1.762256026268005E-001;4.812873958144337E-004;3.345939796417952E-003;4.347662907093763E-003;
2.409333333333334E+009;1.755812317132950E-001;-7.092919549904764E-004;3.506548469886184E-003;4.178260453045368E-003;
2.409500000000000E+009;1.747187376022339E-001;-2.208763966336846E-003;3.344505559653044E-003;3.849194385111332E-003;
2.409666666666667E+009;1.742400377988815E-001;-3.307556500658393E-003;3.530957270413637E-003;3.817072836682200E-003;
2.409833333333334E+009;1.734582185745239E-001;-4.718366079032421E-003;3.500645980238915E-003;3.830325789749622E-003;
2.410000000000000E+009;1.728709191083908E-001;-6.183632183820009E-003;3.662649309262633E-003;3.554823808372021E-003;
2.410166666666667E+009;1.722989529371262E-001;-7.682537194341421E-003;3.559688106179237E-003;3.378296736627817E-003;
2.410333333333334E+009;1.716559380292893E-001;-9.206081740558147E-003;3.705227514728904E-003;3.417919855564833E-003;
2.410500000000000E+009;1.711597889661789E-001;-1.106420904397965E-002;3.730592317879200E-003;3.330232342705131E-003;
2.410666666666667E+009;1.704505234956741E-001;-1.278735138475895E-002;3.705555107444525E-003;3.098677145317197E-003;
2.410833333333334E+009;1.701538860797882E-001;-1.438928674906492E-002;3.923303447663784E-003;3.056060289964080E-003;
2.411000000000000E+009;1.695762872695923E-001;-1.625324040651321E-002;3.862857352942228E-003;2.881380496546626E-003;
2.411166666666667E+009;1.693238466978073E-001;-1.804330013692379E-002;3.894511377438903E-003;2.797137945890427E-003;
2.411333333333334E+009;1.690124273300171E-001;-2.018237859010696E-002;3.928335383534432E-003;2.740856958553195E-003;
2.411500000000000E+009;1.686463356018066E-001;-2.207451313734055E-002;3.869337029755116E-003;2.538724336773157E-003;
2.411666666666667E+009;1.687522530555725E-001;-2.396228723227978E-002;3.978934604674578E-003;2.458778675645590E-003;
2.411833333333334E+009;1.685971319675446E-001;-2.587099000811577E-002;4.014362115412951E-003;2.292049350216985E-003;
2.412000000000000E+009;1.684007346630096E-001;-2.784609235823154E-002;4.082685336470604E-003;2.061726758256555E-003;
2.412166666666667E+009;1.684376746416092E-001;-2.976220846176148E-002;4.041408188641071E-003;1.978693297132850E-003;
2.412333333333334E+009;1.687124967575073E-001;-3.159349039196968E-002;4.174084402620792E-003;1.953914528712630E-003;
2.412500000000000E+009;1.686783283948898E-001;-3.363517299294472E-002;4.098541568964720E-003;1.874920330010355E-003;
2.412666666666667E+009;1.691088229417801E-001;-3.567062690854073E-002;4.308004863560200E-003;1.578985131345689E-003;
2.412833333333334E+009;1.693837642669678E-001;-3.753287717700005E-002;4.270772915333509E-003;1.301075331866741E-003;
2.413000000000000E+009;1.696785390377045E-001;-3.922472521662712E-002;4.264126531779766E-003;1.494313473813236E-003;
2.413166666666667E+009;1.699905544519424E-001;-4.106480255723000E-002;4.243886563926935E-003;1.265694387257099E-003;
2.413333333333334E+009;1.703292131423950E-001;-4.259645193815231E-002;4.358979407697916E-003;1.057955203577876E-003;
2.413500000000000E+009;1.708058118820190E-001;-4.439077153801918E-002;4.258867353200913E-003;9.813855867832899E-004;
2.413666666666667E+009;1.713934391736984E-001;-4.587650299072266E-002;4.274406936019659E-003;8.203545003198087E-004;
2.413833333333334E+009;1.717093437910080E-001;-4.754126444458962E-002;4.267161712050438E-003;8.479591342620552E-004;
2.414000000000000E+009;1.721427738666534E-001;-4.895860701799393E-002;4.171455744653940E-003;6.464787875302136E-004;
2.414166666666667E+009;1.728243380784988E-001;-5.015789344906807E-002;4.091779701411724E-003;4.309079668018967E-004;
2.414333333333334E+009;1.733358204364777E-001;-5.144746974110603E-002;4.164498299360275E-003;3.494926786515862E-004;
2.414500000000000E+009;1.740238368511200E-001;-5.265464633703232E-002;4.094368312507868E-003;1.339271402684972E-004;
2.414666666666667E+009;1.744413077831268E-001;-5.366911739110947E-002;3.998911939561367E-003;5.190169758861885E-005;
2.414833333333334E+009;1.749265044927597E-001;-5.467676743865013E-002;4.016597755253315E-003;-1.231758942594752E-004;
2.415000000000000E+009;1.753440499305725E-001;-5.560812726616859E-002;4.167718347162008E-003;-1.675433886703104E-004;
2.415166666666667E+009;1.757508963346481E-001;-5.653866380453110E-002;3.878467716276646E-003;-5.070479237474501E-004;
2.415333333333334E+009;1.763071417808533E-001;-5.734273046255112E-002;3.884324105456471E-003;-6.372488569468260E-004;
2.415500000000000E+009;1.765143424272537E-001;-5.778583139181137E-002;3.876327537000179E-003;-6.794770597480238E-004;
2.415666666666667E+009;1.768604815006256E-001;-5.844625085592270E-002;3.775715362280607E-003;-7.081094081513584E-004;
2.415833333333334E+009;1.771260201931000E-001;-5.901360511779785E-002;3.698214655742049E-003;-6.984903593547642E-004;
2.416000000000000E+009;1.771960556507111E-001;-5.957178026437759E-002;3.518194891512394E-003;-9.346101433038712E-004;
2.416166666666667E+009;1.774187237024307E-001;-5.991230159997940E-002;3.579117124900222E-003;-9.537094156257808E-004;
2.416333333333334E+009;1.774466484785080E-001;-6.027571111917496E-002;3.473263233900070E-003;-1.082222326658666E-003;
2.416500000000000E+009;1.773626655340195E-001;-6.068231165409088E-002;3.465100191533566E-003;-1.155058969743550E-003;
2.416666666666667E+009;1.771918684244156E-001;-6.080502644181252E-002;3.330446546897292E-003;-1.365801785141230E-003;
2.416833333333334E+009;1.770969629287720E-001;-6.127384677529335E-002;3.257649252191186E-003;-1.457890961319208E-003;
2.417000000000000E+009;1.766046434640884E-001;-6.153114512562752E-002;3.112294478341937E-003;-1.304278383031488E-003;
2.417166666666667E+009;1.762229502201080E-001;-6.155716255307198E-002;3.021504264324904E-003;-1.564004691317678E-003;
2.417333333333334E+009;1.757324486970902E-001;-6.176183000206947E-002;2.897673286497593E-003;-1.515250653028488E-003;
2.417500000000000E+009;1.751613616943359E-001;-6.235764175653458E-002;2.752092201262713E-003;-1.485137152485549E-003;
2.417666666666667E+009;1.746291071176529E-001;-6.232472881674767E-002;2.763766096904874E-003;-1.562550314702094E-003;
2.417833333333334E+009;1.738065034151077E-001;-6.257185339927673E-002;2.639192854985595E-003;-1.508263521827757E-003;
2.418000000000000E+009;1.728894114494324E-001;-6.299996376037598E-002;2.667370485141873E-003;-1.527228043414652E-003;
2.418166666666667E+009;1.720674037933350E-001;-6.316334009170532E-002;2.578010316938162E-003;-1.789369736798108E-003;
2.418333333333334E+009;1.712976694107056E-001;-6.358140707015991E-002;2.521604532375932E-003;-1.746296649798751E-003;
2.418500000000000E+009;1.702320426702499E-001;-6.394233554601669E-002;2.438465133309364E-003;-1.674033235758543E-003;
2.418666666666667E+009;1.692610085010529E-001;-6.439085304737091E-002;2.431392204016447E-003;-1.606465666554868E-003;
2.418833333333334E+009;1.680004447698593E-001;-6.502824276685715E-002;2.267826581373811E-003;-1.720671425573528E-003;
2.419000000000000E+009;1.667965799570084E-001;-6.553658843040466E-002;2.259550150483847E-003;-1.905231853015721E-003;
2.419166666666667E+009;1.657660007476807E-001;-6.608606874942780E-002;2.177377464249730E-003;-1.796963042579591E-003;
2.419333333333334E+009;1.645490229129791E-001;-6.663584709167481E-002;2.213404048234224E-003;-1.928308745846152E-003;
2.419500000000000E+009;1.633906960487366E-001;-6.757989525794983E-002;2.117778407409787E-003;-1.701623084954917E-003;
2.419666666666667E+009;1.623493582010269E-001;-6.862965226173401E-002;1.837959280237556E-003;-1.850205590017140E-003;
2.419833333333334E+009;1.611104607582092E-001;-6.924071907997131E-002;1.895938883535564E-003;-1.867441227659583E-003;
2.420000000000000E+009;1.599539816379547E-001;-7.038684189319611E-002;1.801963080652058E-003;-1.760874059982598E-003;
2.420166666666667E+009;1.587521135807037E-001;-7.130683958530426E-002;1.769160968251526E-003;-1.827406464144588E-003;
2.420333333333334E+009;1.577402502298355E-001;-7.253164052963257E-002;1.667151693254709E-003;-1.694345963187516E-003;
2.420500000000000E+009;1.566998809576035E-001;-7.361815869808197E-002;1.579986303113401E-003;-1.801033969968557E-003;
2.420666666666667E+009;1.556507050991058E-001;-7.490922510623932E-002;1.515477546490729E-003;-1.880104537121952E-003;
2.420833333333334E+009;1.548046022653580E-001;-7.636313140392304E-002;1.570020336657763E-003;-1.767026144079864E-003;
2.421000000000000E+009;1.538246572017670E-001;-7.788006961345673E-002;1.452977303415537E-003;-1.728316536173224E-003;
2.421166666666667E+009;1.532442867755890E-001;-7.917049527168274E-002;1.566647668369114E-003;-1.789403846487403E-003;
2.421333333333334E+009;1.525399386882782E-001;-8.082256466150284E-002;1.353994943201542E-003;-1.603172277100384E-003;
2.421500000000000E+009;1.516628116369247E-001;-8.227895200252533E-002;1.483432482928038E-003;-1.802784623578191E-003;
2.421666666666667E+009;1.512795537710190E-001;-8.404622226953507E-002;1.371542806737125E-003;-1.609579543583095E-003;
2.421833333333334E+009;1.508032530546188E-001;-8.556696027517319E-002;1.505852211266756E-003;-1.744629349559546E-003;
2.422000000000000E+009;1.503633707761765E-001;-8.718815445899963E-002;1.319798058830202E-003;-1.650801743380725E-003;
2.422166666666667E+009;1.500132083892822E-001;-8.909087628126144E-002;1.407103496603668E-003;-1.586876926012337E-003;
2.422333333333334E+009;1.497046500444412E-001;-9.071485698223114E-002;1.450971933081746E-003;-1.679566688835621E-003;
2.422500000000000E+009;1.495194733142853E-001;-9.216221421957016E-002;1.414998434484005E-003;-1.668882905505598E-003;
2.422666666666667E+009;1.494907289743424E-001;-9.404062479734421E-002;1.341547118499875E-003;-1.635517342947424E-003;
2.422833333333334E+009;1.496387571096420E-001;-9.587458521127701E-002;1.360047608613968E-003;-1.809916808269918E-003;
2.423000000000000E+009;1.497472971677780E-001;-9.739194810390472E-002;1.254400820471346E-003;-1.635211170651019E-003;
2.423166666666667E+009;1.499942988157272E-001;-9.918852150440216E-002;1.320258947089315E-003;-1.675077830441296E-003;
2.423333333333334E+009;1.502651870250702E-001;-1.006505042314529E-001;1.268833293579519E-003;-1.664542010985315E-003;
2.423500000000000E+009;1.503238230943680E-001;-1.022251322865486E-001;1.158454804681242E-003;-1.562683610245585E-003;
2.423666666666667E+009;1.505987793207169E-001;-1.038156598806381E-001;1.243445789441466E-003;-1.687004114501178E-003;
2.423833333333334E+009;1.511484384536743E-001;-1.054045185446739E-001;1.235305098816752E-003;-1.767888548783958E-003;
2.424000000000000E+009;1.514087915420532E-001;-1.064919009804726E-001;1.289536128751934E-003;-1.768114860169590E-003;
2.424166666666667E+009;1.518140286207199E-001;-1.080490723252296E-001;1.221047714352608E-003;-1.720434403978288E-003;
2.424333333333334E+009;1.523813903331757E-001;-1.091782301664352E-001;1.200707629323006E-003;-1.769675873219967E-003;
2.424500000000000E+009;1.528708040714264E-001;-1.105422377586365E-001;1.227552886120975E-003;-1.814296934753656E-003;
2.424666666666667E+009;1.533245593309403E-001;-1.113938465714455E-001;1.236235373653472E-003;-1.779758022166789E-003;
2.424833333333334E+009;1.537096947431564E-001;-1.124857962131500E-001;1.169774564914405E-003;-1.850372413173318E-003;
2.425000000000000E+009;1.541687697172165E-001;-1.135277822613716E-001;1.193985342979431E-003;-1.823477679863572E-003;
2.425166666666667E+009;1.544638425111771E-001;-1.143603473901749E-001;1.226626336574554E-003;-1.958213280886412E-003;
2.425333333333334E+009;1.548811793327332E-001;-1.151700913906097E-001;1.094306935556233E-003;-1.937316963449121E-003;
2.425500000000000E+009;1.553478688001633E-001;-1.158928945660591E-001;1.212338218465447E-003;-2.060271566733718E-003;
2.425666666666667E+009;1.555020511150360E-001;-1.165086254477501E-001;1.101912930607796E-003;-1.959080575034022E-003;
2.425833333333334E+009;1.558070778846741E-001;-1.171247810125351E-001;1.238837256096304E-003;-2.011695643886924E-003;
2.426000000000000E+009;1.559689939022064E-001;-1.176974251866341E-001;1.133990939706564E-003;-1.884848345071077E-003;
2.426166666666667E+009;1.565160751342773E-001;-1.181506738066673E-001;1.135632279329002E-003;-2.124541671946645E-003;
2.426333333333334E+009;1.563072055578232E-001;-1.184437051415443E-001;1.299005467444658E-003;-2.141156001016498E-003;
2.426500000000000E+009;1.563655436038971E-001;-1.187686175107956E-001;1.197027857415378E-003;-2.165117766708136E-003;
2.426666666666667E+009;1.563767641782761E-001;-1.188261583447456E-001;1.076995627954602E-003;-2.298092236742377E-003;
2.426833333333334E+009;1.560575515031815E-001;-1.190704330801964E-001;1.252191956155002E-003;-2.247893949970603E-003;
2.427000000000000E+009;1.558129787445068E-001;-1.193466484546661E-001;1.071722479537129E-003;-2.387861022725701E-003;
2.427166666666667E+009;1.554336398839951E-001;-1.193416938185692E-001;1.169554423540831E-003;-2.359934849664569E-003;
2.427333333333334E+009;1.550527811050415E-001;-1.195044815540314E-001;1.102883950807154E-003;-2.522861585021019E-003;
2.427500000000000E+009;1.546304672956467E-001;-1.196739152073860E-001;1.106567797251046E-003;-2.575859893113375E-003;
2.427666666666667E+009;1.539127677679062E-001;-1.197494044899941E-001;9.493656689301133E-004;-2.419336931779981E-003;
2.427833333333334E+009;1.530734300613403E-001;-1.197847425937653E-001;8.927282760851085E-004;-2.724452409893274E-003;
