# Version 1.00
#
freq[Hz];re:Trc1_S11;im:Trc1_S11;re:Trc2_S21;im:Trc2_S21;
2.400000000000000E+009;1.589912921190262E-001;6.276988983154297E-002;-7.278881967067719E-003;1.650560414418578E-003;
2.400166666666667E+009;1.588129401206970E-001;6.121762469410896E-002;-7.279246579855681E-003;1.839078962802887E-003;
2.400333333333334E+009;1.584016531705856E-001;5.933682247996330E-002;-7.196572609245777E-003;2.097043907269836E-003;
2.400500000000000E+009;1.585248857736588E-001;5.744541436433792E-002;-7.141877431422472E-003;2.401799196377397E-003;
2.400666666666667E+009;1.584124267101288E-001;5.570247024297714E-002;-7.039671298116446E-003;2.561933360993862E-003;
2.400833333333334E+009;1.585030406713486E-001;5.382976680994034E-002;-6.976769305765629E-003;2.656786935403943E-003;
2.401000000000000E+009;1.585329622030258E-001;5.162255465984345E-002;-7.028310559689999E-003;2.950784284621477E-003;
2.401166666666667E+009;1.585342288017273E-001;4.959716275334358E-002;-6.757129915058613E-003;3.127388656139374E-003;
2.401333333333334E+009;1.587877422571182E-001;4.761892557144165E-002;-6.804994773119688E-003;3.343337681144476E-003;
2.401500000000000E+009;1.589940190315247E-001;4.557201638817787E-002;-6.624166388064623E-003;3.547771135345101E-003;
2.401666666666667E+009;1.591995954513550E-001;4.366344213485718E-002;-6.746400613337755E-003;3.694589715451002E-003;
2.401833333333334E+009;1.596599221229553E-001;4.146865010261536E-002;-6.487876642495394E-003;4.055860452353954E-003;
2.402000000000000E+009;1.599168032407761E-001;3.952613100409508E-002;-6.238371599465609E-003;4.152330104261637E-003;
2.402166666666667E+009;1.604088693857193E-001;3.749734535813332E-002;-6.173174828290939E-003;4.450018052011728E-003;
2.402333333333334E+009;1.606964170932770E-001;3.566868230700493E-002;-6.050054915249348E-003;4.619237966835499E-003;
2.402500000000000E+009;1.613104790449143E-001;3.374819830060005E-002;-5.945392418652773E-003;4.979270510375500E-003;
2.402666666666667E+009;1.619940996170044E-001;3.194206207990646E-002;-5.714421160519123E-003;5.250474903732538E-003;
2.402833333333334E+009;1.628326773643494E-001;3.023489937186241E-002;-5.726726725697517E-003;5.463897716253996E-003;
2.403000000000000E+009;1.633973270654678E-001;2.849539928138256E-002;-5.550160538405180E-003;5.633580032736063E-003;
2.403166666666667E+009;1.642233878374100E-001;2.673486992716789E-002;-5.295494105666876E-003;5.670131649821997E-003;
2.403333333333334E+009;1.651759743690491E-001;2.531101554632187E-002;-5.140468943864107E-003;6.180008407682180E-003;
2.403500000000000E+009;1.659571975469589E-001;2.389457449316979E-002;-4.621153231710196E-003;6.378794088959694E-003;
2.403666666666667E+009;1.671425998210907E-001;2.247978374361992E-002;-4.429020453244448E-003;6.410403177142143E-003;
2.403833333333334E+009;1.679717153310776E-001;2.104162238538265E-002;-4.097728058695793E-003;6.761305034160614E-003;
2.404000000000000E+009;1.688444018363953E-001;1.980575174093247E-002;-3.814521711319685E-003;6.686177104711533E-003;
2.404166666666667E+009;1.697790920734406E-001;1.853683404624462E-002;-3.619221039116383E-003;7.059805095195770E-003;
2.404333333333334E+009;1.707320213317871E-001;1.757349632680416E-002;-3.335344139486551E-003;7.069267332553864E-003;
2.404500000000000E+009;1.715757995843887E-001;1.656532287597656E-002;-3.020680043846369E-003;7.163164671510458E-003;
2.404666666666667E+009;1.724528670310974E-001;1.557143591344357E-002;-2.811369020491839E-003;7.283962331712246E-003;
2.404833333333334E+009;1.735254377126694E-001;1.499815750867128E-002;-2.224874915555120E-003;7.425026968121529E-003;
2.405000000000000E+009;1.743997037410736E-001;1.397927943617106E-002;-2.124017570167780E-003;7.482777815312147E-003;
2.405166666666667E+009;1.752308607101440E-001;1.340038143098354E-002;-1.649758429266512E-003;7.409943267703056E-003;
2.405333333333334E+009;1.761182844638825E-001;1.252543926239014E-002;-1.456136233173311E-003;7.367393001914024E-003;
2.405500000000000E+009;1.767820119857788E-001;1.204921770840883E-002;-1.071006874553859E-003;7.336136419326067E-003;
2.405666666666667E+009;1.774481981992722E-001;1.169203966856003E-002;-6.270190933719277E-004;7.376714609563351E-003;
2.405833333333334E+009;1.780118048191071E-001;1.124278269708157E-002;-5.236444994807243E-004;7.451894693076611E-003;
2.406000000000000E+009;1.787743866443634E-001;1.066552381962538E-002;-1.334159169346094E-004;7.410854101181030E-003;
2.406166666666667E+009;1.791245341300964E-001;1.050776336342096E-002;3.571308043319732E-004;7.229529321193695E-003;
2.406333333333334E+009;1.797042787075043E-001;1.018361095339060E-002;5.511119961738586E-004;7.240268401801586E-003;
2.406500000000000E+009;1.800990700721741E-001;9.697029367089272E-003;7.842242484912276E-004;7.084219716489315E-003;
2.406666666666667E+009;1.802261024713516E-001;9.594786912202835E-003;1.063065137714148E-003;6.923162378370762E-003;
2.406833333333334E+009;1.804520040750504E-001;9.166907519102097E-003;1.315562636591494E-003;6.913672201335430E-003;
2.407000000000000E+009;1.807405501604080E-001;8.838995359838009E-003;1.541494275443256E-003;6.746474653482437E-003;
2.407166666666667E+009;1.809203177690506E-001;8.633941411972046E-003;1.873669796623290E-003;6.575608160346746E-003;
2.407333333333334E+009;1.807021349668503E-001;8.136622607707977E-003;2.033118158578873E-003;6.407111883163452E-003;
2.407500000000000E+009;1.807138323783875E-001;7.767685689032078E-003;2.152025233954191E-003;6.171817891299725E-003;
2.407666666666667E+009;1.804991215467453E-001;7.427154108881950E-003;2.437625546008349E-003;6.004637572914362E-003;
2.407833333333334E+009;1.802559942007065E-001;6.786016281694174E-003;2.601747401058674E-003;5.816527176648378E-003;
2.408000000000000E+009;1.798735409975052E-001;6.074143573641777E-003;2.757918322458863E-003;5.604429170489311E-003;
2.408166666666667E+009;1.793967783451080E-001;5.682927556335926E-003;2.902676584199071E-003;5.374909378588200E-003;
2.408333333333334E+009;1.793202310800552E-001;5.006260704249144E-003;3.028522478416562E-003;5.344254430383444E-003;
2.408500000000000E+009;1.786432266235352E-001;4.272672813385725E-003;3.072954947128892E-003;5.177952349185944E-003;
2.408666666666667E+009;1.780667603015900E-001;3.413632279261947E-003;3.171457676216960E-003;4.742740653455257E-003;
2.408833333333334E+009;1.775051206350327E-001;2.383954357355833E-003;3.269939217716456E-003;4.759955219924450E-003;
2.409000000000000E+009;1.769386678934097E-001;1.468238420784473E-003;3.299211617559195E-003;4.511715378612280E-003;
2.409166666666667E+009;1.762016117572784E-001;4.831027763430029E-004;3.437053645029664E-003;4.300463013350964E-003;
2.409333333333334E+009;1.757055819034576E-001;-9.112390689551830E-004;3.506669541820884E-003;4.232426639646292E-003;
2.409500000000000E+009;1.749317795038223E-001;-2.152825938537717E-003;3.450427437201142E-003;4.056469537317753E-003;
2.409666666666667E+009;1.742793023586273E-001;-3.265051171183586E-003;3.539217868819833E-003;3.991191741079092E-003;
2.409833333333334E+009;1.735098212957382E-001;-4.679331090301275E-003;3.535988042131066E-003;3.773325588554144E-003;
2.410000000000000E+009;1.729874014854431E-001;-6.134997121989727E-003;3.680953290313482E-003;3.590418258681893E-003;
2.410166666666667E+009;1.723846942186356E-001;-7.608761545270681E-003;3.767057321965694E-003;3.576181363314390E-003;
2.410333333333334E+009;1.716133058071137E-001;-9.287450462579727E-003;3.744068788364530E-003;3.425650764256716E-003;
2.410500000000000E+009;1.712082922458649E-001;-1.093928702175617E-002;3.745787311345339E-003;3.306856611743569E-003;
2.410666666666667E+009;1.705524623394013E-001;-1.275273971259594E-002;3.640900598838925E-003;3.060626331716776E-003;
2.410833333333334E+009;1.702206879854202E-001;-1.432895753532648E-002;3.813869785517454E-003;3.206044202670455E-003;
2.411000000000000E+009;1.697013974189758E-001;-1.639866642653942E-002;3.778147976845503E-003;2.861133543774486E-003;
2.411166666666667E+009;1.694160699844360E-001;-1.831283047795296E-002;3.971564117819071E-003;2.813284983858466E-003;
2.411333333333334E+009;1.689714342355728E-001;-2.010396122932434E-002;3.921821713447571E-003;2.651126822456718E-003;
2.411500000000000E+009;1.686120182275772E-001;-2.217659726738930E-002;4.077981226146221E-003;2.734636655077338E-003;
2.411666666666667E+009;1.686553359031677E-001;-2.400374412536621E-002;3.888504579663277E-003;2.456016140058637E-003;
2.411833333333334E+009;1.684739440679550E-001;-2.593186311423779E-002;4.105822648853064E-003;2.473285421729088E-003;
2.412000000000000E+009;1.686014235019684E-001;-2.788838185369968E-002;4.066693596541882E-003;2.313907025381923E-003;
2.412166666666667E+009;1.684799045324326E-001;-2.995703555643559E-002;3.982334397733212E-003;2.259148750454187E-003;
2.412333333333334E+009;1.687148362398148E-001;-3.172564506530762E-002;4.176194313913584E-003;1.923467265442014E-003;
2.412500000000000E+009;1.689418107271195E-001;-3.365202248096466E-002;4.102785140275955E-003;1.997968414798379E-003;
2.412666666666667E+009;1.692083179950714E-001;-3.562175855040550E-002;4.247523844242096E-003;1.791715738363564E-003;
2.412833333333334E+009;1.694547981023789E-001;-3.748477995395660E-002;4.216866102069616E-003;1.454951125197113E-003;
2.413000000000000E+009;1.696512401103973E-001;-3.929745033383369E-002;4.230195656418800E-003;1.379844616167247E-003;
2.413166666666667E+009;1.699374914169312E-001;-4.114478826522827E-002;4.370400682091713E-003;1.378123881295323E-003;
2.413333333333334E+009;1.702966839075089E-001;-4.276359081268311E-002;4.263158887624741E-003;1.249092165380716E-003;
2.413500000000000E+009;1.707736700773239E-001;-4.436818882822990E-002;4.399563651531935E-003;1.044957549311221E-003;
2.413666666666667E+009;1.713178753852844E-001;-4.610630869865418E-002;4.461268428713083E-003;1.085251686163247E-003;
2.413833333333334E+009;1.717896610498428E-001;-4.746138304471970E-002;4.321417771279812E-003;6.949981907382608E-004;
2.414000000000000E+009;1.720211207866669E-001;-4.893611371517181E-002;4.396344535052776E-003;6.192347500473261E-004;
2.414166666666667E+009;1.729066669940949E-001;-5.021708458662033E-002;4.268204327672720E-003;4.699692944996059E-004;
2.414333333333334E+009;1.733534038066864E-001;-5.161063745617867E-002;4.381094593554735E-003;3.156275488436222E-004;
2.414500000000000E+009;1.740155518054962E-001;-5.274322256445885E-002;4.286524839699268E-003;8.561010326957330E-005;
2.414666666666667E+009;1.744941473007202E-001;-5.377429723739624E-002;4.247503355145454E-003;2.371183472860139E-005;
2.414833333333334E+009;1.748494952917099E-001;-5.487754568457604E-002;4.166810773313046E-003;-1.926848781295121E-004;
2.415000000000000E+009;1.753543764352799E-001;-5.573246628046036E-002;4.066303838044405E-003;-2.471658226568252E-004;
2.415166666666667E+009;1.756335645914078E-001;-5.649223551154137E-002;4.021668341010809E-003;-3.491216339170933E-004;
2.415333333333334E+009;1.761349588632584E-001;-5.737379938364029E-002;3.887146478518844E-003;-3.608341212384403E-004;
2.415500000000000E+009;1.766793727874756E-001;-5.799594521522522E-002;4.047839436680079E-003;-5.048068705946207E-004;
2.415666666666667E+009;1.768207997083664E-001;-5.865903943777084E-002;3.666825592517853E-003;-6.490171654149890E-004;
2.415833333333334E+009;1.771278828382492E-001;-5.910114198923111E-002;3.742047585546970E-003;-8.279539761133492E-004;
2.416000000000000E+009;1.771393269300461E-001;-5.950994044542313E-002;3.756494261324406E-003;-9.590741246938705E-004;
2.416166666666667E+009;1.773867756128311E-001;-6.000827625393868E-002;3.668243065476418E-003;-1.023954711854458E-003;
2.416333333333334E+009;1.773829162120819E-001;-6.029464676976204E-002;3.565261373296380E-003;-1.121660694479942E-003;
2.416500000000000E+009;1.773774027824402E-001;-6.063464283943176E-002;3.537119133397937E-003;-1.154874684289098E-003;
2.416666666666667E+009;1.772027164697647E-001;-6.087811663746834E-002;3.310376312583685E-003;-1.229937188327313E-003;
2.416833333333334E+009;1.771298646926880E-001;-6.122343242168427E-002;3.300975309684873E-003;-1.375867286697030E-003;
2.417000000000000E+009;1.765457242727280E-001;-6.151838228106499E-002;3.041498363018036E-003;-1.265724305994809E-003;
2.417166666666667E+009;1.762789338827133E-001;-6.158502027392387E-002;3.135917475447059E-003;-1.405026880092919E-003;
2.417333333333334E+009;1.757517158985138E-001;-6.187648326158524E-002;3.091731108725071E-003;-1.614943961612880E-003;
2.417500000000000E+009;1.751661151647568E-001;-6.221990659832954E-002;2.919913502410054E-003;-1.582889119163156E-003;
2.417666666666667E+009;1.746067106723785E-001;-6.229283660650253E-002;2.875361591577530E-003;-1.456161378882825E-003;
2.417833333333334E+009;1.737819761037827E-001;-6.255142390727997E-002;2.828577533364296E-003;-1.582511118613184E-003;
2.418000000000000E+009;1.729736924171448E-001;-6.310921162366867E-002;2.669718582183123E-003;-1.668839715421200E-003;
2.418166666666667E+009;1.720192283391953E-001;-6.316894292831421E-002;2.529566409066320E-003;-1.732195843942463E-003;
2.418333333333334E+009;1.713640540838242E-001;-6.358089298009872E-002;2.603254746645689E-003;-1.760714803822339E-003;
2.418500000000000E+009;1.701961308717728E-001;-6.396768987178803E-002;2.480251248925924E-003;-1.642636838369072E-003;
2.418666666666667E+009;1.693417876958847E-001;-6.438180059194565E-002;2.375876763835549E-003;-1.783625571988523E-003;
2.418833333333334E+009;1.680488288402557E-001;-6.495749950408936E-002;2.428267849609256E-003;-1.752923359163106E-003;
2.419000000000000E+009;1.667835265398026E-001;-6.551680713891983E-002;2.280983841046691E-003;-1.876635360531509E-003;
2.419166666666667E+009;1.656579971313477E-001;-6.616169959306717E-002;2.153677865862846E-003;-1.837684190832079E-003;
2.419333333333334E+009;1.644231230020523E-001;-6.655165553092957E-002;2.101985272020102E-003;-1.935686334036291E-003;
2.419500000000000E+009;1.633669137954712E-001;-6.763177365064621E-002;1.920233946293593E-003;-1.991412835195661E-003;
2.419666666666667E+009;1.623416095972061E-001;-6.847231090068817E-002;1.838278840295970E-003;-1.764921937137842E-003;
2.419833333333334E+009;1.610196083784103E-001;-6.929691135883331E-002;1.878379960544407E-003;-1.877469476312399E-003;
2.420000000000000E+009;1.599580943584442E-001;-7.030626386404038E-002;1.955175772309303E-003;-1.745059038512409E-003;
2.420166666666667E+009;1.588943451642990E-001;-7.142818719148636E-002;1.681368565186858E-003;-1.756865996867418E-003;
2.420333333333334E+009;1.578044593334198E-001;-7.269564270973206E-002;1.825478626415134E-003;-1.805317122489214E-003;
2.420500000000000E+009;1.567242890596390E-001;-7.366625219583511E-002;1.613864907994866E-003;-1.810586312785745E-003;
2.420666666666667E+009;1.557351201772690E-001;-7.482122629880905E-002;1.666849828325212E-003;-1.775214099325240E-003;
2.420833333333334E+009;1.550315469503403E-001;-7.633697241544724E-002;1.606884645298123E-003;-1.731258700601757E-003;
2.421000000000000E+009;1.539555639028549E-001;-7.779950648546219E-002;1.619647606275976E-003;-1.701479544863105E-003;
2.421166666666667E+009;1.532375514507294E-001;-7.926940172910690E-002;1.578255789354444E-003;-1.817181939259172E-003;
2.421333333333334E+009;1.526326388120651E-001;-8.085114508867264E-002;1.606360194273293E-003;-1.707409275695682E-003;
2.421500000000000E+009;1.518260836601257E-001;-8.227240294218063E-002;1.400445937179029E-003;-1.755639677867293E-003;
2.421666666666667E+009;1.512506008148193E-001;-8.383916318416596E-002;1.504581072367728E-003;-1.612831372767687E-003;
2.421833333333334E+009;1.507501751184464E-001;-8.534802496433258E-002;1.429642084985972E-003;-1.620021299459040E-003;
2.422000000000000E+009;1.503925472497940E-001;-8.710782229900360E-002;1.467264257371426E-003;-1.695624087005854E-003;
2.422166666666667E+009;1.499875783920288E-001;-8.916791528463364E-002;1.456939964555204E-003;-1.629955018870533E-003;
2.422333333333334E+009;1.498087197542191E-001;-9.051874279975891E-002;1.389456214383245E-003;-1.648701028898358E-003;
2.422500000000000E+009;1.497116237878799E-001;-9.224540740251541E-002;1.276439754292369E-003;-1.635446911677718E-003;
2.422666666666667E+009;1.496256291866303E-001;-9.392149746417999E-002;1.330235856585205E-003;-1.721174689009786E-003;
2.422833333333334E+009;1.496529281139374E-001;-9.574177116155624E-002;1.513759954832494E-003;-1.841165591031313E-003;
2.423000000000000E+009;1.496739536523819E-001;-9.750781953334808E-002;1.275712857022882E-003;-1.657488872297108E-003;
2.423166666666667E+009;1.499454230070114E-001;-9.910112619400024E-002;1.328884158283472E-003;-1.666238880716264E-003;
2.423333333333334E+009;1.502022296190262E-001;-1.004594862461090E-001;1.288035884499550E-003;-1.796405878849328E-003;
2.423500000000000E+009;1.502425223588944E-001;-1.022130623459816E-001;1.232078298926354E-003;-1.748205744661391E-003;
2.423666666666667E+009;1.504727452993393E-001;-1.037753969430924E-001;1.420027925632894E-003;-1.613519270904362E-003;
2.423833333333334E+009;1.511091887950897E-001;-1.052828729152679E-001;1.270854496397078E-003;-1.790204551070929E-003;
2.424000000000000E+009;1.513412445783615E-001;-1.065295785665512E-001;1.393835060298443E-003;-1.886703073978424E-003;
2.424166666666667E+009;1.517688930034638E-001;-1.079119220376015E-001;1.145169255323708E-003;-1.837610383518040E-003;
2.424333333333334E+009;1.523091048002243E-001;-1.091852858662605E-001;1.389923505485058E-003;-1.747004222124815E-003;
2.424500000000000E+009;1.527614742517471E-001;-1.105240881443024E-001;1.200578641146421E-003;-1.935415435582399E-003;
2.424666666666667E+009;1.534160077571869E-001;-1.114628165960312E-001;1.352043240331113E-003;-1.844963291659951E-003;
2.424833333333334E+009;1.536577641963959E-001;-1.125482767820358E-001;1.122248824685812E-003;-1.958877313882113E-003;
2.425000000000000E+009;1.540878117084503E-001;-1.135598868131638E-001;1.253274269402027E-003;-1.966874347999692E-003;
2.425166666666667E+009;1.544196754693985E-001;-1.143710017204285E-001;1.062844647094607E-003;-1.946424948982894E-003;
2.425333333333334E+009;1.549225151538849E-001;-1.151930615305901E-001;1.195416785776615E-003;-2.061380306258798E-003;
2.425500000000000E+009;1.553580015897751E-001;-1.159311681985855E-001;1.149645308032632E-003;-2.011636272072792E-003;
2.425666666666667E+009;1.554850488901138E-001;-1.165341660380364E-001;1.103803282603622E-003;-2.072161529213190E-003;
2.425833333333334E+009;1.557829678058624E-001;-1.170260459184647E-001;1.176025718450546E-003;-2.141732955351472E-003;
2.426000000000000E+009;1.560644507408142E-001;-1.176771894097328E-001;1.109790522605181E-003;-2.108407206833363E-003;
2.426166666666667E+009;1.563140302896500E-001;-1.180862113833427E-001;1.161056687124074E-003;-2.167774830013514E-003;
2.426333333333334E+009;1.562010198831558E-001;-1.183999478816986E-001;1.105943112634122E-003;-2.340155886486173E-003;
2.426500000000000E+009;1.563066989183426E-001;-1.187909990549088E-001;1.124569447711110E-003;-2.192178741097450E-003;
2.426666666666667E+009;1.563724726438522E-001;-1.188313066959381E-001;1.038368907757103E-003;-2.362554427236319E-003;
2.426833333333334E+009;1.560860872268677E-001;-1.191459745168686E-001;1.046099117957056E-003;-2.340519102290273E-003;
2.427000000000000E+009;1.559015661478043E-001;-1.194110438227654E-001;9.191582794301212E-004;-2.350229304283857E-003;
2.427166666666667E+009;1.554712653160095E-001;-1.192821934819222E-001;1.046075252816081E-003;-2.360801212489605E-003;
2.427333333333334E+009;1.549645960330963E-001;-1.194698661565781E-001;1.153053250163794E-003;-2.491243649274111E-003;
2.427500000000000E+009;1.545698195695877E-001;-1.195778548717499E-001;1.056817825883627E-003;-2.531074220314622E-003;
2.427666666666667E+009;1.539523303508759E-001;-1.197214424610138E-001;8.605123148299754E-004;-2.796637825667858E-003;
2.427833333333334E+009;1.530135422945023E-001;-1.197447702288628E-001;7.776963757351041E-004;-2.712050918489695E-003;
