# Version 1.00
#
freq[Hz];re:Trc1_S11;im:Trc1_S11;re:Trc2_S21;im:Trc2_S21;
2.400000000000000E+009;1.580408066511154E-001;6.263893842697144E-002;2.643629675731063E-003;4.195336259726901E-006;
2.400166666666667E+009;1.578748971223831E-001;6.113837659358978E-002;2.379837445914745E-003;9.317702642874792E-005;
2.400333333333334E+009;1.576779037714005E-001;5.916542559862137E-002;2.291258424520493E-003;-2.727284736465663E-004;
2.400500000000000E+009;1.576635539531708E-001;5.721390247344971E-002;2.380129648372531E-003;-4.461655043996871E-004;
2.400666666666667E+009;1.575366705656052E-001;5.539170652627945E-002;2.391795162111521E-003;-4.250406345818192E-004;
2.400833333333334E+009;1.576623618602753E-001;5.354646965861321E-002;2.359166275709868E-003;-5.886612925678492E-004;
2.401000000000000E+009;1.577253788709641E-001;5.118818208575249E-002;2.270758152008057E-003;-7.408480742014945E-004;
2.401166666666667E+009;1.579011529684067E-001;4.930372536182404E-002;2.192148007452488E-003;-8.932281052693725E-004;
2.401333333333334E+009;1.579527556896210E-001;4.727756604552269E-002;2.003521425649524E-003;-8.910087053664029E-004;
2.401500000000000E+009;1.582467108964920E-001;4.504642635583878E-002;1.972152385860682E-003;-1.058260211721063E-003;
2.401666666666667E+009;1.585832685232163E-001;4.308768734335899E-002;1.976451603695750E-003;-1.167750800959766E-003;
2.401833333333334E+009;1.590394377708435E-001;4.095251485705376E-002;1.863128389231861E-003;-1.328038284555078E-003;
2.402000000000000E+009;1.593312770128250E-001;3.900920972228050E-002;1.680454821325839E-003;-1.332932966761291E-003;
2.402166666666667E+009;1.598930060863495E-001;3.695794939994812E-002;1.531413872726262E-003;-1.323487493209541E-003;
2.402333333333334E+009;1.603342592716217E-001;3.503933921456337E-002;1.451198011636734E-003;-1.409409916959703E-003;
2.402500000000000E+009;1.613675504922867E-001;3.331196680665016E-002;1.210240530781448E-003;-1.476565492339432E-003;
2.402666666666667E+009;1.621049791574478E-001;3.147757053375244E-002;1.024612458422780E-003;-1.542450161650777E-003;
2.402833333333334E+009;1.627594679594040E-001;2.975038997828960E-002;9.383183787576854E-004;-1.582006807439029E-003;
2.403000000000000E+009;1.632303893566132E-001;2.807830646634102E-002;8.430601446889341E-004;-1.675918349064887E-003;
2.403166666666667E+009;1.644216477870941E-001;2.656800113618374E-002;8.109351038001478E-004;-1.671200501732528E-003;
2.403333333333334E+009;1.653811186552048E-001;2.505215071141720E-002;6.794393993914127E-004;-1.525941072031856E-003;
2.403500000000000E+009;1.661602109670639E-001;2.370603568851948E-002;4.163807607255876E-004;-1.641520299017429E-003;
2.403666666666667E+009;1.671047210693359E-001;2.213592082262039E-002;4.712280933745205E-004;-1.628885511308909E-003;
2.403833333333334E+009;1.681347489356995E-001;2.088328450918198E-002;1.799015735741705E-004;-1.362138893455267E-003;
2.404000000000000E+009;1.691700965166092E-001;1.968191377818584E-002;5.652163235936314E-005;-1.307612983509898E-003;
2.404166666666667E+009;1.701674461364746E-001;1.854830794036388E-002;-5.875351689610397E-006;-1.285260892473161E-003;
2.404333333333334E+009;1.711421012878418E-001;1.763761974871159E-002;-5.178463834454306E-005;-1.211551600135863E-003;
2.404500000000000E+009;1.719872504472733E-001;1.642496883869171E-002;-1.651362545089796E-004;-1.076553249731660E-003;
2.404666666666667E+009;1.729260832071304E-001;1.564327068626881E-002;-2.326277462998405E-004;-9.136341395787895E-004;
2.404833333333334E+009;1.740967333316803E-001;1.497282087802887E-002;-3.762974229175597E-004;-9.169714176096022E-004;
2.405000000000000E+009;1.749218255281448E-001;1.411684975028038E-002;-4.062378429807723E-004;-8.703134371899068E-004;
2.405166666666667E+009;1.757102012634277E-001;1.342864986509085E-002;-4.259862180333585E-004;-6.527252262458205E-004;
2.405333333333334E+009;1.765580475330353E-001;1.273351255804300E-002;-5.279443576000631E-004;-5.981908761896193E-004;
2.405500000000000E+009;1.773464381694794E-001;1.237633544951677E-002;-5.079119582660496E-004;-3.349225735291839E-004;
2.405666666666667E+009;1.779540777206421E-001;1.195619255304337E-002;-4.690067144110799E-004;-2.962110447697341E-004;
2.405833333333334E+009;1.785863935947418E-001;1.150060165673494E-002;-4.234462976455689E-004;-2.106296306010336E-004;
2.406000000000000E+009;1.792096644639969E-001;1.116664521396160E-002;-4.614407080225647E-004;-5.404347393778153E-005;
2.406166666666667E+009;1.795583665370941E-001;1.091873645782471E-002;-3.617199545260519E-004;8.176398841897026E-005;
2.406333333333334E+009;1.800895184278488E-001;1.054787170141935E-002;-4.969265428371728E-004;2.202547912020236E-004;
2.406500000000000E+009;1.804095059633255E-001;1.024513319134712E-002;-1.739750878186896E-004;1.912658190121874E-004;
2.406666666666667E+009;1.804768741130829E-001;9.960490278899670E-003;-3.625435347203165E-004;2.304235240444541E-004;
2.406833333333334E+009;1.807583719491959E-001;9.574602358043194E-003;-7.066389662213624E-005;3.066729987040162E-004;
2.407000000000000E+009;1.808687895536423E-001;9.304753504693508E-003;-8.133998198900372E-005;3.677233471535146E-004;
2.407166666666667E+009;1.810087263584137E-001;9.029240347445011E-003;-4.108535722480156E-005;3.858464478980750E-004;
2.407333333333334E+009;1.807245463132858E-001;8.675783872604370E-003;2.554903767304495E-005;5.184226320125163E-004;
2.407500000000000E+009;1.806825101375580E-001;8.189335465431213E-003;2.025230496656150E-004;4.365229397080839E-004;
2.407666666666667E+009;1.804652065038681E-001;7.761667016893625E-003;1.531204725324642E-005;5.121123394928873E-004;
2.407833333333334E+009;1.800695359706879E-001;7.152430247515440E-003;2.505498705431819E-004;5.820851656608284E-004;
2.408000000000000E+009;1.797708570957184E-001;6.576575804501772E-003;2.792640298139304E-004;6.809655460529029E-004;
2.408166666666667E+009;1.793297976255417E-001;6.117841694504023E-003;3.575995797291398E-004;5.955699598416686E-004;
2.408333333333334E+009;1.789585649967194E-001;5.389359313994646E-003;4.595961654558778E-004;6.776756490580738E-004;
2.408500000000000E+009;1.783278286457062E-001;4.527481272816658E-003;5.142274312674999E-004;7.187509327195585E-004;
2.408666666666667E+009;1.778760850429535E-001;3.635556437075138E-003;6.580139743164182E-004;5.184598849155009E-004;
2.408833333333334E+009;1.770674884319305E-001;2.798295347020030E-003;7.226825691759586E-004;5.972565268166363E-004;
2.409000000000000E+009;1.763044148683548E-001;1.673343707807362E-003;6.895776605233550E-004;4.837421292904764E-004;
2.409166666666667E+009;1.757687479257584E-001;5.987832555547357E-004;8.125284221023321E-004;5.728420801460743E-004;
2.409333333333334E+009;1.752373874187470E-001;-6.983507773838937E-004;9.229169227182865E-004;4.167350416537374E-004;
2.409500000000000E+009;1.744195222854614E-001;-2.160089323297143E-003;8.997491677291691E-004;3.861883014906198E-004;
2.409666666666667E+009;1.736772060394287E-001;-3.280548378825188E-003;1.079643960110843E-003;3.769744653254747E-004;
2.409833333333334E+009;1.728622764348984E-001;-4.792056977748871E-003;1.081351307220757E-003;3.544250794220716E-004;
2.410000000000000E+009;1.723108440637589E-001;-6.234719417989254E-003;1.245322171598673E-003;3.475419362075627E-004;
2.410166666666667E+009;1.716723144054413E-001;-7.865319028496742E-003;1.124160946346819E-003;8.353481825906783E-005;
2.410333333333334E+009;1.710688173770905E-001;-9.411583654582501E-003;1.268222345970571E-003;3.070627280976623E-004;
2.410500000000000E+009;1.705221831798554E-001;-1.113929413259029E-002;1.333859399892390E-003;1.314622204517946E-004;
2.410666666666667E+009;1.698511093854904E-001;-1.296703889966011E-002;1.299688359722495E-003;3.841596480924636E-005;
2.410833333333334E+009;1.694575995206833E-001;-1.469732355326414E-002;1.362344250082970E-003;-1.192307172459550E-004;
2.411000000000000E+009;1.691422462463379E-001;-1.651222817599773E-002;1.486992929130793E-003;-1.642783608986065E-004;
2.411166666666667E+009;1.687905788421631E-001;-1.844175159931183E-002;1.377079053781927E-003;-1.974098122445867E-004;
2.411333333333334E+009;1.684821993112564E-001;-2.047528885304928E-002;1.292176079005003E-003;-2.552756923250854E-004;
2.411500000000000E+009;1.680765599012375E-001;-2.244546636939049E-002;1.308968174271286E-003;-3.700515371747315E-004;
2.411666666666667E+009;1.682375520467758E-001;-2.445035427808762E-002;1.338228350505233E-003;-3.198127378709614E-004;
2.411833333333334E+009;1.679848134517670E-001;-2.634986117482185E-002;1.290378393605351E-003;-3.387741744518280E-004;
2.412000000000000E+009;1.679156273603439E-001;-2.830142155289650E-002;1.294132322072983E-003;-5.009977030567825E-004;
2.412166666666667E+009;1.680377870798111E-001;-3.014471195638180E-002;1.273239380680025E-003;-4.101962258573622E-004;
2.412333333333334E+009;1.683986335992813E-001;-3.217603266239166E-002;1.295067952014506E-003;-5.243827472440898E-004;
2.412500000000000E+009;1.685523539781570E-001;-3.397651016712189E-002;1.198330777697265E-003;-4.896597238257527E-004;
2.412666666666667E+009;1.686718165874481E-001;-3.612128272652626E-002;1.300089061260223E-003;-5.580031429417431E-004;
2.412833333333334E+009;1.690813153982163E-001;-3.797634690999985E-002;1.151047530584037E-003;-5.866310675628483E-004;
2.413000000000000E+009;1.695240586996079E-001;-3.974778577685356E-002;1.093985512852669E-003;-6.666787085123360E-004;
2.413166666666667E+009;1.698611080646515E-001;-4.133798927068710E-002;1.150306896306574E-003;-7.955795153975487E-004;
2.413333333333334E+009;1.703920215368271E-001;-4.302888363599777E-002;1.133065088652074E-003;-5.588420317508280E-004;
2.413500000000000E+009;1.709325462579727E-001;-4.478170722723007E-002;1.095306361094117E-003;-8.341740467585623E-004;
2.413666666666667E+009;1.713944375514984E-001;-4.646577686071396E-002;1.099180779419839E-003;-7.573548355139792E-004;
2.413833333333334E+009;1.718646436929703E-001;-4.783277213573456E-002;1.109842676669359E-003;-5.847964202985168E-004;
2.414000000000000E+009;1.722627580165863E-001;-4.937805235385895E-002;1.353196799755096E-003;-8.902397821657360E-004;
2.414166666666667E+009;1.730665266513825E-001;-5.056549608707428E-002;1.024783588945866E-003;-9.105466306209564E-004;
2.414333333333334E+009;1.734072864055634E-001;-5.183798819780350E-002;1.107375021092594E-003;-8.175387629307807E-004;
2.414500000000000E+009;1.740539819002152E-001;-5.283743515610695E-002;1.037199050188065E-003;-9.277349454350770E-004;
2.414666666666667E+009;1.745989918708801E-001;-5.389995872974396E-002;1.207871129736304E-003;-9.807235328480601E-004;
2.414833333333334E+009;1.749304682016373E-001;-5.507529526948929E-002;1.125831739045680E-003;-8.989482885226607E-004;
2.415000000000000E+009;1.756163984537125E-001;-5.575047060847282E-002;1.074371393769980E-003;-1.110809505917132E-003;
2.415166666666667E+009;1.759439855813980E-001;-5.661458894610405E-002;1.071901293471456E-003;-1.217409386299551E-003;
2.415333333333334E+009;1.764992028474808E-001;-5.740182846784592E-002;8.934120996855199E-004;-1.170940115116537E-003;
2.415500000000000E+009;1.769034862518311E-001;-5.790250375866890E-002;9.748702868819237E-004;-1.230030320584774E-003;
2.415666666666667E+009;1.770289987325668E-001;-5.836296826601028E-002;1.100487075746059E-003;-1.195406424812973E-003;
2.415833333333334E+009;1.774306148290634E-001;-5.890948697924614E-002;9.329827735200524E-004;-1.391665893606842E-003;
2.416000000000000E+009;1.774028241634369E-001;-5.940406769514084E-002;1.056558568961918E-003;-1.433990779332817E-003;
2.416166666666667E+009;1.776528507471085E-001;-5.974820628762245E-002;9.335664799436927E-004;-1.456823898479343E-003;
2.416333333333334E+009;1.775987744331360E-001;-6.002215296030045E-002;9.551554685458541E-004;-1.351480255834758E-003;
2.416500000000000E+009;1.775517016649246E-001;-6.043306738138199E-002;8.732789428904653E-004;-1.553995767608285E-003;
2.416666666666667E+009;1.773055195808411E-001;-6.047018989920616E-002;8.779898053035140E-004;-1.555735245347023E-003;
2.416833333333334E+009;1.772609353065491E-001;-6.085546687245369E-002;7.035577436909080E-004;-1.542372861877084E-003;
2.417000000000000E+009;1.765716522932053E-001;-6.110931560397148E-002;5.379710928536952E-004;-1.737707643769682E-003;
2.417166666666667E+009;1.762244552373886E-001;-6.116794794797897E-002;6.533749983645976E-004;-1.715295948088169E-003;
2.417333333333334E+009;1.757016479969025E-001;-6.134157255291939E-002;7.257247343659401E-004;-1.702425419352949E-003;
2.417500000000000E+009;1.750440597534180E-001;-6.174984201788902E-002;5.553807131946087E-004;-1.712511992082000E-003;
2.417666666666667E+009;1.745794564485550E-001;-6.178978458046913E-002;5.393408355303109E-004;-1.848832587711513E-003;
2.417833333333334E+009;1.736784577369690E-001;-6.217062473297119E-002;3.923116018995643E-004;-1.896632253192365E-003;
2.418000000000000E+009;1.727470159530640E-001;-6.244666129350662E-002;3.580995835363865E-004;-1.740623731166124E-003;
2.418166666666667E+009;1.718690395355225E-001;-6.265868991613388E-002;4.092789313290268E-004;-2.012017415836453E-003;
2.418333333333334E+009;1.710960566997528E-001;-6.308379024267197E-002;3.937274450436235E-004;-1.933868043124676E-003;
2.418500000000000E+009;1.699693650007248E-001;-6.350941210985184E-002;1.865176309365779E-004;-1.939956797286868E-003;
2.418666666666667E+009;1.690153926610947E-001;-6.400397419929504E-002;4.015428567072377E-005;-1.980032538995147E-003;
2.418833333333334E+009;1.677208542823792E-001;-6.447818130254746E-002;1.248513144673780E-004;-2.051939722150564E-003;
2.419000000000000E+009;1.665687114000320E-001;-6.499783694744110E-002;2.167074271710590E-004;-2.102813683450222E-003;
2.419166666666667E+009;1.654639095067978E-001;-6.572742760181427E-002;-1.382939808536321E-005;-2.036017831414938E-003;
2.419333333333334E+009;1.640717238187790E-001;-6.644626706838608E-002;-1.063766758306883E-004;-2.017044462263584E-003;
2.419500000000000E+009;1.628994941711426E-001;-6.717965751886368E-002;-1.633044885238633E-004;-2.197124063968658E-003;
2.419666666666667E+009;1.618714779615402E-001;-6.804384291172028E-002;-1.805543724913150E-004;-2.145447535440326E-003;
2.419833333333334E+009;1.605666279792786E-001;-6.898508220911026E-002;-2.918609534390271E-004;-1.985080307349563E-003;
2.420000000000000E+009;1.593481600284576E-001;-6.996875256299973E-002;-3.805457963608205E-004;-2.172627486288548E-003;
2.420166666666667E+009;1.582704931497574E-001;-7.121132314205170E-002;-3.518195881042630E-004;-2.261752728372812E-003;
2.420333333333334E+009;1.572869569063187E-001;-7.245661318302155E-002;-5.306186503730714E-004;-2.181963762268424E-003;
2.420500000000000E+009;1.562658995389938E-001;-7.341788709163666E-002;-5.627995706163347E-004;-2.144521102309227E-003;
2.420666666666667E+009;1.552027463912964E-001;-7.486422359943390E-002;-5.755046149715781E-004;-2.046780660748482E-003;
2.420833333333334E+009;1.542322486639023E-001;-7.634095847606659E-002;-7.184099522419274E-004;-2.087436150759459E-003;
2.421000000000000E+009;1.533425450325012E-001;-7.774481177330017E-002;-9.099005837924779E-004;-2.194783883169293E-003;
2.421166666666667E+009;1.526632457971573E-001;-7.915551215410233E-002;-9.432334918528795E-004;-2.106656553223729E-003;
2.421333333333334E+009;1.520547866821289E-001;-8.090651035308838E-002;-9.580238256603479E-004;-2.034831792116165E-003;
2.421500000000000E+009;1.513827145099640E-001;-8.244533091783524E-002;-1.163591863587499E-003;-2.087927423417568E-003;
2.421666666666667E+009;1.509182751178742E-001;-8.398761600255966E-002;-1.372449565678835E-003;-2.139722695574164E-003;
2.421833333333334E+009;1.504486203193665E-001;-8.563836663961411E-002;-1.229190966114402E-003;-2.087195869535208E-003;
2.422000000000000E+009;1.499190777540207E-001;-8.754137903451920E-002;-1.562007120810449E-003;-2.030390547588468E-003;
2.422166666666667E+009;1.496579051017761E-001;-8.937005698680878E-002;-1.525384141132236E-003;-1.808476168662310E-003;
2.422333333333334E+009;1.496608853340149E-001;-9.083574265241623E-002;-1.633107080124319E-003;-2.051700372248888E-003;
2.422500000000000E+009;1.493552178144455E-001;-9.247899800539017E-002;-1.707779592834413E-003;-1.729695242829621E-003;
2.422666666666667E+009;1.492298096418381E-001;-9.436920285224915E-002;-2.057106699794531E-003;-1.783316838555038E-003;
2.422833333333334E+009;1.493217647075653E-001;-9.613091498613358E-002;-2.091716509312391E-003;-1.688241842202842E-003;
2.423000000000000E+009;1.494194865226746E-001;-9.760683029890060E-002;-1.999529078602791E-003;-1.491516712121666E-003;
2.423166666666667E+009;1.496621072292328E-001;-9.926082193851471E-002;-2.090132329612970E-003;-1.467865193262696E-003;
2.423333333333334E+009;1.499969065189362E-001;-1.007737815380096E-001;-2.233125502243638E-003;-1.280593336559832E-003;
2.423500000000000E+009;1.504241079092026E-001;-1.025102883577347E-001;-2.371971495449543E-003;-1.101070083677769E-003;
2.423666666666667E+009;1.505602449178696E-001;-1.040364578366280E-001;-2.399752847850323E-003;-9.521424071863294E-004;
2.423833333333334E+009;1.510550677776337E-001;-1.054844781756401E-001;-2.480170223861933E-003;-1.039316528476775E-003;
2.424000000000000E+009;1.513552069664002E-001;-1.066740602254868E-001;-2.295560203492641E-003;-7.811306277289987E-004;
2.424166666666667E+009;1.517800092697144E-001;-1.081628724932671E-001;-2.452476648613811E-003;-7.641332340426743E-004;
2.424333333333334E+009;1.524224430322647E-001;-1.092750057578087E-001;-2.448183251544833E-003;-5.599452997557819E-004;
2.424500000000000E+009;1.529541909694672E-001;-1.104887127876282E-001;-2.575116697698832E-003;-3.653798194136471E-004;
2.424666666666667E+009;1.535507589578629E-001;-1.114218533039093E-001;-2.425572602078319E-003;-4.262424481566995E-004;
2.424833333333334E+009;1.537795364856720E-001;-1.125508770346642E-001;-2.431501401588321E-003;-2.126925392076373E-004;
2.425000000000000E+009;1.543033123016357E-001;-1.135990470647812E-001;-2.324450993910432E-003;-7.388103404082358E-005;
2.425166666666667E+009;1.547017395496368E-001;-1.142806336283684E-001;-2.408999716863036E-003;2.979602140840143E-004;
2.425333333333334E+009;1.550220400094986E-001;-1.150709912180901E-001;-2.252086531370878E-003;2.673902490641922E-004;
2.425500000000000E+009;1.556296199560165E-001;-1.158230751752853E-001;-2.197346650063992E-003;2.734994632191956E-004;
2.425666666666667E+009;1.556920409202576E-001;-1.163938790559769E-001;-2.201557392254472E-003;4.418681783135980E-004;
2.425833333333334E+009;1.560692936182022E-001;-1.169397383928299E-001;-2.172120148316026E-003;5.015333881601691E-004;
2.426000000000000E+009;1.561725586652756E-001;-1.174660474061966E-001;-1.941169495694339E-003;5.182552267797291E-004;
2.426166666666667E+009;1.566493511199951E-001;-1.178827360272408E-001;-1.927276374772191E-003;6.539280293509364E-004;
2.426333333333334E+009;1.564924716949463E-001;-1.182024106383324E-001;-1.801837584935129E-003;7.411017431877554E-004;
2.426500000000000E+009;1.564674973487854E-001;-1.184173524379730E-001;-1.815193332731724E-003;7.741430890746415E-004;
2.426666666666667E+009;1.565392017364502E-001;-1.185212507843971E-001;-1.628703088499606E-003;7.879334734752774E-004;
2.426833333333334E+009;1.562882363796234E-001;-1.186920031905174E-001;-1.526413136161864E-003;6.969338865019381E-004;
2.427000000000000E+009;1.561459004878998E-001;-1.189887002110481E-001;-1.516109914518893E-003;8.501596166752279E-004;
2.427166666666667E+009;1.556083709001541E-001;-1.189586892724037E-001;-1.418866799212992E-003;8.286784286610782E-004;
2.427333333333334E+009;1.551237702369690E-001;-1.190868020057678E-001;-1.405329676344991E-003;8.044071146287024E-004;
2.427500000000000E+009;1.546916812658310E-001;-1.191920042037964E-001;-1.224751933477819E-003;8.644480840303004E-004;
2.427666666666667E+009;1.539541333913803E-001;-1.193337887525559E-001;-1.197157078422606E-003;8.051362237893045E-004;
