# Version 1.00
#
freq[Hz];re:Trc1_S11;im:Trc1_S11;re:Trc2_S21;im:Trc2_S21;
2.400000000000000E+009;1.581233739852905E-001;6.259136646986008E-002;2.463948214426637E-003;4.309124415158294E-005;
2.400166666666667E+009;1.578456163406372E-001;6.102759018540382E-002;2.376223914325237E-003;-1.278949494007975E-004;
2.400333333333334E+009;1.577550619840622E-001;5.916209146380425E-002;2.487902995198965E-003;-3.169064875692129E-004;
2.400500000000000E+009;1.577053070068359E-001;5.730650201439858E-002;2.371569396927953E-003;-5.265237996354699E-004;
2.400666666666667E+009;1.576169282197952E-001;5.526153743267059E-002;2.212431048974395E-003;-3.054793924093247E-004;
2.400833333333334E+009;1.578308939933777E-001;5.332662910223007E-002;2.364843850955367E-003;-4.984958213753998E-004;
2.401000000000000E+009;1.577398627996445E-001;5.127317830920219E-002;2.319465624168515E-003;-6.730791064910591E-004;
2.401166666666667E+009;1.579805910587311E-001;4.919945076107979E-002;2.164166420698166E-003;-7.557490607723594E-004;
2.401333333333334E+009;1.580353081226349E-001;4.726113751530647E-002;2.131672343239188E-003;-9.700592490844429E-004;
2.401500000000000E+009;1.582659631967545E-001;4.495665431022644E-002;2.240906003862619E-003;-1.044845557771623E-003;
2.401666666666667E+009;1.587061882019043E-001;4.308222979307175E-002;1.870757550932467E-003;-1.176313729956746E-003;
2.401833333333334E+009;1.589169204235077E-001;4.107632488012314E-002;1.938401139341295E-003;-1.248861663043499E-003;
2.402000000000000E+009;1.595144271850586E-001;3.895671665668488E-002;1.647072262130678E-003;-1.396685256622732E-003;
2.402166666666667E+009;1.599093228578568E-001;3.681001439690590E-002;1.614632550626993E-003;-1.496280077844858E-003;
2.402333333333334E+009;1.606925874948502E-001;3.491541743278503E-002;1.475833472795785E-003;-1.584331621415913E-003;
2.402500000000000E+009;1.613227128982544E-001;3.329262509942055E-002;1.279170159250498E-003;-1.465268083848059E-003;
2.402666666666667E+009;1.618101745843887E-001;3.142349049448967E-002;1.183252781629562E-003;-1.660792157053947E-003;
2.402833333333334E+009;1.626523137092590E-001;2.985722571611404E-002;9.333998896181583E-004;-1.433780184015632E-003;
2.403000000000000E+009;1.633714586496353E-001;2.815773338079453E-002;8.215839043259621E-004;-1.626251265406609E-003;
2.403166666666667E+009;1.645334959030151E-001;2.638948336243630E-002;7.079735514707863E-004;-1.680206623859704E-003;
2.403333333333334E+009;1.653739213943481E-001;2.505281567573547E-002;6.313916528597474E-004;-1.556356903165579E-003;
2.403500000000000E+009;1.660916507244110E-001;2.352497540414333E-002;4.946111002936959E-004;-1.600418123416603E-003;
2.403666666666667E+009;1.671148687601090E-001;2.197167091071606E-002;4.180540854576975E-004;-1.448270282708108E-003;
2.403833333333334E+009;1.682151257991791E-001;2.082998678088188E-002;3.708087606355548E-004;-1.328147714957595E-003;
2.404000000000000E+009;1.692276149988174E-001;1.979162916541100E-002;1.982269459404051E-004;-1.408907002769411E-003;
2.404166666666667E+009;1.700707674026489E-001;1.852444186806679E-002;-2.366655962759978E-006;-1.371107180602849E-003;
2.404333333333334E+009;1.710945218801498E-001;1.734993793070316E-002;-6.563514034496620E-005;-1.185897388495505E-003;
2.404500000000000E+009;1.719138324260712E-001;1.639303192496300E-002;-1.348244550172240E-004;-1.147940522059798E-003;
2.404666666666667E+009;1.729958951473236E-001;1.559662260115147E-002;-2.918852842412889E-004;-8.817645139060915E-004;
2.404833333333334E+009;1.737588047981262E-001;1.496554631739855E-002;-2.628853253554553E-004;-1.078540924936533E-003;
2.405000000000000E+009;1.747908741235733E-001;1.414156612008810E-002;-4.236764507368207E-004;-9.675101609900594E-004;
2.405166666666667E+009;1.756331175565720E-001;1.341737899929285E-002;-3.200279024895281E-004;-5.682201008312404E-004;
2.405333333333334E+009;1.766344904899597E-001;1.276152022182941E-002;-4.640220431610942E-004;-4.976309719495475E-004;
2.405500000000000E+009;1.772332787513733E-001;1.244542934000492E-002;-5.869423039257526E-004;-4.877303726971149E-004;
2.405666666666667E+009;1.778270751237869E-001;1.194033119827509E-002;-4.742930759675801E-004;-3.465611953288317E-004;
2.405833333333334E+009;1.784353405237198E-001;1.159008126705885E-002;-4.250263737048954E-004;-2.877435763366520E-004;
2.406000000000000E+009;1.791748702526093E-001;1.110882870852947E-002;-3.677695058286190E-004;-1.511487644165754E-004;
2.406166666666667E+009;1.794913560152054E-001;1.078693941235542E-002;-3.889117215294391E-004;-5.935183799010702E-005;
2.406333333333334E+009;1.800958663225174E-001;1.058436185121536E-002;-2.165175974369049E-004;3.787132300203666E-005;
2.406500000000000E+009;1.803354322910309E-001;1.020265370607376E-002;-2.625409106258303E-004;1.058326524798758E-004;
2.406666666666667E+009;1.805067807435989E-001;9.899184107780457E-003;-2.299198822584003E-004;1.926594559336081E-004;
2.406833333333334E+009;1.807024925947189E-001;9.652144275605679E-003;-2.554666134528816E-004;4.428398096933961E-004;
2.407000000000000E+009;1.809804290533066E-001;9.308914653956890E-003;-1.515824988018721E-004;2.447580627631396E-004;
2.407166666666667E+009;1.810625940561295E-001;9.021809324622154E-003;-5.846513158758171E-005;4.674408701248467E-004;
2.407333333333334E+009;1.808324605226517E-001;8.555412292480469E-003;-6.349307659547776E-005;4.695769457612187E-004;
2.407500000000000E+009;1.806306391954422E-001;8.241836912930012E-003;7.860637560952455E-005;4.235567466821522E-004;
2.407666666666667E+009;1.806654483079910E-001;7.868805900216103E-003;2.214473061030731E-004;5.089846090413630E-004;
2.407833333333334E+009;1.801563948392868E-001;7.205423898994923E-003;1.924907701322809E-004;4.833812126889825E-004;
2.408000000000000E+009;1.797508299350739E-001;6.527892779558897E-003;2.498761459719390E-004;4.754898836836219E-004;
2.408166666666667E+009;1.793605685234070E-001;6.186193320900202E-003;4.668931651394814E-004;4.520419170148671E-004;
2.408333333333334E+009;1.790435016155243E-001;5.314076784998179E-003;4.671841743402183E-004;3.906319616362453E-004;
2.408500000000000E+009;1.783667057752609E-001;4.506804049015045E-003;5.789771676063538E-004;5.144562455825508E-004;
2.408666666666667E+009;1.777962446212769E-001;3.600538941100240E-003;5.693695275112987E-004;7.122529787011445E-004;
2.408833333333334E+009;1.771946102380753E-001;2.701114863157272E-003;7.111246814019978E-004;5.167287308722735E-004;
2.409000000000000E+009;1.763511002063751E-001;1.851079287007451E-003;8.382733212783933E-004;6.345168803818524E-004;
2.409166666666667E+009;1.756854057312012E-001;6.084768101572990E-004;8.386452100239694E-004;4.079909413121641E-004;
2.409333333333334E+009;1.751129627227783E-001;-5.963175208307803E-004;9.706275304779410E-004;3.602152864914388E-004;
2.409500000000000E+009;1.742942184209824E-001;-2.012744778767228E-003;9.864193852990866E-004;2.855602651834488E-004;
2.409666666666667E+009;1.735740154981613E-001;-3.429183037951589E-003;9.540381724946201E-004;3.647175326477736E-004;
2.409833333333334E+009;1.728138923645020E-001;-4.805136937648058E-003;1.044049742631614E-003;1.888947008410469E-004;
2.410000000000000E+009;1.724569648504257E-001;-6.136030424386263E-003;1.194774988107383E-003;1.451611315133050E-004;
2.410166666666667E+009;1.717445254325867E-001;-7.810104638338089E-003;1.234345720149577E-003;3.296603972557932E-005;
2.410333333333334E+009;1.710329502820969E-001;-9.422301314771175E-003;1.325290068052709E-003;1.460633357055485E-004;
2.410500000000000E+009;1.704728603363037E-001;-1.113394834101200E-002;1.295710564590991E-003;1.179704340756871E-004;
2.410666666666667E+009;1.698457896709442E-001;-1.319721713662148E-002;1.265515456907451E-003;-1.977094798348844E-004;
2.410833333333334E+009;1.693816035985947E-001;-1.476726587861776E-002;1.425776514224708E-003;-7.439400360453874E-005;
2.411000000000000E+009;1.690935939550400E-001;-1.661637611687183E-002;1.326706958934665E-003;-1.537344360258430E-004;
2.411166666666667E+009;1.686581224203110E-001;-1.853884942829609E-002;1.261464902199805E-003;-1.908289123093709E-004;
2.411333333333334E+009;1.683699190616608E-001;-2.050852030515671E-002;1.285977894440293E-003;-2.254538994748145E-004;
2.411500000000000E+009;1.681080907583237E-001;-2.246432937681675E-002;1.480285194702447E-003;-3.708016884047538E-004;
2.411666666666667E+009;1.681281179189682E-001;-2.436930872499943E-002;1.421039341948926E-003;-3.881783923134208E-004;
2.411833333333334E+009;1.680439263582230E-001;-2.619513683021069E-002;1.216538832522929E-003;-5.391543963924050E-004;
2.412000000000000E+009;1.679012328386307E-001;-2.834241278469563E-002;1.245810766704381E-003;-5.033282213844359E-004;
2.412166666666667E+009;1.679822504520416E-001;-3.021600283682346E-002;1.252862275578082E-003;-5.931225023232400E-004;
2.412333333333334E+009;1.683423668146133E-001;-3.202446922659874E-002;1.322321943007410E-003;-5.500211846083403E-004;
2.412500000000000E+009;1.685903370380402E-001;-3.404367342591286E-002;1.207919674925506E-003;-6.558347376994789E-004;
2.412666666666667E+009;1.687514483928680E-001;-3.613691776990891E-002;1.264655613340437E-003;-5.651906249113381E-004;
2.412833333333334E+009;1.691789478063583E-001;-3.785605356097221E-002;1.145528396591544E-003;-6.917435093782842E-004;
2.413000000000000E+009;1.695431619882584E-001;-3.966397419571877E-002;1.097167958505452E-003;-6.540989270433784E-004;
2.413166666666667E+009;1.698922514915466E-001;-4.147012904286385E-002;1.122018205933273E-003;-6.883262540213764E-004;
2.413333333333334E+009;1.702212840318680E-001;-4.318418726325035E-002;9.937330614775419E-004;-6.792776985093951E-004;
2.413500000000000E+009;1.709332317113876E-001;-4.495054110884666E-002;1.114909187890589E-003;-8.458159863948822E-004;
2.413666666666667E+009;1.715384572744370E-001;-4.641424119472504E-002;9.993065614253283E-004;-6.724498234689236E-004;
2.413833333333334E+009;1.718045920133591E-001;-4.793022572994232E-002;1.018182490952313E-003;-9.267101413570344E-004;
2.414000000000000E+009;1.724186837673187E-001;-4.933015257120132E-002;9.353319765068591E-004;-8.513626526109874E-004;
2.414166666666667E+009;1.729772537946701E-001;-5.055621638894081E-002;1.016475260257721E-003;-1.036808127537370E-003;
2.414333333333334E+009;1.735184788703919E-001;-5.199820920825005E-002;1.021944102831185E-003;-9.288341971114278E-004;
2.414500000000000E+009;1.742829531431198E-001;-5.300666764378548E-002;1.096406136639416E-003;-1.001946046017110E-003;
2.414666666666667E+009;1.745919287204742E-001;-5.396155267953873E-002;1.097607193514705E-003;-9.862739825621247E-004;
2.414833333333334E+009;1.750562340021133E-001;-5.502781644463539E-002;1.155697042122483E-003;-8.841261733323336E-004;
2.415000000000000E+009;1.754391193389893E-001;-5.576277896761894E-002;1.146562979556620E-003;-1.138371648266912E-003;
2.415166666666667E+009;1.759621351957321E-001;-5.653355270624161E-002;1.032994361594319E-003;-1.093032420612872E-003;
2.415333333333334E+009;1.764886230230331E-001;-5.744258314371109E-002;9.567719534970820E-004;-1.111671444959939E-003;
2.415500000000000E+009;1.768763959407806E-001;-5.797323584556580E-002;1.083645620383322E-003;-1.388208591379225E-003;
2.415666666666667E+009;1.770939975976944E-001;-5.840146914124489E-002;9.302508551627398E-004;-1.305135781876743E-003;
2.415833333333334E+009;1.772917211055756E-001;-5.912728980183601E-002;1.107745454646647E-003;-1.403022091835737E-003;
2.416000000000000E+009;1.773614585399628E-001;-5.945588275790215E-002;8.547655306756496E-004;-1.413800404407084E-003;
2.416166666666667E+009;1.777480244636536E-001;-5.971584469079971E-002;9.625008678995073E-004;-1.512088230811060E-003;
2.416333333333334E+009;1.775099188089371E-001;-6.002408638596535E-002;9.163356735371053E-004;-1.583075616508722E-003;
2.416500000000000E+009;1.774338036775589E-001;-6.034165993332863E-002;8.011767058633268E-004;-1.587725593708456E-003;
2.416666666666667E+009;1.772038340568543E-001;-6.060730293393135E-002;7.212274358607829E-004;-1.560901757329702E-003;
2.416833333333334E+009;1.771610826253891E-001;-6.079408898949623E-002;7.418208988383412E-004;-1.708480413071811E-003;
2.417000000000000E+009;1.766293793916702E-001;-6.098377332091332E-002;7.022389327175915E-004;-1.770650735124946E-003;
2.417166666666667E+009;1.762513518333435E-001;-6.118799373507500E-002;6.448711501434445E-004;-1.590179046615958E-003;
2.417333333333334E+009;1.757034361362457E-001;-6.131083145737648E-002;6.151897832751274E-004;-1.819454133510590E-003;
2.417500000000000E+009;1.751068085432053E-001;-6.172755360603333E-002;5.407989374361932E-004;-1.777249271981418E-003;
2.417666666666667E+009;1.744698137044907E-001;-6.185788661241531E-002;4.671873757615686E-004;-1.826532534323633E-003;
2.417833333333334E+009;1.737297773361206E-001;-6.210131570696831E-002;4.025353700853884E-004;-1.914378139190376E-003;
2.418000000000000E+009;1.727376878261566E-001;-6.247751042246819E-002;2.795221516862512E-004;-1.869753468781710E-003;
2.418166666666667E+009;1.718583405017853E-001;-6.265789270401001E-002;2.477812522556633E-004;-1.958077540621162E-003;
2.418333333333334E+009;1.710254400968552E-001;-6.316699087619782E-002;2.563564921729267E-004;-2.018888713791966E-003;
2.418500000000000E+009;1.700387448072434E-001;-6.345886737108231E-002;1.605547731742263E-004;-1.960304332897067E-003;
2.418666666666667E+009;1.689818501472473E-001;-6.392146646976471E-002;1.285607140744105E-004;-2.029567258432508E-003;
2.418833333333334E+009;1.676625162363052E-001;-6.455028802156448E-002;3.875117909046821E-005;-2.020508283749223E-003;
2.419000000000000E+009;1.665485948324204E-001;-6.509738415479660E-002;5.829109795740806E-005;-1.989342272281647E-003;
2.419166666666667E+009;1.652987748384476E-001;-6.576823443174362E-002;-1.694463280728087E-004;-2.170382766053081E-003;
2.419333333333334E+009;1.640316843986511E-001;-6.619184464216232E-002;-1.049686179612763E-004;-1.995583763346076E-003;
2.419500000000000E+009;1.627795696258545E-001;-6.735577434301376E-002;-1.063690579030663E-004;-2.102381549775600E-003;
2.419666666666667E+009;1.618569344282150E-001;-6.824772804975510E-002;-1.692417135927826E-004;-2.059819176793098E-003;
2.419833333333334E+009;1.604253649711609E-001;-6.900794804096222E-002;-4.300131113268435E-004;-2.188143320381641E-003;
2.420000000000000E+009;1.594761759042740E-001;-7.010077685117722E-002;-4.699929850175977E-004;-2.220336114987731E-003;
2.420166666666667E+009;1.583543717861176E-001;-7.119597494602203E-002;-5.636825808323920E-004;-2.009784104302526E-003;
2.420333333333334E+009;1.571903526782990E-001;-7.252500206232071E-002;-5.957224057056010E-004;-2.151297638192773E-003;
2.420500000000000E+009;1.563072949647903E-001;-7.364786416292191E-002;-5.928403697907925E-004;-2.146945334970951E-003;
2.420666666666667E+009;1.551965773105621E-001;-7.480255514383316E-002;-7.966420380398631E-004;-2.246764255687594E-003;
2.420833333333334E+009;1.544272899627686E-001;-7.632690668106079E-002;-7.027024403214455E-004;-2.286321716383100E-003;
2.421000000000000E+009;1.532627344131470E-001;-7.786619663238525E-002;-1.139595406129956E-003;-2.147719264030457E-003;
2.421166666666667E+009;1.525931507349014E-001;-7.935090363025665E-002;-8.645768393762410E-004;-2.093137241899967E-003;
2.421333333333334E+009;1.520953327417374E-001;-8.094128966331482E-002;-1.158687868155539E-003;-2.051452174782753E-003;
2.421500000000000E+009;1.512160003185272E-001;-8.229549974203110E-002;-1.212755683809519E-003;-2.144368132576346E-003;
2.421666666666667E+009;1.509166359901428E-001;-8.402683585882187E-002;-1.087614218704402E-003;-2.181147458031774E-003;
2.421833333333334E+009;1.503193229436874E-001;-8.573508262634277E-002;-1.437562634237111E-003;-2.022524829953909E-003;
2.422000000000000E+009;1.499018520116806E-001;-8.743147552013397E-002;-1.431584241800010E-003;-2.029516734182835E-003;
2.422166666666667E+009;1.499592214822769E-001;-8.932268619537354E-002;-1.544958213344216E-003;-1.909455517306924E-003;
2.422333333333334E+009;1.494384557008743E-001;-9.093043208122253E-002;-1.804379513487220E-003;-2.040856750681996E-003;
2.422500000000000E+009;1.492995023727417E-001;-9.246171265840530E-002;-1.776414457708597E-003;-1.707073184661567E-003;
2.422666666666667E+009;1.493400037288666E-001;-9.425383061170578E-002;-1.943593728356063E-003;-1.597280032001436E-003;
2.422833333333334E+009;1.493391394615173E-001;-9.616894274950028E-002;-2.039789222180843E-003;-1.844850950874388E-003;
2.423000000000000E+009;1.494389623403549E-001;-9.787229448556900E-002;-2.209439873695374E-003;-1.509519061073661E-003;
2.423166666666667E+009;1.497068107128143E-001;-9.919950366020203E-002;-2.043802058324218E-003;-1.542423735372722E-003;
2.423333333333334E+009;1.500532180070877E-001;-1.007447019219399E-001;-2.200714778155088E-003;-1.302358345128596E-003;
2.423500000000000E+009;1.502672433853149E-001;-1.025303304195404E-001;-2.290653064846993E-003;-1.183388056233525E-003;
2.423666666666667E+009;1.505637019872665E-001;-1.041446849703789E-001;-2.332260366529226E-003;-1.163406297564507E-003;
2.423833333333334E+009;1.511372923851013E-001;-1.055218428373337E-001;-2.496871631592512E-003;-9.019133867695928E-004;
2.424000000000000E+009;1.514697074890137E-001;-1.067506372928619E-001;-2.409102162346244E-003;-7.509315037168562E-004;
2.424166666666667E+009;1.518577486276627E-001;-1.082118153572083E-001;-2.539615379646421E-003;-7.182554691098630E-004;
2.424333333333334E+009;1.524228155612946E-001;-1.092709228396416E-001;-2.353879390284419E-003;-5.645069759339094E-004;
2.424500000000000E+009;1.529795825481415E-001;-1.103975102305412E-001;-2.490195212885737E-003;-4.777901340276003E-004;
2.424666666666667E+009;1.534037739038467E-001;-1.113569587469101E-001;-2.320543164387345E-003;-1.976412895601243E-004;
2.424833333333334E+009;1.539022326469421E-001;-1.126015335321426E-001;-2.565911971032620E-003;1.263912236026954E-005;
2.425000000000000E+009;1.544799655675888E-001;-1.133927851915360E-001;-2.254511462524533E-003;1.945243275258690E-005;
2.425166666666667E+009;1.545274704694748E-001;-1.143568679690361E-001;-2.171446103602648E-003;2.590372751001269E-004;
2.425333333333334E+009;1.552392244338989E-001;-1.151078119874001E-001;-2.158669754862785E-003;3.788233734667301E-004;
2.425500000000000E+009;1.554641872644424E-001;-1.157755851745606E-001;-2.145946491509676E-003;3.795031516347081E-004;
2.425666666666667E+009;1.557651758193970E-001;-1.164701879024506E-001;-2.144895726814866E-003;3.475737757980824E-004;
2.425833333333334E+009;1.561056524515152E-001;-1.168941184878349E-001;-1.880481024272740E-003;5.427934811450541E-004;
2.426000000000000E+009;1.561892777681351E-001;-1.173492893576622E-001;-1.997160492464900E-003;6.388128967955709E-004;
2.426166666666667E+009;1.566204130649567E-001;-1.179088428616524E-001;-1.842808676883578E-003;5.758173065260053E-004;
2.426333333333334E+009;1.565127223730087E-001;-1.181416809558868E-001;-1.861730823293328E-003;6.438467535190284E-004;
2.426500000000000E+009;1.565620154142380E-001;-1.184122338891029E-001;-1.849966123700142E-003;7.272560033015907E-004;
2.426666666666667E+009;1.565927118062973E-001;-1.184808611869812E-001;-1.629722886718810E-003;8.589014178141952E-004;
2.426833333333334E+009;1.562951654195786E-001;-1.187621280550957E-001;-1.655530068092048E-003;9.291296009905636E-004;
2.427000000000000E+009;1.560443639755249E-001;-1.190182641148567E-001;-1.414990518242121E-003;8.149807690642774E-004;
2.427166666666667E+009;1.555986255407333E-001;-1.188804283738136E-001;-1.570311258547008E-003;9.950792882591486E-004;
2.427333333333334E+009;1.550554782152176E-001;-1.191199570894241E-001;-1.236272510141134E-003;9.769450407475233E-004;
2.427500000000000E+009;1.546722799539566E-001;-1.192701309919357E-001;-1.256988034583628E-003;9.787570452317596E-004;
2.427666666666667E+009;1.540018022060394E-001;-1.192860156297684E-001;-1.141121960245073E-003;8.535380475223064E-004;
