# Version 1.00
#
freq[Hz];re:Trc1_S11;im:Trc1_S11;re:Trc2_S21;im:Trc2_S21;
2.400000000000000E+009;1.580592095851898E-001;6.255561858415604E-002;2.449346706271172E-003;-1.592031767359003E-004;
2.400166666666667E+009;1.581573039293289E-001;6.096681579947472E-002;2.284444868564606E-003;-1.588049926795065E-004;
2.400333333333334E+009;1.578588932752609E-001;5.916490778326988E-002;2.274315804243088E-003;-3.464767942205071E-004;
2.400500000000000E+009;1.577337235212326E-001;5.717823654413223E-002;2.398981014266610E-003;-3.004207974299789E-004;
2.400666666666667E+009;1.576930582523346E-001;5.515985190868378E-002;2.306027570739389E-003;-5.287509993650019E-004;
2.400833333333334E+009;1.579001396894455E-001;5.339144542813301E-002;2.161077456548810E-003;-6.322195986285806E-004;
2.401000000000000E+009;1.578635573387146E-001;5.114615336060524E-002;2.226881217211485E-003;-7.857197197154164E-004;
2.401166666666667E+009;1.580484509468079E-001;4.906159266829491E-002;2.137446310371161E-003;-8.665096247568727E-004;
2.401333333333334E+009;1.580861061811447E-001;4.707041010260582E-002;2.268398646265268E-003;-8.260986651293933E-004;
2.401500000000000E+009;1.585456728935242E-001;4.484127461910248E-002;2.145582111552358E-003;-1.006282400339842E-003;
2.401666666666667E+009;1.586752086877823E-001;4.299623891711235E-002;1.892354106530547E-003;-1.276286551728845E-003;
2.401833333333334E+009;1.591952443122864E-001;4.078640416264534E-002;1.801339676603675E-003;-1.251444919034839E-003;
2.402000000000000E+009;1.595026850700378E-001;3.891320526599884E-002;1.604756340384483E-003;-1.314206747338176E-003;
2.402166666666667E+009;1.599591672420502E-001;3.679665923118591E-002;1.584104262292385E-003;-1.338489353656769E-003;
2.402333333333334E+009;1.605555713176727E-001;3.482824191451073E-002;1.519304933026433E-003;-1.538529875688255E-003;
2.402500000000000E+009;1.612916290760040E-001;3.299686685204506E-002;1.316023524850607E-003;-1.523579354397953E-003;
2.402666666666667E+009;1.618525385856628E-001;3.133980929851532E-002;1.128782751038671E-003;-1.466456684283912E-003;
2.402833333333334E+009;1.626735031604767E-001;2.960563264787197E-002;1.027033315040171E-003;-1.556590199470520E-003;
2.403000000000000E+009;1.634008437395096E-001;2.803661115467548E-002;9.957841830328107E-004;-1.656658365391195E-003;
2.403166666666667E+009;1.643442511558533E-001;2.658806741237640E-002;7.740796427242458E-004;-1.726550515741110E-003;
2.403333333333334E+009;1.652356535196304E-001;2.507962845265865E-002;7.036004099063575E-004;-1.615015207789838E-003;
2.403500000000000E+009;1.660569161176682E-001;2.347888983786106E-002;5.280779441818595E-004;-1.372717437334359E-003;
2.403666666666667E+009;1.670941412448883E-001;2.195458859205246E-002;4.733678360935301E-004;-1.492287032306194E-003;
2.403833333333334E+009;1.681153774261475E-001;2.098147757351399E-002;3.919260052498430E-004;-1.305297832004726E-003;
2.404000000000000E+009;1.691391319036484E-001;1.958563178777695E-002;1.621195842744783E-004;-1.382542192004621E-003;
2.404166666666667E+009;1.701109111309052E-001;1.827725954353809E-002;-2.413542097201571E-005;-1.325986115261912E-003;
2.404333333333334E+009;1.710943728685379E-001;1.745329052209854E-002;-2.160499134333804E-004;-1.195487333461642E-003;
2.404500000000000E+009;1.719832569360733E-001;1.647827401757240E-002;-1.560504169901833E-004;-1.137192593887448E-003;
2.404666666666667E+009;1.729915738105774E-001;1.565177552402020E-002;-2.988605119753629E-004;-1.011104322969914E-003;
2.404833333333334E+009;1.738708168268204E-001;1.480222772806883E-002;-1.661137648625299E-004;-9.720244561322033E-004;
2.405000000000000E+009;1.748395264148712E-001;1.399871706962585E-002;-4.513987805694342E-004;-8.659756276756525E-004;
2.405166666666667E+009;1.757390946149826E-001;1.347445230931044E-002;-5.245578358881176E-004;-8.303239592351019E-004;
2.405333333333334E+009;1.766111254692078E-001;1.273167971521616E-002;-6.495753768831492E-004;-7.594153285026550E-004;
2.405500000000000E+009;1.774318963289261E-001;1.230413187295198E-002;-5.012991605326533E-004;-2.980249118991196E-004;
2.405666666666667E+009;1.780159324407578E-001;1.190007291734219E-002;-3.456509148236364E-004;-4.273107042536140E-004;
2.405833333333334E+009;1.784675866365433E-001;1.162346638739109E-002;-5.963031435385346E-004;-3.765220753848553E-004;
2.406000000000000E+009;1.792311966419220E-001;1.102297566831112E-002;-5.445852875709534E-004;-7.571312744403258E-005;
2.406166666666667E+009;1.796551197767258E-001;1.085523515939713E-002;-3.325995639897883E-004;-5.673996201949194E-005;
2.406333333333334E+009;1.801101118326187E-001;1.045219507068396E-002;-3.981219197157770E-004;9.979582682717592E-005;
2.406500000000000E+009;1.804933547973633E-001;1.023471076041460E-002;-3.215929900761694E-004;1.245609746547416E-004;
2.406666666666667E+009;1.804917901754379E-001;9.893927723169327E-003;-2.941009588539600E-004;1.036568501149304E-004;
2.406833333333334E+009;1.808254122734070E-001;9.535538032650948E-003;-1.704865135252476E-004;4.241875722073019E-004;
2.407000000000000E+009;1.811174452304840E-001;9.183176793158054E-003;-1.342726027360186E-004;4.395401338115335E-004;
2.407166666666667E+009;1.811342388391495E-001;9.095543064177036E-003;-1.940150250447914E-004;4.236951353959739E-004;
2.407333333333334E+009;1.808231920003891E-001;8.421609178185463E-003;-1.382260816171765E-004;3.248212160542607E-004;
2.407500000000000E+009;1.807864308357239E-001;8.182641118764877E-003;3.241336889914237E-005;5.920373369008303E-004;
2.407666666666667E+009;1.805333793163300E-001;7.699097972363234E-003;1.598148519406095E-004;3.370547783561051E-004;
2.407833333333334E+009;1.800904273986816E-001;7.052531465888023E-003;2.872298355214298E-004;7.647961610928178E-004;
2.408000000000000E+009;1.798175424337387E-001;6.522808689624071E-003;2.504388685338199E-004;6.263960385695100E-004;
2.408166666666667E+009;1.792942732572556E-001;6.080397870391607E-003;3.671347803901881E-004;6.821747520007193E-004;
2.408333333333334E+009;1.789776980876923E-001;5.315163172781467E-003;4.179107490926981E-004;6.667119450867176E-004;
2.408500000000000E+009;1.783835291862488E-001;4.508995916694403E-003;4.673924122471362E-004;5.469587631523609E-004;
2.408666666666667E+009;1.778019815683365E-001;3.581506200134754E-003;6.516530993394554E-004;6.275677005760372E-004;
2.408833333333334E+009;1.771210581064224E-001;2.598212566226721E-003;5.914010107517242E-004;7.209239411167800E-004;
2.409000000000000E+009;1.763903647661209E-001;1.701686182059348E-003;7.837882149033248E-004;5.927374004386365E-004;
2.409166666666667E+009;1.757715046405792E-001;4.803284828085452E-004;8.211940876208246E-004;5.586391780525446E-004;
2.409333333333334E+009;1.751174330711365E-001;-7.289628847502172E-004;8.401732193306088E-004;4.385750216897577E-004;
2.409500000000000E+009;1.743208020925522E-001;-2.083615167066455E-003;8.785891113802791E-004;4.633792268577963E-004;
2.409666666666667E+009;1.736776232719421E-001;-3.401077352464199E-003;9.409929043613374E-004;4.000729823019356E-004;
2.409833333333334E+009;1.729396730661392E-001;-4.749309271574020E-003;1.000465359538794E-003;4.640086845029146E-004;
2.410000000000000E+009;1.724330633878708E-001;-6.259295623749495E-003;1.149707008153200E-003;2.849764714483172E-004;
2.410166666666667E+009;1.716383546590805E-001;-7.741589099168778E-003;1.154161989688873E-003;4.007724928669632E-004;
2.410333333333334E+009;1.711170375347138E-001;-9.450481273233891E-003;1.198556623421609E-003;2.731337444856763E-004;
2.410500000000000E+009;1.704387664794922E-001;-1.102036330848932E-002;1.232242793776095E-003;1.671724894549698E-004;
2.410666666666667E+009;1.699174195528030E-001;-1.311828475445509E-002;1.254039583727717E-003;-6.703862163703889E-005;
2.410833333333334E+009;1.694719195365906E-001;-1.482047792524099E-002;1.233692746609449E-003;5.824567324452801E-006;
2.411000000000000E+009;1.691147983074188E-001;-1.654622703790665E-002;1.262502395547926E-003;-1.121948007494211E-004;
2.411166666666667E+009;1.686941087245941E-001;-1.853576488792896E-002;1.325903576798737E-003;-2.367662818869576E-004;
2.411333333333334E+009;1.683365851640701E-001;-2.026610448956490E-002;1.218362711369991E-003;-1.928216079249978E-004;
2.411500000000000E+009;1.682327091693878E-001;-2.238678745925427E-002;1.252073212526739E-003;-2.230613608844578E-004;
2.411666666666667E+009;1.681581735610962E-001;-2.439391426742077E-002;1.216402743011713E-003;-4.873097932431847E-004;
2.411833333333334E+009;1.680012941360474E-001;-2.621182613074780E-002;1.245224848389626E-003;-3.115228028036654E-004;
2.412000000000000E+009;1.681361943483353E-001;-2.836875803768635E-002;1.213477808050811E-003;-3.907835343852639E-004;
2.412166666666667E+009;1.679947674274445E-001;-3.023394197225571E-002;1.079652807675302E-003;-4.426804371178150E-004;
2.412333333333334E+009;1.684623956680298E-001;-3.208040073513985E-002;1.011441228911281E-003;-5.048331222496927E-004;
2.412500000000000E+009;1.684002131223679E-001;-3.407402709126473E-002;1.149776275269687E-003;-6.212165462784469E-004;
2.412666666666667E+009;1.689188927412033E-001;-3.610798716545105E-002;1.103490474633873E-003;-6.585139781236649E-004;
2.412833333333334E+009;1.691348552703857E-001;-3.803735598921776E-002;1.123181544244289E-003;-6.008663913235068E-004;
2.413000000000000E+009;1.695255935192108E-001;-3.964092954993248E-002;1.086019212380052E-003;-5.675517022609711E-004;
2.413166666666667E+009;1.698974370956421E-001;-4.136224463582039E-002;1.145806163549423E-003;-6.828525802120566E-004;
2.413333333333334E+009;1.702918261289597E-001;-4.328965395689011E-002;1.002945820800960E-003;-7.692161016166210E-004;
2.413500000000000E+009;1.707726418972015E-001;-4.479700699448586E-002;1.032070373184979E-003;-7.948737475089729E-004;
2.413666666666667E+009;1.714121997356415E-001;-4.631847888231278E-002;1.117406296543777E-003;-6.842175498604775E-004;
2.413833333333334E+009;1.719216704368591E-001;-4.787870123982430E-002;1.012301072478294E-003;-7.487235707230866E-004;
2.414000000000000E+009;1.722283959388733E-001;-4.941672831773758E-002;9.623222285881639E-004;-7.548562716692686E-004;
2.414166666666667E+009;1.729372739791870E-001;-5.059130117297173E-002;1.064380398020148E-003;-8.560900459997356E-004;
2.414333333333334E+009;1.736617833375931E-001;-5.190283432602882E-002;1.002120319753885E-003;-7.908038678579032E-004;
2.414500000000000E+009;1.742531806230545E-001;-5.292624980211258E-002;1.058046589605510E-003;-9.431961225345731E-004;
2.414666666666667E+009;1.746676713228226E-001;-5.387658253312111E-002;9.829386835917831E-004;-9.249759023077786E-004;
2.414833333333334E+009;1.752068847417831E-001;-5.493428185582161E-002;1.003475743345916E-003;-1.022574491798878E-003;
2.415000000000000E+009;1.755757480859757E-001;-5.583937838673592E-002;9.254894102923572E-004;-1.005287514999509E-003;
2.415166666666667E+009;1.761622875928879E-001;-5.668161064386368E-002;1.069332705810666E-003;-1.010588719509542E-003;
2.415333333333334E+009;1.765226274728775E-001;-5.747850984334946E-002;1.013789093121886E-003;-1.129116280935705E-003;
2.415500000000000E+009;1.768210828304291E-001;-5.799387767910957E-002;1.054439577274025E-003;-1.111723133362830E-003;
2.415666666666667E+009;1.770822405815125E-001;-5.850803852081299E-002;8.182612364180386E-004;-1.308449311181903E-003;
2.415833333333334E+009;1.774066537618637E-001;-5.906983092427254E-002;1.072664046660066E-003;-1.127962139435113E-003;
2.416000000000000E+009;1.774198859930039E-001;-5.943711847066879E-002;9.539826423861086E-004;-1.383480150252581E-003;
2.416166666666667E+009;1.777138113975525E-001;-5.977264046669006E-002;8.424035622738302E-004;-1.236459123902023E-003;
2.416333333333334E+009;1.776371002197266E-001;-6.009339541196823E-002;7.995297783054411E-004;-1.435313257388771E-003;
2.416500000000000E+009;1.775703430175781E-001;-6.054876744747162E-002;7.697846158407629E-004;-1.417052000761032E-003;
2.416666666666667E+009;1.772955656051636E-001;-6.057754531502724E-002;8.603848982602358E-004;-1.518746488727629E-003;
2.416833333333334E+009;1.770616173744202E-001;-6.087934598326683E-002;7.138350047171116E-004;-1.572901732288301E-003;
2.417000000000000E+009;1.765936464071274E-001;-6.117740646004677E-002;6.282681715674698E-004;-1.651533646509051E-003;
2.417166666666667E+009;1.763281226158142E-001;-6.116549298167229E-002;6.361203268170357E-004;-1.596952439285815E-003;
2.417333333333334E+009;1.757456362247467E-001;-6.141801923513413E-002;6.105518550612032E-004;-1.602252130396664E-003;
2.417500000000000E+009;1.750771701335907E-001;-6.176885962486267E-002;6.836278480477631E-004;-1.674134167842567E-003;
2.417666666666667E+009;1.744697839021683E-001;-6.197496876120567E-002;4.973295144736767E-004;-1.825873972848058E-003;
2.417833333333334E+009;1.736768335103989E-001;-6.219924986362457E-002;5.637426511384547E-004;-1.777011784724891E-003;
2.418000000000000E+009;1.727592200040817E-001;-6.255350261926651E-002;4.117565113119781E-004;-1.801284844987094E-003;
2.418166666666667E+009;1.717815697193146E-001;-6.264176219701767E-002;3.201421932317317E-004;-1.868207473307848E-003;
2.418333333333334E+009;1.711837798357010E-001;-6.323238462209702E-002;3.441995359025896E-004;-1.875129761174321E-003;
2.418500000000000E+009;1.699369400739670E-001;-6.347244977951050E-002;2.285033406224102E-004;-1.868400140665472E-003;
2.418666666666667E+009;1.690223962068558E-001;-6.407968699932098E-002;2.630931558087468E-004;-1.930107246153057E-003;
2.418833333333334E+009;1.676387339830399E-001;-6.445363909006119E-002;1.750749652273953E-004;-2.025589114055038E-003;
2.419000000000000E+009;1.664833426475525E-001;-6.516072154045105E-002;6.014854443492368E-005;-1.947354641743004E-003;
2.419166666666667E+009;1.654499918222427E-001;-6.582887470722199E-002;-7.965556869748980E-005;-2.077862853184342E-003;
2.419333333333334E+009;1.640144437551498E-001;-6.628990918397903E-002;-6.005674367770553E-005;-2.004993846639991E-003;
2.419500000000000E+009;1.627500355243683E-001;-6.725206971168518E-002;-8.430938032688573E-005;-1.964532537385821E-003;
2.419666666666667E+009;1.617666780948639E-001;-6.824217736721039E-002;-7.920963980723172E-005;-2.016213489696384E-003;
2.419833333333334E+009;1.605432480573654E-001;-6.899033486843109E-002;-3.181851934641600E-004;-2.085902029648423E-003;
2.420000000000000E+009;1.594216823577881E-001;-7.010632753372192E-002;-3.378501278348267E-004;-2.138993004336953E-003;
2.420166666666667E+009;1.582405865192413E-001;-7.113432884216309E-002;-5.124255549162626E-004;-2.100806217640638E-003;
2.420333333333334E+009;1.571844369173050E-001;-7.235138863325119E-002;-5.669344100169838E-004;-2.120341174304485E-003;
2.420500000000000E+009;1.562349349260330E-001;-7.357435673475266E-002;-5.879223463125527E-004;-2.183035016059876E-003;
2.420666666666667E+009;1.551994681358337E-001;-7.491782307624817E-002;-6.220344221219420E-004;-2.095395466312766E-003;
2.420833333333334E+009;1.542418301105499E-001;-7.627559453248978E-002;-7.492449367418885E-004;-2.278334926813841E-003;
2.421000000000000E+009;1.534533798694611E-001;-7.786627113819122E-002;-8.411846938543022E-004;-2.099243924021721E-003;
2.421166666666667E+009;1.526447087526321E-001;-7.916174829006195E-002;-9.987477678805590E-004;-2.212358871474862E-003;
2.421333333333334E+009;1.521513611078262E-001;-8.083644509315491E-002;-1.058491528965533E-003;-2.105830470100045E-003;
2.421500000000000E+009;1.514376252889633E-001;-8.238530904054642E-002;-1.265755388885737E-003;-2.044852124527097E-003;
2.421666666666667E+009;1.507028788328171E-001;-8.399718999862671E-002;-1.304841600358486E-003;-2.077967161312699E-003;
2.421833333333334E+009;1.503446102142334E-001;-8.578391373157501E-002;-1.409517833963037E-003;-2.061069011688232E-003;
2.422000000000000E+009;1.500144302845001E-001;-8.746168762445450E-002;-1.483120140619576E-003;-1.958363223820925E-003;
2.422166666666667E+009;1.497430056333542E-001;-8.940523862838745E-002;-1.582699129357934E-003;-1.915548346005380E-003;
2.422333333333334E+009;1.495542973279953E-001;-9.086089581251144E-002;-1.661552465520799E-003;-1.845724997110665E-003;
2.422500000000000E+009;1.494053751230240E-001;-9.254670888185501E-002;-1.874310080893338E-003;-1.746958587318659E-003;
2.422666666666667E+009;1.494204699993134E-001;-9.448098391294479E-002;-1.967743737623096E-003;-1.715263933874667E-003;
2.422833333333334E+009;1.494040489196777E-001;-9.619971364736557E-002;-1.992127858102322E-003;-1.603741431608796E-003;
2.423000000000000E+009;1.496614664793015E-001;-9.790582209825516E-002;-2.205266384407878E-003;-1.566857099533081E-003;
2.423166666666667E+009;1.497711837291718E-001;-9.945175796747208E-002;-2.158674877136946E-003;-1.462397747673094E-003;
2.423333333333334E+009;1.500314027070999E-001;-1.007576808333397E-001;-2.206098288297653E-003;-1.305740326642990E-003;
2.423500000000000E+009;1.503265202045441E-001;-1.024449616670609E-001;-2.304812427610159E-003;-1.117976498790085E-003;
2.423666666666667E+009;1.506538987159729E-001;-1.041505187749863E-001;-2.340827370062470E-003;-1.079999492503703E-003;
2.423833333333334E+009;1.512575894594193E-001;-1.055635958909988E-001;-2.353776013478637E-003;-8.608644711785018E-004;
2.424000000000000E+009;1.514003723859787E-001;-1.067474037408829E-001;-2.317551989108324E-003;-7.019575568847358E-004;
2.424166666666667E+009;1.518212854862213E-001;-1.081227734684944E-001;-2.428438514471054E-003;-7.230815826915205E-004;
2.424333333333334E+009;1.524069607257843E-001;-1.093606129288673E-001;-2.499233698472381E-003;-4.964297986589372E-004;
2.424500000000000E+009;1.530067324638367E-001;-1.105958372354507E-001;-2.381729194894433E-003;-3.358340763952583E-004;
2.424666666666667E+009;1.535804718732834E-001;-1.114190369844437E-001;-2.495198743417859E-003;-2.403660182608292E-004;
2.424833333333334E+009;1.539302170276642E-001;-1.126807853579521E-001;-2.355204895138741E-003;-1.693671511020511E-004;
2.425000000000000E+009;1.544931083917618E-001;-1.135297939181328E-001;-2.276394981890917E-003;6.265597767196596E-005;
2.425166666666667E+009;1.546845436096191E-001;-1.144020631909370E-001;-2.323364838957787E-003;7.279332930920646E-005;
2.425333333333334E+009;1.551717966794968E-001;-1.149558424949646E-001;-2.266656374558806E-003;1.694852835498750E-004;
2.425500000000000E+009;1.555411070585251E-001;-1.158767491579056E-001;-2.367294393479824E-003;3.375793457962573E-004;
2.425666666666667E+009;1.557824164628983E-001;-1.164802089333534E-001;-2.122965641319752E-003;4.681826103478670E-004;
2.425833333333334E+009;1.561137884855270E-001;-1.169163808226585E-001;-2.041867701336741E-003;4.792721883859485E-004;
2.426000000000000E+009;1.563119739294052E-001;-1.174767017364502E-001;-2.042926847934723E-003;4.395370779093355E-004;
2.426166666666667E+009;1.566651612520218E-001;-1.178916618227959E-001;-2.091296948492527E-003;5.002547404728830E-004;
2.426333333333334E+009;1.564803421497345E-001;-1.181471645832062E-001;-1.841190503910184E-003;6.337981903925538E-004;
2.426500000000000E+009;1.565836817026138E-001;-1.183723136782646E-001;-1.725134789012373E-003;6.437330157496035E-004;
2.426666666666667E+009;1.566066145896912E-001;-1.184499263763428E-001;-1.762394327670336E-003;8.635655394755304E-004;
2.426833333333334E+009;1.562712490558624E-001;-1.187318786978722E-001;-1.604001969099045E-003;8.819560753181577E-004;
2.427000000000000E+009;1.559405177831650E-001;-1.190152540802956E-001;-1.505350810475647E-003;6.928843213245273E-004;
2.427166666666667E+009;1.556648910045624E-001;-1.190289407968521E-001;-1.532459515146911E-003;7.783040637150407E-004;
2.427333333333334E+009;1.552563309669495E-001;-1.190478056669235E-001;-1.389065408147872E-003;8.820577058941126E-004;
2.427500000000000E+009;1.547332704067230E-001;-1.192683428525925E-001;-1.399606233462691E-003;7.964726537466049E-004;
2.427666666666667E+009;1.539569646120071E-001;-1.193131953477860E-001;-1.162941334769130E-003;8.512410568073392E-004;
