# Version 1.00
#
freq[Hz];re:Trc1_S11;im:Trc1_S11;re:Trc2_S21;im:Trc2_S21;
2.400000000000000E+009;1.581849306821823E-001;6.276853382587433E-002;2.486165147274733E-003;-3.140648914268240E-005;
2.400166666666667E+009;1.577970981597900E-001;6.098023802042007E-002;2.472786465659738E-003;-1.661610440351069E-004;
2.400333333333334E+009;1.575928330421448E-001;5.913907289505005E-002;2.259696833789349E-003;-3.197285986971110E-004;
2.400500000000000E+009;1.580078154802322E-001;5.725159123539925E-002;2.399640390649438E-003;-5.076294182799757E-004;
2.400666666666667E+009;1.576905399560928E-001;5.514994263648987E-002;2.361365361139178E-003;-5.933521315455437E-004;
2.400833333333334E+009;1.577286571264267E-001;5.322908982634544E-002;2.218139125034213E-003;-6.103082560002804E-004;
2.401000000000000E+009;1.578334867954254E-001;5.119435116648674E-002;2.441034419462085E-003;-7.199223036877811E-004;
2.401166666666667E+009;1.579056978225708E-001;4.911537468433380E-002;2.290195086970925E-003;-7.825081120245159E-004;
2.401333333333334E+009;1.580806672573090E-001;4.697423800826073E-002;2.113524824380875E-003;-9.551938856020570E-004;
2.401500000000000E+009;1.584297120571137E-001;4.495564848184586E-002;2.034949837252498E-003;-1.060404581949115E-003;
2.401666666666667E+009;1.586530804634094E-001;4.314243048429489E-002;1.955303829163313E-003;-1.182851614430547E-003;
2.401833333333334E+009;1.591156572103500E-001;4.078067466616631E-002;1.765171648003161E-003;-1.327887061052024E-003;
2.402000000000000E+009;1.593243032693863E-001;3.887988254427910E-002;1.605395576916635E-003;-1.395071274600923E-003;
2.402166666666667E+009;1.598941087722778E-001;3.672572225332260E-002;1.458844984881580E-003;-1.473421114496887E-003;
2.402333333333334E+009;1.605073064565659E-001;3.494672849774361E-002;1.583400997333229E-003;-1.515202224254608E-003;
2.402500000000000E+009;1.612496674060822E-001;3.312877565622330E-002;1.375273335725069E-003;-1.531086629256606E-003;
2.402666666666667E+009;1.617431044578552E-001;3.137303143739700E-002;1.123205991461873E-003;-1.489003770984709E-003;
2.402833333333334E+009;1.626707166433334E-001;2.973741479218006E-002;1.041273004375398E-003;-1.632282743230462E-003;
2.403000000000000E+009;1.634716242551804E-001;2.817513793706894E-002;9.805988520383835E-004;-1.623610034584999E-003;
2.403166666666667E+009;1.642905473709106E-001;2.645354531705380E-002;8.186885970644653E-004;-1.740047475323081E-003;
2.403333333333334E+009;1.652159988880158E-001;2.498585171997547E-002;6.514560664072633E-004;-1.485138083808124E-003;
2.403500000000000E+009;1.660299748182297E-001;2.350099757313728E-002;4.393951967358589E-004;-1.460354775190353E-003;
2.403666666666667E+009;1.671285033226013E-001;2.203025110065937E-002;3.481517196632922E-004;-1.449054805561900E-003;
2.403833333333334E+009;1.680743247270584E-001;2.064594812691212E-002;5.625936682918109E-005;-1.373629434965551E-003;
2.404000000000000E+009;1.691407114267349E-001;1.955390721559525E-002;7.839625322958455E-005;-1.524233026430011E-003;
2.404166666666667E+009;1.700529158115387E-001;1.854668743908405E-002;-1.542619247629773E-005;-1.375416642986238E-003;
2.404333333333334E+009;1.710579842329025E-001;1.743125729262829E-002;-7.219619146781042E-005;-1.294486224651337E-003;
2.404500000000000E+009;1.718470901250839E-001;1.635734178125858E-002;-3.601587377488613E-004;-8.864314877428114E-004;
2.404666666666667E+009;1.731570512056351E-001;1.566518843173981E-002;-2.466605510562658E-004;-1.059443806298077E-003;
2.404833333333334E+009;1.738718897104263E-001;1.479411218315363E-002;-2.903598651755601E-004;-8.874977356754243E-004;
2.405000000000000E+009;1.748074889183044E-001;1.425882708281279E-002;-3.143236681353301E-004;-7.646173471584916E-004;
2.405166666666667E+009;1.756840497255325E-001;1.340548135340214E-002;-3.798525431193411E-004;-6.203827215358615E-004;
2.405333333333334E+009;1.765860021114349E-001;1.281895488500595E-002;-6.236105691641569E-004;-5.746881361119449E-004;
2.405500000000000E+009;1.773075908422470E-001;1.245695911347866E-002;-4.179291136097163E-004;-5.190920201130211E-004;
2.405666666666667E+009;1.779119074344635E-001;1.199570670723915E-002;-4.862000059802085E-004;-3.900582960341126E-004;
2.405833333333334E+009;1.785123348236084E-001;1.156718470156193E-002;-5.544316954910755E-004;-2.544758317526430E-004;
2.406000000000000E+009;1.791468560695648E-001;1.104918122291565E-002;-4.075584001839161E-004;-2.636173740029335E-004;
2.406166666666667E+009;1.795247346162796E-001;1.096192002296448E-002;-3.973896382376552E-004;3.401552021387033E-005;
2.406333333333334E+009;1.801783144474030E-001;1.048188004642725E-002;-4.057803889736533E-004;5.491216597874882E-006;
2.406500000000000E+009;1.804414987564087E-001;1.021051779389381E-002;-1.840367040131241E-004;2.164892357541248E-004;
2.406666666666667E+009;1.805490106344223E-001;1.004900783300400E-002;-2.181308809667826E-004;2.324760280316696E-004;
2.406833333333334E+009;1.808332204818726E-001;9.570329450070858E-003;-4.163777339272201E-004;3.441678418312222E-004;
2.407000000000000E+009;1.810766011476517E-001;9.307094849646092E-003;-2.031078038271517E-004;3.686895943246782E-004;
2.407166666666667E+009;1.811665445566177E-001;9.069154039025307E-003;-9.811269410420209E-005;4.061791114509106E-004;
2.407333333333334E+009;1.809029579162598E-001;8.536096662282944E-003;-1.454951416235417E-004;4.820096073672175E-004;
2.407500000000000E+009;1.807325482368469E-001;8.185631595551968E-003;1.056601395248435E-004;6.655479664914310E-004;
2.407666666666667E+009;1.805015355348587E-001;7.774281315505505E-003;1.539124350529164E-004;5.494517972692847E-004;
2.407833333333334E+009;1.801211684942246E-001;7.113623432815075E-003;2.237774169771001E-004;6.162846111692488E-004;
2.408000000000000E+009;1.797911971807480E-001;6.507779937237501E-003;3.213534073438495E-004;6.092340918257833E-004;
2.408166666666667E+009;1.794609874486923E-001;5.972201470285654E-003;4.148099687881768E-004;6.295151542872191E-004;
2.408333333333334E+009;1.790443956851959E-001;5.136207211762667E-003;3.915808629244566E-004;4.946595872752369E-004;
2.408500000000000E+009;1.783717423677445E-001;4.245819989591837E-003;5.268444074317813E-004;6.907754577696323E-004;
2.408666666666667E+009;1.778535991907120E-001;3.430016571655870E-003;7.303628372028470E-004;4.503715899772942E-004;
2.408833333333334E+009;1.770942509174347E-001;2.408517757430673E-003;8.003749535419047E-004;4.251494247000665E-004;
2.409000000000000E+009;1.762477755546570E-001;1.530498266220093E-003;7.279941928572953E-004;5.560378776863217E-004;
2.409166666666667E+009;1.757645159959793E-001;4.204431315883994E-004;7.819280726835132E-004;3.663711540866643E-004;
2.409333333333334E+009;1.751454472541809E-001;-7.678450201638043E-004;8.439831435680389E-004;5.642352625727654E-004;
2.409500000000000E+009;1.743367910385132E-001;-2.204331103712320E-003;1.023482531309128E-003;3.848586347885430E-004;
2.409666666666667E+009;1.736464202404022E-001;-3.466737689450383E-003;1.050637685693800E-003;3.104928182438016E-004;
2.409833333333334E+009;1.729137152433395E-001;-4.827018361538649E-003;1.244846498593688E-003;5.207246285863221E-004;
2.410000000000000E+009;1.722579896450043E-001;-6.205189507454634E-003;1.117416075430811E-003;3.960623580496758E-004;
2.410166666666667E+009;1.716991215944290E-001;-7.867249660193920E-003;1.173610449768603E-003;2.933892246801406E-004;
2.410333333333334E+009;1.709967106580734E-001;-9.423535317182541E-003;1.286885235458612E-003;2.260360197396949E-004;
2.410500000000000E+009;1.705489009618759E-001;-1.119954884052277E-002;1.331054838374257E-003;2.683429738681298E-005;
2.410666666666667E+009;1.698030680418015E-001;-1.315569877624512E-002;1.212401315569878E-003;7.640874537173659E-005;
2.410833333333334E+009;1.694182902574539E-001;-1.475858129560947E-002;1.334394793957472E-003;4.768103826791048E-005;
2.411000000000000E+009;1.690135896205902E-001;-1.670236140489578E-002;1.313055283389986E-003;-2.131311703124084E-005;
2.411166666666667E+009;1.684899926185608E-001;-1.859459653496742E-002;1.258666045032442E-003;-1.246984029421583E-004;
2.411333333333334E+009;1.683570295572281E-001;-2.053263597190380E-002;1.430760486982763E-003;-2.595935948193073E-004;
2.411500000000000E+009;1.681400239467621E-001;-2.249554544687271E-002;1.220977981574833E-003;-3.426079929340631E-004;
2.411666666666667E+009;1.680195480585098E-001;-2.447403781116009E-002;1.232495415024459E-003;-2.783822128549218E-004;
2.411833333333334E+009;1.679296046495438E-001;-2.639511786401272E-002;1.279380638152361E-003;-3.812600334640592E-004;
2.412000000000000E+009;1.680295914411545E-001;-2.844972163438797E-002;1.206749817356467E-003;-4.601889231707901E-004;
2.412166666666667E+009;1.681603491306305E-001;-3.037785366177559E-002;1.124350121244788E-003;-5.561547004617751E-004;
2.412333333333334E+009;1.683901250362396E-001;-3.208810091018677E-002;1.114916638471186E-003;-5.676934379152954E-004;
2.412500000000000E+009;1.683120727539063E-001;-3.408242762088776E-002;1.164235640317202E-003;-4.820947069674730E-004;
2.412666666666667E+009;1.688227653503418E-001;-3.617609664797783E-002;1.135337282903493E-003;-6.436045514419675E-004;
2.412833333333334E+009;1.690412610769272E-001;-3.799872472882271E-002;1.202941872179508E-003;-7.400659960694611E-004;
2.413000000000000E+009;1.694354861974716E-001;-3.984665498137474E-002;1.043727388605475E-003;-7.303475867956877E-004;
2.413166666666667E+009;1.697809696197510E-001;-4.137570410966873E-002;1.118177548050880E-003;-7.583649130538106E-004;
2.413333333333334E+009;1.702401340007782E-001;-4.313496127724648E-002;1.074601546861231E-003;-7.052339497022331E-004;
2.413500000000000E+009;1.708638221025467E-001;-4.475368931889534E-002;1.040879637002945E-003;-7.166672730818391E-004;
2.413666666666667E+009;1.714028865098953E-001;-4.645265266299248E-002;1.017230446450412E-003;-8.360150386579335E-004;
2.413833333333334E+009;1.719871014356613E-001;-4.783954471349716E-002;1.071968115866184E-003;-9.137840825133026E-004;
2.414000000000000E+009;1.724930107593536E-001;-4.933989420533180E-002;9.852315997704864E-004;-8.269350510090590E-004;
2.414166666666667E+009;1.731001883745194E-001;-5.063557624816895E-002;9.669875726103783E-004;-8.976644021458924E-004;
2.414333333333334E+009;1.735364198684692E-001;-5.185254290699959E-002;1.115049468353391E-003;-1.009590108878911E-003;
2.414500000000000E+009;1.741895377635956E-001;-5.291943624615669E-002;8.827495621517301E-004;-1.114920596592128E-003;
2.414666666666667E+009;1.746720969676971E-001;-5.394367501139641E-002;1.019455376081169E-003;-1.077210064977408E-003;
2.414833333333334E+009;1.749889701604843E-001;-5.507599562406540E-002;1.067335484549403E-003;-1.052791718393564E-003;
2.415000000000000E+009;1.756202876567841E-001;-5.588081851601601E-002;9.474892867729068E-004;-1.151619595475495E-003;
2.415166666666667E+009;1.760708391666412E-001;-5.657892674207687E-002;9.361851261928678E-004;-1.304515870288014E-003;
2.415333333333334E+009;1.764141768217087E-001;-5.744669958949089E-002;7.696033571846783E-004;-1.211448921822012E-003;
2.415500000000000E+009;1.767980754375458E-001;-5.797162652015686E-002;9.906805353239179E-004;-1.236870302818716E-003;
2.415666666666667E+009;1.770769804716110E-001;-5.851744860410690E-002;9.206497343257070E-004;-1.379349967464805E-003;
2.415833333333334E+009;1.773835122585297E-001;-5.900553613901138E-002;8.879853994585574E-004;-1.347357523627579E-003;
2.416000000000000E+009;1.774050444364548E-001;-5.936906114220619E-002;9.161080815829337E-004;-1.442744513042271E-003;
2.416166666666667E+009;1.776298433542252E-001;-5.986903235316277E-002;8.339319610968232E-004;-1.557981828227639E-003;
2.416333333333334E+009;1.776216626167297E-001;-6.001581996679306E-002;8.706740336492658E-004;-1.436924096196890E-003;
2.416500000000000E+009;1.774704456329346E-001;-6.046703830361366E-002;7.598771480843425E-004;-1.393075799569488E-003;
2.416666666666667E+009;1.772346794605255E-001;-6.057898700237274E-002;6.730860332027078E-004;-1.523931859992445E-003;
2.416833333333334E+009;1.770899891853333E-001;-6.102782487869263E-002;6.433177622966468E-004;-1.620435388758779E-003;
2.417000000000000E+009;1.766155064105988E-001;-6.125235185027123E-002;6.832121289335191E-004;-1.617101836018264E-003;
2.417166666666667E+009;1.762189865112305E-001;-6.122064217925072E-002;4.889932461082935E-004;-1.693200902082026E-003;
2.417333333333334E+009;1.758821755647659E-001;-6.146918237209320E-002;4.953781026415527E-004;-1.713115023449063E-003;
2.417500000000000E+009;1.750945150852203E-001;-6.180993095040321E-002;4.578661464620382E-004;-1.865806290879846E-003;
2.417666666666667E+009;1.745881289243698E-001;-6.184441968798637E-002;2.878044615499675E-004;-1.782603678293526E-003;
2.417833333333334E+009;1.736613661050797E-001;-6.202944368124008E-002;3.942076000384986E-004;-1.815453520976007E-003;
2.418000000000000E+009;1.727029681205750E-001;-6.256489455699921E-002;2.551766228862107E-004;-1.909830258227885E-003;
2.418166666666667E+009;1.719139665365219E-001;-6.274109333753586E-002;2.180856827180833E-004;-1.852186978794634E-003;
2.418333333333334E+009;1.710672676563263E-001;-6.310438364744186E-002;3.802756546065211E-004;-1.911506056785584E-003;
2.418500000000000E+009;1.698830723762512E-001;-6.354051828384399E-002;2.225314092356712E-004;-1.962255453690887E-003;
2.418666666666667E+009;1.687732487916946E-001;-6.399434059858322E-002;1.224331936100498E-004;-1.864563208073378E-003;
2.418833333333334E+009;1.677452176809311E-001;-6.453067064285278E-002;1.706057810224593E-004;-2.030982635915279E-003;
2.419000000000000E+009;1.664333790540695E-001;-6.508179754018784E-002;4.197636371827684E-005;-1.923857373185456E-003;
2.419166666666667E+009;1.653539985418320E-001;-6.582472473382950E-002;-1.217051540152170E-004;-2.027200534939766E-003;
2.419333333333334E+009;1.639993786811829E-001;-6.624487787485123E-002;-9.662397133070044E-006;-2.023592824116349E-003;
2.419500000000000E+009;1.628201156854630E-001;-6.739455461502075E-002;-2.083634753944352E-004;-2.032685792073607E-003;
2.419666666666667E+009;1.616895049810410E-001;-6.831775605678558E-002;-2.690842666197568E-004;-1.991142751649022E-003;
2.419833333333334E+009;1.605008244514465E-001;-6.902904808521271E-002;-2.982868172693998E-004;-2.050330163910985E-003;
2.420000000000000E+009;1.593859493732452E-001;-7.014286518096924E-002;-4.999788361601532E-004;-2.066634362563491E-003;
2.420166666666667E+009;1.583697348833084E-001;-7.124752551317215E-002;-4.056508478242904E-004;-2.227211371064186E-003;
2.420333333333334E+009;1.572863906621933E-001;-7.250221818685532E-002;-5.509646725840867E-004;-2.135730348527432E-003;
2.420500000000000E+009;1.563394069671631E-001;-7.365580648183823E-002;-5.761622451245785E-004;-2.022161381319165E-003;
2.420666666666667E+009;1.552073210477829E-001;-7.492153346538544E-002;-7.482458022423089E-004;-2.285695867612958E-003;
2.420833333333334E+009;1.542616188526154E-001;-7.639408111572266E-002;-7.243354339152575E-004;-2.128836931660771E-003;
2.421000000000000E+009;1.533674597740173E-001;-7.779403775930405E-002;-8.299350156448782E-004;-2.138940850272775E-003;
2.421166666666667E+009;1.526769399642944E-001;-7.913739979267120E-002;-9.965458884835243E-004;-2.148242434486747E-003;
2.421333333333334E+009;1.520019471645355E-001;-8.087319135665894E-002;-1.084274030290544E-003;-2.108742715790868E-003;
2.421500000000000E+009;1.513485312461853E-001;-8.231901377439499E-002;-1.331673003733158E-003;-2.150531392544508E-003;
2.421666666666667E+009;1.508880108594894E-001;-8.396339416503906E-002;-1.362002221867442E-003;-2.105854451656342E-003;
2.421833333333334E+009;1.504674851894379E-001;-8.570755273103714E-002;-1.345320953987539E-003;-2.038460457697511E-003;
2.422000000000000E+009;1.500553041696549E-001;-8.735031634569168E-002;-1.514637609943748E-003;-2.062743529677391E-003;
2.422166666666667E+009;1.496004611253738E-001;-8.932662010192871E-002;-1.578415394760668E-003;-1.910020597279072E-003;
2.422333333333334E+009;1.497625708580017E-001;-9.091033786535263E-002;-1.808744855225086E-003;-1.961518311873078E-003;
2.422500000000000E+009;1.493811458349228E-001;-9.249593317508698E-002;-1.685315044596791E-003;-1.734039746224880E-003;
2.422666666666667E+009;1.492783874273300E-001;-9.429033100605011E-002;-2.012392971664667E-003;-1.794569659978151E-003;
2.422833333333334E+009;1.494154930114746E-001;-9.603683650493622E-002;-2.178844995796681E-003;-1.535188988782466E-003;
2.423000000000000E+009;1.496358811855316E-001;-9.757153689861298E-002;-2.112484071403742E-003;-1.447323011234403E-003;
2.423166666666667E+009;1.498684734106064E-001;-9.943931549787521E-002;-2.208360936492682E-003;-1.357428263872862E-003;
2.423333333333334E+009;1.501370370388031E-001;-1.009210646152496E-001;-2.377555705606937E-003;-1.252335263416171E-003;
2.423500000000000E+009;1.503817439079285E-001;-1.025628224015236E-001;-2.451377222314477E-003;-1.177102676592767E-003;
2.423666666666667E+009;1.506282240152359E-001;-1.040569767355919E-001;-2.238935790956020E-003;-7.735369727015495E-004;
2.423833333333334E+009;1.512566655874252E-001;-1.056303605437279E-001;-2.600856358185411E-003;-7.612583576701582E-004;
2.424000000000000E+009;1.515574157238007E-001;-1.067486181855202E-001;-2.503471914678812E-003;-6.525389617308974E-004;
2.424166666666667E+009;1.518681794404984E-001;-1.081575676798821E-001;-2.357335994020104E-003;-4.804279888048768E-004;
2.424333333333334E+009;1.524139940738678E-001;-1.093264743685722E-001;-2.576592378318310E-003;-3.899779112543911E-004;
2.424500000000000E+009;1.529807299375534E-001;-1.105699390172958E-001;-2.492088591679931E-003;-4.302556917537004E-004;
2.424666666666667E+009;1.535535305738449E-001;-1.115460321307182E-001;-2.480961149558425E-003;-1.008436374831945E-004;
2.424833333333334E+009;1.537867486476898E-001;-1.126568242907524E-001;-2.516691805794835E-003;5.785945540992543E-005;
2.425000000000000E+009;1.543464660644531E-001;-1.134993731975555E-001;-2.366196596994996E-003;-3.016330447280780E-005;
2.425166666666667E+009;1.546370238065720E-001;-1.144797727465630E-001;-2.360541373491287E-003;2.290533011546359E-004;
2.425333333333334E+009;1.550528258085251E-001;-1.151157841086388E-001;-2.478691050782800E-003;2.225110074505210E-004;
2.425500000000000E+009;1.555607467889786E-001;-1.158663928508759E-001;-2.178465481847525E-003;5.341187352314591E-004;
2.425666666666667E+009;1.556732803583145E-001;-1.164468824863434E-001;-2.259044675156474E-003;4.953905008733273E-004;
2.425833333333334E+009;1.560660898685455E-001;-1.169413924217224E-001;-2.119942102581263E-003;7.025689701549709E-004;
2.426000000000000E+009;1.561094820499420E-001;-1.175298392772675E-001;-2.112739486619830E-003;6.698206416331232E-004;
2.426166666666667E+009;1.564917415380478E-001;-1.178556233644486E-001;-2.025912050157785E-003;7.220699917525053E-004;
2.426333333333334E+009;1.565308570861816E-001;-1.182173341512680E-001;-1.942670904099941E-003;7.919173804111779E-004;
2.426500000000000E+009;1.565760523080826E-001;-1.183515265583992E-001;-1.738805440254509E-003;7.424903451465070E-004;
2.426666666666667E+009;1.565882563591003E-001;-1.186189800500870E-001;-1.847553998231888E-003;8.202890167012811E-004;
2.426833333333334E+009;1.562318950891495E-001;-1.187823712825775E-001;-1.632518833503127E-003;9.160510380752385E-004;
2.427000000000000E+009;1.559821963310242E-001;-1.189806312322617E-001;-1.477956539019942E-003;8.141768048517406E-004;
2.427166666666667E+009;1.556902676820755E-001;-1.190482079982758E-001;-1.350346370600164E-003;9.267790010198951E-004;
2.427333333333334E+009;1.551278978586197E-001;-1.192139387130737E-001;-1.414521713741124E-003;8.139996207319200E-004;
2.427500000000000E+009;1.546888351440430E-001;-1.191993728280067E-001;-1.132451812736690E-003;7.992906612344086E-004;
2.427666666666667E+009;1.540271788835526E-001;-1.192395165562630E-001;-1.330913859419525E-003;1.019414048641920E-003;
