# Version 1.00
#
freq[Hz];re:Trc1_S11;im:Trc1_S11;re:Trc2_S21;im:Trc2_S21;
2.400000000000000E+009;1.553634852170944E-001;1.108723357319832E-001;-3.166371257975698E-003;-1.082241535186768E-003;
2.400166666666667E+009;1.548427939414978E-001;1.085889115929604E-001;-3.222956554964185E-003;-9.744219714775682E-004;
2.400333333333334E+009;1.546542346477509E-001;1.063395068049431E-001;-3.236606018617749E-003;-8.333900477737188E-004;
2.400500000000000E+009;1.541694700717926E-001;1.038072109222412E-001;-3.292697248980403E-003;-6.701981183141470E-004;
2.400666666666667E+009;1.540887355804443E-001;1.012980639934540E-001;-3.439099062234163E-003;-6.410812493413687E-004;
2.400833333333334E+009;1.537408083677292E-001;9.843596071004868E-002;-3.325260942801833E-003;-4.928718553856015E-004;
2.401000000000000E+009;1.538031548261643E-001;9.551952779293060E-002;-3.437977284193039E-003;-3.337460802868009E-004;
2.401166666666667E+009;1.534844189882278E-001;9.282633662223816E-002;-3.490039147436619E-003;-2.086688182316721E-004;
2.401333333333334E+009;1.537257134914398E-001;8.991210162639618E-002;-3.343554912135005E-003;1.906235120259225E-004;
2.401500000000000E+009;1.538863778114319E-001;8.677254617214203E-002;-3.376905806362629E-003;1.279817952308804E-004;
2.401666666666667E+009;1.539643257856369E-001;8.373209834098816E-002;-3.482779022306204E-003;1.290496147703379E-004;
2.401833333333334E+009;1.545543223619461E-001;8.085282891988754E-002;-3.396660555154085E-003;4.653605865314603E-004;
2.402000000000000E+009;1.551494747400284E-001;7.780522853136063E-002;-3.181197680532932E-003;5.191019736230373E-004;
2.402166666666667E+009;1.555168330669403E-001;7.512202858924866E-002;-3.103733528405428E-003;5.591405788436532E-004;
2.402333333333334E+009;1.564651131629944E-001;7.214681804180145E-002;-2.990977372974157E-003;7.227489259094000E-004;
2.402500000000000E+009;1.574645936489105E-001;6.953018158674240E-002;-3.001671284437180E-003;7.903820951469243E-004;
2.402666666666667E+009;1.584832966327667E-001;6.678272038698196E-002;-2.826897660270333E-003;8.486552396789193E-004;
2.402833333333334E+009;1.598635911941528E-001;6.404369324445725E-002;-2.698607742786408E-003;1.050112303346396E-003;
2.403000000000000E+009;1.612416803836823E-001;6.149356812238693E-002;-2.593501238152385E-003;9.328245650976896E-004;
2.403166666666667E+009;1.631324589252472E-001;5.903064087033272E-002;-2.413327107205987E-003;8.059779065661132E-004;
2.403333333333334E+009;1.645611971616745E-001;5.666087195277214E-002;-2.454798435792327E-003;7.061877986416221E-004;
2.403500000000000E+009;1.662600487470627E-001;5.419427901506424E-002;-2.278936095535755E-003;8.335710735991597E-004;
2.403666666666667E+009;1.680090874433518E-001;5.211456865072250E-002;-2.384742023423314E-003;6.778669776394963E-004;
2.403833333333334E+009;1.696487069129944E-001;4.985940083861351E-002;-2.385501516982913E-003;5.565029568970203E-004;
2.404000000000000E+009;1.714627891778946E-001;4.794591665267944E-002;-2.453450812026858E-003;5.336762988008559E-004;
2.404166666666667E+009;1.732767224311829E-001;4.619193449616432E-002;-2.526007825508714E-003;4.798709414899349E-004;
2.404333333333334E+009;1.751134097576141E-001;4.448982328176498E-002;-2.683899598196149E-003;3.714547783602029E-004;
2.404500000000000E+009;1.768027842044830E-001;4.279684275388718E-002;-2.626391593366861E-003;3.584900114219636E-004;
2.404666666666667E+009;1.788363307714462E-001;4.173566773533821E-002;-2.874376252293587E-003;5.570191424340010E-004;
2.404833333333334E+009;1.806188374757767E-001;4.041322320699692E-002;-3.071641083806753E-003;6.977024604566395E-004;
2.405000000000000E+009;1.822072565555573E-001;3.973495215177536E-002;-3.057199995964766E-003;9.507398353889585E-004;
2.405166666666667E+009;1.839250922203064E-001;3.880685567855835E-002;-3.329601371660829E-003;1.073644845746458E-003;
2.405333333333334E+009;1.855586618185043E-001;3.832199424505234E-002;-3.109756158664823E-003;1.229623914696276E-003;
2.405500000000000E+009;1.870860606431961E-001;3.768711164593697E-002;-3.219019621610642E-003;1.478306949138641E-003;
2.405666666666667E+009;1.886302232742310E-001;3.735511004924774E-002;-3.241353435441852E-003;1.546265208162367E-003;
2.405833333333334E+009;1.900671273469925E-001;3.710355237126350E-002;-3.279537195339799E-003;1.742463326081634E-003;
2.406000000000000E+009;1.913467645645142E-001;3.703121095895767E-002;-3.060652874410152E-003;1.841123448684812E-003;
2.406166666666667E+009;1.927590370178223E-001;3.699111938476563E-002;-3.013721201568842E-003;2.009653951972723E-003;
2.406333333333334E+009;1.940807253122330E-001;3.712901845574379E-002;-2.926189452409744E-003;2.043563639745116E-003;
2.406500000000000E+009;1.948705911636353E-001;3.733216598629952E-002;-3.058254951611161E-003;2.128036227077246E-003;
2.406666666666667E+009;1.957594156265259E-001;3.740892559289932E-002;-2.856316976249218E-003;2.258345950394869E-003;
2.406833333333334E+009;1.965833306312561E-001;3.765081986784935E-002;-2.901526866480708E-003;2.434246707707644E-003;
2.407000000000000E+009;1.970784962177277E-001;3.811738640069962E-002;-2.758751390501857E-003;2.407403197139502E-003;
2.407166666666667E+009;1.976682990789414E-001;3.812579438090324E-002;-2.787139965221286E-003;2.436280250549316E-003;
2.407333333333334E+009;1.977873593568802E-001;3.865294903516769E-002;-2.846342045813799E-003;2.591738943010569E-003;
2.407500000000000E+009;1.979700177907944E-001;3.904192894697189E-002;-2.839828142896295E-003;2.752082655206323E-003;
2.407666666666667E+009;1.980009227991104E-001;3.927009552717209E-002;-2.857212442904711E-003;2.794964239001274E-003;
2.407833333333334E+009;1.976372003555298E-001;3.948179259896278E-002;-2.879213076084852E-003;3.021026728674769E-003;
2.408000000000000E+009;1.976679414510727E-001;3.974014893174171E-002;-2.875722013413906E-003;3.151304088532925E-003;
2.408166666666667E+009;1.971078664064407E-001;3.974709287285805E-002;-2.829788951203227E-003;3.349513281136751E-003;
2.408333333333334E+009;1.967368125915527E-001;3.956124559044838E-002;-2.728777471929789E-003;3.471058560535312E-003;
2.408500000000000E+009;1.962179392576218E-001;3.969964757561684E-002;-2.567159477621317E-003;3.692264202982187E-003;
2.408666666666667E+009;1.955437064170837E-001;3.939404711127281E-002;-2.556448103860021E-003;3.982041031122208E-003;
2.408833333333334E+009;1.948079764842987E-001;3.907764330506325E-002;-2.443531062453985E-003;4.088039975613356E-003;
2.409000000000000E+009;1.937334835529327E-001;3.844847530126572E-002;-2.262852853164077E-003;4.337129648774862E-003;
2.409166666666667E+009;1.928256899118424E-001;3.781982138752937E-002;-1.991929253563285E-003;4.458473064005375E-003;
2.409333333333334E+009;1.918516457080841E-001;3.721114620566368E-002;-1.842202269472182E-003;4.687995184212923E-003;
2.409500000000000E+009;1.907040774822235E-001;3.614617511630058E-002;-1.671772450208664E-003;4.772035405039787E-003;
2.409666666666667E+009;1.896251142024994E-001;3.512101620435715E-002;-1.408857991918922E-003;4.988278262317181E-003;
2.409833333333334E+009;1.883328109979630E-001;3.374272584915161E-002;-1.223487081006169E-003;5.118042230606079E-003;
2.410000000000000E+009;1.871442794799805E-001;3.239690139889717E-002;-9.670496801845729E-004;5.133857950568199E-003;
2.410166666666667E+009;1.859141439199448E-001;3.070168569684029E-002;-7.266558241099119E-004;5.201943684369326E-003;
2.410333333333334E+009;1.847095489501953E-001;2.906631119549274E-002;-4.744772450067103E-004;5.112215876579285E-003;
2.410500000000000E+009;1.834824532270432E-001;2.723365277051926E-002;-8.585969771957025E-005;5.231448914855719E-003;
2.410666666666667E+009;1.822889447212219E-001;2.521062828600407E-002;1.624481519684196E-004;5.129166413098574E-003;
2.410833333333334E+009;1.814228147268295E-001;2.294416725635529E-002;3.619237686507404E-004;5.159324966371059E-003;
2.411000000000000E+009;1.804668903350830E-001;2.084059081971645E-002;5.163199384696782E-004;5.219194106757641E-003;
2.411166666666667E+009;1.795835793018341E-001;1.866815052926540E-002;7.529146969318390E-004;5.294146481901407E-003;
2.411333333333334E+009;1.787933856248856E-001;1.617359183728695E-002;1.117990934289992E-003;5.098598077893257E-003;
2.411500000000000E+009;1.781617701053619E-001;1.377849094569683E-002;1.261774799786508E-003;5.093475803732872E-003;
2.411666666666667E+009;1.778762340545654E-001;1.138119492679834E-002;1.436885446310043E-003;4.982938989996910E-003;
2.411833333333334E+009;1.771662384271622E-001;8.889872580766678E-003;1.676732907071710E-003;5.018934141844511E-003;
2.412000000000000E+009;1.771153956651688E-001;6.121297366917133E-003;2.000029664486647E-003;4.895347170531750E-003;
2.412166666666667E+009;1.769602298736572E-001;3.590683219954372E-003;2.147226128727198E-003;4.894928075373173E-003;
2.412333333333334E+009;1.771562099456787E-001;1.029110862873495E-003;2.385270083323121E-003;4.716933239251375E-003;
2.412500000000000E+009;1.774625480175018E-001;-1.525863772258163E-003;2.559510292485356E-003;4.560128785669804E-003;
2.412666666666667E+009;1.778530329465866E-001;-4.248665180057287E-003;2.745328005403280E-003;4.548423457890749E-003;
2.412833333333334E+009;1.785170733928680E-001;-6.912232376635075E-003;2.950877882540226E-003;4.363455343991518E-003;
2.413000000000000E+009;1.790543645620346E-001;-9.451902471482754E-003;3.386698197573423E-003;4.165043123066425E-003;
2.413166666666667E+009;1.798283308744431E-001;-1.197203341871500E-002;3.609958803281188E-003;4.072819836437702E-003;
2.413333333333334E+009;1.809107810258865E-001;-1.444095559418201E-002;3.894874593243003E-003;3.775241784751415E-003;
2.413500000000000E+009;1.818039119243622E-001;-1.711108349263668E-002;4.025817848742008E-003;3.541324986144900E-003;
2.413666666666667E+009;1.831618100404739E-001;-1.951297558844090E-002;4.183455836027861E-003;3.029725747182965E-003;
2.413833333333334E+009;1.841251999139786E-001;-2.176222391426563E-002;4.265911411494017E-003;2.640610560774803E-003;
2.414000000000000E+009;1.851445883512497E-001;-2.390703186392784E-002;4.487090278416872E-003;2.573432866483927E-003;
2.414166666666667E+009;1.866700649261475E-001;-2.587117627263069E-002;4.464571364223957E-003;2.290438162162900E-003;
2.414333333333334E+009;1.879182010889053E-001;-2.819256298244000E-002;4.447688348591328E-003;1.965043600648642E-003;
2.414500000000000E+009;1.894507855176926E-001;-2.987211570143700E-002;4.356907214969397E-003;1.457174192182720E-003;
2.414666666666667E+009;1.906963586807251E-001;-3.160637989640236E-002;4.319129511713982E-003;1.242731465026736E-003;
2.414833333333334E+009;1.920694112777710E-001;-3.315050154924393E-002;4.070149268954992E-003;1.104007125832140E-003;
2.415000000000000E+009;1.933900713920593E-001;-3.463765233755112E-002;4.042717162519693E-003;8.941614651121199E-004;
2.415166666666667E+009;1.948789507150650E-001;-3.587477281689644E-002;3.961445763707161E-003;7.874086732044816E-004;
2.415333333333334E+009;1.964008808135986E-001;-3.706764802336693E-002;3.838858800008893E-003;5.353654269129038E-004;
2.415500000000000E+009;1.976732313632965E-001;-3.781653195619583E-002;3.836498362943530E-003;3.494529519230127E-004;
2.415666666666667E+009;1.991706490516663E-001;-3.892206400632858E-002;3.788047237321734E-003;2.570341166574508E-004;
2.415833333333334E+009;2.002591937780380E-001;-3.956687450408936E-002;3.670262871310115E-003;4.836659718421288E-005;
2.416000000000000E+009;2.014145255088806E-001;-4.023629799485207E-002;3.441565204411745E-003;5.751947537646629E-005;
2.416166666666667E+009;2.024425715208054E-001;-4.093232378363609E-002;3.439217340201140E-003;-2.247012889711186E-004;
2.416333333333334E+009;2.033026218414307E-001;-4.118130356073380E-002;3.128445707261562E-003;-1.692055957391858E-004;
2.416500000000000E+009;2.041645646095276E-001;-4.145221039652824E-002;3.026700578629971E-003;-3.343699208926410E-004;
2.416666666666667E+009;2.047863453626633E-001;-4.176206514239311E-002;2.776472596451640E-003;-3.855961549561471E-004;
2.416833333333334E+009;2.052099108695984E-001;-4.170302674174309E-002;2.679801080375910E-003;-5.247787339612842E-004;
2.417000000000000E+009;2.056479752063751E-001;-4.190817475318909E-002;2.565267030149698E-003;-5.218464066274464E-004;
2.417166666666667E+009;2.055917233228684E-001;-4.176582023501396E-002;2.483087126165628E-003;-3.948571684304625E-004;
2.417333333333334E+009;2.057427912950516E-001;-4.149289056658745E-002;2.317726612091065E-003;-3.721597022376955E-004;
2.417500000000000E+009;2.056971937417984E-001;-4.146727174520493E-002;2.215941436588764E-003;-3.056649584323168E-004;
2.417666666666667E+009;2.053132802248001E-001;-4.096917062997818E-002;2.114449162036181E-003;-2.628824149724096E-004;
2.417833333333334E+009;2.051972895860672E-001;-4.064398631453514E-002;2.173668937757611E-003;-2.148899657186121E-004;
2.418000000000000E+009;2.047834843397141E-001;-4.025712236762047E-002;2.014984842389822E-003;6.944128472241573E-006;
2.418166666666667E+009;2.040361166000366E-001;-3.998103365302086E-002;2.108053304255009E-003;1.158588420366868E-004;
2.418333333333334E+009;2.033477723598480E-001;-3.964812681078911E-002;2.002058550715447E-003;7.538113277405500E-005;
2.418500000000000E+009;2.024941146373749E-001;-3.952576965093613E-002;2.110858913511038E-003;2.595576224848628E-004;
2.418666666666667E+009;2.016470432281494E-001;-3.922495618462563E-002;2.176110399886966E-003;2.697872987482697E-004;
2.418833333333334E+009;2.005499452352524E-001;-3.920837119221687E-002;2.228015568107367E-003;4.589373711496592E-004;
2.419000000000000E+009;1.992578357458115E-001;-3.926234692335129E-002;2.390949288383126E-003;3.290297754574567E-004;
2.419166666666667E+009;1.981344521045685E-001;-3.934921696782112E-002;2.492241794243455E-003;3.726662253029645E-004;
2.419333333333334E+009;1.965657025575638E-001;-3.964747488498688E-002;2.565043745562434E-003;5.182516179047525E-004;
2.419500000000000E+009;1.950318217277527E-001;-3.982702270150185E-002;2.572175813838840E-003;4.275526152923703E-004;
2.419666666666667E+009;1.933393180370331E-001;-4.044064506888390E-002;2.789356978610158E-003;3.684322873596102E-004;
2.419833333333334E+009;1.917544007301331E-001;-4.104670509696007E-002;2.784796291962266E-003;4.036238242406398E-004;
2.420000000000000E+009;1.900373548269272E-001;-4.177310317754746E-002;2.959932666271925E-003;3.842754231300205E-004;
2.420166666666667E+009;1.883399486541748E-001;-4.250814765691757E-002;3.178349230438471E-003;3.959322057198733E-004;
2.420333333333334E+009;1.864612102508545E-001;-4.358569905161858E-002;3.295579925179482E-003;2.203604672104120E-004;
2.420500000000000E+009;1.846431195735931E-001;-4.479444772005081E-002;3.373882267624140E-003;1.937474880833179E-004;
2.420666666666667E+009;1.828274726867676E-001;-4.583599045872688E-002;3.435069229453802E-003;-2.105429666698910E-005;
2.420833333333334E+009;1.809746474027634E-001;-4.733583331108093E-002;3.613288514316082E-003;-2.758262853603810E-004;
2.421000000000000E+009;1.793571561574936E-001;-4.884835705161095E-002;3.562178462743759E-003;-2.836050116457045E-004;
2.421166666666667E+009;1.776626557111740E-001;-5.042827501893044E-002;3.795797238126397E-003;-5.733076832257211E-004;
2.421333333333334E+009;1.757796555757523E-001;-5.208110436797142E-002;3.671488258987665E-003;-6.816008244641125E-004;
2.421500000000000E+009;1.741790473461151E-001;-5.403506010770798E-002;3.842707024887204E-003;-8.756252937018871E-004;
2.421666666666667E+009;1.726081967353821E-001;-5.604175105690956E-002;3.814829746261239E-003;-1.006764243356884E-003;
2.421833333333334E+009;1.713344603776932E-001;-5.780094861984253E-002;3.825296647846699E-003;-1.263225451111794E-003;
2.422000000000000E+009;1.699030995368958E-001;-5.981749296188355E-002;3.925007767975330E-003;-1.464994391426444E-003;
2.422166666666667E+009;1.688058823347092E-001;-6.217768415808678E-002;3.902298631146550E-003;-1.701738918200135E-003;
2.422333333333334E+009;1.675245016813278E-001;-6.428597122430801E-002;3.826022148132324E-003;-1.796964555978775E-003;
2.422500000000000E+009;1.667292565107346E-001;-6.635219603776932E-002;3.735243808478117E-003;-1.942096394486725E-003;
2.422666666666667E+009;1.659014374017716E-001;-6.855026632547379E-002;3.627727041020989E-003;-2.199186012148857E-003;
2.422833333333334E+009;1.652970165014267E-001;-7.093142718076706E-002;3.626754274591804E-003;-2.338177757337689E-003;
2.423000000000000E+009;1.645288914442062E-001;-7.331174612045288E-002;3.769854782149196E-003;-2.317537087947130E-003;
2.423166666666667E+009;1.640549153089523E-001;-7.554689049720764E-002;3.672793973237276E-003;-2.582880668342114E-003;
2.423333333333334E+009;1.637517362833023E-001;-7.778041809797287E-002;3.540112171322107E-003;-2.706232247874141E-003;
2.423500000000000E+009;1.635444164276123E-001;-7.978269457817078E-002;3.475362900644541E-003;-2.795767737552524E-003;
2.423666666666667E+009;1.634901314973831E-001;-8.200440555810928E-002;3.505542641505599E-003;-3.034519962966442E-003;
2.423833333333334E+009;1.633882671594620E-001;-8.400235325098038E-002;3.382897470146418E-003;-3.167987801134586E-003;
2.424000000000000E+009;1.634016335010529E-001;-8.616238087415695E-002;3.214816097170115E-003;-3.393029095605016E-003;
2.424166666666667E+009;1.636415570974350E-001;-8.791200816631317E-002;3.188010770827532E-003;-3.728257492184639E-003;
2.424333333333334E+009;1.638031750917435E-001;-8.971101790666580E-002;2.935378113761544E-003;-3.805994056165218E-003;
2.424500000000000E+009;1.642627716064453E-001;-9.178651869297028E-002;2.785361604765058E-003;-4.156842827796936E-003;
2.424666666666667E+009;1.645529121160507E-001;-9.328709542751312E-002;2.644694875925779E-003;-4.431050270795822E-003;
2.424833333333334E+009;1.651403009891510E-001;-9.490663558244705E-002;2.471013227477670E-003;-4.265881143510342E-003;
2.425000000000000E+009;1.656870394945145E-001;-9.625155478715897E-002;2.248493023216724E-003;-4.666736349463463E-003;
2.425166666666667E+009;1.661968231201172E-001;-9.775681793689728E-002;1.712855766527355E-003;-4.832243546843529E-003;
2.425333333333334E+009;1.666882634162903E-001;-9.879218041896820E-002;1.507414621300995E-003;-4.871205426752567E-003;
2.425500000000000E+009;1.672285497188568E-001;-9.984327107667923E-002;1.292791450396180E-003;-5.035400856286287E-003;
2.425666666666667E+009;1.678462475538254E-001;-1.008339971303940E-001;8.235440473072231E-004;-5.019273143261671E-003;
2.425833333333334E+009;1.683052927255631E-001;-1.018355414271355E-001;6.106334039941430E-004;-5.129671655595303E-003;
2.426000000000000E+009;1.689984202384949E-001;-1.023828089237213E-001;2.680873440112919E-004;-4.979574121534824E-003;
2.426166666666667E+009;1.695967316627502E-001;-1.030038297176361E-001;6.038939682184719E-005;-4.885936621576548E-003;
2.426333333333334E+009;1.698728799819946E-001;-1.036525145173073E-001;-3.003588644787669E-004;-4.827952478080988E-003;
2.426500000000000E+009;1.704496145248413E-001;-1.039250865578651E-001;-4.572726320475340E-004;-4.698605276644230E-003;
2.426666666666667E+009;1.709113717079163E-001;-1.043318808078766E-001;-5.876616341993213E-004;-4.577864427119494E-003;
2.426833333333334E+009;1.713905483484268E-001;-1.046004518866539E-001;-8.423432009294629E-004;-4.395768046379089E-003;
2.427000000000000E+009;1.715023219585419E-001;-1.047224476933479E-001;-8.418050711043179E-004;-4.221908748149872E-003;
2.427166666666667E+009;1.718543618917465E-001;-1.048007309436798E-001;-9.399501141160727E-004;-4.104342311620712E-003;
2.427333333333334E+009;1.718690991401672E-001;-1.049908027052879E-001;-1.169203897006810E-003;-4.081982187926769E-003;
2.427500000000000E+009;1.719171106815338E-001;-1.050891578197479E-001;-1.369493547827005E-003;-3.911882638931274E-003;
2.427666666666667E+009;1.718513220548630E-001;-1.050723046064377E-001;-1.279547461308539E-003;-3.827871056273580E-003;
2.427833333333334E+009;1.715870946645737E-001;-1.050595045089722E-001;-1.573311281390488E-003;-3.828822867944837E-003;
