# Version 1.00
#
freq[Hz];re:Trc1_S11;im:Trc1_S11;re:Trc2_S21;im:Trc2_S21;
2.400000000000000E+009;1.557291895151138E-001;1.109696179628372E-001;-3.015685826539993E-003;-1.200031023472548E-003;
2.400166666666667E+009;1.550671607255936E-001;1.086987182497978E-001;-3.209666814655066E-003;-1.026726909913123E-003;
2.400333333333334E+009;1.548990160226822E-001;1.062895283102989E-001;-3.357724053785205E-003;-9.438535198569298E-004;
2.400500000000000E+009;1.545514166355133E-001;1.035709083080292E-001;-3.276113420724869E-003;-8.217488066293299E-004;
2.400666666666667E+009;1.543941944837570E-001;1.011458635330200E-001;-3.369998419657350E-003;-5.285138613544405E-004;
2.400833333333334E+009;1.539932787418366E-001;9.836783260107040E-002;-3.489603986963630E-003;-5.136608961038292E-004;
2.401000000000000E+009;1.540296673774719E-001;9.544633328914642E-002;-3.490133909508586E-003;-3.551436529960483E-004;
2.401166666666667E+009;1.539230197668076E-001;9.263465553522110E-002;-3.354567801579833E-003;-1.880241761682555E-004;
2.401333333333334E+009;1.538383811712265E-001;8.964422345161438E-002;-3.561905818060041E-003;-4.747322236653417E-005;
2.401500000000000E+009;1.541310101747513E-001;8.667121082544327E-002;-3.539134515449405E-003;1.413050486007705E-004;
2.401666666666667E+009;1.543226540088654E-001;8.353925496339798E-002;-3.363139694556594E-003;1.718401763355359E-004;
2.401833333333334E+009;1.546313464641571E-001;8.063793182373047E-002;-3.386568278074265E-003;4.978913348168135E-004;
2.402000000000000E+009;1.551175713539124E-001;7.766165584325790E-002;-3.354095155373216E-003;5.045109428465366E-004;
2.402166666666667E+009;1.557855457067490E-001;7.503861188888550E-002;-3.171672113239765E-003;6.587554235011339E-004;
2.402333333333334E+009;1.565621793270111E-001;7.196065783500671E-002;-3.109603188931942E-003;7.360273739323020E-004;
2.402500000000000E+009;1.577148735523224E-001;6.916570663452148E-002;-3.058654256165028E-003;7.622202974744141E-004;
2.402666666666667E+009;1.586224287748337E-001;6.658810377120972E-002;-2.963143633678556E-003;8.697638404555619E-004;
2.402833333333334E+009;1.598163396120071E-001;6.388575583696365E-002;-2.801979426294565E-003;9.421517606824637E-004;
2.403000000000000E+009;1.613502353429794E-001;6.125695258378983E-002;-2.696113660931587E-003;8.943176362663508E-004;
2.403166666666667E+009;1.629801988601685E-001;5.884768813848496E-002;-2.562105888500810E-003;1.041346928104758E-003;
2.403333333333334E+009;1.643065810203552E-001;5.663961917161942E-002;-2.440461656078696E-003;9.392712381668389E-004;
2.403500000000000E+009;1.660359948873520E-001;5.402420833706856E-002;-2.343744505196810E-003;7.267557084560394E-004;
2.403666666666667E+009;1.679732203483582E-001;5.188531801104546E-002;-2.437966642901301E-003;8.985386812128127E-004;
2.403833333333334E+009;1.696289479732513E-001;4.985044524073601E-002;-2.484014257788658E-003;6.491920212283731E-004;
2.404000000000000E+009;1.712884604930878E-001;4.769212752580643E-002;-2.414676360785961E-003;5.590513464994729E-004;
2.404166666666667E+009;1.733204871416092E-001;4.606089368462563E-002;-2.664644038304687E-003;4.570907040033490E-004;
2.404333333333334E+009;1.751184463500977E-001;4.422279447317123E-002;-2.698850817978382E-003;4.445477970875800E-004;
2.404500000000000E+009;1.768117845058441E-001;4.266656562685967E-002;-2.853573998436332E-003;6.883638561703265E-004;
2.404666666666667E+009;1.786871701478958E-001;4.140738025307655E-002;-2.749798819422722E-003;5.913099739700556E-004;
2.404833333333334E+009;1.805353462696075E-001;4.026372358202934E-002;-3.012319561094046E-003;6.687766872346401E-004;
2.405000000000000E+009;1.820312738418579E-001;3.956985101103783E-002;-3.222235245630145E-003;9.676256449893117E-004;
2.405166666666667E+009;1.837622076272965E-001;3.861936554312706E-002;-3.261550795286894E-003;1.075866282917559E-003;
2.405333333333334E+009;1.854081153869629E-001;3.814578056335449E-002;-3.299898467957974E-003;1.297769951634109E-003;
2.405500000000000E+009;1.869760453701019E-001;3.759391605854034E-002;-3.422687295824289E-003;1.403497066348791E-003;
2.405666666666667E+009;1.885629445314407E-001;3.720916062593460E-002;-3.220088779926300E-003;1.700846361927688E-003;
2.405833333333334E+009;1.901661008596420E-001;3.703540563583374E-002;-3.126852679997683E-003;1.732907607220113E-003;
2.406000000000000E+009;1.913194805383682E-001;3.697511181235313E-002;-3.081890055909753E-003;1.922095660120249E-003;
2.406166666666667E+009;1.926629692316055E-001;3.668371215462685E-002;-2.937467768788338E-003;2.025610534474254E-003;
2.406333333333334E+009;1.937931925058365E-001;3.695708140730858E-002;-3.133720019832254E-003;2.164509147405624E-003;
2.406500000000000E+009;1.949038803577423E-001;3.704406693577766E-002;-2.997969742864370E-003;2.226891228929162E-003;
2.406666666666667E+009;1.955571174621582E-001;3.722083941102028E-002;-2.972996793687344E-003;2.118131844326854E-003;
2.406833333333334E+009;1.965064108371735E-001;3.755544871091843E-002;-2.843069145455957E-003;2.330227289348841E-003;
2.407000000000000E+009;1.969349980354309E-001;3.787896409630776E-002;-2.813977655023336E-003;2.393855014815927E-003;
2.407166666666667E+009;1.975349634885788E-001;3.812401741743088E-002;-2.781526418402791E-003;2.474995795637369E-003;
2.407333333333334E+009;1.976138353347778E-001;3.863776847720146E-002;-2.931223483756185E-003;2.574363257735968E-003;
2.407500000000000E+009;1.977813094854355E-001;3.892621770501137E-002;-2.641218947246671E-003;2.626650966703892E-003;
2.407666666666667E+009;1.978909671306610E-001;3.910177201032639E-002;-2.785908523947001E-003;2.910533221438527E-003;
2.407833333333334E+009;1.975368708372116E-001;3.935558348894119E-002;-2.794923260807991E-003;3.119930857792497E-003;
2.408000000000000E+009;1.975580900907517E-001;3.958289325237274E-002;-2.762100659310818E-003;3.221743740141392E-003;
2.408166666666667E+009;1.971729248762131E-001;3.956291079521179E-002;-2.746588317677379E-003;3.332036314532161E-003;
2.408333333333334E+009;1.967013329267502E-001;3.946940973401070E-002;-2.711054636165500E-003;3.651762614026666E-003;
2.408500000000000E+009;1.960581243038178E-001;3.947729989886284E-002;-2.688264707103372E-003;3.767170477658510E-003;
2.408666666666667E+009;1.954547762870789E-001;3.926940634846687E-002;-2.479086397215724E-003;4.080595914274454E-003;
2.408833333333334E+009;1.947415620088577E-001;3.906095400452614E-002;-2.464226447045803E-003;4.113446455448866E-003;
2.409000000000000E+009;1.938272863626480E-001;3.835581243038178E-002;-2.142800251021981E-003;4.408852197229862E-003;
2.409166666666667E+009;1.927091628313065E-001;3.778717666864395E-002;-2.049085684120655E-003;4.533388186246157E-003;
2.409333333333334E+009;1.918132454156876E-001;3.707861155271530E-002;-1.845387159846723E-003;4.768156446516514E-003;
2.409500000000000E+009;1.905106157064438E-001;3.611020371317864E-002;-1.524043269455433E-003;4.831513855606318E-003;
2.409666666666667E+009;1.894529461860657E-001;3.504451736807823E-002;-1.320363022387028E-003;5.080492235720158E-003;
2.409833333333334E+009;1.881985962390900E-001;3.372557088732719E-002;-9.842548752203584E-004;5.141487810760737E-003;
2.410000000000000E+009;1.870291680097580E-001;3.231548890471458E-002;-8.967940811999142E-004;5.239888560026884E-003;
2.410166666666667E+009;1.858970820903778E-001;3.066954202950001E-002;-7.107548299245536E-004;5.141260568052530E-003;
2.410333333333334E+009;1.846779137849808E-001;2.900914475321770E-002;-4.693480150308460E-004;5.351820494979620E-003;
2.410500000000000E+009;1.835070252418518E-001;2.734652906656265E-002;-1.078381974366494E-004;5.275043193250895E-003;
2.410666666666667E+009;1.822922974824905E-001;2.519779466092587E-002;1.636495435377583E-004;5.309303756803274E-003;
2.410833333333334E+009;1.814012229442596E-001;2.301853522658348E-002;3.826043393928558E-004;5.246018525213003E-003;
2.411000000000000E+009;1.804428696632385E-001;2.090297825634480E-002;5.365139222703874E-004;5.275580100715160E-003;
2.411166666666667E+009;1.794631928205490E-001;1.879066415131092E-002;8.513111388310790E-004;5.198027472943068E-003;
2.411333333333334E+009;1.787277013063431E-001;1.613518036901951E-002;9.686987032182515E-004;5.262957885861397E-003;
2.411500000000000E+009;1.782439798116684E-001;1.372808590531349E-002;1.224161940626800E-003;5.113896913826466E-003;
2.411666666666667E+009;1.776493787765503E-001;1.136206462979317E-002;1.493768766522408E-003;5.032830405980349E-003;
2.411833333333334E+009;1.770676076412201E-001;8.949974551796913E-003;1.667878939770162E-003;5.063085351139307E-003;
2.412000000000000E+009;1.771566271781921E-001;6.169673521071672E-003;1.875200774520636E-003;4.711202345788479E-003;
2.412166666666667E+009;1.771785914897919E-001;3.698147367686033E-003;2.057097619399428E-003;4.811914172023535E-003;
2.412333333333334E+009;1.770445853471756E-001;1.085387077182531E-003;2.413429087027907E-003;4.922484047710896E-003;
2.412500000000000E+009;1.775215864181519E-001;-1.635951455682516E-003;2.706243889406323E-003;4.771715961396694E-003;
2.412666666666667E+009;1.777315586805344E-001;-4.386673681437969E-003;2.982510719448328E-003;4.611675627529621E-003;
2.412833333333334E+009;1.783883720636368E-001;-6.818298250436783E-003;3.192097181454301E-003;4.551187157630920E-003;
2.413000000000000E+009;1.789652258157730E-001;-9.473608806729317E-003;3.369728103280067E-003;4.326330032199621E-003;
2.413166666666667E+009;1.796760857105255E-001;-1.182291377335787E-002;3.695821622386575E-003;4.095989745110273E-003;
2.413333333333334E+009;1.806869059801102E-001;-1.437939424067736E-002;3.899667644873262E-003;3.706649877130985E-003;
2.413500000000000E+009;1.816556155681610E-001;-1.698087900876999E-002;4.155425820499659E-003;3.615359310060740E-003;
2.413666666666667E+009;1.828921586275101E-001;-1.944892480969429E-002;4.341917578130961E-003;3.271630499511957E-003;
2.413833333333334E+009;1.840708702802658E-001;-2.170047536492348E-002;4.364918917417526E-003;2.921326318755746E-003;
2.414000000000000E+009;1.850876212120056E-001;-2.378892712295055E-002;4.437404684722424E-003;2.387102926149964E-003;
2.414166666666667E+009;1.866642981767654E-001;-2.593668922781944E-002;4.548005294054747E-003;2.125015715137124E-003;
2.414333333333334E+009;1.878643333911896E-001;-2.810008637607098E-002;4.433344118297100E-003;1.770435716025531E-003;
2.414500000000000E+009;1.892857253551483E-001;-2.985789626836777E-002;4.367809742689133E-003;1.516732037998736E-003;
2.414666666666667E+009;1.906912326812744E-001;-3.154576569795609E-002;4.299501888453960E-003;1.181344850920141E-003;
2.414833333333334E+009;1.919814497232437E-001;-3.307418152689934E-002;4.208159632980824E-003;1.072153216227889E-003;
2.415000000000000E+009;1.932689696550369E-001;-3.445085510611534E-002;4.218460060656071E-003;9.662573575042188E-004;
2.415166666666667E+009;1.947865039110184E-001;-3.575765714049339E-002;4.002243280410767E-003;6.731909816153348E-004;
2.415333333333334E+009;1.963356137275696E-001;-3.698435053229332E-002;3.837698604911566E-003;6.041940068826079E-004;
2.415500000000000E+009;1.976842582225800E-001;-3.788122534751892E-002;3.682889509946108E-003;3.554563445504755E-004;
2.415666666666667E+009;1.990571916103363E-001;-3.879785165190697E-002;3.648727899417281E-003;2.507815079297870E-004;
2.415833333333334E+009;2.001312673091888E-001;-3.956888988614082E-002;3.630731720477343E-003;7.416272273985669E-005;
2.416000000000000E+009;2.012165933847427E-001;-4.025842994451523E-002;3.555021015927196E-003;-6.617171311518177E-005;
2.416166666666667E+009;2.024154663085938E-001;-4.085605219006538E-002;3.361516399309039E-003;-9.865011816145852E-005;
2.416333333333334E+009;2.032621055841446E-001;-4.115485772490501E-002;3.323810407891870E-003;-3.208886773791164E-004;
2.416500000000000E+009;2.042015492916107E-001;-4.144163429737091E-002;3.077966859564185E-003;-3.356018569320440E-004;
2.416666666666667E+009;2.046388089656830E-001;-4.182222485542297E-002;3.075644373893738E-003;-5.253119743429124E-004;
2.416833333333334E+009;2.051436901092529E-001;-4.182424023747444E-002;2.797310706228018E-003;-3.955368883907795E-004;
2.417000000000000E+009;2.055831253528595E-001;-4.189852625131607E-002;2.624986693263054E-003;-5.586960469372571E-004;
2.417166666666667E+009;2.054480463266373E-001;-4.175257682800293E-002;2.423330908641219E-003;-5.038531962782145E-004;
2.417333333333334E+009;2.055969536304474E-001;-4.152346029877663E-002;2.183580538257957E-003;-4.870738775935024E-004;
2.417500000000000E+009;2.056351900100708E-001;-4.134659096598625E-002;2.246506744995713E-003;-2.645715139806271E-004;
2.417666666666667E+009;2.053145766258240E-001;-4.097141325473785E-002;2.193644409999251E-003;-2.577286504674703E-004;
2.417833333333334E+009;2.052481919527054E-001;-4.069919884204865E-002;2.059812424704433E-003;-1.797216536942869E-004;
2.418000000000000E+009;2.046879827976227E-001;-4.022246599197388E-002;2.079945290461183E-003;-2.134572423528880E-005;
2.418166666666667E+009;2.039542645215988E-001;-4.002990201115608E-002;2.118511591106653E-003;-1.439448969904333E-004;
2.418333333333334E+009;2.033174932003021E-001;-3.960175067186356E-002;2.089756075292826E-003;4.769921724800952E-005;
2.418500000000000E+009;2.023645192384720E-001;-3.949191793799400E-002;2.173304790630937E-003;1.413710415363312E-004;
2.418666666666667E+009;2.016102522611618E-001;-3.926378488540649E-002;2.204880351200700E-003;1.447997492505238E-004;
2.418833333333334E+009;2.003753036260605E-001;-3.920487314462662E-002;2.307593589648604E-003;2.457413065712899E-004;
2.419000000000000E+009;1.991580128669739E-001;-3.929594159126282E-002;2.423041732981801E-003;3.987586242146790E-004;
2.419166666666667E+009;1.977809071540833E-001;-3.932385146617889E-002;2.523794304579496E-003;3.005189937539399E-004;
2.419333333333334E+009;1.964783072471619E-001;-3.969315439462662E-002;2.418451476842165E-003;3.682371461763978E-004;
2.419500000000000E+009;1.949158906936646E-001;-3.986181318759918E-002;2.600269159302115E-003;4.031166899949312E-004;
2.419666666666667E+009;1.931991875171661E-001;-4.047456011176109E-002;2.832363825291395E-003;2.715940645430237E-004;
2.419833333333334E+009;1.914795637130737E-001;-4.099339991807938E-002;2.890126314014196E-003;3.072964027523994E-004;
2.420000000000000E+009;1.897361874580383E-001;-4.189454391598702E-002;3.065611701458693E-003;1.157649385277182E-004;
2.420166666666667E+009;1.880064457654953E-001;-4.258093237876892E-002;3.142531728371978E-003;2.741551434155554E-004;
2.420333333333334E+009;1.861986368894577E-001;-4.345953837037087E-002;3.161857137456536E-003;7.884018123149872E-005;
2.420500000000000E+009;1.844832450151444E-001;-4.480466246604919E-002;3.298874478787184E-003;-5.374035026761703E-005;
2.420666666666667E+009;1.826453804969788E-001;-4.587102681398392E-002;3.422664245590568E-003;-1.601937838131562E-004;
2.420833333333334E+009;1.808584183454514E-001;-4.738385975360870E-002;3.565547289326787E-003;-2.803739334922284E-004;
2.421000000000000E+009;1.791319996118546E-001;-4.874433204531670E-002;3.618845948949456E-003;-5.148935015313327E-004;
2.421166666666667E+009;1.775505244731903E-001;-5.052371695637703E-002;3.690858604386449E-003;-5.913121858611703E-004;
2.421333333333334E+009;1.755331754684448E-001;-5.188235640525818E-002;3.790767164900899E-003;-7.185071590356529E-004;
2.421500000000000E+009;1.741451621055603E-001;-5.408854782581329E-002;3.888903884217143E-003;-9.259355138055980E-004;
2.421666666666667E+009;1.725388318300247E-001;-5.588608980178833E-002;3.752194112166762E-003;-1.086473814211786E-003;
2.421833333333334E+009;1.710742413997650E-001;-5.787830427289009E-002;3.860558615997434E-003;-1.345413504168391E-003;
2.422000000000000E+009;1.696879714727402E-001;-5.975205078721046E-002;3.930150531232357E-003;-1.437268103472889E-003;
2.422166666666667E+009;1.686324030160904E-001;-6.214851140975952E-002;3.742778673768044E-003;-1.765978173352778E-003;
2.422333333333334E+009;1.674871891736984E-001;-6.415143609046936E-002;3.738492028787732E-003;-1.819962519221008E-003;
2.422500000000000E+009;1.663737595081329E-001;-6.628618389368057E-002;3.610134823247790E-003;-1.954108476638794E-003;
2.422666666666667E+009;1.655877381563187E-001;-6.853403896093369E-002;3.636780194938183E-003;-2.168357837945223E-003;
2.422833333333334E+009;1.651389747858048E-001;-7.086992263793945E-002;3.594880690798163E-003;-2.343037864193320E-003;
2.423000000000000E+009;1.643524616956711E-001;-7.308733463287354E-002;3.566643455997109E-003;-2.404461847618222E-003;
2.423166666666667E+009;1.638485938310623E-001;-7.526606321334839E-002;3.453577402979136E-003;-2.520531648769975E-003;
2.423333333333334E+009;1.636504083871841E-001;-7.745101302862167E-002;3.398709464818239E-003;-2.712806919589639E-003;
2.423500000000000E+009;1.633069217205048E-001;-7.960554212331772E-002;3.316613612696528E-003;-2.908051013946533E-003;
2.423666666666667E+009;1.633085161447525E-001;-8.181139826774597E-002;3.283086465671659E-003;-3.103814786300063E-003;
2.423833333333334E+009;1.632562726736069E-001;-8.371453732252121E-002;3.143830457702279E-003;-3.223204053938389E-003;
2.424000000000000E+009;1.633697003126144E-001;-8.586382120847702E-002;3.108807839453220E-003;-3.423510817810893E-003;
2.424166666666667E+009;1.633577346801758E-001;-8.771307766437531E-002;3.039212897419930E-003;-3.659176640212536E-003;
2.424333333333334E+009;1.638624668121338E-001;-8.953288197517395E-002;2.850434277206659E-003;-3.909475635737181E-003;
2.424500000000000E+009;1.641491651535034E-001;-9.151599556207657E-002;2.758708084002137E-003;-4.038498271256685E-003;
2.424666666666667E+009;1.645448654890060E-001;-9.300332516431809E-002;2.575436607003212E-003;-4.219549242407084E-003;
2.424833333333334E+009;1.651467382907867E-001;-9.461802244186401E-002;2.163664670661092E-003;-4.656069446355104E-003;
2.425000000000000E+009;1.655522584915161E-001;-9.606151282787323E-002;1.933852210640907E-003;-4.716462455689907E-003;
2.425166666666667E+009;1.662270873785019E-001;-9.733478724956513E-002;1.801135716959834E-003;-4.774056375026703E-003;
2.425333333333334E+009;1.666305810213089E-001;-9.840397536754608E-002;1.486361608840525E-003;-4.859242588281632E-003;
2.425500000000000E+009;1.672419607639313E-001;-9.967999905347824E-002;1.065571559593082E-003;-4.892676137387753E-003;
2.425666666666667E+009;1.677763611078262E-001;-1.004902198910713E-001;9.045327315106988E-004;-4.998728167265654E-003;
2.425833333333334E+009;1.683079749345779E-001;-1.015302240848541E-001;5.849568988196552E-004;-4.971907474100590E-003;
2.426000000000000E+009;1.689518988132477E-001;-1.021147966384888E-001;4.014078294858336E-004;-4.991212859749794E-003;
2.426166666666667E+009;1.694962829351425E-001;-1.027312502264977E-001;8.479971143060539E-007;-4.919080529361963E-003;
2.426333333333334E+009;1.698767840862274E-001;-1.033709794282913E-001;-1.938776404131204E-004;-4.710152279585600E-003;
2.426500000000000E+009;1.704739928245544E-001;-1.036721765995026E-001;-5.831189337186515E-004;-4.629672504961491E-003;
2.426666666666667E+009;1.708736121654511E-001;-1.040035709738731E-001;-5.896499496884644E-004;-4.396662581712008E-003;
2.426833333333334E+009;1.713788956403732E-001;-1.042957305908203E-001;-8.255356806330383E-004;-4.231685306876898E-003;
2.427000000000000E+009;1.716491281986237E-001;-1.044694781303406E-001;-1.023168792016804E-003;-4.315834492444992E-003;
2.427166666666667E+009;1.719480007886887E-001;-1.045151203870773E-001;-1.089307246729732E-003;-4.164173733443022E-003;
2.427333333333334E+009;1.720289438962936E-001;-1.046451255679131E-001;-1.224821084178984E-003;-4.036722704768181E-003;
2.427500000000000E+009;1.720153391361237E-001;-1.047841534018517E-001;-1.367331482470036E-003;-3.864730708301067E-003;
2.427666666666667E+009;1.719856411218643E-001;-1.047712564468384E-001;-1.381602720357478E-003;-3.900969633832574E-003;
2.427833333333334E+009;1.717911064624786E-001;-1.047094985842705E-001;-1.526171108707786E-003;-3.747130511328578E-003;
