# Version 1.00
#
freq[Hz];re:Trc1_S11;im:Trc1_S11;re:Trc2_S21;im:Trc2_S21;
2.400000000000000E+009;1.555869132280350E-001;1.109850257635117E-001;-3.135160310193896E-003;-1.189768430776894E-003;
2.400166666666667E+009;1.550356745719910E-001;1.086422502994537E-001;-3.246071515604854E-003;-9.335231152363122E-004;
2.400333333333334E+009;1.547795087099075E-001;1.065141111612320E-001;-3.226849483326078E-003;-8.698945748619735E-004;
2.400500000000000E+009;1.543844044208527E-001;1.037510037422180E-001;-3.299485892057419E-003;-8.276758599095047E-004;
2.400666666666667E+009;1.542663276195526E-001;1.013625934720039E-001;-3.417654894292355E-003;-4.667169705498964E-004;
2.400833333333334E+009;1.538581401109695E-001;9.845360368490219E-002;-3.437496954575181E-003;-4.673748917412013E-004;
2.401000000000000E+009;1.540076136589050E-001;9.564032405614853E-002;-3.475428558886051E-003;-3.118784807156771E-004;
2.401166666666667E+009;1.539644300937653E-001;9.275660663843155E-002;-3.409577766433358E-003;-1.759040460456163E-004;
2.401333333333334E+009;1.537891179323196E-001;8.981312066316605E-002;-3.420285414904356E-003;-1.928325218614191E-005;
2.401500000000000E+009;1.541642695665360E-001;8.675780147314072E-002;-3.521205391734839E-003;1.240174751728773E-004;
2.401666666666667E+009;1.542635709047318E-001;8.376135677099228E-002;-3.398418659344316E-003;2.919373218901455E-004;
2.401833333333334E+009;1.545206308364868E-001;8.083356171846390E-002;-3.365166950970888E-003;3.788367030210793E-004;
2.402000000000000E+009;1.553360968828201E-001;7.791709154844284E-002;-3.302942030131817E-003;4.524309188127518E-004;
2.402166666666667E+009;1.558587849140167E-001;7.504595816135407E-002;-3.259025979787111E-003;6.443521706387401E-004;
2.402333333333334E+009;1.567029207944870E-001;7.213964313268662E-002;-3.146738279610872E-003;7.497902843169868E-004;
2.402500000000000E+009;1.577090322971344E-001;6.950417906045914E-002;-2.922751707956195E-003;8.870163001120091E-004;
2.402666666666667E+009;1.586533486843109E-001;6.676761060953140E-002;-2.796813379973173E-003;7.707104086875916E-004;
2.402833333333334E+009;1.600942760705948E-001;6.417179107666016E-002;-2.684078644961119E-003;9.847286855801940E-004;
2.403000000000000E+009;1.615837365388870E-001;6.154883652925491E-002;-2.608506940305233E-003;8.362976950593293E-004;
2.403166666666667E+009;1.630198210477829E-001;5.897860974073410E-002;-2.638316480442882E-003;9.248817805200815E-004;
2.403333333333334E+009;1.645122766494751E-001;5.657170340418816E-002;-2.471587853506208E-003;8.651762036606669E-004;
2.403500000000000E+009;1.663306355476379E-001;5.424008890986443E-002;-2.214063657447696E-003;8.806110126897693E-004;
2.403666666666667E+009;1.681417077779770E-001;5.201277509331703E-002;-2.439389238134027E-003;8.520949049852788E-004;
2.403833333333334E+009;1.698251366615295E-001;4.988283663988113E-002;-2.318666083738208E-003;6.048906361684203E-004;
2.404000000000000E+009;1.713885515928268E-001;4.785506427288055E-002;-2.337631769478321E-003;5.955547094345093E-004;
2.404166666666667E+009;1.734760105609894E-001;4.616392031311989E-002;-2.481352770701051E-003;6.015254184603691E-004;
2.404333333333334E+009;1.751753240823746E-001;4.435282200574875E-002;-2.657361095771194E-003;5.898118251934648E-004;
2.404500000000000E+009;1.768638938665390E-001;4.287111386656761E-002;-2.896506106480956E-003;4.209907201584429E-004;
2.404666666666667E+009;1.789731532335281E-001;4.158738255500794E-002;-2.952534006908536E-003;7.094077882356942E-004;
2.404833333333334E+009;1.807322055101395E-001;4.040163010358810E-002;-3.028698964044452E-003;6.862507434561849E-004;
2.405000000000000E+009;1.822521984577179E-001;3.962032124400139E-002;-3.105819690972567E-003;9.948202641680837E-004;
2.405166666666667E+009;1.838817000389099E-001;3.872777894139290E-002;-3.304251236841083E-003;1.053518499247730E-003;
2.405333333333334E+009;1.855200976133347E-001;3.817769512534142E-002;-3.204796230420470E-003;1.420029788278043E-003;
2.405500000000000E+009;1.871907562017441E-001;3.776936233043671E-002;-3.336517838761210E-003;1.450145267881453E-003;
2.405666666666667E+009;1.886915415525436E-001;3.736894577741623E-002;-3.327665384858847E-003;1.567643950693309E-003;
2.405833333333334E+009;1.903259009122849E-001;3.712236508727074E-002;-3.180145286023617E-003;1.779195154085755E-003;
2.406000000000000E+009;1.914876848459244E-001;3.705084323883057E-002;-3.083201590925455E-003;1.909940852783620E-003;
2.406166666666667E+009;1.928359866142273E-001;3.696213290095329E-002;-3.047869773581624E-003;2.203428652137518E-003;
2.406333333333334E+009;1.938938051462174E-001;3.705762699246407E-002;-3.061722964048386E-003;2.118057804182172E-003;
2.406500000000000E+009;1.948591023683548E-001;3.729182854294777E-002;-2.893940545618534E-003;2.179818227887154E-003;
2.406666666666667E+009;1.957617849111557E-001;3.740521892905235E-002;-2.850355114787817E-003;2.074778079986572E-003;
2.406833333333334E+009;1.964665055274963E-001;3.751578927040100E-002;-2.845023293048143E-003;2.488318830728531E-003;
2.407000000000000E+009;1.969591975212097E-001;3.812244534492493E-002;-2.837969921529293E-003;2.441286109387875E-003;
2.407166666666667E+009;1.975716352462769E-001;3.813432902097702E-002;-2.880887128412724E-003;2.458405215293169E-003;
2.407333333333334E+009;1.976964026689529E-001;3.850884735584259E-002;-2.816725056618452E-003;2.589500043541193E-003;
2.407500000000000E+009;1.978655010461807E-001;3.903895989060402E-002;-2.844865899533033E-003;2.700663637369871E-003;
2.407666666666667E+009;1.980191767215729E-001;3.923170268535614E-002;-2.939701778814197E-003;2.851732075214386E-003;
2.407833333333334E+009;1.976567059755325E-001;3.943981230258942E-002;-2.785433549433947E-003;3.094062674790621E-003;
2.408000000000000E+009;1.976865828037262E-001;3.960998356342316E-002;-2.812965307384729E-003;3.127758158370853E-003;
2.408166666666667E+009;1.972200721502304E-001;3.962371870875359E-002;-2.721127122640610E-003;3.337519243359566E-003;
2.408333333333334E+009;1.967117339372635E-001;3.945519775152206E-002;-2.738424343988299E-003;3.944588359445334E-003;
2.408500000000000E+009;1.960472911596298E-001;3.985288366675377E-002;-2.560514258220792E-003;3.199448110535741E-003;
2.408666666666667E+009;1.957279592752457E-001;3.921418637037277E-002;-2.994364826008678E-003;4.045745823532343E-003;
2.408833333333334E+009;1.949691921472549E-001;3.890046104788780E-002;-2.834409475326538E-003;4.181158263236284E-003;
2.409000000000000E+009;1.939755976200104E-001;3.869542852044106E-002;-2.127961721271277E-003;3.715253667905927E-003;
2.409166666666667E+009;1.927051991224289E-001;3.786131739616394E-002;-1.732980017550290E-003;4.570371471345425E-003;
2.409333333333334E+009;1.915996670722961E-001;3.729181364178658E-002;-1.473112846724689E-003;4.656452219933271E-003;
2.409500000000000E+009;1.904284805059433E-001;3.608189523220062E-002;-1.368775963783264E-003;4.785910248756409E-003;
2.409666666666667E+009;1.894068866968155E-001;3.475321084260941E-002;-1.560549135319889E-003;5.123316310346127E-003;
2.409833333333334E+009;1.882524490356445E-001;3.356466814875603E-002;-1.397503307089210E-003;5.370100960135460E-003;
2.410000000000000E+009;1.870393604040146E-001;3.246985748410225E-002;-9.808877948671579E-004;5.129927769303322E-003;
2.410166666666667E+009;1.859252303838730E-001;3.078609146177769E-002;-6.705968407914043E-004;5.192486569285393E-003;
2.410333333333334E+009;1.846005767583847E-001;2.910349518060684E-002;-3.413319645915180E-004;5.254367366433144E-003;
2.410500000000000E+009;1.835205107927322E-001;2.728037722408772E-002;-1.280240394407883E-004;5.147888325154781E-003;
2.410666666666667E+009;1.822538822889328E-001;2.518981136381626E-002;1.379183086100966E-004;5.164610221982002E-003;
2.410833333333334E+009;1.815494596958160E-001;2.298072911798954E-002;3.034338005818427E-004;5.276814103126526E-003;
2.411000000000000E+009;1.804706305265427E-001;2.080115489661694E-002;5.128839402459562E-004;5.323896184563637E-003;
2.411166666666667E+009;1.796380579471588E-001;1.879606954753399E-002;9.713226463645697E-004;5.138099193572998E-003;
2.411333333333334E+009;1.788571029901505E-001;1.615034602582455E-002;1.080952119082212E-003;5.039290059357882E-003;
2.411500000000000E+009;1.782484948635101E-001;1.384264416992664E-002;1.253607915714383E-003;5.076664499938488E-003;
2.411666666666667E+009;1.777346432209015E-001;1.133404392749071E-002;1.450355863198638E-003;4.874325823038817E-003;
2.411833333333334E+009;1.772359758615494E-001;8.976457640528679E-003;1.763115054927766E-003;5.090580321848393E-003;
2.412000000000000E+009;1.772859096527100E-001;6.172023713588715E-003;2.033691853284836E-003;4.948160145431757E-003;
2.412166666666667E+009;1.771482080221176E-001;3.798667341470718E-003;2.160161267966032E-003;4.849139135330916E-003;
2.412333333333334E+009;1.773546040058136E-001;9.282563114538789E-004;2.393408911302686E-003;4.674395080655813E-003;
2.412500000000000E+009;1.774564087390900E-001;-1.581125077791512E-003;2.550523029640317E-003;4.659248981624842E-003;
2.412666666666667E+009;1.777723133563995E-001;-4.244277719408274E-003;2.765384269878268E-003;4.539775196462870E-003;
2.412833333333334E+009;1.783276498317719E-001;-6.724976468831301E-003;3.135186387225986E-003;4.390791058540344E-003;
2.413000000000000E+009;1.791674494743347E-001;-9.519385173916817E-003;3.451324999332428E-003;4.300086293369532E-003;
2.413166666666667E+009;1.798031777143478E-001;-1.192287169396877E-002;3.579257288947702E-003;4.171456210315228E-003;
2.413333333333334E+009;1.809402406215668E-001;-1.448826584964991E-002;3.897777991369367E-003;3.810265101492405E-003;
2.413500000000000E+009;1.816693693399429E-001;-1.704319939017296E-002;4.141482524573803E-003;3.517715726047754E-003;
2.413666666666667E+009;1.830361485481262E-001;-1.942967996001244E-002;4.247535485774279E-003;3.218380734324455E-003;
2.413833333333334E+009;1.840454339981079E-001;-2.173969522118568E-002;4.397916141897440E-003;2.846671966835856E-003;
2.414000000000000E+009;1.852190494537354E-001;-2.389175258576870E-002;4.595930222421885E-003;2.502999035641551E-003;
2.414166666666667E+009;1.866540461778641E-001;-2.589241042733192E-002;4.386255051940680E-003;2.234844258055091E-003;
2.414333333333334E+009;1.879665553569794E-001;-2.814344502985477E-002;4.397489596158266E-003;1.930363127030432E-003;
2.414500000000000E+009;1.894354224205017E-001;-2.974015288054943E-002;4.391673486679792E-003;1.609537750482559E-003;
2.414666666666667E+009;1.908703446388245E-001;-3.153315559029579E-002;4.313508514314890E-003;1.305614714510739E-003;
2.414833333333334E+009;1.922110766172409E-001;-3.310760483145714E-002;4.305169451981783E-003;1.171947340480983E-003;
2.415000000000000E+009;1.934736520051956E-001;-3.464994579553604E-002;4.212490282952786E-003;8.073059143498540E-004;
2.415166666666667E+009;1.949802041053772E-001;-3.593242540955544E-002;3.947708290070295E-003;6.226011901162565E-004;
2.415333333333334E+009;1.964827775955200E-001;-3.694947063922882E-002;3.951818216592073E-003;5.891942419111729E-004;
2.415500000000000E+009;1.977418959140778E-001;-3.782029822468758E-002;3.759220242500305E-003;3.543354396242648E-004;
2.415666666666667E+009;1.991743892431259E-001;-3.897601366043091E-002;3.847819520160556E-003;2.073657669825479E-004;
2.415833333333334E+009;2.002495974302292E-001;-3.955350816249847E-002;3.635891014710069E-003;7.106966222636402E-006;
2.416000000000000E+009;2.013108432292938E-001;-4.021997749805450E-002;3.477452322840691E-003;7.433776045218110E-005;
2.416166666666667E+009;2.024315744638443E-001;-4.080853983759880E-002;3.436210565268993E-003;-1.836503506638110E-004;
2.416333333333334E+009;2.033138573169708E-001;-4.107884690165520E-002;3.251834306865931E-003;-2.426912833470851E-004;
2.416500000000000E+009;2.042064964771271E-001;-4.134179279208183E-002;3.151661949232221E-003;-3.223359526600689E-004;
2.416666666666667E+009;2.047419548034668E-001;-4.177205637097359E-002;2.975776325911284E-003;-3.751402546186000E-004;
2.416833333333334E+009;2.052733600139618E-001;-4.177019745111466E-002;2.625548746436834E-003;-5.013294285163283E-004;
2.417000000000000E+009;2.057272046804428E-001;-4.183987900614739E-002;2.552444580942392E-003;-5.398942739702761E-004;
2.417166666666667E+009;2.056560814380646E-001;-4.173954948782921E-002;2.479165326803923E-003;-3.292690671514720E-004;
2.417333333333334E+009;2.057080864906311E-001;-4.146083816885948E-002;2.454681089147925E-003;-3.755262878257781E-004;
2.417500000000000E+009;2.057335078716278E-001;-4.139200970530510E-002;2.196146408095956E-003;-3.269901790190488E-004;
2.417666666666667E+009;2.053643614053726E-001;-4.099963977932930E-002;2.130721695721149E-003;-2.094421506626532E-004;
2.417833333333334E+009;2.052889466285706E-001;-4.059199988842011E-002;2.103386446833611E-003;-9.097078873310238E-005;
2.418000000000000E+009;2.048514783382416E-001;-4.019819572567940E-002;2.129290951415896E-003;-1.097073472919874E-004;
2.418166666666667E+009;2.041929960250855E-001;-3.991639241576195E-002;2.160132396966219E-003;-4.056950274389237E-005;
2.418333333333334E+009;2.034999281167984E-001;-3.962497413158417E-002;2.171619096770883E-003;1.770414528436959E-004;
2.418500000000000E+009;2.025755047798157E-001;-3.943421319127083E-002;2.148685976862907E-003;3.961693437304348E-004;
2.418666666666667E+009;2.016342878341675E-001;-3.919730708003044E-002;2.218786394223571E-003;1.524033141322434E-004;
2.418833333333334E+009;2.005124986171722E-001;-3.925392031669617E-002;2.316845348104835E-003;1.418150932295248E-004;
2.419000000000000E+009;1.992751806974411E-001;-3.922547772526741E-002;2.359591424465179E-003;3.431332588661462E-004;
2.419166666666667E+009;1.980865001678467E-001;-3.936586901545525E-002;2.570807235315442E-003;3.664056712295860E-004;
2.419333333333334E+009;1.966695040464401E-001;-3.968770056962967E-002;2.670976798981428E-003;3.285378625150770E-004;
2.419500000000000E+009;1.949826478958130E-001;-3.973400592803955E-002;2.679321216419339E-003;3.037822607439011E-004;
2.419666666666667E+009;1.934480965137482E-001;-4.048041626811028E-002;2.769856480881572E-003;3.829748311545700E-004;
2.419833333333334E+009;1.917080283164978E-001;-4.088846594095230E-002;2.800539368763566E-003;3.559461620170623E-004;
2.420000000000000E+009;1.901091188192368E-001;-4.167387634515762E-002;2.972286660224199E-003;2.741084317676723E-004;
2.420166666666667E+009;1.881811618804932E-001;-4.255108535289764E-002;3.052070969715715E-003;1.389803073834628E-004;
2.420333333333334E+009;1.864017695188522E-001;-4.354362562298775E-002;3.279826836660504E-003;1.590644824318588E-004;
2.420500000000000E+009;1.846483945846558E-001;-4.489969462156296E-002;3.406445961445570E-003;-2.443213588776416E-006;
2.420666666666667E+009;1.827913075685501E-001;-4.575981944799423E-002;3.541508689522743E-003;-1.519224024377763E-004;
2.420833333333334E+009;1.809273064136505E-001;-4.736437648534775E-002;3.702234243974090E-003;-1.828064414439723E-004;
2.421000000000000E+009;1.791960448026657E-001;-4.882104694843292E-002;3.674948122352362E-003;-3.975585277657956E-004;
2.421166666666667E+009;1.776121854782105E-001;-5.046663433313370E-002;3.720054402947426E-003;-6.085927016101778E-004;
2.421333333333334E+009;1.756825894117355E-001;-5.200340598821640E-002;3.789221169427037E-003;-6.820835988037288E-004;
2.421500000000000E+009;1.742338389158249E-001;-5.406999588012695E-002;3.877517534419894E-003;-9.769774042069912E-004;
2.421666666666667E+009;1.727292537689209E-001;-5.591979250311852E-002;3.876552218571305E-003;-1.103973598219454E-003;
2.421833333333334E+009;1.714126467704773E-001;-5.786033347249031E-002;3.746628062799573E-003;-1.332552754320204E-003;
2.422000000000000E+009;1.699292957782745E-001;-5.986150726675987E-002;3.879778087139130E-003;-1.539990771561861E-003;
2.422166666666667E+009;1.689485311508179E-001;-6.216658279299736E-002;3.770325565710664E-003;-1.671453355811536E-003;
2.422333333333334E+009;1.676381081342697E-001;-6.431256234645844E-002;3.800265258178115E-003;-1.787198707461357E-003;
2.422500000000000E+009;1.667578369379044E-001;-6.639610230922699E-002;3.841833909973502E-003;-1.989587442949414E-003;
2.422666666666667E+009;1.658576726913452E-001;-6.879755109548569E-002;3.846711246296763E-003;-2.136891009286046E-003;
2.422833333333334E+009;1.652002334594727E-001;-7.097814232110977E-002;3.670662175863981E-003;-2.410335931926966E-003;
2.423000000000000E+009;1.645416170358658E-001;-7.321984320878983E-002;3.483282169327140E-003;-2.348472829908133E-003;
2.423166666666667E+009;1.640393137931824E-001;-7.539673894643784E-002;3.447081660851836E-003;-2.545869676396251E-003;
2.423333333333334E+009;1.636606007814407E-001;-7.767451554536820E-002;3.361598122864962E-003;-2.703574020415545E-003;
2.423500000000000E+009;1.636487394571304E-001;-7.975276559591293E-002;3.528908127918840E-003;-2.927209250628948E-003;
2.423666666666667E+009;1.634965837001801E-001;-8.199649304151535E-002;3.303822828456760E-003;-3.043790347874165E-003;
2.423833333333334E+009;1.633290052413940E-001;-8.406461030244827E-002;3.269590670242906E-003;-3.259987104684115E-003;
2.424000000000000E+009;1.635638475418091E-001;-8.620136976242065E-002;3.198911901563406E-003;-3.412969876080751E-003;
2.424166666666667E+009;1.636311411857605E-001;-8.800198137760162E-002;3.178613260388374E-003;-3.705446375533938E-003;
2.424333333333334E+009;1.638466715812683E-001;-8.972915261983872E-002;2.985366852954030E-003;-3.861380042508245E-003;
2.424500000000000E+009;1.641617566347122E-001;-9.173356741666794E-002;2.515358850359917E-003;-4.030099138617516E-003;
2.424666666666667E+009;1.646044850349426E-001;-9.329866617918015E-002;2.569877775385976E-003;-4.410278983414173E-003;
2.424833333333334E+009;1.654330193996429E-001;-9.475658833980560E-002;2.249877899885178E-003;-4.530728328973055E-003;
2.425000000000000E+009;1.657198220491409E-001;-9.618008136749268E-002;1.933722873218358E-003;-4.679546691477299E-003;
2.425166666666667E+009;1.662286669015884E-001;-9.756521135568619E-002;1.833770773373544E-003;-4.868548363447189E-003;
2.425333333333334E+009;1.667556762695313E-001;-9.869898110628128E-002;1.508933724835515E-003;-5.038578063249588E-003;
2.425500000000000E+009;1.673748493194580E-001;-9.996397048234940E-002;1.185883069410920E-003;-4.957333207130432E-003;
2.425666666666667E+009;1.678441315889359E-001;-1.007239222526550E-001;8.883427362889051E-004;-4.868395160883665E-003;
2.425833333333334E+009;1.683356463909149E-001;-1.017993614077568E-001;5.352410953491926E-004;-5.042385775595903E-003;
2.426000000000000E+009;1.690133512020111E-001;-1.023764535784721E-001;3.059995651710779E-004;-4.914043471217156E-003;
2.426166666666667E+009;1.695559024810791E-001;-1.030188053846359E-001;4.964135587215424E-005;-4.919237922877073E-003;
2.426333333333334E+009;1.699136495590210E-001;-1.036667674779892E-001;-2.529329503886402E-004;-4.816240165382624E-003;
2.426500000000000E+009;1.705420017242432E-001;-1.039604470133781E-001;-5.447621224448085E-004;-4.691406618803740E-003;
2.426666666666667E+009;1.709929108619690E-001;-1.043044403195381E-001;-6.077495054341853E-004;-4.563455469906330E-003;
2.426833333333334E+009;1.713772714138031E-001;-1.046026721596718E-001;-7.529201102443039E-004;-4.396149888634682E-003;
2.427000000000000E+009;1.716675162315369E-001;-1.047185659408569E-001;-9.777663508430123E-004;-4.283088259398937E-003;
2.427166666666667E+009;1.719540655612946E-001;-1.047211140394211E-001;-9.416223620064557E-004;-4.169635940343142E-003;
2.427333333333334E+009;1.720724701881409E-001;-1.050180792808533E-001;-1.286402111873031E-003;-3.975131548941135E-003;
2.427500000000000E+009;1.720419228076935E-001;-1.050953119993210E-001;-1.410598983056843E-003;-3.932683728635311E-003;
2.427666666666667E+009;1.718592792749405E-001;-1.050038933753967E-001;-1.343297422863543E-003;-3.787447698414326E-003;
2.427833333333334E+009;1.717507094144821E-001;-1.050274521112442E-001;-1.486538327299058E-003;-3.673185594379902E-003;
