# Version 1.00
#
freq[Hz];re:Trc1_S11;im:Trc1_S11;re:Trc2_S21;im:Trc2_S21;
2.400000000000000E+009;1.553687453269959E-001;1.097997277975082E-001;4.626856185495853E-003;6.683146348223090E-004;
2.400166666666667E+009;1.550054848194122E-001;1.074657738208771E-001;4.743206314742565E-003;4.252279468346387E-004;
2.400333333333334E+009;1.549563407897949E-001;1.052967011928558E-001;4.698645323514938E-003;2.430776512483135E-004;
2.400500000000000E+009;1.549733132123947E-001;1.024739369750023E-001;4.684400279074907E-003;-1.083431052393280E-004;
2.400666666666667E+009;1.548268795013428E-001;1.000890582799912E-001;4.635530058294535E-003;-2.632158575579524E-004;
2.400833333333334E+009;1.547886431217194E-001;9.727285802364349E-002;4.604153335094452E-003;-7.216449594125152E-004;
2.401000000000000E+009;1.549724936485291E-001;9.427278488874435E-002;4.307084716856480E-003;-8.179958094842732E-004;
2.401166666666667E+009;1.549694687128067E-001;9.163724631071091E-002;4.239193629473448E-003;-1.055017113685608E-003;
2.401333333333334E+009;1.553510725498200E-001;8.884561061859131E-002;3.982160240411758E-003;-1.115863327868283E-003;
2.401500000000000E+009;1.556883454322815E-001;8.573325723409653E-002;3.778771497309208E-003;-1.220245147123933E-003;
2.401666666666667E+009;1.558430790901184E-001;8.279998600482941E-002;3.563278587535024E-003;-1.257950090803206E-003;
2.401833333333334E+009;1.564413160085678E-001;8.000043779611588E-002;3.380993613973260E-003;-1.353526022285223E-003;
2.402000000000000E+009;1.571361720561981E-001;7.724353671073914E-002;3.302418859675527E-003;-1.302651595324278E-003;
2.402166666666667E+009;1.578887403011322E-001;7.460942864418030E-002;3.065206808969379E-003;-1.302639022469521E-003;
2.402333333333334E+009;1.587550789117813E-001;7.164342701435089E-002;3.240619553253055E-003;-1.310277613811195E-003;
2.402500000000000E+009;1.598979532718658E-001;6.889211386442184E-002;3.147903131321073E-003;-1.078863511793315E-003;
2.402666666666667E+009;1.609786599874497E-001;6.648037582635880E-002;3.169539384543896E-003;-1.229497836902738E-003;
2.402833333333334E+009;1.623283624649048E-001;6.406152993440628E-002;3.170248586684465E-003;-1.341739785857499E-003;
2.403000000000000E+009;1.637447625398636E-001;6.129226461052895E-002;3.122356953099370E-003;-1.141997519880533E-003;
2.403166666666667E+009;1.655421108007431E-001;5.888941138982773E-002;3.202868625521660E-003;-1.454652170650661E-003;
2.403333333333334E+009;1.668847054243088E-001;5.673115700483322E-002;3.157685976475477E-003;-1.323742559179664E-003;
2.403500000000000E+009;1.687655001878738E-001;5.461082234978676E-002;3.247718792408705E-003;-1.465044333599508E-003;
2.403666666666667E+009;1.704152375459671E-001;5.254311114549637E-002;3.353021107614040E-003;-1.659232075326145E-003;
2.403833333333334E+009;1.723143905401230E-001;5.047022923827171E-002;3.279441501945257E-003;-1.741159707307816E-003;
2.404000000000000E+009;1.738637685775757E-001;4.864202439785004E-002;3.271653084084392E-003;-1.990969991311431E-003;
2.404166666666667E+009;1.758798658847809E-001;4.709112644195557E-002;3.293627407401800E-003;-2.055429387837648E-003;
2.404333333333334E+009;1.774612963199616E-001;4.519472643733025E-002;3.083843272179365E-003;-2.363462699577212E-003;
2.404500000000000E+009;1.791359931230545E-001;4.370372742414475E-002;3.049339633435011E-003;-2.495532622560859E-003;
2.404666666666667E+009;1.809878051280975E-001;4.258097708225250E-002;2.877651946619153E-003;-2.376563614234328E-003;
2.404833333333334E+009;1.827147305011749E-001;4.128583148121834E-002;2.631142036989331E-003;-2.669050823897123E-003;
2.405000000000000E+009;1.842027157545090E-001;4.047645255923271E-002;2.547731390222907E-003;-2.691449131816626E-003;
2.405166666666667E+009;1.855764687061310E-001;3.972134739160538E-002;2.582045271992683E-003;-2.595237223431468E-003;
2.405333333333334E+009;1.872184872627258E-001;3.916498273611069E-002;2.458231523633003E-003;-2.772944746538997E-003;
2.405500000000000E+009;1.887183636426926E-001;3.870248049497604E-002;2.236473141238093E-003;-2.766338642686606E-003;
2.405666666666667E+009;1.899262964725494E-001;3.820567205548286E-002;2.183994278311729E-003;-2.853982616215944E-003;
2.405833333333334E+009;1.913556605577469E-001;3.790870308876038E-002;2.152432920411229E-003;-2.675408264622092E-003;
2.406000000000000E+009;1.924784630537033E-001;3.768660873174667E-002;1.982973190024495E-003;-2.811142941936851E-003;
2.406166666666667E+009;1.936037540435791E-001;3.756009042263031E-002;2.001300686970353E-003;-2.930362708866596E-003;
2.406333333333334E+009;1.946942955255508E-001;3.765216842293739E-002;1.886634388938546E-003;-2.966015832498670E-003;
2.406500000000000E+009;1.955047100782394E-001;3.768044710159302E-002;1.851137261837721E-003;-3.001036122441292E-003;
2.406666666666667E+009;1.962128430604935E-001;3.779417648911476E-002;1.815914991311729E-003;-3.061301773414016E-003;
2.406833333333334E+009;1.969022899866104E-001;3.772993385791779E-002;1.647837576456368E-003;-3.074394771829248E-003;
2.407000000000000E+009;1.971991062164307E-001;3.811953589320183E-002;1.749365008436143E-003;-3.010776592418551E-003;
2.407166666666667E+009;1.977823525667191E-001;3.795474022626877E-002;1.538725453428924E-003;-3.287423867732287E-003;
2.407333333333334E+009;1.977153271436691E-001;3.816400840878487E-002;1.361657516099513E-003;-3.697642590850592E-003;
2.407500000000000E+009;1.976749151945114E-001;3.851126879453659E-002;1.465975074097514E-003;-3.200474428012967E-003;
2.407666666666667E+009;1.976347118616104E-001;3.845509141683579E-002;1.104981871321797E-003;-3.264859318733215E-003;
2.407833333333334E+009;1.975620090961456E-001;3.845404461026192E-002;1.429419149644673E-003;-3.642813535407186E-003;
2.408000000000000E+009;1.974804550409317E-001;3.845380991697311E-002;1.469056238420308E-003;-3.319196403026581E-003;
2.408166666666667E+009;1.969117820262909E-001;3.837499767541885E-002;1.059024711139500E-003;-3.653247607871890E-003;
2.408333333333334E+009;1.963596642017365E-001;3.802950307726860E-002;8.686064975336194E-004;-2.944508800283074E-003;
2.408500000000000E+009;1.957011520862579E-001;3.782384842634201E-002;9.402730502188206E-004;-3.697499400004745E-003;
2.408666666666667E+009;1.950119137763977E-001;3.751718252897263E-002;7.036736351437867E-004;-3.823895240202546E-003;
2.408833333333334E+009;1.944278776645660E-001;3.677458316087723E-002;8.003495167940855E-004;-3.617549315094948E-003;
2.409000000000000E+009;1.932389289140701E-001;3.606044501066208E-002;5.216891877353191E-004;-3.636088455095887E-003;
2.409166666666667E+009;1.924116462469101E-001;3.526009991765022E-002;6.555132567882538E-004;-3.642422845587134E-003;
2.409333333333334E+009;1.914687603712082E-001;3.457422554492950E-002;5.031460896134377E-004;-3.783437889069319E-003;
2.409500000000000E+009;1.901095956563950E-001;3.330561146140099E-002;3.857239498756826E-004;-3.745626891031861E-003;
2.409666666666667E+009;1.891412287950516E-001;3.211314976215363E-002;2.653665433172137E-004;-3.757731057703495E-003;
2.409833333333334E+009;1.880455911159515E-001;3.057328425347805E-002;8.387910929741338E-005;-3.802046645432711E-003;
2.410000000000000E+009;1.869125664234161E-001;2.920484356582165E-002;-8.227501098190260E-007;-3.762207925319672E-003;
2.410166666666667E+009;1.857826560735703E-001;2.739716321229935E-002;1.319292005064199E-005;-3.830281551927328E-003;
2.410333333333334E+009;1.847967356443405E-001;2.573566325008869E-002;-3.472846292424947E-004;-3.832760732620955E-003;
2.410500000000000E+009;1.836842000484467E-001;2.396328188478947E-002;-5.085622542537749E-004;-3.919234499335289E-003;
2.410666666666667E+009;1.825886070728302E-001;2.179495058953762E-002;-5.970101337879896E-004;-3.810703754425049E-003;
2.410833333333334E+009;1.819247007369995E-001;1.964418962597847E-002;-7.549225119873881E-004;-3.957196138799191E-003;
2.411000000000000E+009;1.810099482536316E-001;1.744928210973740E-002;-7.814268465153873E-004;-3.728022100403905E-003;
2.411166666666667E+009;1.801644563674927E-001;1.526277419179678E-002;-1.067476696334779E-003;-3.801699727773666E-003;
2.411333333333334E+009;1.796536445617676E-001;1.275602821260691E-002;-1.187118235975504E-003;-3.590081352740526E-003;
2.411500000000000E+009;1.790945678949356E-001;1.040290854871273E-002;-1.324782264418900E-003;-3.701661247760057E-003;
2.411666666666667E+009;1.788002252578735E-001;8.092211559414864E-003;-1.406079973094165E-003;-3.579682903364301E-003;
2.411833333333334E+009;1.783247441053391E-001;5.636801477521658E-003;-1.626956858672202E-003;-3.464259672909975E-003;
2.412000000000000E+009;1.784975975751877E-001;3.158467356115580E-003;-1.691594719886780E-003;-3.377922112122178E-003;
2.412166666666667E+009;1.783557087182999E-001;7.402173359878361E-004;-1.718502608127892E-003;-3.204775042831898E-003;
2.412333333333334E+009;1.783725023269653E-001;-1.803591265343130E-003;-1.837910618633032E-003;-3.236379241570830E-003;
2.412500000000000E+009;1.786273717880249E-001;-4.262537695467472E-003;-1.767497160471976E-003;-2.968850778415799E-003;
2.412666666666667E+009;1.791498064994812E-001;-6.854236591607332E-003;-2.014351775869727E-003;-2.989802975207567E-003;
2.412833333333334E+009;1.798954457044601E-001;-9.402581490576267E-003;-1.965409377589822E-003;-2.823075512424111E-003;
2.413000000000000E+009;1.805239617824554E-001;-1.161449123173952E-002;-1.991493394598365E-003;-2.788362791761756E-003;
2.413166666666667E+009;1.812988519668579E-001;-1.397102978080511E-002;-1.941201626323164E-003;-2.642123261466622E-003;
2.413333333333334E+009;1.824662238359451E-001;-1.647173799574375E-002;-1.935871434397996E-003;-2.618550555780530E-003;
2.413500000000000E+009;1.832249462604523E-001;-1.884890906512737E-002;-2.109653083607554E-003;-2.697475487366319E-003;
2.413666666666667E+009;1.843367815017700E-001;-2.117141708731651E-002;-2.004581969231367E-003;-2.771755214780569E-003;
2.413833333333334E+009;1.854302436113358E-001;-2.312825620174408E-002;-2.180756768211722E-003;-2.793941879644990E-003;
2.414000000000000E+009;1.864352226257324E-001;-2.525146119296551E-002;-2.265768125653267E-003;-2.756256610155106E-003;
2.414166666666667E+009;1.878134757280350E-001;-2.699012868106365E-002;-2.453559078276157E-003;-2.682659309357405E-003;
2.414333333333334E+009;1.890095919370651E-001;-2.908460423350334E-002;-2.545338124036789E-003;-2.805708674713969E-003;
2.414500000000000E+009;1.904410272836685E-001;-3.061365336179733E-002;-2.915016841143370E-003;-2.682078164070845E-003;
2.414666666666667E+009;1.916345059871674E-001;-3.231307864189148E-002;-3.049786901101470E-003;-2.483105286955833E-003;
2.414833333333334E+009;1.928533464670181E-001;-3.359950333833695E-002;-3.191344439983368E-003;-2.428926760330796E-003;
2.415000000000000E+009;1.938937902450562E-001;-3.496013209223747E-002;-3.270961111411452E-003;-2.179121598601341E-003;
2.415166666666667E+009;1.953364312648773E-001;-3.614319860935211E-002;-3.477636026218534E-003;-2.093834336847067E-003;
2.415333333333334E+009;1.966969221830368E-001;-3.726864978671074E-002;-3.486857283860445E-003;-2.057303674519062E-003;
2.415500000000000E+009;1.978379637002945E-001;-3.794127702713013E-002;-3.629185725003481E-003;-1.792629132978618E-003;
2.415666666666667E+009;1.988922655582428E-001;-3.877001628279686E-002;-3.661417867988348E-003;-1.642920542508364E-003;
2.415833333333334E+009;1.999714374542236E-001;-3.950845822691917E-002;-3.659368725493550E-003;-1.427914015948772E-003;
2.416000000000000E+009;2.007851153612137E-001;-3.996541351079941E-002;-3.670345991849899E-003;-1.212797244079411E-003;
2.416166666666667E+009;2.017515897750855E-001;-4.064118117094040E-002;-3.711892757564783E-003;-1.211293158121407E-003;
2.416333333333334E+009;2.025132477283478E-001;-4.089342057704926E-002;-3.763889428228140E-003;-9.812137577682734E-004;
2.416500000000000E+009;2.031420469284058E-001;-4.126149788498879E-002;-3.682740963995457E-003;-7.134685874916613E-004;
2.416666666666667E+009;2.036145776510239E-001;-4.147634655237198E-002;-3.576349932700396E-003;-6.706423009745777E-004;
2.416833333333334E+009;2.039590328931809E-001;-4.151049256324768E-002;-3.626734949648380E-003;-2.958771365229040E-004;
2.417000000000000E+009;2.041714042425156E-001;-4.160199314355850E-002;-3.532513510435820E-003;-3.571185225155205E-004;
2.417166666666667E+009;2.039408683776856E-001;-4.141723364591599E-002;-3.528199158608913E-003;-3.060832386836410E-004;
2.417333333333334E+009;2.039280384778976E-001;-4.133629053831101E-002;-3.426891053095460E-003;-7.223791908472776E-005;
2.417500000000000E+009;2.036710232496262E-001;-4.120624810457230E-002;-3.400447545573115E-003;-2.102400867443066E-005;
2.417666666666667E+009;2.033242583274841E-001;-4.088562726974487E-002;-3.453307319432497E-003;1.191732008010149E-005;
2.417833333333334E+009;2.030681222677231E-001;-4.066923633217812E-002;-3.434368642047048E-003;-6.667378784186440E-006;
2.418000000000000E+009;2.024030834436417E-001;-4.054902866482735E-002;-3.361466107890010E-003;1.969081349670887E-004;
2.418166666666667E+009;2.017100900411606E-001;-4.026117920875549E-002;-3.297267016023397E-003;9.243157546734437E-005;
2.418333333333334E+009;2.008864879608154E-001;-4.005768522620201E-002;-3.335253801196814E-003;1.970014855032787E-004;
2.418500000000000E+009;1.999183595180512E-001;-3.994671627879143E-002;-3.457154612988234E-003;2.045863657258451E-004;
2.418666666666667E+009;1.990697532892227E-001;-3.975868597626686E-002;-3.403828246518970E-003;3.088621306233108E-004;
2.418833333333334E+009;1.977943032979965E-001;-3.975916653871536E-002;-3.511426271870732E-003;4.430670232977718E-004;
2.419000000000000E+009;1.964892745018005E-001;-3.993229195475578E-002;-3.693552687764168E-003;6.386760505847633E-004;
2.419166666666667E+009;1.952509135007858E-001;-4.020657017827034E-002;-3.713528392836452E-003;7.108519203029573E-004;
2.419333333333334E+009;1.938311159610748E-001;-4.057986289262772E-002;-3.582396078854799E-003;9.375947993248701E-004;
2.419500000000000E+009;1.923630088567734E-001;-4.079610109329224E-002;-3.630763385444880E-003;1.182553241960704E-003;
2.419666666666667E+009;1.907593458890915E-001;-4.158270359039307E-002;-3.629114478826523E-003;1.372925238683820E-003;
2.419833333333334E+009;1.890415251255035E-001;-4.216837510466576E-002;-3.565675811842084E-003;1.414449885487557E-003;
2.420000000000000E+009;1.874612569808960E-001;-4.310058429837227E-002;-3.463038709014654E-003;1.740088220685720E-003;
2.420166666666667E+009;1.858502775430679E-001;-4.396431893110275E-002;-3.363831667229533E-003;1.866915845312178E-003;
2.420333333333334E+009;1.842189133167267E-001;-4.499614238739014E-002;-3.223934443667531E-003;1.960897352546454E-003;
2.420500000000000E+009;1.825268864631653E-001;-4.634158313274384E-002;-3.019677940756083E-003;2.061693929135799E-003;
2.420666666666667E+009;1.805667281150818E-001;-4.744102060794830E-002;-2.929014619439840E-003;2.187173580750823E-003;
2.420833333333334E+009;1.789951026439667E-001;-4.892850667238236E-002;-2.608890412375331E-003;2.272896235808730E-003;
2.421000000000000E+009;1.775395274162293E-001;-5.059222877025604E-002;-2.540444955229759E-003;2.354766242206097E-003;
2.421166666666667E+009;1.760752797126770E-001;-5.215403437614441E-002;-2.495103050023317E-003;2.492400119081140E-003;
2.421333333333334E+009;1.742372363805771E-001;-5.370155721902847E-002;-2.181546296924353E-003;2.452731365337968E-003;
2.421500000000000E+009;1.727619767189026E-001;-5.572434142231941E-002;-2.222739625722170E-003;2.335501601919532E-003;
2.421666666666667E+009;1.715773195028305E-001;-5.747255682945252E-002;-2.036240417510271E-003;2.597595797851682E-003;
2.421833333333334E+009;1.701809316873550E-001;-5.958165973424912E-002;-1.975653227418661E-003;2.552960766479373E-003;
2.422000000000000E+009;1.690374016761780E-001;-6.151384115219116E-002;-1.969081116840243E-003;2.554853446781635E-003;
2.422166666666667E+009;1.679365336894989E-001;-6.371044367551804E-002;-1.717971288599074E-003;2.395437564700842E-003;
2.422333333333334E+009;1.669474542140961E-001;-6.569963693618774E-002;-1.731270109303296E-003;2.640391001477838E-003;
2.422500000000000E+009;1.659682542085648E-001;-6.761824339628220E-002;-1.712300465442240E-003;2.660818863660097E-003;
2.422666666666667E+009;1.652685105800629E-001;-6.977159529924393E-002;-1.557792304083705E-003;2.780388109385967E-003;
2.422833333333334E+009;1.648278832435608E-001;-7.186184823513031E-002;-1.401541288942099E-003;2.662713639438152E-003;
2.423000000000000E+009;1.640581190586090E-001;-7.403527945280075E-002;-1.238051801919937E-003;2.686228603124619E-003;
2.423166666666667E+009;1.638140231370926E-001;-7.621147483587265E-002;-1.120408764109016E-003;2.577877836301923E-003;
2.423333333333334E+009;1.635427474975586E-001;-7.828599959611893E-002;-1.140657463110983E-003;2.569298492744565E-003;
2.423500000000000E+009;1.633723974227905E-001;-8.020158857107163E-002;-1.013512955978513E-003;2.733115339651704E-003;
2.423666666666667E+009;1.633968353271484E-001;-8.218318969011307E-002;-1.023565535433590E-003;2.685368293896318E-003;
2.423833333333334E+009;1.633401215076447E-001;-8.416527509689331E-002;-8.560950518585742E-004;2.729064552113414E-003;
2.424000000000000E+009;1.634420901536942E-001;-8.608435094356537E-002;-8.804510580375791E-004;2.664368366822600E-003;
2.424166666666667E+009;1.637462377548218E-001;-8.769933879375458E-002;-7.616956718266010E-004;2.552235964685679E-003;
2.424333333333334E+009;1.638177931308746E-001;-8.942258358001709E-002;-7.829852984286845E-004;2.509305952116847E-003;
2.424500000000000E+009;1.644056737422943E-001;-9.123395383358002E-002;-7.024816586636007E-004;2.574475249275565E-003;
2.424666666666667E+009;1.644839346408844E-001;-9.282101690769196E-002;-5.147511255927384E-004;2.559507731348276E-003;
2.424833333333334E+009;1.653388440608978E-001;-9.420511126518250E-002;-4.070686409249902E-004;2.585473470389843E-003;
2.425000000000000E+009;1.658453196287155E-001;-9.561085700988770E-002;-4.954243195243180E-004;2.478613751009107E-003;
2.425166666666667E+009;1.660817265510559E-001;-9.683492779731751E-002;-2.938889083452523E-004;2.589022973552346E-003;
2.425333333333334E+009;1.665751785039902E-001;-9.792373329401016E-002;-2.015528734773397E-004;2.518711611628532E-003;
2.425500000000000E+009;1.670190244913101E-001;-9.900858253240585E-002;-1.091386657208204E-004;2.422005403786898E-003;
2.425666666666667E+009;1.676156669855118E-001;-9.973086416721344E-002;-2.024704372161068E-005;2.307862043380737E-003;
2.425833333333334E+009;1.680514216423035E-001;-1.006397157907486E-001;-6.677531200693920E-005;2.402049489319325E-003;
2.426000000000000E+009;1.686490625143051E-001;-1.010493040084839E-001;9.675647015683353E-005;2.384651219472289E-003;
2.426166666666667E+009;1.690787225961685E-001;-1.016071662306786E-001;1.775292330421507E-004;2.485359786078334E-003;
2.426333333333334E+009;1.693097949028015E-001;-1.022445335984230E-001;2.377197670284659E-004;2.307544695213437E-003;
2.426500000000000E+009;1.698631048202515E-001;-1.024278625845909E-001;3.762393316719681E-004;2.101598307490349E-003;
2.426666666666667E+009;1.702642440795898E-001;-1.027917265892029E-001;2.977681579068303E-004;2.197092399001122E-003;
2.426833333333334E+009;1.706323623657227E-001;-1.031814217567444E-001;3.756344085559249E-004;1.992944395169616E-003;
2.427000000000000E+009;1.708239912986755E-001;-1.033805385231972E-001;4.312599776312709E-004;2.129658125340939E-003;
2.427166666666667E+009;1.709150671958923E-001;-1.033685058355331E-001;4.695586394518614E-004;2.167553640902042E-003;
2.427333333333334E+009;1.710341721773148E-001;-1.036352515220642E-001;4.101719241589308E-004;1.975849037989974E-003;
2.427500000000000E+009;1.709172129631043E-001;-1.038158312439919E-001;5.707782111130655E-004;1.943260431289673E-003;
2.427666666666667E+009;1.707399487495422E-001;-1.038945466279984E-001;5.610546213574708E-004;1.885972917079926E-003;
