# Version 1.00
#
freq[Hz];re:Trc1_S11;im:Trc1_S11;re:Trc2_S21;im:Trc2_S21;
2.400000000000000E+009;1.554096937179565E-001;1.098290979862213E-001;4.893444012850523E-003;9.026394109241664E-004;
2.400166666666667E+009;1.549052000045776E-001;1.074935942888260E-001;4.850045777857304E-003;6.944569176994264E-004;
2.400333333333334E+009;1.549627780914307E-001;1.053708940744400E-001;4.843874368816614E-003;3.885923069901764E-004;
2.400500000000000E+009;1.548340767621994E-001;1.025922372937203E-001;4.909365437924862E-003;3.436983970459551E-004;
2.400666666666667E+009;1.547157615423203E-001;1.002057790756226E-001;4.776695277541876E-003;-1.966444979188964E-004;
2.400833333333334E+009;1.547615379095078E-001;9.731222689151764E-002;4.775985144078732E-003;-3.633096348494291E-004;
2.401000000000000E+009;1.548735201358795E-001;9.450801461935043E-002;4.499658942222595E-003;-7.182910921983421E-004;
2.401166666666667E+009;1.548012942075729E-001;9.166231751441956E-002;4.477554000914097E-003;-7.036161841824651E-004;
2.401333333333334E+009;1.553011536598206E-001;8.878290653228760E-002;4.053595475852490E-003;-9.402496507391334E-004;
2.401500000000000E+009;1.555959135293961E-001;8.581869304180145E-002;4.077661316841841E-003;-1.047361758537591E-003;
2.401666666666667E+009;1.559712290763855E-001;8.276457339525223E-002;3.851364133879542E-003;-1.013645902276039E-003;
2.401833333333334E+009;1.563535630702972E-001;7.998619973659515E-002;3.673810046166182E-003;-1.073922961950302E-003;
2.402000000000000E+009;1.573072224855423E-001;7.703182846307755E-002;3.620221512392163E-003;-9.947596117854118E-004;
2.402166666666667E+009;1.578386873006821E-001;7.435581088066101E-002;3.486394183710218E-003;-1.126387855038047E-003;
2.402333333333334E+009;1.588654667139053E-001;7.149200141429901E-002;3.501483704894781E-003;-1.043035299517214E-003;
2.402500000000000E+009;1.600385457277298E-001;6.894117593765259E-002;3.555382369086146E-003;-9.668175480328500E-004;
2.402666666666667E+009;1.608903408050537E-001;6.647443771362305E-002;3.382371272891760E-003;-9.633933077566326E-004;
2.402833333333334E+009;1.622966229915619E-001;6.386461108922958E-002;3.518559504300356E-003;-9.874377865344286E-004;
2.403000000000000E+009;1.638898104429245E-001;6.123950704932213E-002;3.584699239581823E-003;-1.157612889073789E-003;
2.403166666666667E+009;1.653998196125031E-001;5.897286906838417E-002;3.597068600356579E-003;-1.267930027097464E-003;
2.403333333333334E+009;1.669515371322632E-001;5.677047744393349E-002;3.624707926064730E-003;-1.322068739682436E-003;
2.403500000000000E+009;1.687380373477936E-001;5.439259484410286E-002;3.732665907591581E-003;-1.462648389860988E-003;
2.403666666666667E+009;1.703932285308838E-001;5.227818340063095E-002;3.735634265467525E-003;-1.640623668208718E-003;
2.403833333333334E+009;1.720330268144608E-001;5.037960037589073E-002;3.764752997085452E-003;-1.776854624040425E-003;
2.404000000000000E+009;1.738419830799103E-001;4.852471500635147E-002;3.610562998801470E-003;-1.921239658258855E-003;
2.404166666666667E+009;1.756746768951416E-001;4.688769951462746E-002;3.763364627957344E-003;-2.135156653821468E-003;
2.404333333333334E+009;1.775433272123337E-001;4.518124833703041E-002;3.575204871594906E-003;-2.321643754839897E-003;
2.404500000000000E+009;1.790515631437302E-001;4.354077205061913E-002;3.381646936759353E-003;-2.542558591812849E-003;
2.404666666666667E+009;1.807924956083298E-001;4.244393855333328E-002;3.270974382758141E-003;-2.516531851142645E-003;
2.404833333333334E+009;1.826156973838806E-001;4.114176705479622E-002;3.111823927611113E-003;-2.772396896034479E-003;
2.405000000000000E+009;1.841974556446075E-001;4.055407643318176E-002;2.894992474466562E-003;-2.640817547217012E-003;
2.405166666666667E+009;1.856346726417542E-001;3.961758688092232E-002;2.890325151383877E-003;-2.669448032975197E-003;
2.405333333333334E+009;1.870497465133667E-001;3.909315168857575E-002;2.695290604606271E-003;-2.960116136819124E-003;
2.405500000000000E+009;1.885614097118378E-001;3.843688964843750E-002;2.831589197739959E-003;-3.050855593755841E-003;
2.405666666666667E+009;1.898717284202576E-001;3.810745105147362E-002;2.728737425059080E-003;-3.108751261606813E-003;
2.405833333333334E+009;1.912411749362946E-001;3.793442621827126E-002;2.633702708408237E-003;-3.178138751536608E-003;
2.406000000000000E+009;1.923374384641647E-001;3.762041032314301E-002;2.440648153424263E-003;-3.318272531032562E-003;
2.406166666666667E+009;1.934759169816971E-001;3.754767030477524E-002;2.395851071923971E-003;-3.141656517982483E-003;
2.406333333333334E+009;1.945844888687134E-001;3.768553957343102E-002;2.231500344350934E-003;-3.272514790296555E-003;
2.406500000000000E+009;1.953254044055939E-001;3.769836574792862E-002;2.155037829652429E-003;-3.249798202887178E-003;
2.406666666666667E+009;1.959967315196991E-001;3.789114579558373E-002;2.011148026213050E-003;-3.475366393104196E-003;
2.406833333333334E+009;1.966437995433807E-001;3.782893344759941E-002;1.984519651159644E-003;-3.425407456234098E-003;
2.407000000000000E+009;1.970566213130951E-001;3.805889934301376E-002;1.754992757923901E-003;-3.463964443653822E-003;
2.407166666666667E+009;1.975025683641434E-001;3.821795806288719E-002;1.728171599097550E-003;-3.433590522035956E-003;
2.407333333333334E+009;1.975350081920624E-001;3.851519525051117E-002;1.677549676969647E-003;-3.496805205941200E-003;
2.407500000000000E+009;1.974979490041733E-001;3.870895877480507E-002;1.440701074898243E-003;-3.654051572084427E-003;
2.407666666666667E+009;1.977082043886185E-001;3.863612934947014E-002;1.340133021585643E-003;-3.621134441345930E-003;
2.407833333333334E+009;1.971935182809830E-001;3.882504254579544E-002;1.298263901844621E-003;-3.790871473029256E-003;
2.408000000000000E+009;1.972855180501938E-001;3.867711871862412E-002;1.386046060360968E-003;-3.617454785853624E-003;
2.408166666666667E+009;1.966090202331543E-001;3.857599198818207E-002;1.128058298490942E-003;-3.728954819962382E-003;
2.408333333333334E+009;1.963243633508682E-001;3.813823685050011E-002;1.203792053274810E-003;-3.910905215889216E-003;
2.408500000000000E+009;1.955639272928238E-001;3.809487447142601E-002;9.743421687744558E-004;-3.928481135517359E-003;
2.408666666666667E+009;1.949470192193985E-001;3.770826756954193E-002;6.710707093589008E-004;-3.914879169315100E-003;
2.408833333333334E+009;1.942600458860397E-001;3.722685202956200E-002;6.224311073310673E-004;-3.936153370887041E-003;
2.409000000000000E+009;1.933014541864395E-001;3.646161407232285E-002;6.622741348110139E-004;-4.064025823026896E-003;
2.409166666666667E+009;1.923128962516785E-001;3.557534143328667E-002;5.636115674860776E-004;-4.100056365132332E-003;
2.409333333333334E+009;1.912467479705811E-001;3.479208052158356E-002;3.755304787773639E-004;-3.990501165390015E-003;
2.409500000000000E+009;1.901682168245316E-001;3.347991779446602E-002;2.548188203945756E-004;-3.987758420407772E-003;
2.409666666666667E+009;1.890149116516113E-001;3.231813758611679E-002;4.412975249579176E-005;-4.059661179780960E-003;
2.409833333333334E+009;1.879065185785294E-001;3.102118894457817E-002;5.221707033342682E-005;-4.095014650374651E-003;
2.410000000000000E+009;1.869551092386246E-001;2.944416366517544E-002;-1.096380219678395E-005;-4.168225917965174E-003;
2.410166666666667E+009;1.858734786510468E-001;2.784461341798306E-002;-2.012890181504190E-004;-4.168221727013588E-003;
2.410333333333334E+009;1.848519891500473E-001;2.624527551233769E-002;-2.275034348713234E-004;-4.075835458934307E-003;
2.410500000000000E+009;1.838225871324539E-001;2.433506213128567E-002;-4.056664765812457E-004;-4.134752787649632E-003;
2.410666666666667E+009;1.827086508274078E-001;2.216778881847858E-002;-6.848115008324385E-004;-4.176253452897072E-003;
2.410833333333334E+009;1.821117550134659E-001;1.997542195022106E-002;-8.245773497037590E-004;-4.020553547888994E-003;
2.411000000000000E+009;1.810032278299332E-001;1.782166585326195E-002;-9.746766882017255E-004;-4.089644178748131E-003;
2.411166666666667E+009;1.803877949714661E-001;1.568476110696793E-002;-1.266315695829690E-003;-4.080131184309721E-003;
2.411333333333334E+009;1.796905100345612E-001;1.314658112823963E-002;-1.339206355623901E-003;-4.071868956089020E-003;
2.411500000000000E+009;1.791812032461166E-001;1.083381660282612E-002;-1.353303669020534E-003;-3.802898572757840E-003;
2.411666666666667E+009;1.788962036371231E-001;8.376422338187695E-003;-1.666550408117473E-003;-3.749564755707979E-003;
2.411833333333334E+009;1.784939318895340E-001;5.970647558569908E-003;-1.781181083060801E-003;-3.744941437616944E-003;
2.412000000000000E+009;1.784856617450714E-001;3.216130658984184E-003;-1.814983086660504E-003;-3.502934006974101E-003;
2.412166666666667E+009;1.784836351871491E-001;9.020950528793037E-004;-2.001260640099645E-003;-3.605536185204983E-003;
2.412333333333334E+009;1.784901022911072E-001;-1.675770501606166E-003;-2.095709787681699E-003;-3.339261980727315E-003;
2.412500000000000E+009;1.789778321981430E-001;-4.058804363012314E-003;-2.152850152924657E-003;-3.204129170626402E-003;
2.412666666666667E+009;1.793177425861359E-001;-6.574386265128851E-003;-2.080486156046391E-003;-3.119947621598840E-003;
2.412833333333334E+009;1.799357384443283E-001;-9.130490943789482E-003;-2.268349053338170E-003;-3.268038388341665E-003;
2.413000000000000E+009;1.806969791650772E-001;-1.157248485833406E-002;-2.167560858651996E-003;-3.056001849472523E-003;
2.413166666666667E+009;1.814081072807312E-001;-1.387654896825552E-002;-2.398922340944409E-003;-2.904123859480023E-003;
2.413333333333334E+009;1.823100745677948E-001;-1.617888920009136E-002;-2.245507203042507E-003;-2.831290476024151E-003;
2.413500000000000E+009;1.831927299499512E-001;-1.860735006630421E-002;-2.366540953516960E-003;-2.788935322314501E-003;
2.413666666666667E+009;1.845025122165680E-001;-2.066399157047272E-002;-2.440576208755374E-003;-2.939760684967041E-003;
2.413833333333334E+009;1.856991797685623E-001;-2.305497974157333E-002;-2.548507647588849E-003;-2.969866385683417E-003;
2.414000000000000E+009;1.866665780544281E-001;-2.504903636872768E-002;-2.723248442634940E-003;-2.950795460492373E-003;
2.414166666666667E+009;1.880763769149780E-001;-2.697250992059708E-002;-2.822459442541003E-003;-2.836402971297503E-003;
2.414333333333334E+009;1.891420632600784E-001;-2.903229929506779E-002;-2.896064426749945E-003;-2.752316882833839E-003;
2.414500000000000E+009;1.905865073204041E-001;-3.056965582072735E-002;-3.085264936089516E-003;-2.622767351567745E-003;
2.414666666666667E+009;1.917212158441544E-001;-3.218695148825645E-002;-3.216638695448637E-003;-2.556323772296310E-003;
2.414833333333334E+009;1.930720210075378E-001;-3.355515375733376E-002;-3.312042681500316E-003;-2.416054718196392E-003;
2.415000000000000E+009;1.941587328910828E-001;-3.493694961071014E-002;-3.399916226044297E-003;-2.350659808143973E-003;
2.415166666666667E+009;1.954934298992157E-001;-3.626354038715363E-002;-3.690476063638926E-003;-2.230908023193479E-003;
2.415333333333334E+009;1.968019455671310E-001;-3.710903599858284E-002;-3.824952524155378E-003;-1.972759142518044E-003;
2.415500000000000E+009;1.979068219661713E-001;-3.791163116693497E-002;-3.835555631667376E-003;-1.792856957763434E-003;
2.415666666666667E+009;1.992854177951813E-001;-3.875201568007469E-002;-3.857116447761655E-003;-1.658002729527652E-003;
2.415833333333334E+009;2.001199573278427E-001;-3.941949829459190E-002;-3.874675836414099E-003;-1.351761748082936E-003;
2.416000000000000E+009;2.009140402078629E-001;-4.001971706748009E-002;-3.850717563182116E-003;-1.254576956853271E-003;
2.416166666666667E+009;2.018075585365295E-001;-4.065842553973198E-002;-3.771854331716895E-003;-1.087833428755403E-003;
2.416333333333334E+009;2.026887387037277E-001;-4.094761237502098E-002;-3.975319210439920E-003;-9.540871251374483E-004;
2.416500000000000E+009;2.034711092710495E-001;-4.125593975186348E-002;-3.909969702363014E-003;-7.326297927647829E-004;
2.416666666666667E+009;2.037827372550964E-001;-4.149905219674110E-002;-3.974538762122393E-003;-5.746892420575023E-004;
2.416833333333334E+009;2.040591388940811E-001;-4.157055914402008E-002;-3.820951329544187E-003;-4.641539417207241E-004;
2.417000000000000E+009;2.043167501688004E-001;-4.157267138361931E-002;-3.784819506108761E-003;-2.965249586850405E-004;
2.417166666666667E+009;2.041992396116257E-001;-4.156395792961121E-002;-3.865747014060617E-003;-9.233132732333615E-005;
2.417333333333334E+009;2.040777057409287E-001;-4.135819151997566E-002;-3.745961934328079E-003;-2.020777856159839E-006;
2.417500000000000E+009;2.039060592651367E-001;-4.131514579057694E-002;-3.741772146895528E-003;3.369837577338330E-005;
2.417666666666667E+009;2.036335319280624E-001;-4.088935628533363E-002;-3.678438719362021E-003;2.531222125981003E-004;
2.417833333333334E+009;2.031805515289307E-001;-4.080776125192642E-002;-3.578277304768562E-003;2.636861463543028E-004;
2.418000000000000E+009;2.026699483394623E-001;-4.050270840525627E-002;-3.588506486266851E-003;3.106541989836842E-004;
2.418166666666667E+009;2.019256055355072E-001;-4.030198231339455E-002;-3.558811265975237E-003;2.379728102823719E-004;
2.418333333333334E+009;2.010412514209747E-001;-4.008617252111435E-002;-3.540806705132127E-003;2.981623692903668E-004;
2.418500000000000E+009;2.001994997262955E-001;-4.019604623317719E-002;-3.693091915920377E-003;3.337523958180100E-004;
2.418666666666667E+009;1.992706656455994E-001;-3.986304253339768E-002;-3.600039519369602E-003;5.360621726140380E-004;
2.418833333333334E+009;1.980486214160919E-001;-3.990921378135681E-002;-3.719842294231057E-003;7.290620123967528E-004;
2.419000000000000E+009;1.967474222183228E-001;-4.003905504941940E-002;-3.868538653478026E-003;8.270209073089063E-004;
2.419166666666667E+009;1.955180764198303E-001;-4.032532125711441E-002;-3.765485249459744E-003;1.027910737320781E-003;
2.419333333333334E+009;1.941451579332352E-001;-4.067103564739227E-002;-3.864779602736235E-003;1.240517827682197E-003;
2.419500000000000E+009;1.925439834594727E-001;-4.105294868350029E-002;-3.818443045020104E-003;1.394901308231056E-003;
2.419666666666667E+009;1.910255402326584E-001;-4.178832471370697E-002;-3.807404078543186E-003;1.523828017525375E-003;
2.419833333333334E+009;1.892642229795456E-001;-4.237674549221993E-002;-3.691263496875763E-003;1.716107595711947E-003;
2.420000000000000E+009;1.877587586641312E-001;-4.334073141217232E-002;-3.365518059581518E-003;1.885946490801871E-003;
2.420166666666667E+009;1.861434429883957E-001;-4.398857802152634E-002;-3.463300177827478E-003;2.181242220103741E-003;
2.420333333333334E+009;1.843758970499039E-001;-4.516344517469406E-002;-3.296834416687489E-003;2.293605124577880E-003;
2.420500000000000E+009;1.825443506240845E-001;-4.662747681140900E-002;-3.226048313081265E-003;2.333539538085461E-003;
2.420666666666667E+009;1.808405369520187E-001;-4.761549830436707E-002;-2.956046955659986E-003;2.563871210440993E-003;
2.420833333333334E+009;1.791352480649948E-001;-4.917294159531593E-002;-2.761780051514506E-003;2.458280650898814E-003;
2.421000000000000E+009;1.776834875345230E-001;-5.064180120825768E-002;-2.699790755286813E-003;2.695906208828092E-003;
2.421166666666667E+009;1.762435138225555E-001;-5.237995088100433E-002;-2.553543308749795E-003;2.667239401489496E-003;
2.421333333333334E+009;1.744204759597778E-001;-5.405452102422714E-002;-2.342366147786379E-003;2.676906995475292E-003;
2.421500000000000E+009;1.727769970893860E-001;-5.597034096717835E-002;-2.353853313252330E-003;2.710535889491439E-003;
2.421666666666667E+009;1.714969128370285E-001;-5.788531899452210E-002;-2.065418520942330E-003;2.844131551682949E-003;
2.421833333333334E+009;1.702431738376617E-001;-5.965285375714302E-002;-2.006946830078960E-003;2.832269296050072E-003;
2.422000000000000E+009;1.690419614315033E-001;-6.163216754794121E-002;-1.849940279498696E-003;2.785174874588847E-003;
2.422166666666667E+009;1.679949760437012E-001;-6.388859450817108E-002;-1.734649762511253E-003;2.667804481461644E-003;
2.422333333333334E+009;1.667461544275284E-001;-6.587820500135422E-002;-1.591676496900618E-003;2.870828378945589E-003;
2.422500000000000E+009;1.659523248672485E-001;-6.787863373756409E-002;-1.517693744972348E-003;3.015599679201841E-003;
2.422666666666667E+009;1.652209311723709E-001;-6.994659453630447E-002;-1.463953638449311E-003;2.903598593547940E-003;
2.422833333333334E+009;1.647185385227203E-001;-7.220235466957092E-002;-1.333371503278613E-003;2.855631290003657E-003;
2.423000000000000E+009;1.640092581510544E-001;-7.425266504287720E-002;-1.154733821749687E-003;2.922378480434418E-003;
2.423166666666667E+009;1.637241393327713E-001;-7.639160752296448E-002;-1.220748526975513E-003;2.890924923121929E-003;
2.423333333333334E+009;1.634441614151001E-001;-7.843095809221268E-002;-1.022584037855268E-003;2.876368118450046E-003;
2.423500000000000E+009;1.634098291397095E-001;-8.025628328323364E-002;-9.445666801184416E-004;2.951352391391993E-003;
2.423666666666667E+009;1.633631736040115E-001;-8.247610181570053E-002;-7.778046419844031E-004;2.817744156345725E-003;
2.423833333333334E+009;1.635213345289230E-001;-8.418359607458115E-002;-6.801057024858892E-004;2.854347229003906E-003;
2.424000000000000E+009;1.635218858718872E-001;-8.617978543043137E-002;-6.725035491399467E-004;2.778501715511084E-003;
2.424166666666667E+009;1.637025028467178E-001;-8.788093179464340E-002;-5.131734651513398E-004;2.850126707926393E-003;
2.424333333333334E+009;1.639210134744644E-001;-8.968116343021393E-002;-3.456252161413431E-004;2.990099834278226E-003;
2.424500000000000E+009;1.643005907535553E-001;-9.141928702592850E-002;-2.945702290162444E-004;2.790356753394008E-003;
2.424666666666667E+009;1.644206792116165E-001;-9.289159625768662E-002;-3.679476212710142E-004;2.746707992628217E-003;
2.424833333333334E+009;1.652900576591492E-001;-9.424655139446259E-002;-1.761048188200221E-004;2.700673649087548E-003;
2.425000000000000E+009;1.654923856258392E-001;-9.559346735477448E-002;3.851432120427489E-005;2.770732855424285E-003;
2.425166666666667E+009;1.660271286964417E-001;-9.675441682338715E-002;-1.215553038491635E-005;2.473905915394425E-003;
2.425333333333334E+009;1.664299070835114E-001;-9.789202362298966E-002;1.151093165390194E-004;2.604878740385175E-003;
2.425500000000000E+009;1.669359803199768E-001;-9.899962693452835E-002;1.876419701147825E-004;2.371681155636907E-003;
2.425666666666667E+009;1.674194633960724E-001;-9.971515089273453E-002;1.796447322703898E-004;2.620999934151769E-003;
2.425833333333334E+009;1.678686738014221E-001;-1.007556095719338E-001;2.148283529095352E-004;2.417292678728700E-003;
2.426000000000000E+009;1.683772951364517E-001;-1.010847240686417E-001;3.573292342480272E-004;2.463102107867599E-003;
2.426166666666667E+009;1.690216213464737E-001;-1.017223894596100E-001;3.367555327713490E-004;2.383973682299256E-003;
2.426333333333334E+009;1.691888123750687E-001;-1.022991389036179E-001;5.804687971249223E-004;2.414171118289232E-003;
2.426500000000000E+009;1.698651313781738E-001;-1.025289222598076E-001;5.988019402138889E-004;2.195617184042931E-003;
2.426666666666667E+009;1.700926423072815E-001;-1.029139533638954E-001;6.914196419529617E-004;2.366341184824705E-003;
2.426833333333334E+009;1.705376654863358E-001;-1.031570062041283E-001;6.251058657653630E-004;2.189683727920055E-003;
2.427000000000000E+009;1.705774813890457E-001;-1.034271866083145E-001;6.653185118921101E-004;2.091861795634031E-003;
2.427166666666667E+009;1.709145009517670E-001;-1.033703014254570E-001;7.180389366112649E-004;2.133269561454654E-003;
2.427333333333334E+009;1.708669364452362E-001;-1.036578044295311E-001;7.037429022602737E-004;1.882761134766042E-003;
2.427500000000000E+009;1.708184331655502E-001;-1.038012206554413E-001;7.100456859916449E-004;1.933123916387558E-003;
2.427666666666667E+009;1.706578731536865E-001;-1.037940233945847E-001;6.818196852691472E-004;2.123936312273145E-003;
