# Version 1.00
#
freq[Hz];re:Trc1_S11;im:Trc1_S11;re:Trc2_S21;im:Trc2_S21;
2.400000000000000E+009;1.555561423301697E-001;1.092349290847778E-001;4.436765331774950E-003;8.971529896371067E-004;
2.400166666666667E+009;1.552374958992004E-001;1.070617511868477E-001;4.287592601031065E-003;6.607588729821146E-004;
2.400333333333334E+009;1.551761180162430E-001;1.047285273671150E-001;4.410529974848032E-003;5.401986418291926E-004;
2.400500000000000E+009;1.550579369068146E-001;1.020940169692040E-001;4.298563580960035E-003;1.610646722838283E-004;
2.400666666666667E+009;1.551131159067154E-001;9.950789064168930E-002;4.198875743895769E-003;-1.565418642712757E-004;
2.400833333333334E+009;1.548912972211838E-001;9.672600775957108E-002;4.153443500399590E-003;-2.624066546559334E-004;
2.401000000000000E+009;1.550607681274414E-001;9.401354193687439E-002;3.995216451585293E-003;-5.133489612489939E-004;
2.401166666666667E+009;1.549833863973618E-001;9.109728783369064E-002;3.842812729999423E-003;-6.902800523675978E-004;
2.401333333333334E+009;1.553561538457871E-001;8.824807405471802E-002;3.480725921690464E-003;-8.718401659280062E-004;
2.401500000000000E+009;1.556512564420700E-001;8.523038029670715E-002;3.593549365177751E-003;-8.584455936215818E-004;
2.401666666666667E+009;1.559213846921921E-001;8.240754902362824E-002;3.362210001796484E-003;-9.130676626227796E-004;
2.401833333333334E+009;1.562139391899109E-001;7.960634678602219E-002;3.092641243711114E-003;-8.325398666784167E-004;
2.402000000000000E+009;1.571702063083649E-001;7.668413221836090E-002;2.993819070979953E-003;-8.631047676317394E-004;
2.402166666666667E+009;1.579458117485046E-001;7.395599037408829E-002;3.060439135879278E-003;-7.925812387838960E-004;
2.402333333333334E+009;1.586464941501617E-001;7.110732048749924E-002;3.152172081172466E-003;-7.108635618351400E-004;
2.402500000000000E+009;1.599026173353195E-001;6.848585605621338E-002;2.980798948556185E-003;-9.683253010734916E-004;
2.402666666666667E+009;1.610843390226364E-001;6.593962013721466E-002;2.995669143274427E-003;-7.999456138350070E-004;
2.402833333333334E+009;1.624009907245636E-001;6.332320719957352E-002;2.815491985529661E-003;-7.811093819327653E-004;
2.403000000000000E+009;1.637609601020813E-001;6.080773100256920E-002;3.189997980371118E-003;-8.486842853017151E-004;
2.403166666666667E+009;1.653317064046860E-001;5.862881615757942E-002;3.196994541212916E-003;-8.170433575287461E-004;
2.403333333333334E+009;1.669547706842423E-001;5.618910118937492E-002;3.425514092668891E-003;-8.281386690214276E-004;
2.403500000000000E+009;1.688028573989868E-001;5.395668745040894E-002;3.298876341432333E-003;-1.195356831885874E-003;
2.403666666666667E+009;1.703519076108933E-001;5.200456455349922E-002;3.276530653238297E-003;-1.231243717484176E-003;
2.403833333333334E+009;1.720703542232513E-001;4.982622340321541E-002;3.391258884221315E-003;-1.396260689944029E-003;
2.404000000000000E+009;1.736700087785721E-001;4.791628569364548E-002;3.289223415777087E-003;-1.614002510905266E-003;
2.404166666666667E+009;1.755595207214356E-001;4.640064015984535E-002;3.272156231105328E-003;-1.724866218864918E-003;
2.404333333333334E+009;1.772192120552063E-001;4.462533071637154E-002;3.125555114820600E-003;-1.935762236826122E-003;
2.404500000000000E+009;1.789716184139252E-001;4.326767101883888E-002;3.110112389549613E-003;-2.018600935116410E-003;
2.404666666666667E+009;1.806897073984146E-001;4.201878607273102E-002;3.157835686579347E-003;-2.166434191167355E-003;
2.404833333333334E+009;1.824514716863632E-001;4.089983925223351E-002;2.920900238677859E-003;-2.194949192926288E-003;
2.405000000000000E+009;1.837985217571259E-001;4.014745727181435E-002;2.840564819052815E-003;-2.208042657002807E-003;
2.405166666666667E+009;1.853133141994476E-001;3.923831135034561E-002;2.786325290799141E-003;-2.301324158906937E-003;
2.405333333333334E+009;1.868289113044739E-001;3.867448493838310E-002;2.473670057952404E-003;-2.402244601398706E-003;
2.405500000000000E+009;1.884149909019470E-001;3.818315267562866E-002;2.599334344267845E-003;-2.383667975664139E-003;
2.405666666666667E+009;1.895857751369476E-001;3.775608539581299E-002;2.401198027655482E-003;-2.519031753763557E-003;
2.405833333333334E+009;1.909260749816895E-001;3.752323240041733E-002;2.461411990225315E-003;-2.505096141248941E-003;
2.406000000000000E+009;1.920745819807053E-001;3.737961128354073E-002;2.338699297979474E-003;-2.638065489009023E-003;
2.406166666666667E+009;1.930886656045914E-001;3.715922310948372E-002;2.148442436009646E-003;-2.703139791265130E-003;
2.406333333333334E+009;1.941719502210617E-001;3.728393837809563E-002;2.253131242468953E-003;-2.634131815284491E-003;
2.406500000000000E+009;1.949059069156647E-001;3.731272742152214E-002;2.158065559342504E-003;-2.759065013378859E-003;
2.406666666666667E+009;1.956713497638702E-001;3.751081600785255E-002;1.974615268409252E-003;-2.920876489952207E-003;
2.406833333333334E+009;1.964083611965179E-001;3.749120980501175E-002;2.036033896729350E-003;-3.033779095858336E-003;
2.407000000000000E+009;1.966577768325806E-001;3.775657713413239E-002;1.872135559096932E-003;-2.963187173008919E-003;
2.407166666666667E+009;1.972470432519913E-001;3.780157491564751E-002;1.933638239279389E-003;-2.990734763443470E-003;
2.407333333333334E+009;1.972255706787109E-001;3.805817291140556E-002;1.879186020232737E-003;-3.131085075438023E-003;
2.407500000000000E+009;1.972148120403290E-001;3.834903985261917E-002;1.823163125663996E-003;-3.104198491200805E-003;
2.407666666666667E+009;1.972758620977402E-001;3.832000866532326E-002;1.678115804679692E-003;-3.079444635659456E-003;
2.407833333333334E+009;1.967852860689163E-001;3.850470855832100E-002;1.566795399412513E-003;-3.378777997568250E-003;
2.408000000000000E+009;1.967770010232925E-001;3.840394690632820E-002;1.549164415337145E-003;-3.374570515006781E-003;
2.408166666666667E+009;1.961817592382431E-001;3.823476657271385E-002;1.441734377294779E-003;-3.254859242588282E-003;
2.408333333333334E+009;1.957841813564301E-001;3.786935284733772E-002;1.296431291848421E-003;-3.353495849296451E-003;
2.408500000000000E+009;1.950324475765228E-001;3.792386874556541E-002;1.250041881576181E-003;-3.465278772637248E-003;
2.408666666666667E+009;1.944516450166702E-001;3.745073080062866E-002;1.129059237428010E-003;-3.445941489189863E-003;
2.408833333333334E+009;1.937635689973831E-001;3.689200058579445E-002;9.880424477159977E-004;-3.497332567349076E-003;
2.409000000000000E+009;1.927453875541687E-001;3.626516833901405E-002;1.054382068105042E-003;-3.431467572227120E-003;
2.409166666666667E+009;1.918142139911652E-001;3.537157922983170E-002;8.269629906862974E-004;-3.516079625114799E-003;
2.409333333333334E+009;1.910135895013809E-001;3.457983955740929E-002;7.649905746802688E-004;-3.551475005224347E-003;
2.409500000000000E+009;1.896483451128006E-001;3.345208615064621E-002;7.161000394262373E-004;-3.714799415320158E-003;
2.409666666666667E+009;1.886234581470490E-001;3.227261453866959E-002;6.547188386321068E-004;-3.678003093227744E-003;
2.409833333333334E+009;1.874522268772125E-001;3.089095093309879E-002;4.002966452389956E-004;-3.605649108067155E-003;
2.410000000000000E+009;1.864644587039948E-001;2.950439602136612E-002;3.201758372597396E-004;-3.680851543322206E-003;
2.410166666666667E+009;1.854458749294281E-001;2.772996760904789E-002;2.056339726550505E-004;-3.805530490353704E-003;
2.410333333333334E+009;1.842562109231949E-001;2.617030590772629E-002;-5.314886220730841E-005;-3.768692957237363E-003;
2.410500000000000E+009;1.831692904233933E-001;2.409523725509644E-002;-7.427581294905394E-005;-3.917538095265627E-003;
2.410666666666667E+009;1.821784377098084E-001;2.218837291002274E-002;-1.482956140534952E-004;-3.728698706254363E-003;
2.410833333333334E+009;1.815473735332489E-001;2.001248486340046E-002;-3.266046405769885E-004;-3.956585656851530E-003;
2.411000000000000E+009;1.807421445846558E-001;1.788899675011635E-002;-6.382397259585559E-004;-3.869115607813001E-003;
2.411166666666667E+009;1.798329949378967E-001;1.569366082549095E-002;-6.815913366153836E-004;-3.746252972632647E-003;
2.411333333333334E+009;1.791956871747971E-001;1.310245320200920E-002;-8.806574041955173E-004;-3.775856690481305E-003;
2.411500000000000E+009;1.788571476936340E-001;1.080291252583265E-002;-1.014027511700988E-003;-3.657372668385506E-003;
2.411666666666667E+009;1.783722043037415E-001;8.479813113808632E-003;-1.127943396568298E-003;-3.576159477233887E-003;
2.411833333333334E+009;1.780862212181091E-001;5.920713767409325E-003;-1.342528848908842E-003;-3.695117309689522E-003;
2.412000000000000E+009;1.782311499118805E-001;3.466313937678933E-003;-1.445042085833848E-003;-3.571416717022657E-003;
2.412166666666667E+009;1.780613511800766E-001;1.055945642292500E-003;-1.299836905673146E-003;-3.554897848516703E-003;
2.412333333333334E+009;1.780585795640945E-001;-1.458774320781231E-003;-1.565263490192592E-003;-3.299492644146085E-003;
2.412500000000000E+009;1.786282658576965E-001;-3.962150309234858E-003;-1.479317201301456E-003;-3.328585531562567E-003;
2.412666666666667E+009;1.790621280670166E-001;-6.361397448927164E-003;-1.550603657960892E-003;-3.171252086758614E-003;
2.412833333333334E+009;1.798682659864426E-001;-8.845578879117966E-003;-1.753263524733484E-003;-3.190560964867473E-003;
2.413000000000000E+009;1.803008019924164E-001;-1.134028658270836E-002;-1.685988041572273E-003;-2.964404644444585E-003;
2.413166666666667E+009;1.811219304800034E-001;-1.378622371703386E-002;-1.666214899159968E-003;-2.969963476061821E-003;
2.413333333333334E+009;1.822054386138916E-001;-1.607031747698784E-002;-1.714597921818495E-003;-3.001801669597626E-003;
2.413500000000000E+009;1.830376237630844E-001;-1.847831904888153E-002;-1.760305603966117E-003;-2.948652021586895E-003;
2.413666666666667E+009;1.842830181121826E-001;-2.070360258221626E-002;-1.974179875105619E-003;-2.999879885464907E-003;
2.413833333333334E+009;1.854239404201508E-001;-2.277614362537861E-002;-2.024105517193675E-003;-3.081724280491471E-003;
2.414000000000000E+009;1.864881664514542E-001;-2.490363270044327E-002;-2.232889644801617E-003;-3.136890009045601E-003;
2.414166666666667E+009;1.878826469182968E-001;-2.670357935130596E-002;-2.389270579442382E-003;-3.185197012498975E-003;
2.414333333333334E+009;1.888980269432068E-001;-2.885856851935387E-002;-2.415963215753436E-003;-3.092388389632106E-003;
2.414500000000000E+009;1.902201175689697E-001;-3.028334118425846E-002;-2.702254801988602E-003;-3.022597171366215E-003;
2.414666666666667E+009;1.917347908020020E-001;-3.203293681144714E-002;-3.041849238798022E-003;-2.837126376107335E-003;
2.414833333333334E+009;1.927510648965836E-001;-3.338491171598434E-002;-2.932725241407752E-003;-2.756163012236357E-003;
2.415000000000000E+009;1.940317451953888E-001;-3.475954383611679E-002;-3.281107870861888E-003;-2.570141805335879E-003;
2.415166666666667E+009;1.953777968883514E-001;-3.602460771799088E-002;-3.258554032072425E-003;-2.422725548967719E-003;
2.415333333333334E+009;1.966089308261871E-001;-3.699994459748268E-002;-3.448694478720427E-003;-2.338446676731110E-003;
2.415500000000000E+009;1.978496611118317E-001;-3.767235577106476E-002;-3.497879486531019E-003;-2.181846415624023E-003;
2.415666666666667E+009;1.990154981613159E-001;-3.867025300860405E-002;-3.527211258187890E-003;-1.993153477087617E-003;
2.415833333333334E+009;2.001084834337235E-001;-3.932087123394013E-002;-3.684622002765536E-003;-1.852520508691669E-003;
2.416000000000000E+009;2.009489089250565E-001;-3.979687765240669E-002;-3.709410550072789E-003;-1.617224072106183E-003;
2.416166666666667E+009;2.018351405858994E-001;-4.043987393379211E-002;-3.752005752176046E-003;-1.590680447407067E-003;
2.416333333333334E+009;2.025068551301956E-001;-4.073103517293930E-002;-3.750502131879330E-003;-1.231277710758150E-003;
2.416500000000000E+009;2.031667828559876E-001;-4.085679724812508E-002;-3.682027570903301E-003;-1.149937161244452E-003;
2.416666666666667E+009;2.036242187023163E-001;-4.143244028091431E-002;-3.650472266599536E-003;-8.841676753945649E-004;
2.416833333333334E+009;2.040035426616669E-001;-4.136203974485397E-002;-3.715271595865488E-003;-7.871491834521294E-004;
2.417000000000000E+009;2.043070495128632E-001;-4.145819321274757E-002;-3.655743319541216E-003;-6.273694452829659E-004;
2.417166666666667E+009;2.040728777647018E-001;-4.127624258399010E-002;-3.736287355422974E-003;-4.857368767261505E-004;
2.417333333333334E+009;2.040740996599197E-001;-4.108041524887085E-002;-3.540332894772291E-003;-4.059119964949787E-004;
2.417500000000000E+009;2.038196474313736E-001;-4.114353284239769E-002;-3.452979261055589E-003;-4.174847272224724E-004;
2.417666666666667E+009;2.035372555255890E-001;-4.085745289921761E-002;-3.609892446547747E-003;-4.088743589818478E-004;
2.417833333333334E+009;2.031217068433762E-001;-4.062536731362343E-002;-3.542002290487289E-003;-2.261389454361051E-004;
2.418000000000000E+009;2.025319039821625E-001;-4.019707813858986E-002;-3.534701187163591E-003;-2.286167873535305E-004;
2.418166666666667E+009;2.018838971853256E-001;-4.019165039062500E-002;-3.510948503389955E-003;-7.365061901509762E-005;
2.418333333333334E+009;2.010700106620789E-001;-3.985432162880898E-002;-3.547424450516701E-003;-8.061582775553688E-005;
2.418500000000000E+009;2.001688331365585E-001;-3.975989297032356E-002;-3.616604721173644E-003;7.897579052951187E-005;
2.418666666666667E+009;1.992672085762024E-001;-3.972368687391281E-002;-3.754496108740568E-003;1.015628731693141E-004;
2.418833333333334E+009;1.979525089263916E-001;-3.969871997833252E-002;-3.711383789777756E-003;2.506305463612080E-004;
2.419000000000000E+009;1.966820210218430E-001;-3.992602229118347E-002;-3.958266694098711E-003;4.788184596691281E-004;
2.419166666666667E+009;1.954549700021744E-001;-4.005760699510574E-002;-3.767354646697640E-003;6.323012057691813E-004;
2.419333333333334E+009;1.939797252416611E-001;-4.047354683279991E-002;-3.929139580577612E-003;9.167345124296844E-004;
2.419500000000000E+009;1.925614923238754E-001;-4.092976078391075E-002;-3.740036394447088E-003;1.017274451442063E-003;
2.419666666666667E+009;1.909326612949371E-001;-4.164452478289604E-002;-3.814897034317255E-003;1.124050933867693E-003;
2.419833333333334E+009;1.893129944801331E-001;-4.224884882569313E-002;-3.769079456105828E-003;1.375615131109953E-003;
2.420000000000000E+009;1.877463907003403E-001;-4.293855652213097E-002;-3.686032490804792E-003;1.543159363791347E-003;
2.420166666666667E+009;1.859788000583649E-001;-4.389581829309464E-002;-3.514387644827366E-003;1.789231901057065E-003;
2.420333333333334E+009;1.843987852334976E-001;-4.488509148359299E-002;-3.355762455612421E-003;1.822456368245184E-003;
2.420500000000000E+009;1.825727671384811E-001;-4.636101424694061E-002;-3.201480954885483E-003;2.042271429672837E-003;
2.420666666666667E+009;1.808813363313675E-001;-4.727696254849434E-002;-3.103163791820407E-003;2.199175534769893E-003;
2.420833333333334E+009;1.791510432958603E-001;-4.895660281181335E-002;-3.014622256159782E-003;2.363398903980851E-003;
2.421000000000000E+009;1.776679754257202E-001;-5.051352828741074E-002;-2.706490224227309E-003;2.290349220857024E-003;
2.421166666666667E+009;1.760185956954956E-001;-5.231483653187752E-002;-2.694737864658237E-003;2.265449380502105E-003;
2.421333333333334E+009;1.743727773427963E-001;-5.378521606326103E-002;-2.630752045661211E-003;2.402910264208913E-003;
2.421500000000000E+009;1.727592647075653E-001;-5.572379007935524E-002;-2.467316808179021E-003;2.567359711974859E-003;
2.421666666666667E+009;1.716151088476181E-001;-5.762741714715958E-002;-2.311954973265529E-003;2.570770680904388E-003;
2.421833333333334E+009;1.702727675437927E-001;-5.950653553009033E-002;-2.163851400837302E-003;2.489837119355798E-003;
2.422000000000000E+009;1.691171675920487E-001;-6.149366125464439E-002;-2.169794868677855E-003;2.467641374096274E-003;
2.422166666666667E+009;1.679418087005615E-001;-6.374504417181015E-002;-2.102040685713291E-003;2.499788533896208E-003;
2.422333333333334E+009;1.669141352176666E-001;-6.577853113412857E-002;-1.906582387164235E-003;2.631921786814928E-003;
2.422500000000000E+009;1.660818755626679E-001;-6.781993061304092E-002;-1.840471639297903E-003;2.633243566378951E-003;
2.422666666666667E+009;1.653193682432175E-001;-6.983488798141480E-002;-1.618954818695784E-003;2.613506512716413E-003;
2.422833333333334E+009;1.648308783769608E-001;-7.198782265186310E-002;-1.602825941517949E-003;2.726407954469323E-003;
2.423000000000000E+009;1.642144173383713E-001;-7.429002970457077E-002;-1.432657591067255E-003;2.690552501007915E-003;
2.423166666666667E+009;1.638035178184509E-001;-7.628679275512695E-002;-1.313403365202248E-003;2.667158376425505E-003;
2.423333333333334E+009;1.634120196104050E-001;-7.839638739824295E-002;-1.227948581799865E-003;2.816927619278431E-003;
2.423500000000000E+009;1.635418385267258E-001;-8.029478788375855E-002;-1.194774056784809E-003;2.726760460063815E-003;
2.423666666666667E+009;1.634872704744339E-001;-8.244411647319794E-002;-1.128276227973402E-003;2.649913076311350E-003;
2.423833333333334E+009;1.633013337850571E-001;-8.425846695899963E-002;-1.110212062485516E-003;2.688544569537044E-003;
2.424000000000000E+009;1.634254008531570E-001;-8.631163835525513E-002;-9.149067336693406E-004;2.750672167167068E-003;
2.424166666666667E+009;1.636036783456802E-001;-8.788374811410904E-002;-9.082717588171363E-004;2.622943837195635E-003;
2.424333333333334E+009;1.639475077390671E-001;-8.964767307043076E-002;-6.055039120838046E-004;2.665827982127667E-003;
2.424500000000000E+009;1.643297523260117E-001;-9.140439331531525E-002;-7.960693910717964E-004;2.662831684574485E-003;
2.424666666666667E+009;1.647157967090607E-001;-9.293012320995331E-002;-5.776054458692670E-004;2.622824162244797E-003;
2.424833333333334E+009;1.652103960514069E-001;-9.434473514556885E-002;-5.538907134905458E-004;2.706988714635372E-003;
2.425000000000000E+009;1.655782163143158E-001;-9.557787328958511E-002;-4.076095647178590E-004;2.539621898904443E-003;
2.425166666666667E+009;1.659886687994003E-001;-9.677395969629288E-002;-3.274257469456643E-004;2.664868952706456E-003;
2.425333333333334E+009;1.664204299449921E-001;-9.785159677267075E-002;-2.503743744455278E-004;2.667757682502270E-003;
2.425500000000000E+009;1.670569181442261E-001;-9.900883585214615E-002;-1.350797392660752E-004;2.507756697013974E-003;
2.425666666666667E+009;1.674572527408600E-001;-9.956762939691544E-002;-8.740591147216037E-005;2.570571843534708E-003;
2.425833333333334E+009;1.677556186914444E-001;-1.005625575780869E-001;1.795918979041744E-005;2.573088742792606E-003;
2.426000000000000E+009;1.684150099754334E-001;-1.010768041014671E-001;4.873452417086810E-005;2.547945594415069E-003;
2.426166666666667E+009;1.690085977315903E-001;-1.015787050127983E-001;2.570831566117704E-004;2.561708679422736E-003;
2.426333333333334E+009;1.692315191030502E-001;-1.022286042571068E-001;2.366448316024616E-004;2.635093871504068E-003;
2.426500000000000E+009;1.697686165571213E-001;-1.024892702698708E-001;3.041434683836997E-004;2.362941857427359E-003;
2.426666666666667E+009;1.701596081256867E-001;-1.028406396508217E-001;3.679941582959145E-004;2.398443175479770E-003;
2.426833333333334E+009;1.704476922750473E-001;-1.030990779399872E-001;4.293695383239538E-004;2.361723454669118E-003;
2.427000000000000E+009;1.706604957580566E-001;-1.032647788524628E-001;3.422502777539194E-004;2.258451189845800E-003;
2.427166666666667E+009;1.708330214023590E-001;-1.032987907528877E-001;3.002306912094355E-004;2.194310771301389E-003;
2.427333333333334E+009;1.709267497062683E-001;-1.034725382924080E-001;5.146526964381337E-004;2.185586141422391E-003;
2.427500000000000E+009;1.707263737916946E-001;-1.035718619823456E-001;5.442253896035254E-004;2.091068541631103E-003;
2.427666666666667E+009;1.705813258886337E-001;-1.035883426666260E-001;5.077565438114107E-004;1.915155444294214E-003;
