# Version 1.00
#
freq[Hz];re:Trc1_S11;im:Trc1_S11;re:Trc2_S21;im:Trc2_S21;
2.400000000000000E+009;1.580747663974762E-001;6.266842782497406E-002;-3.305943682789803E-003;-7.556154159829021E-004;
2.400166666666667E+009;1.580749601125717E-001;6.125358119606972E-002;-3.505821339786053E-003;-6.082234904170036E-004;
2.400333333333334E+009;1.580471247434616E-001;5.906522274017334E-002;-3.271978814154863E-003;-3.447267226874828E-004;
2.400500000000000E+009;1.578447222709656E-001;5.726557597517967E-002;-3.402130212634802E-003;-3.458542341832072E-004;
2.400666666666667E+009;1.577702760696411E-001;5.529790744185448E-002;-3.274283604696393E-003;-1.487921836087480E-004;
2.400833333333334E+009;1.580653786659241E-001;5.330074578523636E-002;-3.239905927330256E-003;-3.011627450177912E-005;
2.401000000000000E+009;1.580789834260941E-001;5.107033997774124E-002;-3.094276413321495E-003;-3.948596349800937E-005;
2.401166666666667E+009;1.582561284303665E-001;4.904737696051598E-002;-2.864609006792307E-003;1.439758198102936E-004;
2.401333333333334E+009;1.580385267734528E-001;4.697502031922340E-002;-3.032062202692032E-003;1.439551851944998E-004;
2.401500000000000E+009;1.586678177118301E-001;4.488283395767212E-002;-2.848092699423432E-003;1.148590381490067E-004;
2.401666666666667E+009;1.591541022062302E-001;4.303786531090736E-002;-2.844393020495772E-003;2.778147172648460E-004;
2.401833333333334E+009;1.593420058488846E-001;4.075541719794273E-002;-2.789648249745369E-003;3.281182725913823E-004;
2.402000000000000E+009;1.597117483615875E-001;3.874598816037178E-002;-2.689609536901116E-003;4.216425586491823E-004;
2.402166666666667E+009;1.603919118642807E-001;3.675395250320435E-002;-2.540512476116419E-003;5.281668854877353E-004;
2.402333333333334E+009;1.608388572931290E-001;3.493629768490791E-002;-2.474165055900812E-003;5.422863760031760E-004;
2.402500000000000E+009;1.616647988557816E-001;3.310173004865646E-002;-2.477861242368817E-003;5.618255818262696E-004;
2.402666666666667E+009;1.622412353754044E-001;3.126891702413559E-002;-2.438868628814817E-003;6.149376858957112E-004;
2.402833333333334E+009;1.630541831254959E-001;2.945739775896072E-002;-2.314641140401363E-003;5.541786085814238E-004;
2.403000000000000E+009;1.639320701360703E-001;2.801743149757385E-002;-2.365764696151018E-003;7.102186209522188E-004;
2.403166666666667E+009;1.647874265909195E-001;2.628866396844387E-002;-2.313815057277679E-003;6.804266013205051E-004;
2.403333333333334E+009;1.656191945075989E-001;2.476944401860237E-002;-2.053782809525728E-003;8.103044237941504E-004;
2.403500000000000E+009;1.665144115686417E-001;2.339069545269013E-002;-2.247555879876018E-003;8.873913320712745E-004;
2.403666666666667E+009;1.676811873912811E-001;2.203458361327648E-002;-2.059143036603928E-003;8.304833318106830E-004;
2.403833333333334E+009;1.686463207006455E-001;2.076995186507702E-002;-2.248580334708095E-003;8.871076279319823E-004;
2.404000000000000E+009;1.695825159549713E-001;1.942686736583710E-002;-2.018480328842998E-003;9.572264971211553E-004;
2.404166666666667E+009;1.704403162002564E-001;1.827458292245865E-002;-2.108116867020726E-003;8.510246407240629E-004;
2.404333333333334E+009;1.712782084941864E-001;1.735210232436657E-002;-1.813763286918402E-003;9.459065040573478E-004;
2.404500000000000E+009;1.723147034645081E-001;1.621813513338566E-002;-1.887435093522072E-003;1.049814745783806E-003;
2.404666666666667E+009;1.732763350009918E-001;1.550244167447090E-002;-2.059936523437500E-003;1.086354954168201E-003;
2.404833333333334E+009;1.742357164621353E-001;1.474336814135313E-002;-1.801774604246020E-003;1.265075639821589E-003;
2.405000000000000E+009;1.750860512256622E-001;1.396864093840122E-002;-1.637419336475432E-003;1.258118310943246E-003;
2.405166666666667E+009;1.758446246385574E-001;1.334866974502802E-002;-1.719087478704751E-003;1.320056617259979E-003;
2.405333333333334E+009;1.768673807382584E-001;1.257563009858131E-002;-1.756684039719403E-003;1.328202080912888E-003;
2.405500000000000E+009;1.773149222135544E-001;1.231250911951065E-002;-1.588636892847717E-003;1.527873915620148E-003;
2.405666666666667E+009;1.782021671533585E-001;1.184476073831320E-002;-1.552486908622086E-003;1.403388218022883E-003;
2.405833333333334E+009;1.786359399557114E-001;1.132556982338429E-002;-1.436048070900142E-003;1.531014335341752E-003;
2.406000000000000E+009;1.792550832033157E-001;1.084155309945345E-002;-1.437715603969991E-003;1.416447106748819E-003;
2.406166666666667E+009;1.795501857995987E-001;1.081742346286774E-002;-1.158729079179466E-003;1.478702528402209E-003;
2.406333333333334E+009;1.800632476806641E-001;1.042691804468632E-002;-1.065350254066289E-003;1.347271143458784E-003;
2.406500000000000E+009;1.802926659584045E-001;1.004556100815535E-002;-1.135133556090295E-003;1.539001590572298E-003;
2.406666666666667E+009;1.804247945547104E-001;9.893872775137425E-003;-8.220896706916392E-004;1.533737988211215E-003;
2.406833333333334E+009;1.806545704603195E-001;9.615790098905563E-003;-8.574346429668367E-004;1.449296833015978E-003;
2.407000000000000E+009;1.808767914772034E-001;9.180149994790554E-003;-6.874917889945209E-004;1.388123491778970E-003;
2.407166666666667E+009;1.809332221746445E-001;8.986344560980797E-003;-6.970539106987417E-004;1.415706938132644E-003;
2.407333333333334E+009;1.807392984628677E-001;8.460634388029575E-003;-6.249703001230955E-004;1.485566142946482E-003;
2.407500000000000E+009;1.805509328842163E-001;8.125050924718380E-003;-4.662286664824933E-004;1.242064288817346E-003;
2.407666666666667E+009;1.803685873746872E-001;7.663927040994167E-003;-4.421535704750568E-004;1.195324468426406E-003;
2.407833333333334E+009;1.798941195011139E-001;7.007917389273644E-003;-4.485194222070277E-004;1.018330920487642E-003;
2.408000000000000E+009;1.795612275600433E-001;6.498949136584997E-003;-3.925435012206435E-004;1.195971388369799E-003;
2.408166666666667E+009;1.791183948516846E-001;5.863049067556858E-003;-4.049652197863907E-004;9.007239132188261E-004;
2.408333333333334E+009;1.787218451499939E-001;5.225681699812412E-003;-3.479501756373793E-004;9.542090701870620E-004;
2.408500000000000E+009;1.782202571630478E-001;4.357193130999804E-003;-3.536402655299753E-004;8.866766584105790E-004;
2.408666666666667E+009;1.775161027908325E-001;3.495408687740564E-003;-2.773228334262967E-004;6.286643911153078E-004;
2.408833333333334E+009;1.768876612186432E-001;2.459043171256781E-003;-3.013145760633051E-004;7.096814806573093E-004;
2.409000000000000E+009;1.761390864849091E-001;1.701241475529969E-003;-1.594386267242953E-004;6.314238416962326E-004;
2.409166666666667E+009;1.755277067422867E-001;4.352020914666355E-004;-3.550571564119309E-004;4.192914057057351E-004;
2.409333333333334E+009;1.747630387544632E-001;-8.320737979374826E-004;-3.518421726766974E-004;4.332479729782790E-004;
2.409500000000000E+009;1.740682423114777E-001;-2.222313312813640E-003;-4.178020753897727E-004;4.944334505125880E-004;
2.409666666666667E+009;1.733068674802780E-001;-3.502481384202838E-003;-5.908762104809284E-004;5.519824335351586E-004;
2.409833333333334E+009;1.725109666585922E-001;-4.893971607089043E-003;-4.038461484014988E-004;4.271957732271403E-004;
2.410000000000000E+009;1.719650328159332E-001;-6.458729039877653E-003;-5.857602809555829E-004;3.617110778577626E-004;
2.410166666666667E+009;1.712925732135773E-001;-8.022752590477467E-003;-4.123006074223667E-004;3.902097523678094E-004;
2.410333333333334E+009;1.707875430583954E-001;-9.646947495639324E-003;-5.272373091429472E-004;4.585528513416648E-004;
2.410500000000000E+009;1.702528744935989E-001;-1.135916449129582E-002;-6.449965876527131E-004;4.328346694819629E-004;
2.410666666666667E+009;1.696792095899582E-001;-1.314439810812473E-002;-6.553306011483073E-004;3.709235170390457E-004;
2.410833333333334E+009;1.692880541086197E-001;-1.493299473077059E-002;-8.928009774535894E-004;2.069946931442246E-004;
2.411000000000000E+009;1.688126623630524E-001;-1.700497791171074E-002;-8.942842250689864E-004;2.359802747378126E-004;
2.411166666666667E+009;1.685476452112198E-001;-1.897287182509899E-002;-7.574773626402021E-004;4.543092800304294E-004;
2.411333333333334E+009;1.681332588195801E-001;-2.060418576002121E-002;-8.465376449748874E-004;4.380985919851810E-004;
2.411500000000000E+009;1.678079068660736E-001;-2.283344417810440E-002;-9.575657895766199E-004;2.003479748964310E-004;
2.411666666666667E+009;1.680887043476105E-001;-2.475748024880886E-002;-9.212398435920477E-004;3.899353323504329E-004;
2.411833333333334E+009;1.680187433958054E-001;-2.655576914548874E-002;-1.233770512044430E-003;4.186358419246972E-004;
2.412000000000000E+009;1.680061668157578E-001;-2.864600904285908E-002;-1.070515369065106E-003;5.181620363146067E-004;
2.412166666666667E+009;1.679502576589584E-001;-3.073122538626194E-002;-1.164641347713769E-003;5.386582924984396E-004;
2.412333333333334E+009;1.684523224830627E-001;-3.263007476925850E-002;-1.178731326945126E-003;6.054333643987775E-004;
2.412500000000000E+009;1.684631556272507E-001;-3.433211892843247E-002;-1.257376046851277E-003;5.221116589382291E-004;
2.412666666666667E+009;1.688396632671356E-001;-3.631400689482689E-002;-1.179757295176387E-003;6.568494718521833E-004;
2.412833333333334E+009;1.691329032182694E-001;-3.821738809347153E-002;-1.243069535121322E-003;7.939896313473582E-004;
2.413000000000000E+009;1.695805639028549E-001;-3.991709649562836E-002;-1.320473616942763E-003;8.114792290143669E-004;
2.413166666666667E+009;1.700152456760407E-001;-4.171318560838699E-002;-1.169926137663424E-003;8.211144595406950E-004;
2.413333333333334E+009;1.703195869922638E-001;-4.330627620220184E-002;-1.248042332008481E-003;8.711623377166688E-004;
2.413500000000000E+009;1.709789633750916E-001;-4.510151222348213E-002;-1.261544297449291E-003;9.223411907441914E-004;
2.413666666666667E+009;1.714983731508255E-001;-4.660272598266602E-002;-1.318502705544233E-003;9.371265186928213E-004;
2.413833333333334E+009;1.719409376382828E-001;-4.808891564607620E-002;-1.311152474954724E-003;1.022292533889413E-003;
2.414000000000000E+009;1.723318397998810E-001;-4.958802461624146E-002;-1.287940423935652E-003;1.052857609465718E-003;
2.414166666666667E+009;1.731736063957214E-001;-5.083046481013298E-002;-1.141146756708622E-003;1.246352563612163E-003;
2.414333333333334E+009;1.737528145313263E-001;-5.202377587556839E-002;-1.222145627252758E-003;1.173035590909421E-003;
2.414500000000000E+009;1.743641495704651E-001;-5.317595228552818E-002;-1.228462439030409E-003;1.261023106053472E-003;
2.414666666666667E+009;1.748053282499313E-001;-5.415041744709015E-002;-1.211126684211195E-003;1.322016003541648E-003;
2.414833333333334E+009;1.753171831369400E-001;-5.530176684260368E-002;-1.208735746331513E-003;1.408842043019831E-003;
2.415000000000000E+009;1.757674068212509E-001;-5.611418932676315E-002;-9.517160942777991E-004;1.481694751419127E-003;
2.415166666666667E+009;1.762533634901047E-001;-5.689861997961998E-002;-1.008364837616682E-003;1.559243304654956E-003;
2.415333333333334E+009;1.767698824405670E-001;-5.758425965905190E-002;-8.413926698267460E-004;1.535857096314430E-003;
2.415500000000000E+009;1.769874393939972E-001;-5.816071480512619E-002;-8.476225775666535E-004;1.538779935799539E-003;
2.415666666666667E+009;1.773812025785446E-001;-5.862568691372871E-002;-8.553324732929468E-004;1.695900689810515E-003;
2.415833333333334E+009;1.776554137468338E-001;-5.912098661065102E-002;-8.513425127603114E-004;1.677358290180564E-003;
2.416000000000000E+009;1.775422543287277E-001;-5.958290025591850E-002;-9.172935970127583E-004;1.674067578278482E-003;
2.416166666666667E+009;1.778534948825836E-001;-5.993807688355446E-002;-9.431694634258747E-004;1.659625559113920E-003;
2.416333333333334E+009;1.778669506311417E-001;-6.017582863569260E-002;-9.041153825819492E-004;1.645218231715262E-003;
2.416500000000000E+009;1.777809113264084E-001;-6.052449718117714E-002;-9.043099707923830E-004;1.624385244213045E-003;
2.416666666666667E+009;1.774289011955261E-001;-6.064049527049065E-002;-7.573800976388156E-004;1.574190566316247E-003;
2.416833333333334E+009;1.773642450571060E-001;-6.103284284472466E-002;-7.160173263400793E-004;1.757880207151175E-003;
2.417000000000000E+009;1.768708974123001E-001;-6.123964115977287E-002;-8.223443874157965E-004;1.832111738622189E-003;
2.417166666666667E+009;1.763698756694794E-001;-6.128205731511116E-002;-5.734161240980029E-004;1.830565161071718E-003;
2.417333333333334E+009;1.758150011301041E-001;-6.144359707832336E-002;-7.487543043680489E-004;1.933649764396250E-003;
2.417500000000000E+009;1.752153486013413E-001;-6.185228377580643E-002;-7.100467919372022E-004;1.889332197606564E-003;
2.417666666666667E+009;1.746807843446732E-001;-6.185670569539070E-002;-7.816196884959936E-004;2.023614477366209E-003;
2.417833333333334E+009;1.738055199384689E-001;-6.218074634671211E-002;-7.061952492222190E-004;2.075721509754658E-003;
2.418000000000000E+009;1.728135943412781E-001;-6.259787082672119E-002;-5.893336492590606E-004;1.969773555174470E-003;
2.418166666666667E+009;1.719315648078919E-001;-6.263584643602371E-002;-6.102063925936818E-004;2.069897251203656E-003;
2.418333333333334E+009;1.710892617702484E-001;-6.317720562219620E-002;-6.265974952839315E-004;2.158440416678786E-003;
2.418500000000000E+009;1.700003892183304E-001;-6.343075633049011E-002;-5.392641760408878E-004;2.190367784351111E-003;
2.418666666666667E+009;1.688775867223740E-001;-6.399792432785034E-002;-5.152070662006736E-004;2.291209530085325E-003;
2.418833333333334E+009;1.676019579172134E-001;-6.457563489675522E-002;-5.600572912953794E-004;2.347809495404363E-003;
2.419000000000000E+009;1.665044575929642E-001;-6.505769491195679E-002;-7.459431653842330E-004;2.439831849187613E-003;
2.419166666666667E+009;1.652310937643051E-001;-6.567526608705521E-002;-4.425355291459709E-004;2.559090964496136E-003;
2.419333333333334E+009;1.639893651008606E-001;-6.630055606365204E-002;-5.334365414455533E-004;2.670493908226490E-003;
2.419500000000000E+009;1.628736257553101E-001;-6.717215478420258E-002;-3.579148615244776E-004;2.773718675598502E-003;
2.419666666666667E+009;1.617562472820282E-001;-6.807547807693481E-002;-3.520065220072866E-004;2.818613080307841E-003;
2.419833333333334E+009;1.603143215179443E-001;-6.904716044664383E-002;-3.097167646046728E-004;2.985551487654448E-003;
2.420000000000000E+009;1.592815816402435E-001;-7.003905624151230E-002;-1.568905572639778E-004;3.052107989788055E-003;
2.420166666666667E+009;1.581614464521408E-001;-7.112196832895279E-002;-5.361978764995001E-005;3.185483161360025E-003;
2.420333333333334E+009;1.571777313947678E-001;-7.226863503456116E-002;6.095462958910503E-005;3.256814554333687E-003;
2.420500000000000E+009;1.561222523450851E-001;-7.350834459066391E-002;5.556618634727784E-005;3.293574787676334E-003;
2.420666666666667E+009;1.550249755382538E-001;-7.473928481340408E-002;2.120220597134903E-004;3.474590368568897E-003;
2.420833333333334E+009;1.543182283639908E-001;-7.629407942295075E-002;4.215373774059117E-004;3.425570204854012E-003;
2.421000000000000E+009;1.531768590211868E-001;-7.773010432720184E-002;6.267796270549297E-004;3.522692248225212E-003;
2.421166666666667E+009;1.525446176528931E-001;-7.917983829975128E-002;6.835324456915259E-004;3.711310448125005E-003;
2.421333333333334E+009;1.519559025764465E-001;-8.079580217599869E-002;8.158394484780729E-004;3.800143254920840E-003;
2.421500000000000E+009;1.511511504650116E-001;-8.236065506935120E-002;1.090403762646020E-003;3.689107019454241E-003;
2.421666666666667E+009;1.508759856224060E-001;-8.411606401205063E-002;1.203438150696456E-003;3.702252404764295E-003;
2.421833333333334E+009;1.502124220132828E-001;-8.566156029701233E-002;1.429839059710503E-003;3.800663165748119E-003;
2.422000000000000E+009;1.499243527650833E-001;-8.737745881080627E-002;1.688131014816463E-003;3.768669907003641E-003;
2.422166666666667E+009;1.495898216962814E-001;-8.938954770565033E-002;1.852400950156152E-003;3.742425702512264E-003;
2.422333333333334E+009;1.493760347366333E-001;-9.095745533704758E-002;2.085516462102532E-003;3.833106951788068E-003;
2.422500000000000E+009;1.493206769227982E-001;-9.272630512714386E-002;2.297126920893788E-003;3.710000310093164E-003;
2.422666666666667E+009;1.491481214761734E-001;-9.453932940959930E-002;2.376755932345986E-003;3.684385214000940E-003;
2.422833333333334E+009;1.494068503379822E-001;-9.620507061481476E-002;2.777804620563984E-003;3.645633347332478E-003;
2.423000000000000E+009;1.494477838277817E-001;-9.795741736888886E-002;2.736301627010107E-003;3.582177683711052E-003;
2.423166666666667E+009;1.497655510902405E-001;-9.951825439929962E-002;2.946484601125121E-003;3.496583085507155E-003;
2.423333333333334E+009;1.500412970781326E-001;-1.010848730802536E-001;3.359421156346798E-003;3.378300229087472E-003;
2.423500000000000E+009;1.501062512397766E-001;-1.028051227331162E-001;3.481207415461540E-003;3.234528005123138E-003;
2.423666666666667E+009;1.504924893379211E-001;-1.044571846723557E-001;3.690133336931467E-003;3.140814835205674E-003;
2.423833333333334E+009;1.510223299264908E-001;-1.058561131358147E-001;4.030344542115927E-003;2.953445771709085E-003;
2.424000000000000E+009;1.512106806039810E-001;-1.071417704224587E-001;3.985920455306768E-003;2.894797362387180E-003;
2.424166666666667E+009;1.517626047134399E-001;-1.083998829126358E-001;4.203484859317541E-003;2.599666360765696E-003;
2.424333333333334E+009;1.521954983472824E-001;-1.097133681178093E-001;4.268439020961523E-003;2.347070025280118E-003;
2.424500000000000E+009;1.526994705200195E-001;-1.108611151576042E-001;4.533391911536455E-003;2.382184145972133E-003;
2.424666666666667E+009;1.533814817667007E-001;-1.118302196264267E-001;4.614418838173151E-003;2.008185489103198E-003;
2.424833333333334E+009;1.535406708717346E-001;-1.129121780395508E-001;4.793105646967888E-003;1.774705480784178E-003;
2.425000000000000E+009;1.542349904775620E-001;-1.138413324952126E-001;4.836847074329853E-003;1.533878617919982E-003;
2.425166666666667E+009;1.545041054487228E-001;-1.147129833698273E-001;4.858607426285744E-003;1.277264556847513E-003;
2.425333333333334E+009;1.549771577119827E-001;-1.154303848743439E-001;4.916509147733450E-003;1.016510766930878E-003;
2.425500000000000E+009;1.554472893476486E-001;-1.161458343267441E-001;5.018893629312515E-003;9.188395342789590E-004;
2.425666666666667E+009;1.556507050991058E-001;-1.168262213468552E-001;5.139938555657864E-003;5.218875594437122E-004;
2.425833333333334E+009;1.559559255838394E-001;-1.172822788357735E-001;5.142552778124809E-003;4.229546466376633E-004;
2.426000000000000E+009;1.561247259378433E-001;-1.178057640790939E-001;5.185492336750031E-003;2.387964195804671E-004;
2.426166666666667E+009;1.565078794956207E-001;-1.181479692459106E-001;5.046660546213388E-003;-7.766234193695709E-005;
2.426333333333334E+009;1.564671546220779E-001;-1.184953004121780E-001;5.073176231235266E-003;-1.246871979674324E-004;
2.426500000000000E+009;1.565080285072327E-001;-1.187271922826767E-001;5.193851422518492E-003;-4.935823963023722E-004;
2.426666666666667E+009;1.565667092800140E-001;-1.187605112791061E-001;5.042882170528173E-003;-7.152550388127565E-004;
2.426833333333334E+009;1.563856154680252E-001;-1.190834492444992E-001;4.967887885868549E-003;-8.778456831350923E-004;
2.427000000000000E+009;1.560088843107224E-001;-1.191757991909981E-001;4.834725987166166E-003;-1.110300188884139E-003;
2.427166666666667E+009;1.556685864925385E-001;-1.191981583833695E-001;5.034012254327536E-003;-1.231197384186089E-003;
2.427333333333334E+009;1.551552414894104E-001;-1.193275675177574E-001;4.817707929760218E-003;-1.325744320638478E-003;
2.427500000000000E+009;1.547881066799164E-001;-1.193803772330284E-001;4.745477810502052E-003;-1.668674289248884E-003;
2.427666666666667E+009;1.540869474411011E-001;-1.193746030330658E-001;4.597510211169720E-003;-1.748534617945552E-003;
2.427833333333334E+009;1.532245278358460E-001;-1.195145398378372E-001;4.528224933892489E-003;-1.845083199441433E-003;
