# Version 1.00
#
freq[Hz];re:Trc1_S11;im:Trc1_S11;re:Trc2_S21;im:Trc2_S21;
2.400000000000000E+009;1.580428183078766E-001;6.273804605007172E-002;-3.341207746416330E-003;-7.061222568154335E-004;
2.400166666666667E+009;1.580288857221603E-001;6.099486351013184E-002;-3.422322915866971E-003;-5.048525054007769E-004;
2.400333333333334E+009;1.578674763441086E-001;5.913408845663071E-002;-3.420243039727211E-003;-4.889270639978349E-004;
2.400500000000000E+009;1.579485535621643E-001;5.723954737186432E-002;-3.211335744708777E-003;-2.040024992311373E-004;
2.400666666666667E+009;1.578289121389389E-001;5.515579506754875E-002;-3.287117462605238E-003;-3.536668373271823E-004;
2.400833333333334E+009;1.579185277223587E-001;5.329485982656479E-002;-3.337916452437639E-003;-1.874351000878960E-004;
2.401000000000000E+009;1.580187678337097E-001;5.124336481094360E-002;-3.037656424567103E-003;-7.777252903906629E-005;
2.401166666666667E+009;1.581704169511795E-001;4.900980740785599E-002;-3.163110930472612E-003;7.218629616545513E-005;
2.401333333333334E+009;1.584158092737198E-001;4.704695567488670E-002;-2.971646841615439E-003;7.405585347441956E-005;
2.401500000000000E+009;1.588802337646484E-001;4.493014514446259E-002;-2.882980741560459E-003;2.930714690592140E-004;
2.401666666666667E+009;1.590193808078766E-001;4.294085875153542E-002;-2.820282941684127E-003;2.441254036966711E-004;
2.401833333333334E+009;1.595125496387482E-001;4.079349711537361E-002;-2.792654559016228E-003;3.844643651973456E-004;
2.402000000000000E+009;1.596992760896683E-001;3.895693644881249E-002;-2.513285027816892E-003;4.086707776878029E-004;
2.402166666666667E+009;1.602478474378586E-001;3.678311780095100E-002;-2.667864086106420E-003;3.720846434589475E-004;
2.402333333333334E+009;1.607364118099213E-001;3.507191687822342E-002;-2.505122916772962E-003;4.967463901266456E-004;
2.402500000000000E+009;1.618218719959259E-001;3.322937339544296E-002;-2.543858019635081E-003;5.928029422648251E-004;
2.402666666666667E+009;1.623031497001648E-001;3.139469027519226E-002;-2.414811402559280E-003;5.985876196064055E-004;
2.402833333333334E+009;1.631588041782379E-001;2.947567217051983E-002;-2.365825930610299E-003;6.059591541998088E-004;
2.403000000000000E+009;1.638869494199753E-001;2.796499989926815E-002;-2.329237526282668E-003;8.760172640904784E-004;
2.403166666666667E+009;1.647620797157288E-001;2.635367587208748E-002;-2.391512040048838E-003;6.737030926160514E-004;
2.403333333333334E+009;1.656807512044907E-001;2.483891509473324E-002;-2.362845465540886E-003;8.169797365553677E-004;
2.403500000000000E+009;1.664344072341919E-001;2.341451868414879E-002;-2.151209861040115E-003;7.198030361905694E-004;
2.403666666666667E+009;1.675513684749603E-001;2.203148789703846E-002;-2.315325895324349E-003;8.328768890351057E-004;
2.403833333333334E+009;1.685446947813034E-001;2.065263316035271E-002;-1.992776291444898E-003;8.993852534331381E-004;
2.404000000000000E+009;1.694833189249039E-001;1.951579190790653E-002;-2.067182445898652E-003;9.204533416777849E-004;
2.404166666666667E+009;1.703847199678421E-001;1.824338361620903E-002;-1.954721519723535E-003;8.763315272517502E-004;
2.404333333333334E+009;1.714265495538712E-001;1.741765066981316E-002;-2.057451056316495E-003;9.650538559071720E-004;
2.404500000000000E+009;1.721552908420563E-001;1.632837578654289E-002;-1.913777203299105E-003;9.964157361537218E-004;
2.404666666666667E+009;1.734188497066498E-001;1.542668603360653E-002;-1.868257531896234E-003;1.075263018719852E-003;
2.404833333333334E+009;1.741966903209686E-001;1.474173553287983E-002;-1.975467661395669E-003;1.093859551474452E-003;
2.405000000000000E+009;1.749559491872788E-001;1.405564136803150E-002;-1.772484625689685E-003;8.773518493399024E-004;
2.405166666666667E+009;1.759729832410812E-001;1.329964213073254E-002;-1.707884250208736E-003;1.282195793464780E-003;
2.405333333333334E+009;1.768549531698227E-001;1.258343458175659E-002;-1.724136178381741E-003;1.141790882684290E-003;
2.405500000000000E+009;1.774619966745377E-001;1.223279628902674E-002;-1.562118064612150E-003;1.482255873270333E-003;
2.405666666666667E+009;1.781222671270371E-001;1.188568770885468E-002;-1.540660508908331E-003;1.283615943975747E-003;
2.405833333333334E+009;1.785317659378052E-001;1.145346369594336E-002;-1.424642745405436E-003;1.457330537959933E-003;
2.406000000000000E+009;1.791857331991196E-001;1.084503624588251E-002;-1.372530939988792E-003;1.530551118776202E-003;
2.406166666666667E+009;1.795635223388672E-001;1.082673296332359E-002;-1.366480253636837E-003;1.544782659038901E-003;
2.406333333333334E+009;1.800991743803024E-001;1.046157628297806E-002;-1.161990221589804E-003;1.326784375123680E-003;
2.406500000000000E+009;1.802192777395248E-001;1.010606717318296E-002;-1.081021968275309E-003;1.557510346174240E-003;
2.406666666666667E+009;1.803287267684937E-001;9.895196184515953E-003;-8.331133285537362E-004;1.645482960157096E-003;
2.406833333333334E+009;1.807977259159088E-001;9.543690830469132E-003;-7.892632274888456E-004;1.307147671468556E-003;
2.407000000000000E+009;1.807383000850678E-001;9.299152530729771E-003;-6.689212168566883E-004;1.470197457820177E-003;
2.407166666666667E+009;1.808589249849320E-001;8.995944634079933E-003;-6.181732751429081E-004;1.387993805110455E-003;
2.407333333333334E+009;1.806926578283310E-001;8.457842282950878E-003;-7.257426041178405E-004;1.540440483950079E-003;
2.407500000000000E+009;1.804159283638001E-001;8.311808109283447E-003;-5.301597993820906E-004;1.314197434112430E-003;
2.407666666666667E+009;1.803357750177383E-001;7.746069226413965E-003;-5.838282522745431E-004;1.334314467385411E-003;
2.407833333333334E+009;1.798330247402191E-001;7.289119530469179E-003;-2.371357113588601E-004;1.188019523397088E-003;
2.408000000000000E+009;1.794675886631012E-001;6.548588629812002E-003;-3.956662549171597E-004;1.095536281354725E-003;
2.408166666666667E+009;1.792061179876328E-001;6.133745890110731E-003;-3.587130049709231E-004;1.023849472403526E-003;
2.408333333333334E+009;1.788493841886520E-001;5.400864407420158E-003;-2.705288352444768E-004;9.684870601631701E-004;
2.408500000000000E+009;1.781973987817764E-001;4.454298410564661E-003;-2.380753139732406E-004;8.428043802268803E-004;
2.408666666666667E+009;1.775113791227341E-001;3.676233114674687E-003;-3.525533538777381E-004;6.848897901363671E-004;
2.408833333333334E+009;1.768754422664642E-001;2.559291431680322E-003;-3.145742230117321E-004;6.783704156987369E-004;
2.409000000000000E+009;1.761424243450165E-001;1.476360252127051E-003;-2.393169270362705E-004;6.676636985503137E-004;
2.409166666666667E+009;1.754661053419113E-001;3.341747215017676E-004;-3.228688728995621E-004;4.116724303457886E-004;
2.409333333333334E+009;1.749204248189926E-001;-8.294233120977879E-004;-3.152203280478716E-004;6.894786492921412E-004;
2.409500000000000E+009;1.740370541810989E-001;-2.214745152741671E-003;-3.931218525394797E-004;5.039778188802302E-004;
2.409666666666667E+009;1.733692586421967E-001;-3.507684916257858E-003;-3.689618024509400E-004;4.683778970502317E-004;
2.409833333333334E+009;1.726569682359695E-001;-5.025148391723633E-003;-4.462287470232695E-004;4.333032702561468E-004;
2.410000000000000E+009;1.721454113721848E-001;-6.324790883809328E-003;-4.565808339975774E-004;3.491721872705966E-004;
2.410166666666667E+009;1.714495718479157E-001;-7.955885492265225E-003;-6.324627902358770E-004;3.099280875176191E-004;
2.410333333333334E+009;1.706431210041046E-001;-9.785579517483711E-003;-6.515295244753361E-004;3.501697210595012E-004;
2.410500000000000E+009;1.702706515789032E-001;-1.143735740333796E-002;-6.717129726894200E-004;3.541553451213986E-004;
2.410666666666667E+009;1.696619093418121E-001;-1.321680005639792E-002;-7.392358384095132E-004;1.636153901927173E-004;
2.410833333333334E+009;1.694408804178238E-001;-1.492816954851151E-002;-7.579873199574649E-004;2.514377119950950E-004;
2.411000000000000E+009;1.687784940004349E-001;-1.687789708375931E-002;-8.316402090713382E-004;1.284077734453604E-004;
2.411166666666667E+009;1.685207039117813E-001;-1.870048232376576E-002;-8.365310495719314E-004;3.720195381902158E-004;
2.411333333333334E+009;1.681149899959564E-001;-2.068420685827732E-002;-8.598831482231617E-004;4.175070207566023E-004;
2.411500000000000E+009;1.679860651493073E-001;-2.272545546293259E-002;-8.158736745826900E-004;3.990624682046473E-004;
2.411666666666667E+009;1.679601818323135E-001;-2.457712218165398E-002;-9.557044249959290E-004;2.389253495493904E-004;
2.411833333333334E+009;1.678665727376938E-001;-2.645949088037014E-002;-9.150423575192690E-004;3.491526003926992E-004;
2.412000000000000E+009;1.679739952087402E-001;-2.859529480338097E-002;-1.073857070878148E-003;3.738056693691760E-004;
2.412166666666667E+009;1.679818779230118E-001;-3.053601086139679E-002;-1.186156878247857E-003;4.562812100630254E-004;
2.412333333333334E+009;1.682230681180954E-001;-3.238275647163391E-002;-1.123654656112194E-003;5.972568760626018E-004;
2.412500000000000E+009;1.683978140354157E-001;-3.435583040118218E-002;-1.311664702370763E-003;6.867463234812021E-004;
2.412666666666667E+009;1.688323318958283E-001;-3.634166345000267E-002;-1.296675531193614E-003;6.588012329302728E-004;
2.412833333333334E+009;1.692532002925873E-001;-3.814554587006569E-002;-1.329427235759795E-003;6.984815117903054E-004;
2.413000000000000E+009;1.694145351648331E-001;-3.992401435971260E-002;-1.237653079442680E-003;7.522655068896711E-004;
2.413166666666667E+009;1.698069274425507E-001;-4.169308021664619E-002;-1.231045695021749E-003;9.112085099332035E-004;
2.413333333333334E+009;1.702383756637573E-001;-4.333822429180145E-002;-1.305278739891946E-003;8.557831752113998E-004;
2.413500000000000E+009;1.709966659545898E-001;-4.500938951969147E-002;-1.354911131784320E-003;9.760074899531901E-004;
2.413666666666667E+009;1.714946478605270E-001;-4.668197408318520E-002;-1.271266955882311E-003;1.073299557901919E-003;
2.413833333333334E+009;1.718225181102753E-001;-4.811224713921547E-002;-1.249905675649643E-003;1.183903776109219E-003;
2.414000000000000E+009;1.724117398262024E-001;-4.962008818984032E-002;-1.121717272326350E-003;1.152170356363058E-003;
2.414166666666667E+009;1.730598509311676E-001;-5.077099427580833E-002;-1.336093060672283E-003;1.367078279145062E-003;
2.414333333333334E+009;1.735137403011322E-001;-5.199573189020157E-002;-1.177633181214333E-003;1.449972158297896E-003;
2.414500000000000E+009;1.745580136775971E-001;-5.312207713723183E-002;-1.068126410245895E-003;1.436793012544513E-003;
2.414666666666667E+009;1.748383343219757E-001;-5.416830256581307E-002;-1.037094742059708E-003;1.329011167399585E-003;
2.414833333333334E+009;1.754198372364044E-001;-5.514350160956383E-002;-1.075071166269481E-003;1.555790659040213E-003;
2.415000000000000E+009;1.757755428552628E-001;-5.599638819694519E-002;-9.459433495067060E-004;1.520529855042696E-003;
2.415166666666667E+009;1.762184649705887E-001;-5.678507685661316E-002;-1.051639323122799E-003;1.386460149660707E-003;
2.415333333333334E+009;1.766989082098007E-001;-5.762368440628052E-002;-1.192742027342320E-003;1.573127345182002E-003;
2.415500000000000E+009;1.770953983068466E-001;-5.811804160475731E-002;-9.042609599418938E-004;1.530551002360880E-003;
2.415666666666667E+009;1.772830188274384E-001;-5.856967344880104E-002;-9.427338372915983E-004;1.537501346319914E-003;
2.415833333333334E+009;1.776159107685089E-001;-5.909359827637672E-002;-8.033018093556166E-004;1.653408631682396E-003;
2.416000000000000E+009;1.775323003530502E-001;-5.956330895423889E-002;-8.093241485767067E-004;1.783880172297359E-003;
2.416166666666667E+009;1.778589785099030E-001;-5.998354777693749E-002;-8.541890420019627E-004;1.657898654229939E-003;
2.416333333333334E+009;1.777551621198654E-001;-6.012929230928421E-002;-7.019569748081267E-004;1.727630500681698E-003;
2.416500000000000E+009;1.777593344449997E-001;-6.048065051436424E-002;-8.507124730385840E-004;1.727429335005581E-003;
2.416666666666667E+009;1.774617284536362E-001;-6.075353920459747E-002;-6.665216060355306E-004;1.729018520563841E-003;
2.416833333333334E+009;1.773723214864731E-001;-6.110533699393272E-002;-8.829758735373616E-004;1.721344306133688E-003;
2.417000000000000E+009;1.767867803573608E-001;-6.127347424626350E-002;-6.499656010419130E-004;1.807594904676080E-003;
2.417166666666667E+009;1.763322502374649E-001;-6.136068701744080E-002;-7.469331612810493E-004;1.768866786733270E-003;
2.417333333333334E+009;1.759728044271469E-001;-6.143921986222267E-002;-8.045755093917251E-004;1.832710346207023E-003;
2.417500000000000E+009;1.752301305532455E-001;-6.190861761569977E-002;-6.839649868197739E-004;1.945231691934168E-003;
2.417666666666667E+009;1.746074855327606E-001;-6.193602457642555E-002;-6.973854615353048E-004;1.984316622838378E-003;
2.417833333333334E+009;1.737577170133591E-001;-6.207109615206718E-002;-6.714760093018413E-004;2.029422437772155E-003;
2.418000000000000E+009;1.729005724191666E-001;-6.263199448585510E-002;-7.732559461146593E-004;2.042492851614952E-003;
2.418166666666667E+009;1.718743294477463E-001;-6.259205937385559E-002;-8.737223106436431E-004;2.157410839572549E-003;
2.418333333333334E+009;1.710927635431290E-001;-6.314142793416977E-002;-6.593368598259985E-004;2.215236192569137E-003;
2.418500000000000E+009;1.699737757444382E-001;-6.352240592241287E-002;-5.998839624226093E-004;2.334246411919594E-003;
2.418666666666667E+009;1.689596176147461E-001;-6.397441029548645E-002;-6.658289348706603E-004;2.322231885045767E-003;
2.418833333333334E+009;1.676520556211472E-001;-6.454261392354965E-002;-5.414796760305762E-004;2.439036499708891E-003;
2.419000000000000E+009;1.664088219404221E-001;-6.516361981630325E-002;-5.843090475536883E-004;2.547060139477253E-003;
2.419166666666667E+009;1.651497185230255E-001;-6.570377945899963E-002;-6.365439621731639E-004;2.645915141329169E-003;
2.419333333333334E+009;1.640037447214127E-001;-6.623170524835587E-002;-4.974294570274651E-004;2.722560195252299E-003;
2.419500000000000E+009;1.629039496183395E-001;-6.714931875467300E-002;-5.558970733545721E-004;2.761988202109933E-003;
2.419666666666667E+009;1.617352664470673E-001;-6.809996068477631E-002;-4.119794175494462E-004;2.934838179498911E-003;
2.419833333333334E+009;1.604159772396088E-001;-6.894653290510178E-002;-2.263999631395564E-004;2.967754146084189E-003;
2.420000000000000E+009;1.593020260334015E-001;-6.998757272958756E-002;-1.834211871027947E-004;3.008758882060647E-003;
2.420166666666667E+009;1.580609381198883E-001;-7.119938731193543E-002;-1.818209275370464E-004;3.138758707791567E-003;
2.420333333333334E+009;1.571414917707443E-001;-7.235285639762878E-002;-5.203348337090574E-005;3.158314852043986E-003;
2.420500000000000E+009;1.561134755611420E-001;-7.345984876155853E-002;5.336282356438460E-006;3.363462863489986E-003;
2.420666666666667E+009;1.551320850849152E-001;-7.476616650819778E-002;2.079619007417932E-004;3.365529002621770E-003;
2.420833333333334E+009;1.542278677225113E-001;-7.621958851814270E-002;3.156217280775309E-004;3.471131436526775E-003;
2.421000000000000E+009;1.533017456531525E-001;-7.778721302747726E-002;5.318106850609183E-004;3.650470869615674E-003;
2.421166666666667E+009;1.525820046663284E-001;-7.929392158985138E-002;6.670714938081801E-004;3.597763832658529E-003;
2.421333333333334E+009;1.518437117338181E-001;-8.091623336076737E-002;8.360398351214826E-004;3.831059904769063E-003;
2.421500000000000E+009;1.512714177370071E-001;-8.248738199472427E-002;1.072598854079843E-003;3.952938131988049E-003;
2.421666666666667E+009;1.505754292011261E-001;-8.402533829212189E-002;1.213264185935259E-003;3.950126469135284E-003;
2.421833333333334E+009;1.502884626388550E-001;-8.573660999536514E-002;1.337154884822667E-003;3.974419552832842E-003;
2.422000000000000E+009;1.498848199844360E-001;-8.750350028276444E-002;1.653686747886241E-003;3.997601103037596E-003;
2.422166666666667E+009;1.496153920888901E-001;-8.929414302110672E-002;1.975009450688958E-003;3.778220154345036E-003;
2.422333333333334E+009;1.493939757347107E-001;-9.096788614988327E-002;2.120553515851498E-003;4.152660723775625E-003;
2.422500000000000E+009;1.492509990930557E-001;-9.253713488578796E-002;2.353291260078549E-003;3.870651591569185E-003;
2.422666666666667E+009;1.491091549396515E-001;-9.450312703847885E-002;2.588501200079918E-003;3.769736504182220E-003;
2.422833333333334E+009;1.493052989244461E-001;-9.617240726947784E-002;2.675247611477971E-003;3.714049933478236E-003;
2.423000000000000E+009;1.494688242673874E-001;-9.788089990615845E-002;3.055140608921647E-003;3.550886642187834E-003;
2.423166666666667E+009;1.497309952974320E-001;-9.956306219100952E-002;3.197085112333298E-003;3.434154437854886E-003;
2.423333333333334E+009;1.499291956424713E-001;-1.009492799639702E-001;3.257112111896277E-003;3.376282984390855E-003;
2.423500000000000E+009;1.503432691097260E-001;-1.027059331536293E-001;3.560583805665374E-003;3.248900873586536E-003;
2.423666666666667E+009;1.503716111183167E-001;-1.044340133666992E-001;3.739939769729972E-003;3.285971004515886E-003;
2.423833333333334E+009;1.510064452886581E-001;-1.057692915201187E-001;3.964780829846859E-003;2.942375140264630E-003;
2.424000000000000E+009;1.514160633087158E-001;-1.070718541741371E-001;4.084433894604445E-003;2.771701198071241E-003;
2.424166666666667E+009;1.516471058130264E-001;-1.083510145545006E-001;4.306402988731861E-003;2.598771359771490E-003;
2.424333333333334E+009;1.523328423500061E-001;-1.096130535006523E-001;4.435532726347446E-003;2.348671201616526E-003;
2.424500000000000E+009;1.527621448040009E-001;-1.108233779668808E-001;4.650626797229052E-003;2.182593569159508E-003;
2.424666666666667E+009;1.534459739923477E-001;-1.118473708629608E-001;4.650068935006857E-003;1.996527891606093E-003;
2.424833333333334E+009;1.536706835031509E-001;-1.128075048327446E-001;4.780345596373081E-003;1.850311178714037E-003;
2.425000000000000E+009;1.541909575462341E-001;-1.138511374592781E-001;4.799686372280121E-003;1.598439645022154E-003;
2.425166666666667E+009;1.544517427682877E-001;-1.147636249661446E-001;4.960766527801752E-003;1.239453093148768E-003;
2.425333333333334E+009;1.550347506999970E-001;-1.153851449489594E-001;4.918772261589766E-003;1.195585704408586E-003;
2.425500000000000E+009;1.554343551397324E-001;-1.162004023790360E-001;5.005867220461369E-003;9.496210259385407E-004;
2.425666666666667E+009;1.556991040706635E-001;-1.168036982417107E-001;5.122752860188484E-003;8.260128088295460E-004;
2.425833333333334E+009;1.558910608291626E-001;-1.173273473978043E-001;5.101523362100124E-003;3.422012669034302E-004;
2.426000000000000E+009;1.561053842306137E-001;-1.178436651825905E-001;5.041209049522877E-003;2.730959677137435E-004;
2.426166666666667E+009;1.564885824918747E-001;-1.181540191173554E-001;5.093659274280071E-003;6.392907380359247E-005;
2.426333333333334E+009;1.564700156450272E-001;-1.184572502970696E-001;5.054912064224482E-003;-1.985235285246745E-004;
2.426500000000000E+009;1.564468443393707E-001;-1.187199130654335E-001;5.142895970493555E-003;-4.145627026446164E-004;
2.426666666666667E+009;1.564311683177948E-001;-1.187215223908424E-001;5.003638565540314E-003;-7.314571412280202E-004;
2.426833333333334E+009;1.563573181629181E-001;-1.189517304301262E-001;4.967733286321163E-003;-9.150395635515451E-004;
2.427000000000000E+009;1.559841185808182E-001;-1.191858574748039E-001;4.991289693862200E-003;-1.089597819373012E-003;
2.427166666666667E+009;1.557190865278244E-001;-1.191461309790611E-001;4.980512894690037E-003;-1.257054042071104E-003;
2.427333333333334E+009;1.551219671964645E-001;-1.193398311734200E-001;4.694362636655569E-003;-1.435754355043173E-003;
2.427500000000000E+009;1.546736508607864E-001;-1.193343698978424E-001;4.806315060704947E-003;-1.518408767879009E-003;
2.427666666666667E+009;1.540054827928543E-001;-1.194214150309563E-001;4.626333247870207E-003;-1.687297131866217E-003;
2.427833333333334E+009;1.532323956489563E-001;-1.195832043886185E-001;4.620766267180443E-003;-1.901059295050800E-003;
