# Version 1.00
#
freq[Hz];re:Trc1_S11;im:Trc1_S11;re:Trc2_S21;im:Trc2_S21;
2.400000000000000E+009;1.581919640302658E-001;6.278254091739655E-002;-3.582266392186284E-003;-5.741534987464547E-004;
2.400166666666667E+009;1.580531895160675E-001;6.113588809967041E-002;-3.492307616397739E-003;-5.362909287214279E-004;
2.400333333333334E+009;1.579055637121201E-001;5.912306532263756E-002;-3.482918953523040E-003;-3.418095875531435E-004;
2.400500000000000E+009;1.578589677810669E-001;5.742524936795235E-002;-3.289666259661317E-003;-2.156691480195150E-004;
2.400666666666667E+009;1.577605456113815E-001;5.539424717426300E-002;-3.304943209514022E-003;-7.590350287500769E-005;
2.400833333333334E+009;1.580124050378799E-001;5.338589847087860E-002;-3.340916242450476E-003;1.687718577159103E-005;
2.401000000000000E+009;1.580713838338852E-001;5.123009532690048E-002;-3.230198752135038E-003;3.759537503356114E-005;
2.401166666666667E+009;1.582330316305161E-001;4.918115958571434E-002;-3.190696239471436E-003;1.374234416289255E-004;
2.401333333333334E+009;1.581850796937943E-001;4.711261764168739E-002;-2.989466069266200E-003;4.139399388805032E-004;
2.401500000000000E+009;1.586870849132538E-001;4.504413530230522E-002;-2.969412133097649E-003;3.399379493203014E-004;
2.401666666666667E+009;1.590161770582199E-001;4.312806949019432E-002;-2.877764636650682E-003;3.523104533087462E-004;
2.401833333333334E+009;1.594706922769547E-001;4.105781391263008E-002;-2.698009368032217E-003;4.648064495995641E-004;
2.402000000000000E+009;1.597172021865845E-001;3.905965760350227E-002;-2.734263194724917E-003;5.262743216007948E-004;
2.402166666666667E+009;1.603706628084183E-001;3.681985288858414E-002;-2.568014198914170E-003;6.691763410344720E-004;
2.402333333333334E+009;1.608484536409378E-001;3.488774970173836E-002;-2.582204993814230E-003;7.670967024751008E-004;
2.402500000000000E+009;1.617573946714401E-001;3.310950845479965E-002;-2.445167163386941E-003;6.151656853035092E-004;
2.402666666666667E+009;1.623396724462509E-001;3.151578456163406E-002;-2.421886892989278E-003;6.350106559693813E-004;
2.402833333333334E+009;1.631975322961807E-001;2.967697195708752E-002;-2.272018464282155E-003;7.395822904072702E-004;
2.403000000000000E+009;1.640129834413528E-001;2.810594998300076E-002;-2.338130725547671E-003;6.024790345691145E-004;
2.403166666666667E+009;1.649505048990250E-001;2.644045092165470E-002;-2.225418109446764E-003;8.702031336724758E-004;
2.403333333333334E+009;1.656593084335327E-001;2.476199902594090E-002;-2.149016596376896E-003;9.413992520421743E-004;
2.403500000000000E+009;1.665599793195725E-001;2.342697046697140E-002;-2.224372932687402E-003;8.344952948391438E-004;
2.403666666666667E+009;1.674818843603134E-001;2.195208147168160E-002;-2.010696334764361E-003;8.768860716372728E-004;
2.403833333333334E+009;1.687095761299133E-001;2.082056365907192E-002;-2.071878872811794E-003;9.656159090809524E-004;
2.404000000000000E+009;1.694886684417725E-001;1.954793930053711E-002;-2.100325888022780E-003;1.030951272696257E-003;
2.404166666666667E+009;1.705750823020935E-001;1.839915104210377E-002;-1.961761852726340E-003;9.964744094759226E-004;
2.404333333333334E+009;1.714378297328949E-001;1.755841076374054E-002;-1.955535495653749E-003;1.078596687875688E-003;
2.404500000000000E+009;1.723396033048630E-001;1.636409573256970E-002;-1.819859142415226E-003;1.118349493481219E-003;
2.404666666666667E+009;1.733226329088211E-001;1.544012408703566E-002;-1.873556873761118E-003;1.122600864619017E-003;
2.404833333333334E+009;1.741062253713608E-001;1.464159879833460E-002;-1.870963606052101E-003;1.129206037148833E-003;
2.405000000000000E+009;1.751125901937485E-001;1.405504625290632E-002;-1.876229769550264E-003;1.239442033693194E-003;
2.405166666666667E+009;1.758806258440018E-001;1.343410834670067E-002;-1.688287942670286E-003;1.283357269130647E-003;
2.405333333333334E+009;1.768177151679993E-001;1.273618824779987E-002;-1.576647046022117E-003;1.341508119367063E-003;
2.405500000000000E+009;1.774494051933289E-001;1.227694656699896E-002;-1.461465726606548E-003;1.493280404247344E-003;
2.405666666666667E+009;1.781383901834488E-001;1.173933036625385E-002;-1.350566162727773E-003;1.556867733597755E-003;
2.405833333333334E+009;1.785311996936798E-001;1.158757414668798E-002;-1.437902450561523E-003;1.546560786664486E-003;
2.406000000000000E+009;1.792332231998444E-001;1.102587860077620E-002;-1.162796630524099E-003;1.535941963084042E-003;
2.406166666666667E+009;1.795769929885864E-001;1.077626831829548E-002;-1.154357916675508E-003;1.498520956374705E-003;
2.406333333333334E+009;1.802204251289368E-001;1.052329502999783E-002;-1.008028164505959E-003;1.553642330691218E-003;
2.406500000000000E+009;1.803152859210968E-001;1.012670993804932E-002;-9.097518050111830E-004;1.491997158154845E-003;
2.406666666666667E+009;1.804515421390533E-001;9.867742657661438E-003;-8.209682418964803E-004;1.456117955967784E-003;
2.406833333333334E+009;1.806612014770508E-001;9.632739238440990E-003;-7.371426327154040E-004;1.466869376599789E-003;
2.407000000000000E+009;1.808577775955200E-001;9.219093248248100E-003;-8.061928092502058E-004;1.292748958803713E-003;
2.407166666666667E+009;1.808661669492722E-001;9.025445207953453E-003;-5.243829218670726E-004;1.363295246846974E-003;
2.407333333333334E+009;1.805501729249954E-001;8.419408462941647E-003;-6.760879186913371E-004;1.441045198589563E-003;
2.407500000000000E+009;1.804706454277039E-001;8.270933292806149E-003;-5.061703850515187E-004;1.195344026200473E-003;
2.407666666666667E+009;1.803028136491776E-001;7.810472045093775E-003;-3.928060468751937E-004;1.194423064589500E-003;
2.407833333333334E+009;1.798490583896637E-001;7.194144185632467E-003;-5.562162259593606E-004;1.040900126099587E-003;
2.408000000000000E+009;1.795790493488312E-001;6.594108417630196E-003;-3.293077752459794E-004;1.122735324315727E-003;
2.408166666666667E+009;1.790587455034256E-001;6.090966984629631E-003;-3.315065696369857E-004;1.070001395419240E-003;
2.408333333333334E+009;1.786497682332993E-001;5.319255869835615E-003;-2.794647589325905E-004;8.359162020497024E-004;
2.408500000000000E+009;1.781759113073349E-001;4.636145196855068E-003;-1.304540201090276E-004;7.693586521781981E-004;
2.408666666666667E+009;1.776011884212494E-001;3.624103264883161E-003;-2.654425625223666E-004;8.178568095900118E-004;
2.408833333333334E+009;1.768142431974411E-001;2.711517969146371E-003;-3.812882350757718E-004;7.142642862163484E-004;
2.409000000000000E+009;1.761064827442169E-001;1.669031684286892E-003;-3.346347075421363E-004;7.342754979617894E-004;
2.409166666666667E+009;1.754580587148666E-001;6.525993812829256E-004;-2.150294603779912E-004;5.323661025613546E-004;
2.409333333333334E+009;1.749429255723953E-001;-7.662509451620281E-004;-4.836367443203926E-004;3.551036352291703E-004;
2.409500000000000E+009;1.741792857646942E-001;-2.175822155550122E-003;-3.415306273382157E-004;5.401018424890935E-004;
2.409666666666667E+009;1.733662784099579E-001;-3.367646364495158E-003;-5.593376117758453E-004;3.582853241823614E-004;
2.409833333333334E+009;1.726696491241455E-001;-4.856656305491924E-003;-4.172208718955517E-004;4.109703004360199E-004;
2.410000000000000E+009;1.721303462982178E-001;-6.334181409329176E-003;-4.882225475739688E-004;3.445443871896714E-004;
2.410166666666667E+009;1.714689880609512E-001;-8.015488274395466E-003;-5.505549488589168E-004;2.780011855065823E-004;
2.410333333333334E+009;1.709945052862167E-001;-9.605885483324528E-003;-6.482932367362082E-004;2.566842595115304E-004;
2.410500000000000E+009;1.702661663293839E-001;-1.137309614568949E-002;-6.348682218231261E-004;2.561869914643467E-004;
2.410666666666667E+009;1.696744114160538E-001;-1.324445288628340E-002;-6.138165481388569E-004;2.085365267703310E-004;
2.410833333333334E+009;1.692096889019013E-001;-1.502238679677248E-002;-6.681955419480801E-004;2.699483884498477E-004;
2.411000000000000E+009;1.688977777957916E-001;-1.676297187805176E-002;-9.577743476256728E-004;1.535359479021281E-004;
2.411166666666667E+009;1.685548722743988E-001;-1.890098489820957E-002;-8.884308044798672E-004;1.469432900194079E-004;
2.411333333333334E+009;1.683740913867950E-001;-2.062123268842697E-002;-1.028598984703422E-003;3.451911616139114E-004;
2.411500000000000E+009;1.679852306842804E-001;-2.288058586418629E-002;-1.008409191854298E-003;3.536297881510109E-004;
2.411666666666667E+009;1.679435372352600E-001;-2.470723539590836E-002;-1.119489315897226E-003;4.053211014252156E-004;
2.411833333333334E+009;1.679793149232864E-001;-2.656701579689980E-002;-1.164774876087904E-003;4.646094166673720E-004;
2.412000000000000E+009;1.680048108100891E-001;-2.851298451423645E-002;-1.203377032652497E-003;3.971339028794318E-004;
2.412166666666667E+009;1.680451631546021E-001;-3.055888786911964E-002;-1.181315630674362E-003;4.701077996287495E-004;
2.412333333333334E+009;1.683336496353149E-001;-3.227364271879196E-002;-1.103035290725529E-003;4.845385265070945E-004;
2.412500000000000E+009;1.685205250978470E-001;-3.439700976014137E-002;-1.294994261115789E-003;4.354439151939005E-004;
2.412666666666667E+009;1.688025742769241E-001;-3.632557764649391E-002;-1.383876660838723E-003;6.724701961502433E-004;
2.412833333333334E+009;1.692600250244141E-001;-3.816728666424751E-002;-1.371713005937636E-003;7.858743192628026E-004;
2.413000000000000E+009;1.695241630077362E-001;-3.993170335888863E-002;-1.199231017380953E-003;7.205778383649886E-004;
2.413166666666667E+009;1.699189990758896E-001;-4.180074855685234E-002;-1.383647671900690E-003;8.742487407289445E-004;
2.413333333333334E+009;1.703668832778931E-001;-4.348030686378479E-002;-1.227309694513679E-003;9.130379185080528E-004;
2.413500000000000E+009;1.707794815301895E-001;-4.501234367489815E-002;-1.213138806633651E-003;1.075371867045760E-003;
2.413666666666667E+009;1.714924126863480E-001;-4.662692919373512E-002;-1.204337226226926E-003;1.019745948724449E-003;
2.413833333333334E+009;1.719851195812225E-001;-4.808040335774422E-002;-1.333985012024641E-003;1.088646007701755E-003;
2.414000000000000E+009;1.724522858858109E-001;-4.963039234280586E-002;-1.183319254778326E-003;1.224727486260235E-003;
2.414166666666667E+009;1.730277836322784E-001;-5.086427181959152E-002;-1.221362967044115E-003;1.158725935965776E-003;
2.414333333333334E+009;1.736726611852646E-001;-5.210603028535843E-002;-1.361273927614093E-003;1.316995825618506E-003;
2.414500000000000E+009;1.744313091039658E-001;-5.304642394185066E-002;-1.335052889771760E-003;1.377456937916577E-003;
2.414666666666667E+009;1.747575998306274E-001;-5.414225906133652E-002;-1.170837902463973E-003;1.455455203540623E-003;
2.414833333333334E+009;1.752908378839493E-001;-5.522406846284866E-002;-1.111174002289772E-003;1.438914332538843E-003;
2.415000000000000E+009;1.758310198783875E-001;-5.595417693257332E-002;-1.091009122319520E-003;1.586316153407097E-003;
2.415166666666667E+009;1.761411130428314E-001;-5.667328834533691E-002;-9.392627398483455E-004;1.660056062974036E-003;
2.415333333333334E+009;1.767758429050446E-001;-5.753188207745552E-002;-1.014921697787941E-003;1.742112799547613E-003;
2.415500000000000E+009;1.770291924476624E-001;-5.815891548991203E-002;-9.224959067068994E-004;1.607228652574122E-003;
2.415666666666667E+009;1.773190498352051E-001;-5.851957947015762E-002;-8.009767043404281E-004;1.764246262609959E-003;
2.415833333333334E+009;1.775954216718674E-001;-5.911578983068466E-002;-7.527662673965097E-004;1.892608357593417E-003;
2.416000000000000E+009;1.776253432035446E-001;-5.949210748076439E-002;-7.886902894824743E-004;1.953427912667394E-003;
2.416166666666667E+009;1.778866350650787E-001;-5.982903763651848E-002;-6.871747900731862E-004;1.717895967885852E-003;
2.416333333333334E+009;1.778355687856674E-001;-6.010568514466286E-002;-7.851769332773984E-004;1.609684200957418E-003;
2.416500000000000E+009;1.776884645223618E-001;-6.037343293428421E-002;-8.179691503755748E-004;1.795122516341507E-003;
2.416666666666667E+009;1.774892061948776E-001;-6.061175093054771E-002;-6.679265061393380E-004;1.966965850442648E-003;
2.416833333333334E+009;1.774369180202484E-001;-6.094464287161827E-002;-6.517001311294735E-004;1.832194277085364E-003;
2.417000000000000E+009;1.766977161169052E-001;-6.121931970119476E-002;-6.456047412939370E-004;1.911708503030241E-003;
2.417166666666667E+009;1.764290481805801E-001;-6.126853823661804E-002;-6.499731098301709E-004;1.808361615985632E-003;
2.417333333333334E+009;1.758546084165573E-001;-6.147975474596024E-002;-6.036725826561451E-004;1.900042290799320E-003;
2.417500000000000E+009;1.752142608165741E-001;-6.186045333743095E-002;-6.034998805262148E-004;1.911281491629779E-003;
2.417666666666667E+009;1.745503842830658E-001;-6.198984384536743E-002;-6.989802350290120E-004;1.892731641419232E-003;
2.417833333333334E+009;1.737802475690842E-001;-6.208747625350952E-002;-5.933282664045692E-004;2.001827349886298E-003;
2.418000000000000E+009;1.727696508169174E-001;-6.249549612402916E-002;-5.468225572258234E-004;1.992000732570887E-003;
2.418166666666667E+009;1.719494163990021E-001;-6.266724318265915E-002;-5.120185087434948E-004;2.180452691391110E-003;
2.418333333333334E+009;1.712692975997925E-001;-6.310767680406570E-002;-4.887722316198051E-004;2.191482577472925E-003;
2.418500000000000E+009;1.700120866298676E-001;-6.334628909826279E-002;-5.042756092734635E-004;2.171149477362633E-003;
2.418666666666667E+009;1.691084206104279E-001;-6.401652097702026E-002;-4.337450955063105E-004;2.403293270617724E-003;
2.418833333333334E+009;1.675974875688553E-001;-6.447070091962814E-002;-4.420588666107506E-004;2.311117248609662E-003;
2.419000000000000E+009;1.663638502359390E-001;-6.492535769939423E-002;-3.358444373589009E-004;2.483845222741365E-003;
2.419166666666667E+009;1.652133613824844E-001;-6.570868194103241E-002;-5.081214476376772E-004;2.553904894739389E-003;
2.419333333333334E+009;1.638588756322861E-001;-6.628087908029556E-002;-4.557714564725757E-004;2.731427550315857E-003;
2.419500000000000E+009;1.628596633672714E-001;-6.727727502584457E-002;-2.479196700733155E-004;2.823352813720703E-003;
2.419666666666667E+009;1.617483049631119E-001;-6.822499632835388E-002;-3.753700002562255E-004;2.823975170031190E-003;
2.419833333333334E+009;1.603120863437653E-001;-6.896588206291199E-002;-1.264101301785559E-004;2.920700935646892E-003;
2.420000000000000E+009;1.591610312461853E-001;-6.983525305986404E-002;-1.385659852530807E-004;2.971013542264700E-003;
2.420166666666667E+009;1.582668721675873E-001;-7.125053554773331E-002;1.705791946733370E-004;3.195679280906916E-003;
2.420333333333334E+009;1.571035534143448E-001;-7.244632393121719E-002;5.619302100967616E-005;3.298876341432333E-003;
2.420500000000000E+009;1.561534553766251E-001;-7.348897308111191E-002;1.393598504364491E-004;3.258655080571771E-003;
2.420666666666667E+009;1.551871895790100E-001;-7.477588951587677E-002;1.992357720155269E-004;3.478979691863060E-003;
2.420833333333334E+009;1.543730944395065E-001;-7.627380639314652E-002;4.232801438774914E-004;3.591479267925024E-003;
2.421000000000000E+009;1.532417088747025E-001;-7.789387553930283E-002;5.390219157561660E-004;3.638886846601963E-003;
2.421166666666667E+009;1.525080949068070E-001;-7.913047075271606E-002;6.948720547370613E-004;3.694890532642603E-003;
2.421333333333334E+009;1.519334018230438E-001;-8.094695210456848E-002;8.875075727701187E-004;3.679285291582346E-003;
2.421500000000000E+009;1.512506455183029E-001;-8.238673955202103E-002;1.073040883056819E-003;3.757886821404100E-003;
2.421666666666667E+009;1.507609188556671E-001;-8.410543948411942E-002;1.232738955877721E-003;3.807275090366602E-003;
2.421833333333334E+009;1.501563191413879E-001;-8.565001934766769E-002;1.506423461250961E-003;3.895225003361702E-003;
2.422000000000000E+009;1.498370766639710E-001;-8.743680268526077E-002;1.614642562344670E-003;3.763923887163401E-003;
2.422166666666667E+009;1.495313644409180E-001;-8.941268175840378E-002;1.828166190534830E-003;3.792292438447475E-003;
2.422333333333334E+009;1.494185775518417E-001;-9.097170829772949E-002;2.221043454483151E-003;3.711450379341841E-003;
2.422500000000000E+009;1.492902040481567E-001;-9.264250844717026E-002;2.368356101214886E-003;3.709169570356607E-003;
2.422666666666667E+009;1.491388529539108E-001;-9.445644915103912E-002;2.496418775990605E-003;3.706428688019514E-003;
2.422833333333334E+009;1.494133472442627E-001;-9.634635597467423E-002;2.778569469228387E-003;3.674393054097891E-003;
2.423000000000000E+009;1.494088172912598E-001;-9.788278490304947E-002;2.870569471269846E-003;3.688876982778311E-003;
2.423166666666667E+009;1.496027261018753E-001;-9.954954683780670E-002;3.227764973416925E-003;3.527197288349271E-003;
2.423333333333334E+009;1.498682498931885E-001;-1.009526401758194E-001;3.424956696107984E-003;3.382454160600901E-003;
2.423500000000000E+009;1.501380652189255E-001;-1.026548892259598E-001;3.588744672015309E-003;3.265518927946687E-003;
2.423666666666667E+009;1.504074633121491E-001;-1.043187081813812E-001;3.755419282242656E-003;3.117476822808385E-003;
2.423833333333334E+009;1.510045826435089E-001;-1.057706549763680E-001;3.897145856171846E-003;2.934791147708893E-003;
2.424000000000000E+009;1.511512994766235E-001;-1.069878712296486E-001;4.038219340145588E-003;2.863053465262055E-003;
2.424166666666667E+009;1.516066491603851E-001;-1.084458231925964E-001;4.263311624526978E-003;2.619792241603136E-003;
2.424333333333334E+009;1.523324102163315E-001;-1.095540225505829E-001;4.554368089884520E-003;2.355334581807256E-003;
2.424500000000000E+009;1.526796519756317E-001;-1.109407320618630E-001;4.564408212900162E-003;2.197722438722849E-003;
2.424666666666667E+009;1.532769948244095E-001;-1.117615476250649E-001;4.842740949243307E-003;1.961488742381334E-003;
2.424833333333334E+009;1.536200046539307E-001;-1.128046140074730E-001;4.875976592302322E-003;1.800182741135359E-003;
2.425000000000000E+009;1.540976166725159E-001;-1.138457655906677E-001;4.847711883485317E-003;1.501548453234136E-003;
2.425166666666667E+009;1.545085757970810E-001;-1.146162301301956E-001;5.007320549339056E-003;1.387763186357915E-003;
2.425333333333334E+009;1.551089584827423E-001;-1.152998134493828E-001;5.056438036262989E-003;1.167413778603077E-003;
2.425500000000000E+009;1.553909331560135E-001;-1.161497235298157E-001;5.094911903142929E-003;8.779339841566980E-004;
2.425666666666667E+009;1.556928604841232E-001;-1.167416721582413E-001;5.120949819684029E-003;6.160301854833961E-004;
2.425833333333334E+009;1.559364944696426E-001;-1.171664223074913E-001;5.294713657349348E-003;5.290128174237907E-004;
2.426000000000000E+009;1.561277210712433E-001;-1.176924630999565E-001;5.270130466669798E-003;3.018086717929691E-004;
2.426166666666667E+009;1.564116626977921E-001;-1.180943399667740E-001;5.256261210888624E-003;-9.141135524259880E-005;
2.426333333333334E+009;1.564279347658157E-001;-1.184414997696877E-001;5.197760183364153E-003;-2.425168349873275E-004;
2.426500000000000E+009;1.564503610134125E-001;-1.186477169394493E-001;5.288877524435520E-003;-3.788059111684561E-004;
2.426666666666667E+009;1.565015614032745E-001;-1.187608987092972E-001;5.070708692073822E-003;-8.476218790747225E-004;
2.426833333333334E+009;1.562748700380325E-001;-1.189254075288773E-001;5.148544441908598E-003;-8.546068565919995E-004;
2.427000000000000E+009;1.559682637453079E-001;-1.190923899412155E-001;5.106239113956690E-003;-1.139841973781586E-003;
2.427166666666667E+009;1.557291448116303E-001;-1.191733479499817E-001;4.966388456523418E-003;-1.245997031219304E-003;
2.427333333333334E+009;1.551392674446106E-001;-1.192351654171944E-001;4.888553638011217E-003;-1.455301418900490E-003;
2.427500000000000E+009;1.547041684389114E-001;-1.192602515220642E-001;4.677124321460724E-003;-1.551563851535320E-003;
2.427666666666667E+009;1.540857553482056E-001;-1.194731965661049E-001;4.561696201562882E-003;-1.765781897120178E-003;
2.427833333333334E+009;1.531573832035065E-001;-1.194673329591751E-001;4.664466716349125E-003;-1.956741558387876E-003;
