# Version 1.00
#
freq[Hz];re:Trc1_S11;im:Trc1_S11;re:Trc2_S21;im:Trc2_S21;
2.400000000000000E+009;1.581962406635284E-001;6.279677152633667E-002;-3.728208597749472E-003;-7.419824250973761E-004;
2.400166666666667E+009;1.581757664680481E-001;6.100045889616013E-002;-3.553677350282669E-003;-4.955004551447928E-004;
2.400333333333334E+009;1.579781770706177E-001;5.920439958572388E-002;-3.494623582810164E-003;-3.761299594771117E-004;
2.400500000000000E+009;1.579146385192871E-001;5.724520981311798E-002;-3.292914479970932E-003;-3.038758586626500E-004;
2.400666666666667E+009;1.579433530569077E-001;5.514476820826531E-002;-3.235778072848916E-003;-2.695153525564820E-004;
2.400833333333334E+009;1.580055207014084E-001;5.324780195951462E-002;-3.243380459025502E-003;-1.605206780368462E-004;
2.401000000000000E+009;1.580895185470581E-001;5.117736011743546E-002;-3.065358847379684E-003;-7.951029692776501E-005;
2.401166666666667E+009;1.583181321620941E-001;4.910932853817940E-002;-2.984120510518551E-003;9.098116424866021E-005;
2.401333333333334E+009;1.583226621150971E-001;4.703511297702789E-002;-2.871047472581267E-003;1.538584474474192E-004;
2.401500000000000E+009;1.588805615901947E-001;4.494076222181320E-002;-2.929976908490062E-003;2.171297383029014E-004;
2.401666666666667E+009;1.591113358736038E-001;4.304965212941170E-002;-2.685034414753318E-003;3.205872490070760E-004;
2.401833333333334E+009;1.592253297567368E-001;4.087869822978973E-002;-2.887794049456716E-003;5.032139015384018E-004;
2.402000000000000E+009;1.597906947135925E-001;3.897198662161827E-002;-2.768883714452386E-003;3.354205109644681E-004;
2.402166666666667E+009;1.603331118822098E-001;3.692132234573364E-002;-2.656181342899799E-003;4.999834345653653E-004;
2.402333333333334E+009;1.608740091323853E-001;3.488253057003021E-002;-2.504458883777261E-003;4.658359393943101E-004;
2.402500000000000E+009;1.616668701171875E-001;3.306948393583298E-002;-2.710213884711266E-003;6.554851424880326E-004;
2.402666666666667E+009;1.623931825160980E-001;3.146693855524063E-002;-2.323723165318370E-003;6.546257063746452E-004;
2.402833333333334E+009;1.629707217216492E-001;2.969441935420036E-002;-2.248515840619803E-003;7.313417154364288E-004;
2.403000000000000E+009;1.639204174280167E-001;2.793879434466362E-002;-2.240650355815888E-003;6.164268124848604E-004;
2.403166666666667E+009;1.647876948118210E-001;2.626145072281361E-002;-2.191789913922548E-003;6.583911017514765E-004;
2.403333333333334E+009;1.656254976987839E-001;2.486518025398254E-002;-2.110113855451345E-003;8.877916843630374E-004;
2.403500000000000E+009;1.664266437292099E-001;2.332175895571709E-002;-2.243104157969356E-003;7.836591103114188E-004;
2.403666666666667E+009;1.674567013978958E-001;2.187106013298035E-002;-2.262468216940761E-003;9.064355399459600E-004;
2.403833333333334E+009;1.685923635959625E-001;2.082382701337338E-002;-1.951839425601065E-003;8.315696613863111E-004;
2.404000000000000E+009;1.694994568824768E-001;1.967532373964787E-002;-2.015315927565098E-003;7.269915076903999E-004;
2.404166666666667E+009;1.703657805919647E-001;1.838674210011959E-002;-2.045431639999151E-003;1.044179080054164E-003;
2.404333333333334E+009;1.714399307966232E-001;1.739710196852684E-002;-1.961756963282824E-003;9.500587475486100E-004;
2.404500000000000E+009;1.722064763307571E-001;1.630105264484882E-002;-1.892528496682644E-003;9.833052754402161E-004;
2.404666666666667E+009;1.732830256223679E-001;1.551322732120752E-002;-1.957087079063058E-003;1.151449629105628E-003;
2.404833333333334E+009;1.742393225431442E-001;1.467441488057375E-002;-1.878439448773861E-003;1.118261250667274E-003;
2.405000000000000E+009;1.750378161668778E-001;1.402470655739307E-002;-1.888328581117094E-003;1.216197968460619E-003;
2.405166666666667E+009;1.759227067232132E-001;1.337942015379667E-002;-1.630920567549765E-003;1.308909966610372E-003;
2.405333333333334E+009;1.768031567335129E-001;1.267965696752071E-002;-1.476988196372986E-003;1.422249595634639E-003;
2.405500000000000E+009;1.776359081268311E-001;1.219268701970577E-002;-1.545960549265146E-003;1.396745676174760E-003;
2.405666666666667E+009;1.780569255352020E-001;1.188758108764887E-002;-1.580866985023022E-003;1.545733772218227E-003;
2.405833333333334E+009;1.786007285118103E-001;1.146141439676285E-002;-1.426971983164549E-003;1.376900239847601E-003;
2.406000000000000E+009;1.791468411684036E-001;1.103934179991484E-002;-1.295264926739037E-003;1.548407832160592E-003;
2.406166666666667E+009;1.795289516448975E-001;1.083626132458448E-002;-1.003509853035212E-003;1.615041634067893E-003;
2.406333333333334E+009;1.800187081098557E-001;1.044162083417177E-002;-1.129643642343581E-003;1.539720455184579E-003;
2.406500000000000E+009;1.803039759397507E-001;1.014401577413082E-002;-1.009521423839033E-003;1.446522539481521E-003;
2.406666666666667E+009;1.803704947233200E-001;9.965539909899235E-003;-9.101245668716729E-004;1.460832660086453E-003;
2.406833333333334E+009;1.806594580411911E-001;9.480368345975876E-003;-7.754092221148312E-004;1.458999817259610E-003;
2.407000000000000E+009;1.808241158723831E-001;9.303668513894081E-003;-6.260246736928821E-004;1.546366955153644E-003;
2.407166666666667E+009;1.807683557271957E-001;8.984130807220936E-003;-6.139922188594937E-004;1.280620577745140E-003;
2.407333333333334E+009;1.806224435567856E-001;8.494697511196137E-003;-4.950275178998709E-004;1.476366305723786E-003;
2.407500000000000E+009;1.804779469966888E-001;8.125111460685730E-003;-4.953179741278291E-004;1.158079132437706E-003;
2.407666666666667E+009;1.803661137819290E-001;7.745821494609118E-003;-5.270535475574434E-004;1.186571782454848E-003;
2.407833333333334E+009;1.798051744699478E-001;7.293600123375654E-003;-4.002514178864658E-004;1.158528611995280E-003;
2.408000000000000E+009;1.795185059309006E-001;6.589956581592560E-003;-2.627504582051188E-004;1.111756428144872E-003;
2.408166666666667E+009;1.790475994348526E-001;6.114046089351177E-003;-2.157912385882810E-004;1.126990537159145E-003;
2.408333333333334E+009;1.787936240434647E-001;5.348677746951580E-003;-2.466219884809107E-004;8.956667734310031E-004;
2.408500000000000E+009;1.781673729419708E-001;4.506767261773348E-003;-1.991332974284887E-004;9.292720351368189E-004;
2.408666666666667E+009;1.775580197572708E-001;3.574448404833674E-003;-3.422661393415183E-004;7.588478620164096E-004;
2.408833333333334E+009;1.767802536487579E-001;2.603070344775915E-003;-3.821487771347165E-004;6.749730673618615E-004;
2.409000000000000E+009;1.761994659900665E-001;1.627755118533969E-003;-3.055380075238645E-004;6.778529495932162E-004;
2.409166666666667E+009;1.754894703626633E-001;4.749103682115674E-004;-3.810957714449614E-004;6.152672576718032E-004;
2.409333333333334E+009;1.749599426984787E-001;-8.209986845031381E-004;-3.641860675998032E-004;5.932439235039055E-004;
2.409500000000000E+009;1.741322875022888E-001;-2.224282361567020E-003;-2.100427518598735E-004;5.594827816821635E-004;
2.409666666666667E+009;1.734614372253418E-001;-3.472297685220838E-003;-3.004779573529959E-004;4.452269640751183E-004;
2.409833333333334E+009;1.726159155368805E-001;-4.904890432953835E-003;-3.283509577158839E-004;4.515725886449218E-004;
2.410000000000000E+009;1.720260828733444E-001;-6.314875092357397E-003;-4.266430332791060E-004;4.553713952191174E-004;
2.410166666666667E+009;1.713347882032394E-001;-7.995538413524628E-003;-3.980468609370291E-004;2.731629065237939E-004;
2.410333333333334E+009;1.708792448043823E-001;-9.646455757319927E-003;-4.316230479162186E-004;3.721904649864882E-004;
2.410500000000000E+009;1.702125072479248E-001;-1.141968648880720E-002;-5.391480517573655E-004;3.635730245150626E-004;
2.410666666666667E+009;1.696186959743500E-001;-1.338194310665131E-002;-7.875901064835489E-004;3.710195596795529E-004;
2.410833333333334E+009;1.692644655704498E-001;-1.505462080240250E-002;-7.504308596253395E-004;2.234791609225795E-004;
2.411000000000000E+009;1.687714010477066E-001;-1.679646968841553E-002;-7.812760886736214E-004;4.563651164062321E-004;
2.411166666666667E+009;1.683930009603500E-001;-1.884957589209080E-002;-8.481289260089397E-004;2.102801372529939E-004;
2.411333333333334E+009;1.681733727455139E-001;-2.055363543331623E-002;-9.011970250867307E-004;3.657258930616081E-004;
2.411500000000000E+009;1.680164486169815E-001;-2.268674969673157E-002;-1.057558692991734E-003;4.095134790986776E-004;
2.411666666666667E+009;1.680110991001129E-001;-2.468864619731903E-002;-1.027400605380535E-003;5.073539796285331E-004;
2.411833333333334E+009;1.679077148437500E-001;-2.647238783538342E-002;-1.008655177429318E-003;3.872251836583018E-004;
2.412000000000000E+009;1.678942143917084E-001;-2.843589521944523E-002;-1.045984914526343E-003;5.373657913878560E-004;
2.412166666666667E+009;1.679979115724564E-001;-3.065353631973267E-002;-1.144842710345984E-003;5.357268964871764E-004;
2.412333333333334E+009;1.683515757322311E-001;-3.226706758141518E-002;-1.128455740399659E-003;6.108903908170760E-004;
2.412500000000000E+009;1.685707271099091E-001;-3.433410078287125E-002;-1.221657381393015E-003;6.656694458797574E-004;
2.412666666666667E+009;1.687771677970886E-001;-3.635478019714356E-002;-1.259705633856356E-003;6.643792148679495E-004;
2.412833333333334E+009;1.692226827144623E-001;-3.812880069017410E-002;-1.246217754669488E-003;7.271476788446307E-004;
2.413000000000000E+009;1.693907678127289E-001;-3.996007516980171E-002;-1.228206558153033E-003;8.708636742085218E-004;
2.413166666666667E+009;1.698444485664368E-001;-4.180890694260597E-002;-1.337001449428499E-003;8.652316173538566E-004;
2.413333333333334E+009;1.704227477312088E-001;-4.346067458391190E-002;-1.224425854161382E-003;1.057394663803279E-003;
2.413500000000000E+009;1.708503365516663E-001;-4.491558670997620E-002;-1.245534396730363E-003;9.183690417557955E-004;
2.413666666666667E+009;1.713528037071228E-001;-4.682660475373268E-002;-1.338494475930929E-003;1.061070477589965E-003;
2.413833333333334E+009;1.719968169927597E-001;-4.811128228902817E-002;-1.352024148218334E-003;1.221011974848807E-003;
2.414000000000000E+009;1.725018769502640E-001;-4.954926297068596E-002;-1.165080117061734E-003;1.113134901970625E-003;
2.414166666666667E+009;1.730610430240631E-001;-5.079584196209908E-002;-1.137381535954773E-003;1.374439802020788E-003;
2.414333333333334E+009;1.736823022365570E-001;-5.212529748678207E-002;-1.225003739818931E-003;1.246019499376416E-003;
2.414500000000000E+009;1.744534373283386E-001;-5.307395383715630E-002;-1.224750652909279E-003;1.388786709867418E-003;
2.414666666666667E+009;1.747786700725555E-001;-5.416651070117950E-002;-1.185723231174052E-003;1.397400628775358E-003;
2.414833333333334E+009;1.752901822328568E-001;-5.526524782180786E-002;-1.049999613314867E-003;1.446119160391390E-003;
2.415000000000000E+009;1.757672578096390E-001;-5.602147430181503E-002;-1.085516996681690E-003;1.498539582826197E-003;
2.415166666666667E+009;1.761715412139893E-001;-5.680012702941895E-002;-1.087628770619631E-003;1.677008112892509E-003;
2.415333333333334E+009;1.767307072877884E-001;-5.750961601734161E-002;-1.114079845137894E-003;1.614370499737561E-003;
2.415500000000000E+009;1.770115494728088E-001;-5.820098146796227E-002;-9.651402360759676E-004;1.610039500519633E-003;
2.415666666666667E+009;1.772775501012802E-001;-5.859909951686859E-002;-9.287215652875602E-004;1.710500218905509E-003;
2.415833333333334E+009;1.776260882616043E-001;-5.915587395429611E-002;-8.705519721843302E-004;1.803206512704492E-003;
2.416000000000000E+009;1.775746941566467E-001;-5.963022261857987E-002;-9.270434384234250E-004;1.681288005784154E-003;
2.416166666666667E+009;1.779341846704483E-001;-5.993869900703430E-002;-7.277980912476778E-004;1.661477726884186E-003;
2.416333333333334E+009;1.777176409959793E-001;-6.025234982371330E-002;-6.519822636619210E-004;1.834345050156117E-003;
2.416500000000000E+009;1.777174472808838E-001;-6.047829985618591E-002;-7.328793290071189E-004;1.664377283304930E-003;
2.416666666666667E+009;1.774572432041168E-001;-6.065190583467484E-002;-7.218077662400901E-004;1.635649357922375E-003;
2.416833333333334E+009;1.772711277008057E-001;-6.099706888198853E-002;-6.980277248658240E-004;1.673780265264213E-003;
2.417000000000000E+009;1.767868995666504E-001;-6.131190061569214E-002;-7.997359498403966E-004;1.875058631412685E-003;
2.417166666666667E+009;1.764654219150543E-001;-6.134095042943955E-002;-6.387131288647652E-004;1.813625101931393E-003;
2.417333333333334E+009;1.758146435022354E-001;-6.154541298747063E-002;-6.396918906830251E-004;1.811922411434352E-003;
2.417500000000000E+009;1.752973794937134E-001;-6.189179047942162E-002;-7.082521333359182E-004;1.879945513792336E-003;
2.417666666666667E+009;1.746543198823929E-001;-6.194141879677773E-002;-6.018065614625812E-004;1.979071646928787E-003;
2.417833333333334E+009;1.737132072448731E-001;-6.220069155097008E-002;-6.282816757448018E-004;1.927627483382821E-003;
2.418000000000000E+009;1.728952229022980E-001;-6.267208606004715E-002;-5.728132091462612E-004;1.938895438797772E-003;
2.418166666666667E+009;1.718715578317642E-001;-6.257084757089615E-002;-5.489237373694778E-004;2.269185846671462E-003;
2.418333333333334E+009;1.711432635784149E-001;-6.298209726810455E-002;-4.593336780089885E-004;2.220921218395233E-003;
2.418500000000000E+009;1.699530482292175E-001;-6.342102587223053E-002;-4.964626277796924E-004;2.337487181648612E-003;
2.418666666666667E+009;1.688702106475830E-001;-6.407909840345383E-002;-7.163957925513387E-004;2.367056673392654E-003;
2.418833333333334E+009;1.677047312259674E-001;-6.465307623147965E-002;-6.240016082301736E-004;2.369032707065344E-003;
2.419000000000000E+009;1.664648354053497E-001;-6.501375883817673E-002;-5.430440069176257E-004;2.471550833433867E-003;
2.419166666666667E+009;1.653187423944473E-001;-6.561734527349472E-002;-4.834078426938504E-004;2.496128203347325E-003;
2.419333333333334E+009;1.639173030853272E-001;-6.610091775655747E-002;-4.468180704861879E-004;2.608578652143478E-003;
2.419500000000000E+009;1.628138124942780E-001;-6.716617196798325E-002;-2.510519116185606E-004;2.600450767204166E-003;
2.419666666666667E+009;1.617303341627121E-001;-6.818289309740067E-002;-2.823366376105696E-004;2.990655368193984E-003;
2.419833333333334E+009;1.604109853506088E-001;-6.905930489301682E-002;-2.777652116492391E-004;2.983079990372062E-003;
2.420000000000000E+009;1.593019068241119E-001;-7.000960409641266E-002;-2.620929153636098E-004;3.045011777430773E-003;
2.420166666666667E+009;1.582280695438385E-001;-7.109928131103516E-002;-4.423558129929006E-005;3.142322180792689E-003;
2.420333333333334E+009;1.571054458618164E-001;-7.242420315742493E-002;7.620037195010809E-006;3.238987177610397E-003;
2.420500000000000E+009;1.562369912862778E-001;-7.340577244758606E-002;8.840270311338827E-005;3.330732695758343E-003;
2.420666666666667E+009;1.550223380327225E-001;-7.476802170276642E-002;3.007672785315663E-004;3.404022660106421E-003;
2.420833333333334E+009;1.541172116994858E-001;-7.623498141765595E-002;4.061644431203604E-004;3.522994229570031E-003;
2.421000000000000E+009;1.532510817050934E-001;-7.768228650093079E-002;5.169653450138867E-004;3.594261594116688E-003;
2.421166666666667E+009;1.525892168283463E-001;-7.930588722229004E-002;6.830090424045920E-004;3.625296521931887E-003;
2.421333333333334E+009;1.519208103418350E-001;-8.080878108739853E-002;7.457670290023089E-004;3.689395263791084E-003;
2.421500000000000E+009;1.511107236146927E-001;-8.229165524244309E-002;1.063527190126479E-003;3.779758466407657E-003;
2.421666666666667E+009;1.506375372409821E-001;-8.405893296003342E-002;1.235030707903206E-003;3.843459300696850E-003;
2.421833333333334E+009;1.502944082021713E-001;-8.576793968677521E-002;1.447175513021648E-003;3.834407310932875E-003;
2.422000000000000E+009;1.498621255159378E-001;-8.742047101259232E-002;1.540402416139841E-003;3.847649320960045E-003;
2.422166666666667E+009;1.495132893323898E-001;-8.925558626651764E-002;1.871812273748219E-003;3.973481245338917E-003;
2.422333333333334E+009;1.494316458702087E-001;-9.100390970706940E-002;2.206980483606458E-003;3.769093891605735E-003;
2.422500000000000E+009;1.492819190025330E-001;-9.261928498744965E-002;2.362619386985898E-003;3.839912824332714E-003;
2.422666666666667E+009;1.492358297109604E-001;-9.437746554613113E-002;2.500185510143638E-003;3.736434271559119E-003;
2.422833333333334E+009;1.492520868778229E-001;-9.631331264972687E-002;2.775104716420174E-003;3.691093763336539E-003;
2.423000000000000E+009;1.493671983480454E-001;-9.783353656530380E-002;2.960683777928352E-003;3.583949990570545E-003;
2.423166666666667E+009;1.496516913175583E-001;-9.938835352659226E-002;3.077850677073002E-003;3.521234961226583E-003;
2.423333333333334E+009;1.499747186899185E-001;-1.010491028428078E-001;3.387232543900609E-003;3.408602904528379E-003;
2.423500000000000E+009;1.501556336879730E-001;-1.026458814740181E-001;3.604345023632050E-003;3.207656089216471E-003;
2.423666666666667E+009;1.504537761211395E-001;-1.043649166822434E-001;3.721908899024129E-003;3.191456897184253E-003;
2.423833333333334E+009;1.510886102914810E-001;-1.059149727225304E-001;4.138680640608072E-003;2.893847180530429E-003;
2.424000000000000E+009;1.512553989887238E-001;-1.070448011159897E-001;4.052586853504181E-003;2.813720144331455E-003;
2.424166666666667E+009;1.517657637596130E-001;-1.083061024546623E-001;4.235832486301661E-003;2.592172706499696E-003;
2.424333333333334E+009;1.522728502750397E-001;-1.096827387809753E-001;4.380462691187859E-003;2.427510917186737E-003;
2.424500000000000E+009;1.528962105512619E-001;-1.108090132474899E-001;4.475850146263838E-003;2.236746484413743E-003;
2.424666666666667E+009;1.533570736646652E-001;-1.118918731808662E-001;4.675965756177902E-003;2.026323461905122E-003;
2.424833333333334E+009;1.538466066122055E-001;-1.128635555505753E-001;4.696265328675509E-003;1.555447117425501E-003;
2.425000000000000E+009;1.542246639728546E-001;-1.139048188924789E-001;4.972367547452450E-003;1.497269608080387E-003;
2.425166666666667E+009;1.545753180980682E-001;-1.148273870348930E-001;5.003270693123341E-003;1.258050324395299E-003;
2.425333333333334E+009;1.550099402666092E-001;-1.154626235365868E-001;4.882770590484142E-003;1.102045411244035E-003;
2.425500000000000E+009;1.554844081401825E-001;-1.160989254713059E-001;5.020633339881897E-003;7.646225276403129E-004;
2.425666666666667E+009;1.555993258953095E-001;-1.167590618133545E-001;4.965315572917461E-003;6.638031336478889E-004;
2.425833333333334E+009;1.559231877326965E-001;-1.172291114926338E-001;5.060614086687565E-003;3.785711887758225E-004;
2.426000000000000E+009;1.561344265937805E-001;-1.177498772740364E-001;5.062304437160492E-003;2.949488116428256E-004;
2.426166666666667E+009;1.564715653657913E-001;-1.181861236691475E-001;4.888830706477165E-003;7.703966548433527E-005;
2.426333333333334E+009;1.564156115055084E-001;-1.184874996542931E-001;4.985593724995852E-003;-2.023022243520245E-004;
2.426500000000000E+009;1.565163880586624E-001;-1.187093257904053E-001;4.955351352691650E-003;-4.429778491612524E-004;
2.426666666666667E+009;1.564754396677017E-001;-1.187490597367287E-001;5.217323079705238E-003;-7.497171172872186E-004;
2.426833333333334E+009;1.562059521675110E-001;-1.190236359834671E-001;4.988024476915598E-003;-8.595731342211366E-004;
2.427000000000000E+009;1.559575647115707E-001;-1.192082315683365E-001;4.979637451469898E-003;-1.018548966385424E-003;
2.427166666666667E+009;1.556058377027512E-001;-1.191383898258209E-001;4.814298823475838E-003;-1.224388601258397E-003;
2.427333333333334E+009;1.550804674625397E-001;-1.192888841032982E-001;4.615303128957748E-003;-1.266382168978453E-003;
2.427500000000000E+009;1.546682864427567E-001;-1.193666011095047E-001;4.626963287591934E-003;-1.539660035632551E-003;
2.427666666666667E+009;1.539619714021683E-001;-1.195310652256012E-001;4.489180166274309E-003;-1.678315107710660E-003;
2.427833333333334E+009;1.532038599252701E-001;-1.195067316293716E-001;4.536491353064776E-003;-1.793651143088937E-003;
