# Version 1.00
#
freq[Hz];re:Trc1_S11;im:Trc1_S11;re:Trc2_S21;im:Trc2_S21;
2.400000000000000E+009;1.550383120775223E-001;1.064728945493698E-001;3.508479567244649E-003;-6.034101825207472E-003;
2.400166666666667E+009;1.548434793949127E-001;1.041103228926659E-001;3.494974225759506E-003;-6.112206727266312E-003;
2.400333333333334E+009;1.549969464540482E-001;1.018484234809876E-001;3.332623047754169E-003;-6.149316206574440E-003;
2.400500000000000E+009;1.549958288669586E-001;9.931934624910355E-002;2.869707299396396E-003;-6.352150347083807E-003;
2.400666666666667E+009;1.549916416406632E-001;9.689724445343018E-002;3.304990241304040E-003;-6.926045287400484E-003;
2.400833333333334E+009;1.551516503095627E-001;9.393863379955292E-002;2.862542867660523E-003;-6.905279587954283E-003;
2.401000000000000E+009;1.555418521165848E-001;9.105103462934494E-002;2.755680121481419E-003;-7.477790582925081E-003;
2.401166666666667E+009;1.556582897901535E-001;8.821948617696762E-002;2.824999624863267E-003;-7.013234309852123E-003;
2.401333333333334E+009;1.559816598892212E-001;8.556643873453140E-002;2.420655684545636E-003;-8.212184533476830E-003;
2.401500000000000E+009;1.563606113195419E-001;8.254863321781158E-002;2.337225014343858E-003;-8.383714593946934E-003;
2.401666666666667E+009;1.569349914789200E-001;7.959309965372086E-002;1.791903865523636E-003;-8.068289607763290E-003;
2.401833333333334E+009;1.573447883129120E-001;7.690052688121796E-002;1.689736149273813E-003;-8.650628849864006E-003;
2.402000000000000E+009;1.584623306989670E-001;7.422293722629547E-002;1.244600862264633E-003;-8.781557902693749E-003;
2.402166666666667E+009;1.590645015239716E-001;7.154997438192368E-002;7.041859207674861E-004;-8.680240251123905E-003;
2.402333333333334E+009;1.601504087448120E-001;6.885082274675369E-002;1.377313019474968E-004;-9.014767594635487E-003;
2.402500000000000E+009;1.612099856138229E-001;6.627982109785080E-002;-3.185234963893890E-004;-8.996807970106602E-003;
2.402666666666667E+009;1.623863428831101E-001;6.392391026020050E-002;-6.657146150246263E-004;-9.124196134507656E-003;
2.402833333333334E+009;1.635870933532715E-001;6.171835213899612E-002;-1.410178374499083E-003;-9.069245308637619E-003;
2.403000000000000E+009;1.650206744670868E-001;5.938535928726196E-002;-1.834332360886037E-003;-8.810200728476048E-003;
2.403166666666667E+009;1.667862832546234E-001;5.730823427438736E-002;-2.335159108042717E-003;-8.718994446098805E-003;
2.403333333333334E+009;1.681716293096542E-001;5.487656220793724E-002;-2.959841163828969E-003;-8.506158366799355E-003;
2.403500000000000E+009;1.699238419532776E-001;5.301855131983757E-002;-3.517477307468653E-003;-8.149700239300728E-003;
2.403666666666667E+009;1.717532575130463E-001;5.109902098774910E-002;-3.775247605517507E-003;-7.838565856218338E-003;
2.403833333333334E+009;1.733975559473038E-001;4.928853362798691E-002;-4.275010898709297E-003;-7.489167619496584E-003;
2.404000000000000E+009;1.746872663497925E-001;4.767540469765663E-002;-4.752176813781261E-003;-7.120519876480103E-003;
2.404166666666667E+009;1.765672564506531E-001;4.614001512527466E-002;-4.739632364362478E-003;-6.715609226375818E-003;
2.404333333333334E+009;1.780817210674286E-001;4.468827322125435E-002;-4.954189062118530E-003;-6.396400742232800E-003;
2.404500000000000E+009;1.796305179595947E-001;4.333418235182762E-002;-5.044814664870501E-003;-5.873755551874638E-003;
2.404666666666667E+009;1.813270449638367E-001;4.225661233067513E-002;-5.033170804381371E-003;-5.639793351292610E-003;
2.404833333333334E+009;1.830088943243027E-001;4.119349271059036E-002;-5.122595466673374E-003;-5.363458301872015E-003;
2.405000000000000E+009;1.842733472585678E-001;4.065433144569397E-002;-5.053668282926083E-003;-4.954943433403969E-003;
2.405166666666667E+009;1.857228875160217E-001;3.997658938169479E-002;-5.206948611885309E-003;-4.768525250256062E-003;
2.405333333333334E+009;1.871456205844879E-001;3.957520797848702E-002;-5.217516794800758E-003;-4.448529798537493E-003;
2.405500000000000E+009;1.884045451879501E-001;3.900283202528954E-002;-5.431612487882376E-003;-4.245221149176359E-003;
2.405666666666667E+009;1.896634548902512E-001;3.862234205007553E-002;-5.426993593573570E-003;-4.019124433398247E-003;
2.405833333333334E+009;1.909764856100082E-001;3.840588033199310E-002;-5.435498896986246E-003;-3.969921264797449E-003;
2.406000000000000E+009;1.918953806161881E-001;3.834543377161026E-002;-5.530001129955053E-003;-3.558115568011999E-003;
2.406166666666667E+009;1.928464919328690E-001;3.805885463953018E-002;-5.639781709760428E-003;-3.263046033680439E-003;
2.406333333333334E+009;1.938005387783051E-001;3.814072534441948E-002;-5.591697525233030E-003;-3.164767054840922E-003;
2.406500000000000E+009;1.945442110300064E-001;3.804493322968483E-002;-5.394850857555866E-003;-2.782837953418493E-003;
2.406666666666667E+009;1.951066851615906E-001;3.805689141154289E-002;-5.642311181873083E-003;-2.797401743009687E-003;
2.406833333333334E+009;1.955976486206055E-001;3.815184533596039E-002;-5.597567651420832E-003;-2.389791887253523E-003;
2.407000000000000E+009;1.957612782716751E-001;3.834034129977226E-002;-5.509913433343172E-003;-2.283457433804870E-003;
2.407166666666667E+009;1.962523162364960E-001;3.806973993778229E-002;-5.503569263964891E-003;-2.002272754907608E-003;
2.407333333333334E+009;1.961270272731781E-001;3.829633817076683E-002;-5.460914690047503E-003;-1.651720842346549E-003;
2.407500000000000E+009;1.960485875606537E-001;3.820516169071198E-002;-5.360571201890707E-003;-1.610042178072035E-003;
2.407666666666667E+009;1.960863322019577E-001;3.812884911894798E-002;-5.180522799491882E-003;-1.454656710848212E-003;
2.407833333333334E+009;1.956572383642197E-001;3.801893815398216E-002;-5.167253781110048E-003;-1.134319114498794E-003;
2.408000000000000E+009;1.955254822969437E-001;3.771024942398071E-002;-5.115403793752194E-003;-1.295229536481202E-003;
2.408166666666667E+009;1.948865205049515E-001;3.741010278463364E-002;-4.944376181811094E-003;-8.652521064504981E-004;
2.408333333333334E+009;1.944734603166580E-001;3.679461032152176E-002;-4.773612134158611E-003;-9.827840840443969E-004;
2.408500000000000E+009;1.937233358621597E-001;3.643644973635674E-002;-4.682247526943684E-003;-9.083114564418793E-004;
2.408666666666667E+009;1.931561976671219E-001;3.595568239688873E-002;-4.599196836352348E-003;-7.488611154258251E-004;
2.408833333333334E+009;1.924269050359726E-001;3.502029925584793E-002;-4.473755136132240E-003;-7.192398770712316E-004;
2.409000000000000E+009;1.913626194000244E-001;3.411260992288590E-002;-4.540643654763699E-003;-6.706996355205774E-004;
2.409166666666667E+009;1.904279887676239E-001;3.299004212021828E-002;-4.445750266313553E-003;-5.736706079915166E-004;
2.409333333333334E+009;1.896381527185440E-001;3.194230422377586E-002;-4.389183130115271E-003;-6.390556809492409E-004;
2.409500000000000E+009;1.884066313505173E-001;3.058809787034988E-002;-4.385902546346188E-003;-6.034409743733704E-004;
2.409666666666667E+009;1.875695288181305E-001;2.910347841680050E-002;-4.374091047793627E-003;-6.198354531079531E-004;
2.409833333333334E+009;1.865310221910477E-001;2.768822200596333E-002;-4.191930871456862E-003;-5.374321481212974E-004;
2.410000000000000E+009;1.855108588933945E-001;2.599932812154293E-002;-4.068380687385798E-003;-5.655147251673043E-004;
2.410166666666667E+009;1.846223026514053E-001;2.405057102441788E-002;-4.115816671401262E-003;-5.331750144250691E-004;
2.410333333333334E+009;1.837078630924225E-001;2.232376858592033E-002;-4.012606572359800E-003;-5.629668012261391E-004;
2.410500000000000E+009;1.827217936515808E-001;2.028144150972366E-002;-4.127783700823784E-003;-4.958622157573700E-004;
2.410666666666667E+009;1.818978339433670E-001;1.807585917413235E-002;-4.138671793043613E-003;-5.531286587938666E-004;
2.410833333333334E+009;1.812918186187744E-001;1.577777042984963E-002;-4.010560456663370E-003;-5.314133595675230E-004;
2.411000000000000E+009;1.805567145347595E-001;1.366903167217970E-002;-4.222927615046501E-003;-5.722873611375690E-004;
2.411166666666667E+009;1.798571497201920E-001;1.131927501410246E-002;-4.204342141747475E-003;-5.578302661888301E-004;
2.411333333333334E+009;1.791834533214569E-001;8.828499354422092E-003;-4.300134722143412E-003;-5.912244087085128E-004;
2.411500000000000E+009;1.789088696241379E-001;6.501444615423679E-003;-4.434393253177404E-003;-5.818339996039867E-004;
2.411666666666667E+009;1.787945330142975E-001;4.155717790126801E-003;-4.509684629738331E-003;-6.472931709140539E-004;
2.411833333333334E+009;1.785612404346466E-001;1.774030039086938E-003;-4.720823373645544E-003;-6.301406538113952E-004;
2.412000000000000E+009;1.785358190536499E-001;-9.307428263127804E-004;-4.967969842255116E-003;-5.908786552026868E-004;
2.412166666666667E+009;1.785069555044174E-001;-3.165668342262507E-003;-5.102901719510555E-003;-4.825026844628155E-004;
2.412333333333334E+009;1.788914799690247E-001;-5.652491003274918E-003;-5.249985959380865E-003;-6.005041068419814E-004;
2.412500000000000E+009;1.793862283229828E-001;-8.086994290351868E-003;-5.590348504483700E-003;-2.281245542690158E-004;
2.412666666666667E+009;1.797439008951187E-001;-1.060085371136665E-002;-5.723617970943451E-003;-6.395727541530505E-005;
2.412833333333334E+009;1.803329288959503E-001;-1.290914230048657E-002;-5.823803599923849E-003;-3.165798716509016E-006;
2.413000000000000E+009;1.811617612838745E-001;-1.511148922145367E-002;-5.949273705482483E-003;3.619104390963912E-004;
2.413166666666667E+009;1.818986386060715E-001;-1.724424958229065E-002;-6.150552537292242E-003;6.189090199768543E-004;
2.413333333333334E+009;1.828708797693253E-001;-1.940152607858181E-002;-6.287110969424248E-003;8.759984048083425E-004;
2.413500000000000E+009;1.837601661682129E-001;-2.184086292982101E-002;-6.381439510732889E-003;1.354335923679173E-003;
2.413666666666667E+009;1.849653571844101E-001;-2.387905865907669E-002;-6.504912395030260E-003;1.651645987294614E-003;
2.413833333333334E+009;1.858838647603989E-001;-2.581333369016647E-002;-6.492835003882647E-003;2.034686272963882E-003;
2.414000000000000E+009;1.872396320104599E-001;-2.761638723313808E-002;-6.391356233507395E-003;2.452436368912458E-003;
2.414166666666667E+009;1.883112490177155E-001;-2.946278639137745E-002;-6.238589063286781E-003;2.855850849300623E-003;
2.414333333333334E+009;1.896273940801621E-001;-3.130716457962990E-002;-6.212059408426285E-003;3.107986645773053E-003;
2.414500000000000E+009;1.906171292066574E-001;-3.269717469811440E-002;-5.924220196902752E-003;3.584549995139241E-003;
2.414666666666667E+009;1.918833106756210E-001;-3.410083428025246E-002;-5.692637991160154E-003;3.824283368885517E-003;
2.414833333333334E+009;1.931262165307999E-001;-3.546297550201416E-002;-5.565271712839603E-003;4.129131790250540E-003;
2.415000000000000E+009;1.940379738807678E-001;-3.680621460080147E-002;-5.236188881099224E-003;4.313982091844082E-003;
2.415166666666667E+009;1.952227503061295E-001;-3.777148202061653E-002;-4.948935471475124E-003;4.515215754508972E-003;
2.415333333333334E+009;1.964831650257111E-001;-3.869641572237015E-002;-4.747583065181971E-003;4.645611159503460E-003;
2.415500000000000E+009;1.975128501653671E-001;-3.938418626785278E-002;-4.444033838808537E-003;4.826604854315519E-003;
2.415666666666667E+009;1.985947936773300E-001;-4.022755101323128E-002;-4.277836997061968E-003;5.079462658613920E-003;
2.415833333333334E+009;1.992866396903992E-001;-4.072547703981400E-002;-4.190002102404833E-003;5.083256401121616E-003;
2.416000000000000E+009;1.999735385179520E-001;-4.134741425514221E-002;-3.964957315474749E-003;5.232506431639195E-003;
2.416166666666667E+009;2.007185071706772E-001;-4.193453490734100E-002;-3.676730440929532E-003;5.398516543209553E-003;
2.416333333333334E+009;2.013308852910996E-001;-4.203885048627853E-002;-3.626683494076133E-003;5.595136899501085E-003;
2.416500000000000E+009;2.018139064311981E-001;-4.237303882837296E-002;-3.444723552092910E-003;5.706519354134798E-003;
2.416666666666667E+009;2.020706683397293E-001;-4.268110170960426E-002;-3.079276066273451E-003;5.831056740134955E-003;
2.416833333333334E+009;2.022079229354858E-001;-4.276846721768379E-002;-2.636246150359511E-003;5.953502841293812E-003;
2.417000000000000E+009;2.023084163665772E-001;-4.287705570459366E-002;-2.566261216998100E-003;6.111762020736933E-003;
2.417166666666667E+009;2.019175291061401E-001;-4.285900667309761E-002;-2.162143588066101E-003;6.189355161041021E-003;
2.417333333333334E+009;2.016444206237793E-001;-4.274697601795197E-002;-1.857047085650265E-003;6.196354515850544E-003;
2.417500000000000E+009;2.013118118047714E-001;-4.266918078064919E-002;-1.501899212598801E-003;6.123121362179518E-003;
2.417666666666667E+009;2.008321136236191E-001;-4.255917295813561E-002;-1.219654688611627E-003;6.326035130769014E-003;
2.417833333333334E+009;2.003200799226761E-001;-4.225064069032669E-002;-9.029562352225184E-004;6.132989190518856E-003;
2.418000000000000E+009;1.995997279882431E-001;-4.215518757700920E-002;-5.288917454890907E-004;6.266357842832804E-003;
2.418166666666667E+009;1.987887620925903E-001;-4.212102666497231E-002;-3.464856126811355E-004;5.967310164123774E-003;
2.418333333333334E+009;1.977926194667816E-001;-4.197094962000847E-002;-4.757072019856423E-006;5.871455650776625E-003;
2.418500000000000E+009;1.966939121484757E-001;-4.205505549907684E-002;2.621986204758287E-004;5.841103848069906E-003;
2.418666666666667E+009;1.958074569702148E-001;-4.200455546379089E-002;3.686361014842987E-004;5.625880323350430E-003;
2.418833333333334E+009;1.944687962532044E-001;-4.224228486418724E-002;6.467975326813757E-004;5.404651165008545E-003;
2.419000000000000E+009;1.931595802307129E-001;-4.234162345528603E-002;8.108340553008020E-004;5.293696653097868E-003;
2.419166666666667E+009;1.918290108442307E-001;-4.264210909605026E-002;1.034863526001573E-003;5.159445572644472E-003;
2.419333333333334E+009;1.905464529991150E-001;-4.325860738754273E-002;1.012556254863739E-003;5.006660707294941E-003;
2.419500000000000E+009;1.889448612928391E-001;-4.374654963612557E-002;1.315387780778110E-003;4.812915809452534E-003;
2.419666666666667E+009;1.873472630977631E-001;-4.454465955495834E-002;1.319491188041866E-003;4.733141046017408E-003;
2.419833333333334E+009;1.857831776142120E-001;-4.525707289576531E-002;1.317007234320045E-003;4.623694811016321E-003;
2.420000000000000E+009;1.842998564243317E-001;-4.607741907238960E-002;1.311371335759759E-003;4.526345524936914E-003;
2.420166666666667E+009;1.827666610479355E-001;-4.694916680455208E-002;1.446653273887932E-003;4.298398736864328E-003;
2.420333333333334E+009;1.810334920883179E-001;-4.814557731151581E-002;1.335541135631502E-003;4.201300907880068E-003;
2.420500000000000E+009;1.794606894254684E-001;-4.947016015648842E-002;1.368724857456982E-003;4.158556926995516E-003;
2.420666666666667E+009;1.779030859470367E-001;-5.064326524734497E-002;1.450383570045233E-003;3.994459751993418E-003;
2.420833333333334E+009;1.762884110212326E-001;-5.225456506013870E-002;1.407472067512572E-003;4.145809449255467E-003;
2.421000000000000E+009;1.749042123556137E-001;-5.368182435631752E-002;1.649482757784426E-003;4.021397326141596E-003;
2.421166666666667E+009;1.734789758920670E-001;-5.539220198988915E-002;1.685469411313534E-003;4.126051906496286E-003;
2.421333333333334E+009;1.718398183584213E-001;-5.678999423980713E-002;1.994800753891468E-003;4.057021345943213E-003;
2.421500000000000E+009;1.705434769392014E-001;-5.879354476928711E-002;1.970682060346007E-003;3.916057292371988E-003;
2.421666666666667E+009;1.694750338792801E-001;-6.057031825184822E-002;2.054001437500119E-003;3.882870078086853E-003;
2.421833333333334E+009;1.683577597141266E-001;-6.245411559939385E-002;2.294066362082958E-003;3.693951060995460E-003;
2.422000000000000E+009;1.672010570764542E-001;-6.423132866621018E-002;2.465545199811459E-003;3.601406235247850E-003;
2.422166666666667E+009;1.664142906665802E-001;-6.644657254219055E-002;2.500711241737008E-003;3.520658006891608E-003;
2.422333333333334E+009;1.653839200735092E-001;-6.826987117528915E-002;2.517734654247761E-003;3.462601220235229E-003;
2.422500000000000E+009;1.647068560123444E-001;-7.016805559396744E-002;2.667366992682219E-003;3.293005051091313E-003;
2.422666666666667E+009;1.640809923410416E-001;-7.218208909034729E-002;2.733771223574877E-003;3.064379794523120E-003;
2.422833333333334E+009;1.638491302728653E-001;-7.424423098564148E-002;2.835113322362304E-003;2.899879589676857E-003;
2.423000000000000E+009;1.631126254796982E-001;-7.610875368118286E-002;2.780298003926873E-003;2.802985021844506E-003;
2.423166666666667E+009;1.629152595996857E-001;-7.803662866353989E-002;2.882103668525815E-003;2.641739090904594E-003;
2.423333333333334E+009;1.626205593347549E-001;-8.009868860244751E-002;2.894575940445066E-003;2.506160642951727E-003;
2.423500000000000E+009;1.626885682344437E-001;-8.177685737609863E-002;2.937601413577795E-003;2.260854002088308E-003;
2.423666666666667E+009;1.627685874700546E-001;-8.353662490844727E-002;2.938336692750454E-003;2.163737313821912E-003;
2.423833333333334E+009;1.627794951200485E-001;-8.521579951047897E-002;2.792255952954292E-003;1.941438182257116E-003;
2.424000000000000E+009;1.627430468797684E-001;-8.700748533010483E-002;2.845377661287785E-003;1.871809712611139E-003;
2.424166666666667E+009;1.629441678524017E-001;-8.851386606693268E-002;2.582605928182602E-003;1.762725529260933E-003;
2.424333333333334E+009;1.631619483232498E-001;-8.990849554538727E-002;2.628443064168096E-003;1.563781057484448E-003;
2.424500000000000E+009;1.637312024831772E-001;-9.166733920574188E-002;2.597630955278873E-003;1.454399316571653E-003;
2.424666666666667E+009;1.638216674327850E-001;-9.296739101409912E-002;2.484069904312491E-003;1.576097449287772E-003;
2.424833333333334E+009;1.644812375307083E-001;-9.425406157970429E-002;2.231067745015025E-003;1.502036233432591E-003;
2.425000000000000E+009;1.648341715335846E-001;-9.538781642913818E-002;2.299354877322912E-003;1.589931431226432E-003;
2.425166666666667E+009;1.651063859462738E-001;-9.638728201389313E-002;2.291140146553516E-003;1.472785137593746E-003;
2.425333333333334E+009;1.654057204723358E-001;-9.732780605554581E-002;2.094306284561753E-003;1.523636281490326E-003;
2.425500000000000E+009;1.659569591283798E-001;-9.833623468875885E-002;2.087311819195747E-003;1.507005770690739E-003;
2.425666666666667E+009;1.662426590919495E-001;-9.897942095994949E-002;2.213038969784975E-003;1.558794756419957E-003;
2.425833333333334E+009;1.666139662265778E-001;-9.975104033946991E-002;2.267442876473069E-003;1.515922602266073E-003;
2.426000000000000E+009;1.670744568109512E-001;-1.001993343234062E-001;2.190639264881611E-003;1.634811516851187E-003;
2.426166666666667E+009;1.674691736698151E-001;-1.005934923887253E-001;2.186212688684464E-003;1.680086599662900E-003;
2.426333333333334E+009;1.675882637500763E-001;-1.012220457196236E-001;2.309517003595829E-003;1.537451520562172E-003;
2.426500000000000E+009;1.679285615682602E-001;-1.015124320983887E-001;2.444638637825847E-003;1.670476864092052E-003;
2.426666666666667E+009;1.680979728698731E-001;-1.018152311444283E-001;2.387859625741839E-003;1.678347587585449E-003;
2.426833333333334E+009;1.682921350002289E-001;-1.020757183432579E-001;2.541377209126949E-003;1.582290278747678E-003;
2.427000000000000E+009;1.683038473129273E-001;-1.022831872105598E-001;2.509267767891288E-003;1.567972125485539E-003;
2.427166666666667E+009;1.683264970779419E-001;-1.023214980959892E-001;2.655933145433664E-003;1.712055294774473E-003;
2.427333333333334E+009;1.681628972291946E-001;-1.025523319840431E-001;2.792297862470150E-003;1.488299923948944E-003;
2.427500000000000E+009;1.679069995880127E-001;-1.028291657567024E-001;2.769130980595946E-003;1.445840927772224E-003;
2.427666666666667E+009;1.674778312444687E-001;-1.028864681720734E-001;2.779297064989805E-003;1.428829506039619E-003;
