# Version 1.00
#
freq[Hz];re:Trc1_S11;im:Trc1_S11;re:Trc2_S21;im:Trc2_S21;
2.400000000000000E+009;1.551165431737900E-001;1.063082814216614E-001;3.579788841307163E-003;-6.164878606796265E-003;
2.400166666666667E+009;1.547185480594635E-001;1.040180400013924E-001;3.608399303629994E-003;-6.172777619212866E-003;
2.400333333333334E+009;1.550557315349579E-001;1.016839370131493E-001;3.346985206007958E-003;-6.272969767451286E-003;
2.400500000000000E+009;1.548561304807663E-001;9.892977029085159E-002;3.359084250405431E-003;-6.418026052415371E-003;
2.400666666666667E+009;1.550504118204117E-001;9.646286070346832E-002;3.346403595060110E-003;-6.570437457412481E-003;
2.400833333333334E+009;1.550685912370682E-001;9.371589124202728E-002;3.373316489160061E-003;-7.040676660835743E-003;
2.401000000000000E+009;1.553078293800354E-001;9.089235961437225E-002;3.138503758236766E-003;-7.167689036577940E-003;
2.401166666666667E+009;1.555694490671158E-001;8.812310546636581E-002;2.924890024587512E-003;-7.354964967817068E-003;
2.401333333333334E+009;1.559241414070129E-001;8.525396138429642E-002;2.598681952804327E-003;-7.666129618883133E-003;
2.401500000000000E+009;1.563645303249359E-001;8.250944316387177E-002;2.385668223723769E-003;-8.052797056734562E-003;
2.401666666666667E+009;1.570002138614655E-001;7.961303740739822E-002;2.207853831350803E-003;-8.211796171963215E-003;
2.401833333333334E+009;1.573259532451630E-001;7.679751515388489E-002;1.617135480046272E-003;-8.560275658965111E-003;
2.402000000000000E+009;1.583141684532166E-001;7.405920326709747E-002;1.161328284069896E-003;-8.684930391609669E-003;
2.402166666666667E+009;1.590113490819931E-001;7.150959968566895E-002;7.376783760264516E-004;-8.962715975940228E-003;
2.402333333333334E+009;1.601749062538147E-001;6.876918673515320E-002;2.675719151739031E-004;-8.981904946267605E-003;
2.402500000000000E+009;1.612012982368469E-001;6.629114598035812E-002;-2.539288252592087E-004;-9.102564305067062E-003;
2.402666666666667E+009;1.624976843595505E-001;6.391447782516480E-002;-8.536160457879305E-004;-8.921018801629543E-003;
2.402833333333334E+009;1.636206060647965E-001;6.143557280302048E-002;-1.279012067243457E-003;-9.003592655062676E-003;
2.403000000000000E+009;1.650298684835434E-001;5.928027629852295E-002;-1.860031043179333E-003;-8.874063380062580E-003;
2.403166666666667E+009;1.666051447391510E-001;5.716028437018395E-002;-2.345142886042595E-003;-8.893812075257301E-003;
2.403333333333334E+009;1.683584004640579E-001;5.504180118441582E-002;-2.879953477531672E-003;-8.557430468499661E-003;
2.403500000000000E+009;1.699513345956802E-001;5.289311707019806E-002;-3.483596025034785E-003;-8.319100365042687E-003;
2.403666666666667E+009;1.716229170560837E-001;5.115788802504540E-002;-3.756897523999214E-003;-7.909676991403103E-003;
2.403833333333334E+009;1.732462495565414E-001;4.924834892153740E-002;-4.175050649791956E-003;-7.608968764543533E-003;
2.404000000000000E+009;1.749041378498077E-001;4.751327633857727E-002;-4.464945755898953E-003;-7.007471285760403E-003;
2.404166666666667E+009;1.765138655900955E-001;4.620389267802239E-002;-4.563907161355019E-003;-6.725701037794352E-003;
2.404333333333334E+009;1.780990362167358E-001;4.472103714942932E-002;-4.817586857825518E-003;-6.124190986156464E-003;
2.404500000000000E+009;1.796503514051437E-001;4.336399957537651E-002;-5.135945044457912E-003;-5.948047619313002E-003;
2.404666666666667E+009;1.813683360815048E-001;4.213795065879822E-002;-5.082483403384686E-003;-5.587762221693993E-003;
2.404833333333334E+009;1.828734874725342E-001;4.128820821642876E-002;-5.126197822391987E-003;-5.163145251572132E-003;
2.405000000000000E+009;1.842330098152161E-001;4.061078280210495E-002;-5.178555846214294E-003;-5.009631626307964E-003;
2.405166666666667E+009;1.858586817979813E-001;3.992617130279541E-002;-5.280144978314638E-003;-4.927139263600111E-003;
2.405333333333334E+009;1.871492862701416E-001;3.933555260300636E-002;-5.262486170977354E-003;-4.532826598733664E-003;
2.405500000000000E+009;1.884659230709076E-001;3.907432779669762E-002;-5.295907612890005E-003;-4.387225490063429E-003;
2.405666666666667E+009;1.897767931222916E-001;3.866759315133095E-002;-5.369284190237522E-003;-4.194236826151609E-003;
2.405833333333334E+009;1.908902376890183E-001;3.841787204146385E-002;-5.405534524470568E-003;-3.822657046839595E-003;
2.406000000000000E+009;1.919298171997070E-001;3.816225752234459E-002;-5.385552532970905E-003;-3.687188494950533E-003;
2.406166666666667E+009;1.928345412015915E-001;3.809315338730812E-002;-5.605558399111033E-003;-3.462202148512006E-003;
2.406333333333334E+009;1.936486512422562E-001;3.813846781849861E-002;-5.571259185671806E-003;-3.029169747605920E-003;
2.406500000000000E+009;1.944693177938461E-001;3.800347819924355E-002;-5.632646381855011E-003;-3.038541646674275E-003;
2.406666666666667E+009;1.950400471687317E-001;3.808189183473587E-002;-5.573922768235207E-003;-2.827843185514212E-003;
2.406833333333334E+009;1.955308318138123E-001;3.814231604337692E-002;-5.469021387398243E-003;-2.550718141719699E-003;
2.407000000000000E+009;1.958436965942383E-001;3.825962543487549E-002;-5.610602442175150E-003;-2.329116687178612E-003;
2.407166666666667E+009;1.961477994918823E-001;3.801134228706360E-002;-5.455946549773216E-003;-2.038952661678195E-003;
2.407333333333334E+009;1.960947513580322E-001;3.809965774416924E-002;-5.431059282273054E-003;-1.837662653997541E-003;
2.407500000000000E+009;1.960243582725525E-001;3.810051456093788E-002;-5.293484311550856E-003;-1.700291992165148E-003;
2.407666666666667E+009;1.959832161664963E-001;3.797974810004234E-002;-5.397683009505272E-003;-1.343522453680635E-003;
2.407833333333334E+009;1.954771280288696E-001;3.778443858027458E-002;-5.277039483189583E-003;-1.293485285714269E-003;
2.408000000000000E+009;1.954712420701981E-001;3.767148405313492E-002;-5.114941857755184E-003;-1.147200120612979E-003;
2.408166666666667E+009;1.948110908269882E-001;3.723913803696632E-002;-4.887342918664217E-003;-1.069319201633334E-003;
2.408333333333334E+009;1.943436264991760E-001;3.673664480447769E-002;-4.890990909188986E-003;-1.002427306957543E-003;
2.408500000000000E+009;1.937051564455032E-001;3.640181943774223E-002;-4.685811698436737E-003;-8.728850516490638E-004;
2.408666666666667E+009;1.930696517229080E-001;3.583481907844544E-002;-4.651112481951714E-003;-8.533082436770201E-004;
2.408833333333334E+009;1.923048049211502E-001;3.511607646942139E-002;-4.486412741243839E-003;-7.541078957729042E-004;
2.409000000000000E+009;1.915182024240494E-001;3.404228016734123E-002;-4.424484446644783E-003;-6.772170891053975E-004;
2.409166666666667E+009;1.903908848762512E-001;3.304827213287354E-002;-4.284861031919718E-003;-7.214680081233382E-004;
2.409333333333334E+009;1.895094215869904E-001;3.189675509929657E-002;-4.476738162338734E-003;-6.639998755417764E-004;
2.409500000000000E+009;1.885356456041336E-001;3.058904968202114E-002;-4.368716385215521E-003;-6.153190042823553E-004;
2.409666666666667E+009;1.874794960021973E-001;2.904547192156315E-002;-4.216079134494066E-003;-6.837084656581283E-004;
2.409833333333334E+009;1.864521205425263E-001;2.754448354244232E-002;-4.223679192364216E-003;-5.947597092017531E-004;
2.410000000000000E+009;1.854491829872131E-001;2.586386911571026E-002;-4.169938620179892E-003;-5.654342239722610E-004;
2.410166666666667E+009;1.844066679477692E-001;2.399414591491222E-002;-4.186297766864300E-003;-4.187833110336214E-004;
2.410333333333334E+009;1.835649460554123E-001;2.220949158072472E-002;-4.175094887614250E-003;-5.145596805959940E-004;
2.410500000000000E+009;1.825906336307526E-001;2.020627632737160E-002;-4.238837398588657E-003;-3.949376696255058E-004;
2.410666666666667E+009;1.817914247512817E-001;1.786191016435623E-002;-4.312586504966021E-003;-6.031173397786915E-004;
2.410833333333334E+009;1.810212284326553E-001;1.577827148139477E-002;-4.066008143126965E-003;-6.652307347394526E-004;
2.411000000000000E+009;1.802860498428345E-001;1.358474884182215E-002;-4.143243189901114E-003;-5.765331443399191E-004;
2.411166666666667E+009;1.798467785120010E-001;1.130060385912657E-002;-4.181872587651014E-003;-6.297436193563044E-004;
2.411333333333334E+009;1.792822182178497E-001;8.685002103447914E-003;-4.346907604485750E-003;-6.952647818252444E-004;
2.411500000000000E+009;1.788973063230515E-001;6.414033006876707E-003;-4.418295342475176E-003;-6.656019249930978E-004;
2.411666666666667E+009;1.785210818052292E-001;4.046262707561255E-003;-4.483425989747047E-003;-5.962870782241225E-004;
2.411833333333334E+009;1.783657968044281E-001;1.679449575021863E-003;-4.847407806664705E-003;-7.672699866816402E-004;
2.412000000000000E+009;1.784444451332092E-001;-9.176906896755099E-004;-4.876063205301762E-003;-8.319730404764414E-004;
2.412166666666667E+009;1.785584539175034E-001;-3.265697741881013E-003;-5.050557199865580E-003;-6.105152424424887E-004;
2.412333333333334E+009;1.786256283521652E-001;-5.631505977362394E-003;-5.148327443748713E-003;-4.828187811654061E-004;
2.412500000000000E+009;1.791863143444061E-001;-8.125079795718193E-003;-5.487457849085331E-003;-4.004054644610733E-004;
2.412666666666667E+009;1.795364320278168E-001;-1.063982490450144E-002;-5.583212710916996E-003;-9.642391523811966E-005;
2.412833333333334E+009;1.803778707981110E-001;-1.292961742728949E-002;-5.897061433643103E-003;5.511637937161140E-005;
2.413000000000000E+009;1.810634732246399E-001;-1.521795336157084E-002;-5.918089766055346E-003;3.187349648214877E-004;
2.413166666666667E+009;1.818192303180695E-001;-1.729531027376652E-002;-6.105355918407440E-003;7.693335646763444E-004;
2.413333333333334E+009;1.828748881816864E-001;-1.957894489169121E-002;-6.393062416464090E-003;8.765664533711970E-004;
2.413500000000000E+009;1.837616562843323E-001;-2.182630449533463E-002;-6.564554758369923E-003;1.244347891770303E-003;
2.413666666666667E+009;1.847614943981171E-001;-2.382398955523968E-002;-6.400558631867170E-003;1.640988397412002E-003;
2.413833333333334E+009;1.858316361904144E-001;-2.582342177629471E-002;-6.585573311895132E-003;2.045916160568595E-003;
2.414000000000000E+009;1.869597285985947E-001;-2.760135009884834E-002;-6.413958966732025E-003;2.528231823816896E-003;
2.414166666666667E+009;1.882348805665970E-001;-2.941437251865864E-002;-6.408734247088432E-003;2.945837331935763E-003;
2.414333333333334E+009;1.893528252840042E-001;-3.132004663348198E-002;-6.220479961484671E-003;3.147945040836930E-003;
2.414500000000000E+009;1.906260848045349E-001;-3.273831680417061E-002;-5.944099742919207E-003;3.610674059018493E-003;
2.414666666666667E+009;1.918088644742966E-001;-3.410919755697250E-002;-5.789446644484997E-003;3.974644467234612E-003;
2.414833333333334E+009;1.928661316633225E-001;-3.556556627154350E-002;-5.375721491873264E-003;4.044809844344854E-003;
2.415000000000000E+009;1.938516795635223E-001;-3.680559992790222E-002;-5.209362134337425E-003;4.441137425601482E-003;
2.415166666666667E+009;1.951671689748764E-001;-3.768908232450485E-002;-5.029232706874609E-003;4.432357382029295E-003;
2.415333333333334E+009;1.962245702743530E-001;-3.860315307974815E-002;-4.722342826426029E-003;4.742056597024202E-003;
2.415500000000000E+009;1.973648667335510E-001;-3.933124244213104E-002;-4.531295504420996E-003;4.736443050205708E-003;
2.415666666666667E+009;1.983627676963806E-001;-4.002394527196884E-002;-4.434006754308939E-003;4.977289587259293E-003;
2.415833333333334E+009;1.990857571363449E-001;-4.068679362535477E-002;-4.170188214629889E-003;5.074130836874247E-003;
2.416000000000000E+009;1.999292969703674E-001;-4.128672182559967E-002;-4.008540883660317E-003;5.211102776229382E-003;
2.416166666666667E+009;2.006628662347794E-001;-4.180734977126122E-002;-3.669108962640166E-003;5.406098440289497E-003;
2.416333333333334E+009;2.012614309787750E-001;-4.204815253615379E-002;-3.463961649686098E-003;5.395109765231609E-003;
2.416500000000000E+009;2.016745507717133E-001;-4.223887622356415E-002;-3.345437813550234E-003;5.867844447493553E-003;
2.416666666666667E+009;2.018835544586182E-001;-4.263547062873840E-002;-3.064828924834728E-003;5.903536919504404E-003;
2.416833333333334E+009;2.020570188760757E-001;-4.262099787592888E-002;-2.721140626817942E-003;6.121586542576551E-003;
2.417000000000000E+009;2.021878659725189E-001;-4.288016632199287E-002;-2.456109039485455E-003;6.183933001011610E-003;
2.417166666666667E+009;2.017361223697662E-001;-4.265637695789337E-002;-2.177109709009528E-003;6.258470937609673E-003;
2.417333333333334E+009;2.016301900148392E-001;-4.261671379208565E-002;-1.897117588669062E-003;6.355946883559227E-003;
2.417500000000000E+009;2.012966722249985E-001;-4.259191825985909E-002;-1.454523182474077E-003;6.305219605565071E-003;
2.417666666666667E+009;2.007372528314591E-001;-4.240403696894646E-002;-1.142043853178620E-003;6.421679165214300E-003;
2.417833333333334E+009;2.002602815628052E-001;-4.218254238367081E-002;-8.961485582403839E-004;6.200838834047318E-003;
2.418000000000000E+009;1.994880884885788E-001;-4.198769479990006E-002;-6.730301538482308E-004;6.057587452232838E-003;
2.418166666666667E+009;1.985743343830109E-001;-4.206103086471558E-002;-1.951703161466867E-004;6.103064864873886E-003;
2.418333333333334E+009;1.975926160812378E-001;-4.184513911604881E-002;4.162300319876522E-005;5.956414155662060E-003;
2.418500000000000E+009;1.966761499643326E-001;-4.197403788566589E-002;3.005285398103297E-004;5.878752097487450E-003;
2.418666666666667E+009;1.956969499588013E-001;-4.182629659771919E-002;5.138903507031500E-004;5.653667729347944E-003;
2.418833333333334E+009;1.943358778953552E-001;-4.213793575763702E-002;6.889738724566996E-004;5.500680301338434E-003;
2.419000000000000E+009;1.930492818355560E-001;-4.227636754512787E-002;8.144947350956500E-004;5.244953557848930E-003;
2.419166666666667E+009;1.918510049581528E-001;-4.255997017025948E-002;9.884219616651535E-004;5.175450816750526E-003;
2.419333333333334E+009;1.904163360595703E-001;-4.319443553686142E-002;1.099861226975918E-003;5.059771239757538E-003;
2.419500000000000E+009;1.889041364192963E-001;-4.347236827015877E-002;1.253444701433182E-003;4.943216219544411E-003;
2.419666666666667E+009;1.873502433300018E-001;-4.433301463723183E-002;1.326225348748267E-003;4.587525967508555E-003;
2.419833333333334E+009;1.857019662857056E-001;-4.512155428528786E-002;1.238320022821426E-003;4.571042489260435E-003;
2.420000000000000E+009;1.842368245124817E-001;-4.601741209626198E-002;1.311230240389705E-003;4.363157320767641E-003;
2.420166666666667E+009;1.826516687870026E-001;-4.682150110602379E-002;1.385208568535745E-003;4.342916421592236E-003;
2.420333333333334E+009;1.809922903776169E-001;-4.798464849591255E-002;1.421925728209317E-003;4.186893813312054E-003;
2.420500000000000E+009;1.793360710144043E-001;-4.927839338779450E-002;1.560840755701065E-003;4.203190095722675E-003;
2.420666666666667E+009;1.777135431766510E-001;-5.052654072642326E-002;1.578259747475386E-003;4.113402683287859E-003;
2.420833333333334E+009;1.762604415416718E-001;-5.178577825427055E-002;1.466615474782884E-003;4.113443195819855E-003;
2.421000000000000E+009;1.747617274522781E-001;-5.354526266455650E-002;1.690075849182904E-003;4.023645073175430E-003;
2.421166666666667E+009;1.735161542892456E-001;-5.528826639056206E-002;1.759799546562135E-003;4.191179294139147E-003;
2.421333333333334E+009;1.717758774757385E-001;-5.669062212109566E-002;1.912576961331070E-003;3.965986426919699E-003;
2.421500000000000E+009;1.706010997295380E-001;-5.869765579700470E-002;1.991403289139271E-003;3.774501383304596E-003;
2.421666666666667E+009;1.693570315837860E-001;-6.047788634896278E-002;2.081730868667364E-003;3.863449906930327E-003;
2.421833333333334E+009;1.681388020515442E-001;-6.221976131200790E-002;2.268295735120773E-003;3.779788268730044E-003;
2.422000000000000E+009;1.671909838914871E-001;-6.399814039468765E-002;2.382691018283367E-003;3.577155992388725E-003;
2.422166666666667E+009;1.664397567510605E-001;-6.623591482639313E-002;2.615876495838165E-003;3.611825639382005E-003;
2.422333333333334E+009;1.654565483331680E-001;-6.811314076185226E-002;2.526588970795274E-003;3.280886681750417E-003;
2.422500000000000E+009;1.647813171148300E-001;-7.009517401456833E-002;2.668342320248485E-003;3.273347625508905E-003;
2.422666666666667E+009;1.641934067010880E-001;-7.206784933805466E-002;2.866465365514159E-003;3.084159921854734E-003;
2.422833333333334E+009;1.636754572391510E-001;-7.400969415903091E-002;2.826805924996734E-003;2.965647960081697E-003;
2.423000000000000E+009;1.632270514965057E-001;-7.607962936162949E-002;2.834988990798593E-003;2.858428983017802E-003;
2.423166666666667E+009;1.628082990646362E-001;-7.791475206613541E-002;3.033987712115049E-003;2.629210706800222E-003;
2.423333333333334E+009;1.628222167491913E-001;-7.993000745773315E-002;2.917719772085547E-003;2.351367846131325E-003;
2.423500000000000E+009;1.626061499118805E-001;-8.163505792617798E-002;2.989585045725107E-003;2.186110941693187E-003;
2.423666666666667E+009;1.627748012542725E-001;-8.351411670446396E-002;2.873936668038368E-003;2.252312842756510E-003;
2.423833333333334E+009;1.628286391496658E-001;-8.530074357986450E-002;2.872965298593044E-003;1.951440819539130E-003;
2.424000000000000E+009;1.627698689699173E-001;-8.691865205764771E-002;2.818406326696277E-003;1.948535209521651E-003;
2.424166666666667E+009;1.630323976278305E-001;-8.843421936035156E-002;2.569678472355008E-003;1.865082071162760E-003;
2.424333333333334E+009;1.632824838161469E-001;-8.995509892702103E-002;2.557282336056233E-003;1.658600522205234E-003;
2.424500000000000E+009;1.636819839477539E-001;-9.157031029462814E-002;2.533126855269074E-003;1.665485789999366E-003;
2.424666666666667E+009;1.638674139976502E-001;-9.278598427772522E-002;2.522134222090244E-003;1.500196871347725E-003;
2.424833333333334E+009;1.644917875528336E-001;-9.411011636257172E-002;2.310132840648294E-003;1.609661267139018E-003;
2.425000000000000E+009;1.648119240999222E-001;-9.525001049041748E-002;2.371021546423435E-003;1.464701606892049E-003;
2.425166666666667E+009;1.651898324489594E-001;-9.626523405313492E-002;2.409372013062239E-003;1.574995694682002E-003;
2.425333333333334E+009;1.655783653259277E-001;-9.725052863359451E-002;2.256382489576936E-003;1.711788703687489E-003;
2.425500000000000E+009;1.660366207361221E-001;-9.819056838750839E-002;2.208024496212602E-003;1.407762989401817E-003;
2.425666666666667E+009;1.664523035287857E-001;-9.877974539995194E-002;2.187708159908652E-003;1.620308379642665E-003;
2.425833333333334E+009;1.666824817657471E-001;-9.968521445989609E-002;2.159447409212589E-003;1.529681612737477E-003;
2.426000000000000E+009;1.670564115047455E-001;-1.001449823379517E-001;2.166138729080558E-003;1.586429192684591E-003;
2.426166666666667E+009;1.674833595752716E-001;-1.006308048963547E-001;2.199155045673251E-003;1.655043684877455E-003;
2.426333333333334E+009;1.676002144813538E-001;-1.011144816875458E-001;2.340184524655342E-003;1.674706698395312E-003;
2.426500000000000E+009;1.679862886667252E-001;-1.014359295368195E-001;2.375853946432471E-003;1.739097759127617E-003;
2.426666666666667E+009;1.682076007127762E-001;-1.015987470746040E-001;2.474466804414988E-003;1.576776267029345E-003;
2.426833333333334E+009;1.685120016336441E-001;-1.020908877253532E-001;2.473389031365514E-003;1.554234069772065E-003;
2.427000000000000E+009;1.682700961828232E-001;-1.022097617387772E-001;2.600132487714291E-003;1.701246364973486E-003;
2.427166666666667E+009;1.683355867862701E-001;-1.023643091320992E-001;2.622724743559957E-003;1.674761995673180E-003;
2.427333333333334E+009;1.682928502559662E-001;-1.025905534625053E-001;2.709289779886603E-003;1.391113968566060E-003;
2.427500000000000E+009;1.678663343191147E-001;-1.027904376387596E-001;2.702696714550257E-003;1.484376494772732E-003;
2.427666666666667E+009;1.675294190645218E-001;-1.028361618518829E-001;2.799090929329395E-003;1.465902896597982E-003;
