# Version 1.00
#
freq[Hz];re:Trc1_S11;im:Trc1_S11;re:Trc2_S21;im:Trc2_S21;
2.400000000000000E+009;1.550130099058151E-001;1.063857600092888E-001;3.464852459728718E-003;-5.881029181182385E-003;
2.400166666666667E+009;1.548461019992828E-001;1.040091365575790E-001;3.472113050520420E-003;-6.035428494215012E-003;
2.400333333333334E+009;1.548779010772705E-001;1.016378104686737E-001;3.353191073983908E-003;-6.128571461886168E-003;
2.400500000000000E+009;1.547739505767822E-001;9.890457987785339E-002;3.466097870841622E-003;-6.476749200373888E-003;
2.400666666666667E+009;1.551182568073273E-001;9.647296369075775E-002;3.223592182621360E-003;-6.536185275763273E-003;
2.400833333333334E+009;1.551515609025955E-001;9.362895041704178E-002;3.279625205323100E-003;-6.879782304167748E-003;
2.401000000000000E+009;1.555732041597366E-001;9.088251739740372E-002;2.994846319779754E-003;-7.086389232426882E-003;
2.401166666666667E+009;1.553535610437393E-001;8.795233070850372E-002;3.059718990698457E-003;-7.456927094608545E-003;
2.401333333333334E+009;1.560620218515396E-001;8.507295697927475E-002;2.531465841457248E-003;-7.690429687500000E-003;
2.401500000000000E+009;1.563874185085297E-001;8.241757005453110E-002;2.396321622654796E-003;-7.959594018757343E-003;
2.401666666666667E+009;1.568123102188110E-001;7.957468926906586E-002;1.997945131734014E-003;-8.287783712148666E-003;
2.401833333333334E+009;1.571084409952164E-001;7.692325115203857E-002;1.633041538298130E-003;-8.446537889540196E-003;
2.402000000000000E+009;1.583890169858933E-001;7.406640797853470E-002;1.155658625066280E-003;-8.766545914113522E-003;
2.402166666666667E+009;1.590154320001602E-001;7.161337882280350E-002;7.923239027149975E-004;-8.800115436315537E-003;
2.402333333333334E+009;1.601410508155823E-001;6.885666400194168E-002;3.243203973397613E-004;-8.993041701614857E-003;
2.402500000000000E+009;1.613541394472122E-001;6.622244417667389E-002;-2.605779154691845E-004;-8.991552516818047E-003;
2.402666666666667E+009;1.623035520315170E-001;6.393423676490784E-002;-6.875413819216192E-004;-9.140369482338429E-003;
2.402833333333334E+009;1.636770367622376E-001;6.168983876705170E-002;-1.351917744614184E-003;-8.928853087127209E-003;
2.403000000000000E+009;1.650548279285431E-001;5.935175344347954E-002;-1.905520795844495E-003;-8.905901573598385E-003;
2.403166666666667E+009;1.669694334268570E-001;5.714250728487968E-002;-2.327569760382175E-003;-8.702918887138367E-003;
2.403333333333334E+009;1.682235598564148E-001;5.491070449352264E-002;-2.810936421155930E-003;-8.366553112864494E-003;
2.403500000000000E+009;1.699113398790360E-001;5.309243500232697E-002;-3.504156833514571E-003;-8.201490156352520E-003;
2.403666666666667E+009;1.716589927673340E-001;5.094541236758232E-002;-3.716566134244204E-003;-7.911300286650658E-003;
2.403833333333334E+009;1.732165962457657E-001;4.923995956778526E-002;-4.056398291140795E-003;-7.540056016296148E-003;
2.404000000000000E+009;1.747992485761643E-001;4.752257093787193E-002;-4.390325397253037E-003;-7.237865589559078E-003;
2.404166666666667E+009;1.766142845153809E-001;4.609787091612816E-002;-4.688933957368136E-003;-6.629903335124254E-003;
2.404333333333334E+009;1.781174391508102E-001;4.459638148546219E-002;-4.839900881052017E-003;-6.369733717292547E-003;
2.404500000000000E+009;1.797716766595841E-001;4.333171993494034E-002;-4.982623737305403E-003;-5.944864358752966E-003;
2.404666666666667E+009;1.813385933637619E-001;4.221546277403832E-002;-5.070018116384745E-003;-5.750491283833981E-003;
2.404833333333334E+009;1.829656213521957E-001;4.101425781846046E-002;-5.051361396908760E-003;-5.351471714675427E-003;
2.405000000000000E+009;1.843014210462570E-001;4.063626006245613E-002;-5.076727829873562E-003;-5.086891353130341E-003;
2.405166666666667E+009;1.856385767459869E-001;3.976504132151604E-002;-5.174186546355486E-003;-4.736499395221472E-003;
2.405333333333334E+009;1.871723532676697E-001;3.946785628795624E-002;-5.233498290181160E-003;-4.668414127081633E-003;
2.405500000000000E+009;1.884781122207642E-001;3.891668468713760E-002;-5.258360877633095E-003;-4.314935300499201E-003;
2.405666666666667E+009;1.896208673715591E-001;3.858553990721703E-002;-5.255883093923330E-003;-4.035026766359806E-003;
2.405833333333334E+009;1.908772587776184E-001;3.835799545049667E-002;-5.280228331685066E-003;-3.907973412424326E-003;
2.406000000000000E+009;1.919173300266266E-001;3.818043321371079E-002;-5.432901903986931E-003;-3.530982648953795E-003;
2.406166666666667E+009;1.927498131990433E-001;3.810345008969307E-002;-5.518627818673849E-003;-3.502835519611836E-003;
2.406333333333334E+009;1.937132924795151E-001;3.816805034875870E-002;-5.523418541997671E-003;-3.203351050615311E-003;
2.406500000000000E+009;1.945355683565140E-001;3.819969668984413E-002;-5.585497710853815E-003;-2.948894863948226E-003;
2.406666666666667E+009;1.950053870677948E-001;3.806857392191887E-002;-5.564160179346800E-003;-2.750719897449017E-003;
2.406833333333334E+009;1.955176442861557E-001;3.813581168651581E-002;-5.504756700247526E-003;-2.493221778422594E-003;
2.407000000000000E+009;1.957932114601135E-001;3.829488158226013E-002;-5.554061848670244E-003;-2.227401593700051E-003;
2.407166666666667E+009;1.961656957864761E-001;3.801485896110535E-002;-5.480000283569098E-003;-1.998488325625658E-003;
2.407333333333334E+009;1.961406767368317E-001;3.814155235886574E-002;-5.349640268832445E-003;-1.774689997546375E-003;
2.407500000000000E+009;1.959550976753235E-001;3.823155909776688E-002;-5.108554381877184E-003;-1.665644580498338E-003;
2.407666666666667E+009;1.960280388593674E-001;3.811652958393097E-002;-5.141657777130604E-003;-1.522792619653046E-003;
2.407833333333334E+009;1.955730319023132E-001;3.783594071865082E-002;-5.041928496211767E-003;-1.258629374206066E-003;
2.408000000000000E+009;1.953853815793991E-001;3.772149980068207E-002;-5.053566303104162E-003;-1.225499203428626E-003;
2.408166666666667E+009;1.948011368513107E-001;3.737075626850128E-002;-4.925301764160395E-003;-1.138853374868631E-003;
2.408333333333334E+009;1.944131553173065E-001;3.685749322175980E-002;-4.733548033982515E-003;-7.905000820755959E-004;
2.408500000000000E+009;1.936345249414444E-001;3.645861521363258E-002;-4.735415801405907E-003;-8.774136076681316E-004;
2.408666666666667E+009;1.930306404829025E-001;3.574761003255844E-002;-4.606876987963915E-003;-8.042810950428248E-004;
2.408833333333334E+009;1.922762393951416E-001;3.505079820752144E-002;-4.700219724327326E-003;-7.382640033029020E-004;
2.409000000000000E+009;1.913463920354843E-001;3.411675989627838E-002;-4.567023832350969E-003;-7.401850307360292E-004;
2.409166666666667E+009;1.904925554990768E-001;3.302500024437904E-002;-4.359450191259384E-003;-7.066453108564019E-004;
2.409333333333334E+009;1.894590705633164E-001;3.189115971326828E-002;-4.273028112947941E-003;-6.981915212236345E-004;
2.409500000000000E+009;1.884335577487946E-001;3.053010068833828E-002;-4.285466857254505E-003;-6.135993753559887E-004;
2.409666666666667E+009;1.875066161155701E-001;2.917778864502907E-002;-4.214998800307512E-003;-6.775945657864213E-004;
2.409833333333334E+009;1.864732056856155E-001;2.754290960729122E-002;-4.224519245326519E-003;-5.080081173218787E-004;
2.410000000000000E+009;1.855189055204392E-001;2.590938098728657E-002;-4.226247314363718E-003;-7.022173958830535E-004;
2.410166666666667E+009;1.845949888229370E-001;2.397651970386505E-002;-4.164090845733881E-003;-6.167673273012042E-004;
2.410333333333334E+009;1.836654841899872E-001;2.222321368753910E-002;-4.384071100503206E-003;-4.609828465618193E-004;
2.410500000000000E+009;1.826061010360718E-001;2.040901593863964E-002;-4.202865064144135E-003;-5.991682992316783E-004;
2.410666666666667E+009;1.817587018013001E-001;1.793657429516316E-002;-4.160389769822359E-003;-5.481823463924229E-004;
2.410833333333334E+009;1.810509562492371E-001;1.574893109500408E-002;-4.133381880819798E-003;-5.158135318197310E-004;
2.411000000000000E+009;1.804710328578949E-001;1.356655359268189E-002;-4.151277709752321E-003;-4.859704349655658E-004;
2.411166666666667E+009;1.798246651887894E-001;1.134093198925257E-002;-4.294975195080042E-003;-8.017414365895093E-004;
2.411333333333334E+009;1.792239695787430E-001;8.705811575055122E-003;-4.347246605902910E-003;-7.348902290686965E-004;
2.411500000000000E+009;1.788395047187805E-001;6.413711700588465E-003;-4.296266939491034E-003;-6.481973105110228E-004;
2.411666666666667E+009;1.787129640579224E-001;4.109998699277639E-003;-4.601823166012764E-003;-7.197194499894977E-004;
2.411833333333334E+009;1.783086508512497E-001;1.605010125786066E-003;-4.888037219643593E-003;-7.495791651308537E-004;
2.412000000000000E+009;1.785492748022080E-001;-9.957024594768882E-004;-4.940105602145195E-003;-6.567480158992112E-004;
2.412166666666667E+009;1.785845458507538E-001;-3.325201105326414E-003;-5.210858304053545E-003;-4.738935676869005E-004;
2.412333333333334E+009;1.785822510719299E-001;-5.738148465752602E-003;-5.210033617913723E-003;-4.582157998811454E-004;
2.412500000000000E+009;1.791631877422333E-001;-8.201815187931061E-003;-5.432194098830223E-003;-2.471890184096992E-004;
2.412666666666667E+009;1.794620752334595E-001;-1.057484559714794E-002;-5.747345741838217E-003;-1.595949142938480E-004;
2.412833333333334E+009;1.803277432918549E-001;-1.288815774023533E-002;-5.906712263822556E-003;3.549068787833676E-005;
2.413000000000000E+009;1.809015125036240E-001;-1.517813745886087E-002;-5.999683868139982E-003;3.663164388854057E-004;
2.413166666666667E+009;1.818440109491348E-001;-1.725472696125507E-002;-6.150286644697189E-003;7.002908387221396E-004;
2.413333333333334E+009;1.828208416700363E-001;-1.974490843713284E-002;-6.364404223859310E-003;1.068276702426374E-003;
2.413500000000000E+009;1.835906803607941E-001;-2.164669148623943E-002;-6.410439498722553E-003;1.317337737418711E-003;
2.413666666666667E+009;1.848811507225037E-001;-2.387911081314087E-002;-6.479451898485422E-003;1.719894004054368E-003;
2.413833333333334E+009;1.859120726585388E-001;-2.578211016952992E-002;-6.614627316594124E-003;2.070063725113869E-003;
2.414000000000000E+009;1.869737803936005E-001;-2.772675268352032E-002;-6.536089349538088E-003;2.417252864688635E-003;
2.414166666666667E+009;1.882492005825043E-001;-2.938842773437500E-002;-6.238356232643127E-003;2.884079702198505E-003;
2.414333333333334E+009;1.893444806337357E-001;-3.127120435237885E-002;-6.097300443798304E-003;3.185773035511375E-003;
2.414500000000000E+009;1.904879510402679E-001;-3.271239995956421E-002;-5.954179447144270E-003;3.538365243002772E-003;
2.414666666666667E+009;1.918084025382996E-001;-3.397762030363083E-002;-5.703666247427464E-003;3.861420322209597E-003;
2.414833333333334E+009;1.929728239774704E-001;-3.547083213925362E-002;-5.568420980125666E-003;3.959286026656628E-003;
2.415000000000000E+009;1.939208805561066E-001;-3.661740198731422E-002;-5.174919497221708E-003;4.285776522010565E-003;
2.415166666666667E+009;1.952981650829315E-001;-3.769801929593086E-002;-4.952181130647659E-003;4.440928343683481E-003;
2.415333333333334E+009;1.963395923376083E-001;-3.860569745302200E-002;-4.769981838762760E-003;4.680079873651266E-003;
2.415500000000000E+009;1.974170058965683E-001;-3.925261646509171E-002;-4.519070964306593E-003;4.722445737570524E-003;
2.415666666666667E+009;1.984064280986786E-001;-4.007026180624962E-002;-4.340260755270720E-003;5.024274811148644E-003;
2.415833333333334E+009;1.992455571889877E-001;-4.067105054855347E-002;-4.117888864129782E-003;5.058705341070890E-003;
2.416000000000000E+009;1.998925358057022E-001;-4.125200957059860E-002;-3.910274244844914E-003;5.246180109679699E-003;
2.416166666666667E+009;2.006897330284119E-001;-4.177899658679962E-002;-3.820189042016864E-003;5.372275132685900E-003;
2.416333333333334E+009;2.013278603553772E-001;-4.209772869944572E-002;-3.584924386814237E-003;5.435234401375055E-003;
2.416500000000000E+009;2.017269730567932E-001;-4.231233522295952E-002;-3.330471925437450E-003;5.674255080521107E-003;
2.416666666666667E+009;2.019972950220108E-001;-4.253984242677689E-002;-2.961124060675502E-003;5.846281535923481E-003;
2.416833333333334E+009;2.020309567451477E-001;-4.256993159651756E-002;-2.909938339143992E-003;6.061744410544634E-003;
2.417000000000000E+009;2.022063583135605E-001;-4.278050735592842E-002;-2.428536070510745E-003;6.124002393335104E-003;
2.417166666666667E+009;2.018966525793076E-001;-4.267623275518417E-002;-2.148088300600648E-003;6.264164112508297E-003;
2.417333333333334E+009;2.016614675521851E-001;-4.260726645588875E-002;-1.816389732994139E-003;6.385522894561291E-003;
2.417500000000000E+009;2.012673467397690E-001;-4.270311072468758E-002;-1.479646307416260E-003;6.282837130129337E-003;
2.417666666666667E+009;2.006756216287613E-001;-4.246947541832924E-002;-1.175045617856085E-003;6.195189896970987E-003;
2.417833333333334E+009;2.001258730888367E-001;-4.224902763962746E-002;-9.339174721390009E-004;6.230063736438751E-003;
2.418000000000000E+009;1.994615942239761E-001;-4.207407683134079E-002;-5.096846143715084E-004;6.184494588524103E-003;
2.418166666666667E+009;1.986800581216812E-001;-4.199508205056191E-002;-2.588743227533996E-004;6.056401412934065E-003;
2.418333333333334E+009;1.977160125970841E-001;-4.192396625876427E-002;1.056252585840412E-004;5.891195498406887E-003;
2.418500000000000E+009;1.966677904129028E-001;-4.193475469946861E-002;2.550661156419665E-004;5.840602796524763E-003;
2.418666666666667E+009;1.957641988992691E-001;-4.188681021332741E-002;6.487310747615993E-004;5.703747738152742E-003;
2.418833333333334E+009;1.944099813699722E-001;-4.214634746313095E-002;8.178642601706088E-004;5.497562699019909E-003;
2.419000000000000E+009;1.930822581052780E-001;-4.234493896365166E-002;7.604958955198526E-004;5.350411869585514E-003;
2.419166666666667E+009;1.917928308248520E-001;-4.271765425801277E-002;1.094130799174309E-003;5.142624955624342E-003;
2.419333333333334E+009;1.904514878988266E-001;-4.313511401414871E-002;1.152517623268068E-003;4.950210452079773E-003;
2.419500000000000E+009;1.889125555753708E-001;-4.351023957133293E-002;1.174424891360104E-003;4.809130448848009E-003;
2.419666666666667E+009;1.873278021812439E-001;-4.447562992572784E-002;1.236122683621943E-003;4.715508315712214E-003;
2.419833333333334E+009;1.856602579355240E-001;-4.505464062094688E-002;1.359147019684315E-003;4.529424011707306E-003;
2.420000000000000E+009;1.842822134494782E-001;-4.590798541903496E-002;1.525833271443844E-003;4.530843812972307E-003;
2.420166666666667E+009;1.827008128166199E-001;-4.696962237358093E-002;1.524154096841812E-003;4.297252744436264E-003;
2.420333333333334E+009;1.810620427131653E-001;-4.804702475667000E-002;1.517917029559612E-003;4.289398435503244E-003;
2.420500000000000E+009;1.793581694364548E-001;-4.935297742486000E-002;1.418307540006936E-003;4.262910224497318E-003;
2.420666666666667E+009;1.778001636266708E-001;-5.045514181256294E-002;1.634949119761586E-003;4.058572929352522E-003;
2.420833333333334E+009;1.763129681348801E-001;-5.195605382323265E-002;1.661884016357362E-003;4.097396507859230E-003;
2.421000000000000E+009;1.747978478670120E-001;-5.359718576073647E-002;1.736831618472934E-003;4.032932221889496E-003;
2.421166666666667E+009;1.735050827264786E-001;-5.516421794891357E-002;1.740141771733761E-003;4.096465185284615E-003;
2.421333333333334E+009;1.718163937330246E-001;-5.671789124608040E-002;1.965349540114403E-003;4.172298125922680E-003;
2.421500000000000E+009;1.705387234687805E-001;-5.867035314440727E-002;1.975620398297906E-003;3.822745988145471E-003;
2.421666666666667E+009;1.694265753030777E-001;-6.043884158134460E-002;2.224581781774759E-003;3.825585125014186E-003;
2.421833333333334E+009;1.683925241231918E-001;-6.227898597717285E-002;2.362179569900036E-003;3.770829411223531E-003;
2.422000000000000E+009;1.673048436641693E-001;-6.427277624607086E-002;2.434699796140194E-003;3.786823712289333E-003;
2.422166666666667E+009;1.665420681238174E-001;-6.619195640087128E-002;2.528759883716703E-003;3.501550992950797E-003;
2.422333333333334E+009;1.656924635171890E-001;-6.819454580545425E-002;2.594090765342116E-003;3.376684384420514E-003;
2.422500000000000E+009;1.648038029670715E-001;-6.994755566120148E-002;2.801818540319800E-003;3.291315399110317E-003;
2.422666666666667E+009;1.642143428325653E-001;-7.199515402317047E-002;2.789063146337867E-003;3.132725832983851E-003;
2.422833333333334E+009;1.637328714132309E-001;-7.392701506614685E-002;2.780446549877524E-003;3.134156577289105E-003;
2.423000000000000E+009;1.632532775402069E-001;-7.606096565723419E-002;2.770436462014914E-003;2.843686146661639E-003;
2.423166666666667E+009;1.629860699176788E-001;-7.794996351003647E-002;2.836573170498014E-003;2.537223044782877E-003;
2.423333333333334E+009;1.628110706806183E-001;-7.992136478424072E-002;2.914030104875565E-003;2.431551460176706E-003;
2.423500000000000E+009;1.625173389911652E-001;-8.155369758605957E-002;2.726860577240586E-003;2.177541842684150E-003;
2.423666666666667E+009;1.628998070955277E-001;-8.348456025123596E-002;2.771701663732529E-003;2.063488122075796E-003;
2.423833333333334E+009;1.626951694488525E-001;-8.503518998622894E-002;2.748052822425962E-003;2.055273624137044E-003;
2.424000000000000E+009;1.628658324480057E-001;-8.691184222698212E-002;2.744287019595504E-003;1.764726359397173E-003;
2.424166666666667E+009;1.630340516567230E-001;-8.839671313762665E-002;2.697807271033526E-003;1.728363917209208E-003;
2.424333333333334E+009;1.633129119873047E-001;-8.995477855205536E-002;2.700277371332049E-003;1.549693872220814E-003;
2.424500000000000E+009;1.637741774320602E-001;-9.168316423892975E-002;2.543784910812974E-003;1.613395521417260E-003;
2.424666666666667E+009;1.639420837163925E-001;-9.292968362569809E-002;2.455064794048667E-003;1.418059575371444E-003;
2.424833333333334E+009;1.646133661270142E-001;-9.418188035488129E-002;2.369049005210400E-003;1.391318975947797E-003;
2.425000000000000E+009;1.649160683155060E-001;-9.537719935178757E-002;2.160341246053577E-003;1.467145862989128E-003;
2.425166666666667E+009;1.652964949607849E-001;-9.638147801160812E-002;2.192901214584708E-003;1.518335309810937E-003;
2.425333333333334E+009;1.655617654323578E-001;-9.727711975574493E-002;2.188132377341390E-003;1.428116927854717E-003;
2.425500000000000E+009;1.660801023244858E-001;-9.827556461095810E-002;2.193754538893700E-003;1.637985464185476E-003;
2.425666666666667E+009;1.664012521505356E-001;-9.894644469022751E-002;2.148974686861038E-003;1.604269375093281E-003;
2.425833333333334E+009;1.667658537626267E-001;-9.973886609077454E-002;2.169991144910455E-003;1.721831969916821E-003;
2.426000000000000E+009;1.670456528663635E-001;-1.001136377453804E-001;2.157981740310788E-003;1.606561709195375E-003;
2.426166666666667E+009;1.674690693616867E-001;-1.006600111722946E-001;2.147858263924718E-003;1.608277903869748E-003;
2.426333333333334E+009;1.676287055015564E-001;-1.010629534721375E-001;2.360696904361248E-003;1.805115025490522E-003;
2.426500000000000E+009;1.679803133010864E-001;-1.014760434627533E-001;2.282035304233432E-003;1.589497551321983E-003;
2.426666666666667E+009;1.681800037622452E-001;-1.017958819866180E-001;2.473554573953152E-003;1.678082044236362E-003;
2.426833333333334E+009;1.684118211269379E-001;-1.019896715879440E-001;2.520636189728975E-003;1.589119317941368E-003;
2.427000000000000E+009;1.683530211448669E-001;-1.022179722785950E-001;2.626389497891069E-003;1.521813217550516E-003;
2.427166666666667E+009;1.683693677186966E-001;-1.022907420992851E-001;2.534213708713651E-003;1.622042502276599E-003;
2.427333333333334E+009;1.682662963867188E-001;-1.025439128279686E-001;2.723067533224821E-003;1.512068090960383E-003;
2.427500000000000E+009;1.680036038160324E-001;-1.028141602873802E-001;2.893416443839669E-003;1.428385730832815E-003;
2.427666666666667E+009;1.675728410482407E-001;-1.028507575392723E-001;2.734360983595252E-003;1.345239579677582E-003;
