# Version 1.00
#
freq[Hz];re:Trc1_S11;im:Trc1_S11;re:Trc2_S21;im:Trc2_S21;
2.400000000000000E+009;1.557619273662567E-001;1.065521687269211E-001;3.934536129236221E-003;-5.981740076094866E-003;
2.400166666666667E+009;1.547775864601135E-001;1.045443862676621E-001;3.492760471999645E-003;-5.871607922017574E-003;
2.400333333333334E+009;1.549330353736877E-001;1.016236022114754E-001;3.291474422439933E-003;-6.195303983986378E-003;
2.400500000000000E+009;1.548423022031784E-001;9.884408861398697E-002;3.360806033015251E-003;-6.444584578275681E-003;
2.400666666666667E+009;1.550075560808182E-001;9.650292992591858E-002;3.285089973360300E-003;-6.626642309129238E-003;
2.400833333333334E+009;1.552103310823441E-001;9.351838380098343E-002;3.149398835375905E-003;-6.831071805208921E-003;
2.401000000000000E+009;1.552151590585709E-001;9.089811146259308E-002;3.086780896410346E-003;-7.091343868523836E-003;
2.401166666666667E+009;1.555153578519821E-001;8.800828456878662E-002;2.825246192514896E-003;-7.390580140054226E-003;
2.401333333333334E+009;1.559677571058273E-001;8.544526994228363E-002;2.669721376150847E-003;-7.721290457993746E-003;
2.401500000000000E+009;1.563586890697479E-001;8.253846317529678E-002;2.418990479782224E-003;-7.991744205355644E-003;
2.401666666666667E+009;1.566603928804398E-001;7.957334071397781E-002;1.878286246210337E-003;-8.132703602313995E-003;
2.401833333333334E+009;1.574613600969315E-001;7.690422236919403E-002;1.485005370341241E-003;-8.535557426512241E-003;
2.402000000000000E+009;1.582985371351242E-001;7.410238683223724E-002;1.249364460818470E-003;-8.690202608704567E-003;
2.402166666666667E+009;1.589671671390533E-001;7.168024778366089E-002;7.322634919546545E-004;-8.790768682956696E-003;
2.402333333333334E+009;1.600013971328735E-001;6.883101910352707E-002;2.771253348328173E-004;-9.016548283398151E-003;
2.402500000000000E+009;1.613026708364487E-001;6.627932935953140E-002;-2.857639337889850E-004;-8.887718431651592E-003;
2.402666666666667E+009;1.624412089586258E-001;6.419423222541809E-002;-8.768890402279794E-004;-8.987660519778729E-003;
2.402833333333334E+009;1.637335568666458E-001;6.161459162831307E-002;-1.171570969745517E-003;-9.101544506847858E-003;
2.403000000000000E+009;1.651463508605957E-001;5.935680866241455E-002;-1.917892834171653E-003;-8.945414796471596E-003;
2.403166666666667E+009;1.667824387550354E-001;5.715038999915123E-002;-2.500103553757072E-003;-8.734998293220997E-003;
2.403333333333334E+009;1.681950688362122E-001;5.496876314282417E-002;-2.844807924702764E-003;-8.406781591475010E-003;
2.403500000000000E+009;1.699419915676117E-001;5.288392305374146E-002;-3.456354839727283E-003;-8.267647586762905E-003;
2.403666666666667E+009;1.715895384550095E-001;5.093954876065254E-002;-3.768816357478499E-003;-7.855259813368321E-003;
2.403833333333334E+009;1.732679307460785E-001;4.913644120097160E-002;-4.073521587997675E-003;-7.522767409682274E-003;
2.404000000000000E+009;1.747925728559494E-001;4.748177528381348E-002;-4.581289365887642E-003;-7.131751161068678E-003;
2.404166666666667E+009;1.766753196716309E-001;4.627250880002976E-002;-4.687218461185694E-003;-6.705965381115675E-003;
2.404333333333334E+009;1.780680865049362E-001;4.477459937334061E-002;-4.914590157568455E-003;-6.362654734402895E-003;
2.404500000000000E+009;1.798578202724457E-001;4.323387891054153E-002;-4.892900120466948E-003;-5.906992591917515E-003;
2.404666666666667E+009;1.812920570373535E-001;4.228544607758522E-002;-5.089188460260630E-003;-5.604779813438654E-003;
2.404833333333334E+009;1.829250305891037E-001;4.129389300942421E-002;-5.118803586810827E-003;-5.293047986924648E-003;
2.405000000000000E+009;1.841639578342438E-001;4.048196971416473E-002;-5.057797301560640E-003;-5.007128696888685E-003;
2.405166666666667E+009;1.857244223356247E-001;4.011370241641998E-002;-5.161059554666281E-003;-4.701915197074413E-003;
2.405333333333334E+009;1.871125549077988E-001;3.942847996950150E-002;-5.139961373060942E-003;-4.499363712966442E-003;
2.405500000000000E+009;1.884982883930206E-001;3.910818696022034E-002;-5.172758828848600E-003;-4.161363933235407E-003;
2.405666666666667E+009;1.896915286779404E-001;3.871959075331688E-002;-5.480637773871422E-003;-4.072482232004404E-003;
2.405833333333334E+009;1.909734904766083E-001;3.841667249798775E-002;-5.404579453170300E-003;-3.825715510174632E-003;
2.406000000000000E+009;1.918608546257019E-001;3.825387731194496E-002;-5.410061683505774E-003;-3.714584978297353E-003;
2.406166666666667E+009;1.927887350320816E-001;3.811927884817123E-002;-5.299025680869818E-003;-3.353073960170150E-003;
2.406333333333334E+009;1.937884539365768E-001;3.834638744592667E-002;-5.865961778908968E-003;-2.824086463078857E-003;
2.406500000000000E+009;1.943608969449997E-001;3.805546462535858E-002;-5.273041315376759E-003;-3.270904300734401E-003;
2.406666666666667E+009;1.950874775648117E-001;3.822375833988190E-002;-5.786136724054813E-003;-2.322875661775470E-003;
2.406833333333334E+009;1.954991072416306E-001;3.819624707102776E-002;-5.210597533732653E-003;-2.963057486340404E-003;
2.407000000000000E+009;1.958575993776321E-001;3.831027820706368E-002;-5.059604998677969E-003;-2.034269040450454E-003;
2.407166666666667E+009;1.962593644857407E-001;3.803570196032524E-002;-4.926945548504591E-003;-1.220682519488037E-003;
2.407333333333334E+009;1.961055546998978E-001;3.831222280859947E-002;-5.452508106827736E-003;-1.742312568239868E-003;
2.407500000000000E+009;1.960036009550095E-001;3.832167014479637E-002;-5.262773018330336E-003;-1.630190643481910E-003;
2.407666666666667E+009;1.960444599390030E-001;3.811758384108543E-002;-5.138500127941370E-003;-1.497990684583783E-003;
2.407833333333334E+009;1.954780220985413E-001;3.801448643207550E-002;-5.125960335135460E-003;-1.242255326360464E-003;
2.408000000000000E+009;1.953632533550263E-001;3.785064443945885E-002;-4.924479871988297E-003;-1.096450723707676E-003;
2.408166666666667E+009;1.948503255844116E-001;3.750106692314148E-002;-4.937659949064255E-003;-9.294218616560102E-004;
2.408333333333334E+009;1.942851096391678E-001;3.689866885542870E-002;-4.862357396632433E-003;-8.746981038711965E-004;
2.408500000000000E+009;1.936768889427185E-001;3.656903654336929E-002;-4.824075382202864E-003;-8.850101730786264E-004;
2.408666666666667E+009;1.931074112653732E-001;3.597171232104302E-002;-4.530385602265596E-003;-8.400927763432264E-004;
2.408833333333334E+009;1.923923194408417E-001;3.525419160723686E-002;-4.404427018016577E-003;-7.128072320483625E-004;
2.409000000000000E+009;1.913443356752396E-001;3.408294916152954E-002;-4.344904329627752E-003;-6.594454753212631E-004;
2.409166666666667E+009;1.905247569084168E-001;3.302818909287453E-002;-4.361771047115326E-003;-7.060242933221161E-004;
2.409333333333334E+009;1.896382123231888E-001;3.196188434958458E-002;-4.293105099350214E-003;-6.662993691861630E-004;
2.409500000000000E+009;1.883472502231598E-001;3.059933148324490E-002;-4.103422630578280E-003;-7.050310960039496E-004;
2.409666666666667E+009;1.875255107879639E-001;2.919040434062481E-002;-4.178422503173351E-003;-6.377816316671670E-004;
2.409833333333334E+009;1.864841729402542E-001;2.762899734079838E-002;-4.210174083709717E-003;-6.431886577047408E-004;
2.410000000000000E+009;1.855491548776627E-001;2.608189359307289E-002;-4.165559541434050E-003;-6.103123887442052E-004;
2.410166666666667E+009;1.846071332693100E-001;2.401661314070225E-002;-4.189985804259777E-003;-6.500973831862211E-004;
2.410333333333334E+009;1.835815906524658E-001;2.224713191390038E-002;-4.312495235353708E-003;-5.357487825676799E-004;
2.410500000000000E+009;1.826929003000259E-001;2.026362158358097E-002;-4.160023760050535E-003;-4.972412716597319E-004;
2.410666666666667E+009;1.818878650665283E-001;1.798706687986851E-002;-4.052906762808561E-003;-6.749040912836790E-004;
2.410833333333334E+009;1.811617612838745E-001;1.579410582780838E-002;-4.283069167286158E-003;-4.307479539420456E-004;
2.411000000000000E+009;1.804647147655487E-001;1.350142806768417E-002;-4.275612998753786E-003;-7.719375425949693E-004;
2.411166666666667E+009;1.797634363174439E-001;1.132765039801598E-002;-4.340423271059990E-003;-6.691290764138103E-004;
2.411333333333334E+009;1.792796850204468E-001;8.815896697342396E-003;-4.284784663468599E-003;-6.761243566870689E-004;
2.411500000000000E+009;1.787349581718445E-001;6.511189509183168E-003;-4.430832806974649E-003;-5.188281647861004E-004;
2.411666666666667E+009;1.788125634193420E-001;4.104549530893564E-003;-4.491650033742189E-003;-5.676747532561421E-004;
2.411833333333334E+009;1.782809793949127E-001;1.675076549872756E-003;-4.635451361536980E-003;-6.937489379197359E-004;
2.412000000000000E+009;1.785748004913330E-001;-1.004050602205098E-003;-4.916341975331307E-003;-7.528551504947245E-004;
2.412166666666667E+009;1.786393225193024E-001;-3.136539133265615E-003;-5.091765429824591E-003;-5.245995707809925E-004;
2.412333333333334E+009;1.787145286798477E-001;-5.955985281616449E-003;-5.330022890120745E-003;-3.933257830794901E-004;
2.412500000000000E+009;1.793254315853119E-001;-8.073385804891586E-003;-5.485957488417625E-003;-3.308294108137488E-004;
2.412666666666667E+009;1.797581613063812E-001;-1.049380563199520E-002;-5.570614710450172E-003;-3.279613156337291E-005;
2.412833333333334E+009;1.804162412881851E-001;-1.297545246779919E-002;-5.826950538903475E-003;1.074203100870363E-004;
2.413000000000000E+009;1.812354773283005E-001;-1.507406961172819E-002;-6.044750567525625E-003;2.249063982162625E-004;
2.413166666666667E+009;1.818630844354630E-001;-1.734566502273083E-002;-6.099988706409931E-003;5.812220042571425E-004;
2.413333333333334E+009;1.829483360052109E-001;-1.953817531466484E-002;-6.278019398450851E-003;9.036454139277339E-004;
2.413500000000000E+009;1.838591098785400E-001;-2.163216657936573E-002;-6.524423137307167E-003;1.320153707638383E-003;
2.413666666666667E+009;1.850183159112930E-001;-2.380142919719219E-002;-6.411056034266949E-003;1.639234949834645E-003;
2.413833333333334E+009;1.860465854406357E-001;-2.575602196156979E-002;-6.531085353344679E-003;1.970725366845727E-003;
2.414000000000000E+009;1.871081888675690E-001;-2.761429361999035E-002;-6.388864945620298E-003;2.470393199473620E-003;
2.414166666666667E+009;1.883808821439743E-001;-2.929744310677052E-002;-6.267734803259373E-003;2.785402117297053E-003;
2.414333333333334E+009;1.895663291215897E-001;-3.127085044980049E-002;-6.159351672977209E-003;3.258336801081896E-003;
2.414500000000000E+009;1.906445324420929E-001;-3.271911293268204E-002;-5.908501800149679E-003;3.546840278431773E-003;
2.414666666666667E+009;1.919698268175125E-001;-3.418884053826332E-002;-5.731393117457628E-003;3.841342870146036E-003;
2.414833333333334E+009;1.930928677320480E-001;-3.548056259751320E-002;-5.377573892474175E-003;4.090878181159496E-003;
2.415000000000000E+009;1.941712647676468E-001;-3.679418936371803E-002;-5.089545622467995E-003;4.368014167994261E-003;
2.415166666666667E+009;1.953080296516419E-001;-3.781783208251000E-002;-4.817652050405741E-003;4.508223384618759E-003;
2.415333333333334E+009;1.965244263410568E-001;-3.868304193019867E-002;-4.657587036490440E-003;4.660105798393488E-003;
2.415500000000000E+009;1.975207775831223E-001;-3.939604759216309E-002;-4.531102720648050E-003;4.872504156082869E-003;
2.415666666666667E+009;1.984684169292450E-001;-4.024710878729820E-002;-4.304730799049139E-003;4.909055773168802E-003;
2.415833333333334E+009;1.992950588464737E-001;-4.076054692268372E-002;-4.060270730406046E-003;5.061461590230465E-003;
2.416000000000000E+009;2.001382410526276E-001;-4.135368391871452E-002;-3.986724186688662E-003;5.275496747344732E-003;
2.416166666666667E+009;2.006632983684540E-001;-4.185694456100464E-002;-3.672247054055333E-003;5.324513651430607E-003;
2.416333333333334E+009;2.014575153589249E-001;-4.211074858903885E-002;-3.482885193079710E-003;5.656712222844362E-003;
2.416500000000000E+009;2.017733156681061E-001;-4.231195896863937E-002;-3.290387103334069E-003;5.592665635049343E-003;
2.416666666666667E+009;2.020966261625290E-001;-4.270793497562408E-002;-2.917398931458592E-003;5.898432806134224E-003;
2.416833333333334E+009;2.022071182727814E-001;-4.261005669832230E-002;-2.702948637306690E-003;6.079104728996754E-003;
2.417000000000000E+009;2.022485285997391E-001;-4.293466731905937E-002;-2.511463360860944E-003;6.039319094270468E-003;
2.417166666666667E+009;2.019758224487305E-001;-4.286716505885124E-002;-2.185180550441146E-003;6.357195787131786E-003;
2.417333333333334E+009;2.017208784818649E-001;-4.256176203489304E-002;-1.887914491817355E-003;6.359475199133158E-003;
2.417500000000000E+009;2.013805955648422E-001;-4.255018755793572E-002;-1.463287393562496E-003;6.227939855307341E-003;
2.417666666666667E+009;2.008472383022308E-001;-4.254920408129692E-002;-1.094396458938718E-003;6.290181539952755E-003;
2.417833333333334E+009;2.003388553857803E-001;-4.232102632522583E-002;-9.176665917038918E-004;6.292812526226044E-003;
2.418000000000000E+009;1.996424645185471E-001;-4.212713986635208E-002;-3.696858766488731E-004;6.164318881928921E-003;
2.418166666666667E+009;1.987358778715134E-001;-4.210556671023369E-002;-2.509281912352890E-004;6.062580738216639E-003;
2.418333333333334E+009;1.978260874748230E-001;-4.190393164753914E-002;-1.346624139841879E-005;5.958328489214182E-003;
2.418500000000000E+009;1.967904269695282E-001;-4.203061386942864E-002;1.755112753016874E-004;5.840186495333910E-003;
2.418666666666667E+009;1.957712769508362E-001;-4.189906269311905E-002;5.473350174725056E-004;5.672524683177471E-003;
2.418833333333334E+009;1.945287436246872E-001;-4.208280518651009E-002;6.611552089452744E-004;5.456269718706608E-003;
2.419000000000000E+009;1.931740641593933E-001;-4.240489006042481E-002;8.684312924742699E-004;5.327641963958740E-003;
2.419166666666667E+009;1.918544620275497E-001;-4.264762252569199E-002;1.119243679568172E-003;5.201066378504038E-003;
2.419333333333334E+009;1.904316097497940E-001;-4.322585463523865E-002;1.274386304430664E-003;4.845558665692806E-003;
2.419500000000000E+009;1.890335232019424E-001;-4.365488514304161E-002;1.310158986598253E-003;4.937451332807541E-003;
2.419666666666667E+009;1.873696595430374E-001;-4.432764649391174E-002;1.351736835204065E-003;4.534859675914049E-003;
2.419833333333334E+009;1.858908832073212E-001;-4.524666443467140E-002;1.403508707880974E-003;4.561992362141609E-003;
2.420000000000000E+009;1.843486130237579E-001;-4.602761939167976E-002;1.512652961537242E-003;4.368978086858988E-003;
2.420166666666667E+009;1.825562417507172E-001;-4.698253422975540E-002;1.668248791247606E-003;4.305248148739338E-003;
2.420333333333334E+009;1.811494976282120E-001;-4.811067134141922E-002;1.464462606236339E-003;4.266015719622374E-003;
2.420500000000000E+009;1.795312762260437E-001;-4.949324578046799E-002;1.647971919737756E-003;4.297517705708742E-003;
2.420666666666667E+009;1.777760386466980E-001;-5.046955868601799E-002;1.705364207737148E-003;4.116917494684458E-003;
2.420833333333334E+009;1.763197332620621E-001;-5.210079252719879E-002;1.618569367565215E-003;4.045148845762014E-003;
2.421000000000000E+009;1.749759465456009E-001;-5.362388864159584E-002;1.634168787859380E-003;4.023136105388403E-003;
2.421166666666667E+009;1.734979897737503E-001;-5.545331910252571E-002;1.763833686709404E-003;4.001445602625608E-003;
2.421333333333334E+009;1.719855219125748E-001;-5.685931444168091E-002;1.964149065315723E-003;4.020226653665304E-003;
2.421500000000000E+009;1.705047190189362E-001;-5.871071666479111E-002;1.957740634679794E-003;3.884640289470553E-003;
2.421666666666667E+009;1.694747954607010E-001;-6.045940145850182E-002;2.066560788080096E-003;3.845578758046031E-003;
2.421833333333334E+009;1.683613806962967E-001;-6.235593929886818E-002;2.257047919556499E-003;3.815131494775415E-003;
2.422000000000000E+009;1.671480685472488E-001;-6.426960229873657E-002;2.267597243189812E-003;3.695720573887229E-003;
2.422166666666667E+009;1.665604263544083E-001;-6.630665808916092E-002;2.438254654407501E-003;3.439848776906729E-003;
2.422333333333334E+009;1.655239760875702E-001;-6.831518560647965E-002;2.649074187502265E-003;3.294080030173063E-003;
2.422500000000000E+009;1.647780239582062E-001;-7.018236070871353E-002;2.659451914951205E-003;3.196445992216468E-003;
2.422666666666667E+009;1.640395969152451E-001;-7.222252339124680E-002;2.745368750765920E-003;3.098907414823771E-003;
2.422833333333334E+009;1.637220382690430E-001;-7.410859316587448E-002;2.878635656088591E-003;2.940656151622534E-003;
2.423000000000000E+009;1.632270812988281E-001;-7.625841349363327E-002;2.749049337580800E-003;2.794675994664431E-003;
2.423166666666667E+009;1.628871262073517E-001;-7.798424363136292E-002;2.884680405259132E-003;2.697478281334043E-003;
2.423333333333334E+009;1.627134978771210E-001;-8.001244068145752E-002;2.696833806112409E-003;2.395431743934751E-003;
2.423500000000000E+009;1.625759005546570E-001;-8.177819103002548E-002;2.834574086591601E-003;2.275496255606413E-003;
2.423666666666667E+009;1.626933664083481E-001;-8.358956873416901E-002;2.821444533765316E-003;1.990378368645906E-003;
2.423833333333334E+009;1.626618206501007E-001;-8.516905456781387E-002;2.717796247452498E-003;2.008742420002818E-003;
2.424000000000000E+009;1.628809720277786E-001;-8.709070086479187E-002;2.664532978087664E-003;1.890598912723362E-003;
2.424166666666667E+009;1.628722846508026E-001;-8.851032704114914E-002;2.737281378358603E-003;1.675964565947652E-003;
2.424333333333334E+009;1.631845086812973E-001;-8.996815979480743E-002;2.550080651417375E-003;1.749985385686159E-003;
2.424500000000000E+009;1.636319458484650E-001;-9.182018041610718E-002;2.366086468100548E-003;1.621384290046990E-003;
2.424666666666667E+009;1.639120876789093E-001;-9.290979802608490E-002;2.405685139819980E-003;1.455102814361453E-003;
2.424833333333334E+009;1.644286066293716E-001;-9.422363340854645E-002;2.296293154358864E-003;1.473164535127580E-003;
2.425000000000000E+009;1.648733615875244E-001;-9.518828243017197E-002;2.157044829800725E-003;1.438933657482266E-003;
2.425166666666667E+009;1.651708036661148E-001;-9.637340158224106E-002;2.276443177834153E-003;1.449329196475446E-003;
2.425333333333334E+009;1.654780656099320E-001;-9.735804051160812E-002;2.252640435472131E-003;1.596161746419966E-003;
2.425500000000000E+009;1.658836156129837E-001;-9.825355559587479E-002;2.175430767238140E-003;1.531358226202428E-003;
2.425666666666667E+009;1.663920283317566E-001;-9.889329224824905E-002;2.293852623552084E-003;1.501211081631482E-003;
2.425833333333334E+009;1.666848510503769E-001;-9.979951381683350E-002;2.072561532258987E-003;1.675378531217575E-003;
2.426000000000000E+009;1.669747233390808E-001;-1.002844050526619E-001;2.159713068976998E-003;1.658800872974098E-003;
2.426166666666667E+009;1.674497425556183E-001;-1.006772667169571E-001;2.095399191603065E-003;1.596212852746248E-003;
2.426333333333334E+009;1.675145924091339E-001;-1.012269034981728E-001;2.408433007076383E-003;1.679252251051366E-003;
2.426500000000000E+009;1.679209768772125E-001;-1.014765948057175E-001;2.364519983530045E-003;1.712689991109073E-003;
2.426666666666667E+009;1.681750267744064E-001;-1.018083095550537E-001;2.463720273226500E-003;1.610096544027329E-003;
2.426833333333334E+009;1.683284044265747E-001;-1.021011620759964E-001;2.611995209008455E-003;1.630688784644008E-003;
2.427000000000000E+009;1.682751625776291E-001;-1.024018600583077E-001;2.605272224172950E-003;1.621061353944242E-003;
2.427166666666667E+009;1.682530790567398E-001;-1.023559719324112E-001;2.665711333975196E-003;1.468425034545362E-003;
2.427333333333334E+009;1.681379228830338E-001;-1.026632115244865E-001;2.760308561846614E-003;1.490881899371743E-003;
2.427500000000000E+009;1.678367555141449E-001;-1.028648987412453E-001;2.707607811316848E-003;1.321596791967750E-003;
2.427666666666667E+009;1.676035374403000E-001;-1.029733717441559E-001;2.671307884156704E-003;1.385440467856824E-003;
