# Version 1.00
#
freq[Hz];re:Trc1_S11;im:Trc1_S11;re:Trc2_S21;im:Trc2_S21;
2.400000000000000E+009;1.682754307985306E-001;4.646621644496918E-002;-4.980619996786118E-003;1.752972893882543E-004;
2.400166666666667E+009;1.692213118076325E-001;4.548298940062523E-002;-4.903769120573998E-003;4.752324311994016E-004;
2.400333333333334E+009;1.700878292322159E-001;4.439441114664078E-002;-4.994951188564301E-003;4.249547782819718E-004;
2.400500000000000E+009;1.711237281560898E-001;4.326929524540901E-002;-5.155351012945175E-003;5.857770447619259E-004;
2.400666666666667E+009;1.719426214694977E-001;4.237288609147072E-002;-5.184800364077091E-003;6.704649422317743E-004;
2.400833333333334E+009;1.727601289749146E-001;4.169682040810585E-002;-5.566997919231653E-003;6.843749433755875E-004;
2.401000000000000E+009;1.735965907573700E-001;4.071515053510666E-002;-5.445681978017092E-003;9.886539774015546E-004;
2.401166666666667E+009;1.744193732738495E-001;4.000211879611015E-002;-5.563990212976933E-003;1.250002533197403E-003;
2.401333333333334E+009;1.749885380268097E-001;3.925263136625290E-002;-5.664522759616375E-003;1.484870794229209E-003;
2.401500000000000E+009;1.758915781974793E-001;3.850471973419190E-002;-5.900954827666283E-003;1.926885219290853E-003;
2.401666666666667E+009;1.763557791709900E-001;3.799530863761902E-002;-5.618791561573744E-003;2.037530066445470E-003;
2.401833333333334E+009;1.771222800016403E-001;3.722106292843819E-002;-5.795253440737724E-003;2.322809305042028E-003;
2.402000000000000E+009;1.773215532302856E-001;3.654872253537178E-002;-5.774221383035183E-003;2.626942936331034E-003;
2.402166666666667E+009;1.778818517923355E-001;3.597168996930122E-002;-5.657343193888664E-003;3.054248634725809E-003;
2.402333333333334E+009;1.783476173877716E-001;3.528339043259621E-002;-5.616474896669388E-003;3.384730080142617E-003;
2.402500000000000E+009;1.789419949054718E-001;3.472704812884331E-002;-5.765152629464865E-003;3.733927616849542E-003;
2.402666666666667E+009;1.788480877876282E-001;3.408748656511307E-002;-5.541353020817041E-003;3.968203440308571E-003;
2.402833333333334E+009;1.791165471076965E-001;3.368845954537392E-002;-5.352263338863850E-003;4.248206038028002E-003;
2.403000000000000E+009;1.793716400861740E-001;3.265509009361267E-002;-5.254745483398438E-003;4.472520202398300E-003;
2.403166666666667E+009;1.792852133512497E-001;3.183970227837563E-002;-4.915159195661545E-003;4.795075394213200E-003;
2.403333333333334E+009;1.792857497930527E-001;3.099846281111240E-002;-4.802469164133072E-003;5.154625046998262E-003;
2.403500000000000E+009;1.792552769184113E-001;3.001620061695576E-002;-4.413027316331863E-003;5.280097480863333E-003;
2.403666666666667E+009;1.789198964834213E-001;2.906259708106518E-002;-4.288653843104839E-003;5.605613812804222E-003;
2.403833333333334E+009;1.788293868303299E-001;2.812944911420345E-002;-3.935374785214663E-003;5.824067629873753E-003;
2.404000000000000E+009;1.782026588916779E-001;2.692887187004089E-002;-3.665392054244876E-003;5.942803807556629E-003;
2.404166666666667E+009;1.780618429183960E-001;2.570864558219910E-002;-3.304913640022278E-003;6.211142521351576E-003;
2.404333333333334E+009;1.775831878185272E-001;2.463904768228531E-002;-3.076104680076242E-003;6.513591855764389E-003;
2.404500000000000E+009;1.773006767034531E-001;2.307684160768986E-002;-2.793487161397934E-003;6.565322168171406E-003;
2.404666666666667E+009;1.766811013221741E-001;2.183696627616882E-002;-2.474668435752392E-003;6.602841895073652E-003;
2.404833333333334E+009;1.760452985763550E-001;2.044027484953404E-002;-2.140675438567996E-003;6.738294847309589E-003;
2.405000000000000E+009;1.757947057485580E-001;1.895930804312229E-002;-1.854837173596025E-003;7.013679016381502E-003;
2.405166666666667E+009;1.752283275127411E-001;1.735337451100349E-002;-1.553371082991362E-003;6.794576998800039E-003;
2.405333333333334E+009;1.748553663492203E-001;1.555989310145378E-002;-1.288673025555909E-003;6.751724984496832E-003;
2.405500000000000E+009;1.744715720415115E-001;1.419409736990929E-002;-7.507285336032510E-004;7.127278484404087E-003;
2.405666666666667E+009;1.740986555814743E-001;1.240468863397837E-002;-5.334662855602801E-004;6.931634619832039E-003;
2.405833333333334E+009;1.737204939126968E-001;1.080798357725143E-002;-1.056583569152281E-004;6.904879584908485E-003;
2.406000000000000E+009;1.734095364809036E-001;8.856546133756638E-003;1.090268924599513E-004;6.981275975704193E-003;
2.406166666666667E+009;1.730238497257233E-001;7.126786280423403E-003;4.032659344375134E-004;6.889048032462597E-003;
2.406333333333334E+009;1.729909479618073E-001;5.129840224981308E-003;6.433767266571522E-004;6.692667026072741E-003;
2.406500000000000E+009;1.727715730667114E-001;3.087149001657963E-003;8.915198268368840E-004;6.740812677890062E-003;
2.406666666666667E+009;1.725417971611023E-001;1.137861865572631E-003;1.175848301500082E-003;6.693659350275993E-003;
2.406833333333334E+009;1.726220250129700E-001;-8.620250155217946E-004;1.534144044853747E-003;6.499615497887135E-003;
2.407000000000000E+009;1.726719439029694E-001;-2.899624407291412E-003;1.634148764424026E-003;6.496057845652103E-003;
2.407166666666667E+009;1.727606505155563E-001;-4.837051033973694E-003;1.963005401194096E-003;6.247716024518013E-003;
2.407333333333334E+009;1.728750020265579E-001;-7.069293409585953E-003;2.179773524403572E-003;6.144734099507332E-003;
2.407500000000000E+009;1.731271445751190E-001;-9.068836458027363E-003;2.553204307332635E-003;6.038294173777103E-003;
2.407666666666667E+009;1.734560877084732E-001;-1.105247065424919E-002;2.517346292734146E-003;6.029069423675537E-003;
2.407833333333334E+009;1.735955923795700E-001;-1.320234686136246E-002;2.941073849797249E-003;5.728538613766432E-003;
2.408000000000000E+009;1.740195900201798E-001;-1.535828039050102E-002;2.947827568277717E-003;5.514780059456825E-003;
2.408166666666667E+009;1.742736697196960E-001;-1.714567467570305E-002;3.354031359776855E-003;5.286849103868008E-003;
2.408333333333334E+009;1.748741567134857E-001;-1.924762316048145E-002;3.460583742707968E-003;5.262194201350212E-003;
2.408500000000000E+009;1.752835363149643E-001;-2.109074033796787E-002;3.730026772245765E-003;5.149051081389189E-003;
2.408666666666667E+009;1.756191551685333E-001;-2.304963581264019E-002;3.884927602484822E-003;4.842680413275957E-003;
2.408833333333334E+009;1.759292185306549E-001;-2.471544593572617E-002;3.965821582823992E-003;4.575180821120739E-003;
2.409000000000000E+009;1.764641851186752E-001;-2.636256255209446E-002;4.177608061581850E-003;4.379370249807835E-003;
2.409166666666667E+009;1.767759472131729E-001;-2.780825644731522E-002;4.301057662814856E-003;4.193611908704042E-003;
2.409333333333334E+009;1.771368980407715E-001;-2.942687831819058E-002;4.390971269458532E-003;4.037055186927319E-003;
2.409500000000000E+009;1.775959432125092E-001;-3.083240427076817E-002;4.621073137968779E-003;3.851222107186914E-003;
2.409666666666667E+009;1.780426651239395E-001;-3.186832740902901E-002;4.788227379322052E-003;3.652314422652125E-003;
2.409833333333334E+009;1.784429103136063E-001;-3.299888968467712E-002;4.634059034287930E-003;3.392923390492797E-003;
2.410000000000000E+009;1.788297742605209E-001;-3.399879857897759E-002;5.020536016672850E-003;3.215183969587088E-003;
2.410166666666667E+009;1.792984902858734E-001;-3.484670445322990E-002;5.036337766796351E-003;2.962586469948292E-003;
2.410333333333334E+009;1.798527091741562E-001;-3.571766242384911E-002;5.243637133389711E-003;2.677901182323694E-003;
2.410500000000000E+009;1.802578121423721E-001;-3.652046993374825E-002;5.297374911606312E-003;2.570641692727804E-003;
2.410666666666667E+009;1.804239451885223E-001;-3.739712387323380E-002;5.375559441745281E-003;2.242554677650333E-003;
2.410833333333334E+009;1.808914691209793E-001;-3.787366300821304E-002;5.466425325721502E-003;1.977278385311365E-003;
2.411000000000000E+009;1.812634617090225E-001;-3.839750215411186E-002;5.561409983783960E-003;1.735698780976236E-003;
2.411166666666667E+009;1.812877506017685E-001;-3.906769305467606E-002;5.453240126371384E-003;1.474398537538946E-003;
2.411333333333334E+009;1.815799772739410E-001;-3.955454006791115E-002;5.576273892074823E-003;1.160284737125039E-003;
2.411500000000000E+009;1.817571222782135E-001;-4.001416638493538E-002;5.557049997150898E-003;9.087718208320439E-004;
2.411666666666667E+009;1.818122714757919E-001;-4.031326621770859E-002;5.534652154892683E-003;5.582901649177074E-004;
2.411833333333334E+009;1.816887408494949E-001;-4.066959768533707E-002;5.443908274173737E-003;2.878272789530456E-004;
2.412000000000000E+009;1.815773844718933E-001;-4.120996966958046E-002;5.401988048106432E-003;-4.913961674901657E-005;
2.412166666666667E+009;1.812710911035538E-001;-4.151009023189545E-002;5.257693119347096E-003;-2.994800452142954E-004;
2.412333333333334E+009;1.811431944370270E-001;-4.176254943013191E-002;5.227921064943075E-003;-4.527567652985454E-004;
2.412500000000000E+009;1.803881525993347E-001;-4.210934787988663E-002;5.114491563290358E-003;-8.282457711175084E-004;
2.412666666666667E+009;1.798881292343140E-001;-4.264014214277268E-002;4.886782262474299E-003;-1.094369450584054E-003;
2.412833333333334E+009;1.792171299457550E-001;-4.303506016731262E-002;4.722049925476313E-003;-1.252813381142914E-003;
2.413000000000000E+009;1.786457896232605E-001;-4.331468045711517E-002;4.507374018430710E-003;-1.282925833947957E-003;
2.413166666666667E+009;1.775992065668106E-001;-4.379339516162872E-002;4.211856052279472E-003;-1.519775250926614E-003;
2.413333333333334E+009;1.767124384641647E-001;-4.420827701687813E-002;4.091098904609680E-003;-1.511665759608150E-003;
2.413500000000000E+009;1.759669035673142E-001;-4.470972716808319E-002;3.916078247129917E-003;-1.768229296430945E-003;
2.413666666666667E+009;1.750170886516571E-001;-4.531831294298172E-002;3.744367742910981E-003;-1.867911079898477E-003;
2.413833333333334E+009;1.738470196723938E-001;-4.577019438147545E-002;3.567747771739960E-003;-1.907292404212058E-003;
2.414000000000000E+009;1.726144701242447E-001;-4.650288075208664E-002;3.470963099971414E-003;-1.986403483897448E-003;
2.414166666666667E+009;1.715763211250305E-001;-4.733684286475182E-002;3.195761470124126E-003;-2.003444824367762E-003;
2.414333333333334E+009;1.703878790140152E-001;-4.804125055670738E-002;3.047808771952987E-003;-2.172546926885843E-003;
2.414500000000000E+009;1.694863736629486E-001;-4.876183718442917E-002;2.855248283594847E-003;-2.063258783891797E-003;
2.414666666666667E+009;1.681288480758667E-001;-4.983828961849213E-002;2.642667386680841E-003;-1.975624123588204E-003;
2.414833333333334E+009;1.668423414230347E-001;-5.093386769294739E-002;2.496225293725729E-003;-2.060843631625176E-003;
2.415000000000000E+009;1.656323969364166E-001;-5.202672258019447E-002;2.212755149230361E-003;-1.949373632669449E-003;
2.415166666666667E+009;1.646040230989456E-001;-5.326850339770317E-002;2.169693820178509E-003;-1.937684370204806E-003;
2.415333333333334E+009;1.634952425956726E-001;-5.463143065571785E-002;2.049941569566727E-003;-1.968461321666837E-003;
2.415500000000000E+009;1.622153371572495E-001;-5.586536973714829E-002;2.002678578719497E-003;-1.948459888808429E-003;
2.415666666666667E+009;1.610510349273682E-001;-5.734235048294067E-002;1.960920402780175E-003;-1.694349921308458E-003;
2.415833333333334E+009;1.600155979394913E-001;-5.912159755825996E-002;1.856148242950440E-003;-1.764825545251370E-003;
2.416000000000000E+009;1.588290929794312E-001;-6.076708808541298E-002;1.725594513118267E-003;-1.800009515136480E-003;
2.416166666666667E+009;1.580142825841904E-001;-6.245078891515732E-002;1.737066195346415E-003;-1.710252952761948E-003;
2.416333333333334E+009;1.569454073905945E-001;-6.416264921426773E-002;1.655738917179406E-003;-1.527171232737601E-003;
2.416500000000000E+009;1.560201048851013E-001;-6.613223254680634E-002;1.502027269452810E-003;-1.606212346814573E-003;
2.416666666666667E+009;1.550806313753128E-001;-6.793163716793060E-002;1.464597764424980E-003;-1.577521092258394E-003;
2.416833333333334E+009;1.543115973472595E-001;-6.986513733863831E-002;1.611285842955113E-003;-1.437088707461953E-003;
2.417000000000000E+009;1.534297168254852E-001;-7.191117852926254E-002;1.631189137697220E-003;-1.366667333059013E-003;
2.417166666666667E+009;1.527783423662186E-001;-7.374434918165207E-002;1.479333732277155E-003;-1.123957103118300E-003;
2.417333333333334E+009;1.522113233804703E-001;-7.568918913602829E-002;1.590821542777121E-003;-1.386011252179742E-003;
2.417500000000000E+009;1.516187041997910E-001;-7.770515233278275E-002;1.608254853636026E-003;-1.412901096045971E-003;
2.417666666666667E+009;1.510692387819290E-001;-7.954945415258408E-002;1.502145198173821E-003;-1.356271328404546E-003;
2.417833333333334E+009;1.506470143795013E-001;-8.136045932769775E-002;1.533756265416741E-003;-1.377161825075746E-003;
2.418000000000000E+009;1.502125561237335E-001;-8.322247117757797E-002;1.549630658701062E-003;-1.373527455143631E-003;
2.418166666666667E+009;1.499554961919785E-001;-8.490120619535446E-002;1.631808932870626E-003;-1.231557806022465E-003;
2.418333333333334E+009;1.499083787202835E-001;-8.668804168701172E-002;1.715705264359713E-003;-1.350035076029599E-003;
2.418500000000000E+009;1.496555358171463E-001;-8.813409507274628E-002;1.635056571103633E-003;-1.265629194676876E-003;
2.418666666666667E+009;1.496476978063583E-001;-8.977743983268738E-002;1.718473853543401E-003;-1.482595107518137E-003;
2.418833333333334E+009;1.493150889873505E-001;-9.128228574991226E-002;1.795810065232217E-003;-1.326653873547912E-003;
2.419000000000000E+009;1.492624133825302E-001;-9.251655638217926E-002;1.576609443873167E-003;-1.372171565890312E-003;
2.419166666666667E+009;1.495220661163330E-001;-9.378034621477127E-002;1.529656234197319E-003;-1.395853236317635E-003;
2.419333333333334E+009;1.495416760444641E-001;-9.483908861875534E-002;1.526751439087093E-003;-1.319285249337554E-003;
2.419500000000000E+009;1.495983600616455E-001;-9.603259712457657E-002;1.401095069013536E-003;-1.333059160970151E-003;
2.419666666666667E+009;1.500677019357681E-001;-9.697237610816956E-002;1.560216536745429E-003;-1.197534729726613E-003;
2.419833333333334E+009;1.502011567354202E-001;-9.762239456176758E-002;1.462347572669387E-003;-1.335485139861703E-003;
2.420000000000000E+009;1.504299491643906E-001;-9.826900810003281E-002;1.526364940218628E-003;-1.310778665356338E-003;
2.420166666666667E+009;1.505990177392960E-001;-9.904155135154724E-002;1.627597957849503E-003;-1.268165069632232E-003;
2.420333333333334E+009;1.508537679910660E-001;-9.945420175790787E-002;1.617842703126371E-003;-1.139898900873959E-003;
2.420500000000000E+009;1.512867212295532E-001;-9.959875047206879E-002;1.649208948947489E-003;-1.172128599137068E-003;
2.420666666666667E+009;1.514883041381836E-001;-9.995683282613754E-002;1.855087815783918E-003;-1.283103716559708E-003;
2.420833333333334E+009;1.516193896532059E-001;-1.002123653888702E-001;2.010796451941133E-003;-1.260438235476613E-003;
2.421000000000000E+009;1.520129144191742E-001;-1.003532111644745E-001;2.061384264379740E-003;-1.184414257295430E-003;
2.421166666666667E+009;1.522773951292038E-001;-1.002198085188866E-001;2.210011472925544E-003;-1.413561752997339E-003;
2.421333333333334E+009;1.522947102785111E-001;-1.001314893364906E-001;2.340735401958227E-003;-1.462662941776216E-003;
2.421500000000000E+009;1.523697376251221E-001;-1.002529039978981E-001;2.454333007335663E-003;-1.593668246641755E-003;
2.421666666666667E+009;1.525131464004517E-001;-9.993130713701248E-002;2.479229588061571E-003;-1.739067141897976E-003;
2.421833333333334E+009;1.524806469678879E-001;-9.968464821577072E-002;2.517418004572392E-003;-1.939009176567197E-003;
2.422000000000000E+009;1.522305160760880E-001;-9.936945885419846E-002;2.582692541182041E-003;-2.321907551959157E-003;
2.422166666666667E+009;1.519460827112198E-001;-9.929220378398895E-002;2.793483436107636E-003;-2.271248726174235E-003;
2.422333333333334E+009;1.515947431325913E-001;-9.897262603044510E-002;2.609790302813053E-003;-2.719434676691890E-003;
2.422500000000000E+009;1.513389348983765E-001;-9.839284420013428E-002;2.690835623070598E-003;-2.848345320671797E-003;
2.422666666666667E+009;1.506381332874298E-001;-9.826690703630447E-002;2.595572499558330E-003;-3.290513530373573E-003;
2.422833333333334E+009;1.499699503183365E-001;-9.787897020578384E-002;2.407110994681716E-003;-3.453410463407636E-003;
2.423000000000000E+009;1.493054479360580E-001;-9.748523682355881E-002;2.402048092335463E-003;-3.640673123300076E-003;
2.423166666666667E+009;1.483194231987000E-001;-9.723804146051407E-002;2.239034278318286E-003;-3.829920897260308E-003;
2.423333333333334E+009;1.475246101617813E-001;-9.658084809780121E-002;1.997407060116530E-003;-4.078797064721584E-003;
2.423500000000000E+009;1.464314311742783E-001;-9.634684026241303E-002;1.899318187497556E-003;-4.205811303108931E-003;
2.423666666666667E+009;1.451895684003830E-001;-9.609118103981018E-002;1.620961818844080E-003;-4.507398698478937E-003;
2.423833333333334E+009;1.440978050231934E-001;-9.579590708017349E-002;1.255682203918695E-003;-4.628167487680912E-003;
2.424000000000000E+009;1.426767855882645E-001;-9.545166790485382E-002;9.666827972978354E-004;-4.662879742681980E-003;
2.424166666666667E+009;1.413358002901077E-001;-9.537329524755478E-002;1.017637550830841E-003;-4.955795127898455E-003;
2.424333333333334E+009;1.400765776634216E-001;-9.513705223798752E-002;5.468733725138009E-004;-4.793803207576275E-003;
2.424500000000000E+009;1.388683766126633E-001;-9.531590342521668E-002;3.267797001171857E-004;-5.000380799174309E-003;
2.424666666666667E+009;1.374727040529251E-001;-9.507809579372406E-002;5.703880560758989E-006;-5.188103765249252E-003;
2.424833333333334E+009;1.358030587434769E-001;-9.534862637519836E-002;-2.305268280906603E-004;-5.103741772472858E-003;
2.425000000000000E+009;1.343324631452560E-001;-9.572318941354752E-002;-6.435350514948368E-004;-4.965629428625107E-003;
2.425166666666667E+009;1.327540278434753E-001;-9.609891474246979E-002;-8.102497668005526E-004;-5.069689825177193E-003;
2.425333333333334E+009;1.314106881618500E-001;-9.655202925205231E-002;-1.015224843285978E-003;-4.943867214024067E-003;
2.425500000000000E+009;1.299167573451996E-001;-9.720486402511597E-002;-1.298912917263806E-003;-4.928431473672390E-003;
2.425666666666667E+009;1.283127814531326E-001;-9.798520058393478E-002;-1.617769710719585E-003;-4.505835473537445E-003;
2.425833333333334E+009;1.269870400428772E-001;-9.873163700103760E-002;-1.869291765615344E-003;-4.452664405107498E-003;
2.426000000000000E+009;1.254763305187225E-001;-9.990891814231873E-002;-1.968325814232230E-003;-4.322614055126905E-003;
2.426166666666667E+009;1.243132278323174E-001;-1.008718237280846E-001;-2.257335931062698E-003;-4.194545559585095E-003;
2.426333333333334E+009;1.228297725319862E-001;-1.020582541823387E-001;-2.376745687797666E-003;-3.866883926093578E-003;
2.426500000000000E+009;1.217124909162521E-001;-1.033646315336227E-001;-2.469172934070230E-003;-3.786967135965824E-003;
2.426666666666667E+009;1.205548495054245E-001;-1.045339703559876E-001;-2.703657606616616E-003;-3.559852018952370E-003;
2.426833333333334E+009;1.193335428833962E-001;-1.061239019036293E-001;-2.706152386963368E-003;-3.503640647977591E-003;
2.427000000000000E+009;1.182322427630425E-001;-1.076593026518822E-001;-2.642175182700157E-003;-3.089654492214322E-003;
2.427166666666667E+009;1.171994060277939E-001;-1.091065853834152E-001;-2.602756023406982E-003;-2.955706790089607E-003;
2.427333333333334E+009;1.161837279796600E-001;-1.108311861753464E-001;-2.684833249077201E-003;-2.870017895475030E-003;
2.427500000000000E+009;1.155004948377609E-001;-1.125113666057587E-001;-2.604129025712609E-003;-2.784685697406530E-003;
2.427666666666667E+009;1.147141978144646E-001;-1.142466962337494E-001;-2.597816521301866E-003;-2.562604146078229E-003;
