# Version 1.00
#
freq[Hz];re:Trc1_S11;im:Trc1_S11;re:Trc2_S21;im:Trc2_S21;
2.400000000000000E+009;1.683628261089325E-001;4.651235789060593E-002;-5.116888321936131E-003;2.579124702606350E-004;
2.400166666666667E+009;1.692858040332794E-001;4.557182639837265E-002;-4.972641821950674E-003;1.470312272431329E-004;
2.400333333333334E+009;1.700798720121384E-001;4.446677863597870E-002;-5.051610991358757E-003;3.986264346167445E-004;
2.400500000000000E+009;1.711411476135254E-001;4.333730041980743E-002;-5.209016148000956E-003;5.224288906902075E-004;
2.400666666666667E+009;1.717667728662491E-001;4.241792112588882E-002;-5.319164600223303E-003;7.157127838581801E-004;
2.400833333333334E+009;1.729008704423904E-001;4.164746403694153E-002;-5.344136618077755E-003;7.624495774507523E-004;
2.401000000000000E+009;1.736641079187393E-001;4.071040451526642E-002;-5.493923090398312E-003;1.117949024774134E-003;
2.401166666666667E+009;1.743183881044388E-001;3.984032943844795E-002;-5.526125431060791E-003;1.176015473902226E-003;
2.401333333333334E+009;1.750109344720841E-001;3.921531513333321E-002;-5.644960794597864E-003;1.420646440237761E-003;
2.401500000000000E+009;1.760059744119644E-001;3.857956826686859E-002;-5.725277122110128E-003;1.728220377117395E-003;
2.401666666666667E+009;1.765230149030685E-001;3.795652091503143E-002;-5.936603993177414E-003;2.089639892801642E-003;
2.401833333333334E+009;1.772048026323319E-001;3.708737343549728E-002;-5.843370221555233E-003;2.487007528543472E-003;
2.402000000000000E+009;1.774417459964752E-001;3.683989867568016E-002;-5.742873065173626E-003;2.600219566375017E-003;
2.402166666666667E+009;1.779759228229523E-001;3.606422990560532E-002;-5.801410879939795E-003;2.978462725877762E-003;
2.402333333333334E+009;1.784889400005341E-001;3.536982834339142E-002;-5.868847016245127E-003;3.257654840126634E-003;
2.402500000000000E+009;1.788986325263977E-001;3.478827327489853E-002;-5.603074096143246E-003;3.662735223770142E-003;
2.402666666666667E+009;1.790964156389237E-001;3.413983806967735E-002;-5.545952357351780E-003;3.834813367575407E-003;
2.402833333333334E+009;1.791830509901047E-001;3.332723677158356E-002;-5.356871057301760E-003;4.243407398462296E-003;
2.403000000000000E+009;1.793895512819290E-001;3.259605169296265E-002;-5.081766750663519E-003;4.658353980630636E-003;
2.403166666666667E+009;1.794025003910065E-001;3.175869211554527E-002;-4.966665990650654E-003;4.844629205763340E-003;
2.403333333333334E+009;1.795081794261932E-001;3.097209520637989E-002;-4.606324713677168E-003;5.053177941590548E-003;
2.403500000000000E+009;1.790770441293716E-001;2.985601499676704E-002;-4.420930054038763E-003;5.469008814543486E-003;
2.403666666666667E+009;1.788884401321411E-001;2.882149629294872E-002;-4.370704758912325E-003;5.593736190348864E-003;
2.403833333333334E+009;1.788128614425659E-001;2.799687720835209E-002;-3.843438578769565E-003;5.771759431809187E-003;
2.404000000000000E+009;1.785633713006973E-001;2.688742615282536E-002;-3.599441144615412E-003;6.020333152264357E-003;
2.404166666666667E+009;1.781576275825501E-001;2.570082060992718E-002;-3.343596588820219E-003;6.128048058599234E-003;
2.404333333333334E+009;1.776034981012344E-001;2.451643906533718E-002;-3.069981466978788E-003;6.290393415838480E-003;
2.404500000000000E+009;1.771114617586136E-001;2.305774018168449E-002;-2.990384818986058E-003;6.645184475928545E-003;
2.404666666666667E+009;1.766705811023712E-001;2.185182645916939E-002;-2.468360355123878E-003;6.640867795795202E-003;
2.404833333333334E+009;1.763318032026291E-001;2.021629177033901E-002;-2.238820074126124E-003;6.728303153067827E-003;
2.405000000000000E+009;1.758523434400559E-001;1.885724999010563E-002;-1.803092774935067E-003;6.862693466246128E-003;
2.405166666666667E+009;1.754580438137054E-001;1.728022098541260E-002;-1.466093934141100E-003;6.856246851384640E-003;
2.405333333333334E+009;1.749067753553391E-001;1.571259833872318E-002;-1.015728805214167E-003;7.026863750070334E-003;
2.405500000000000E+009;1.745441257953644E-001;1.415426842868328E-002;-9.917293209582567E-004;7.038823794573546E-003;
2.405666666666667E+009;1.740952134132385E-001;1.242009177803993E-002;-6.414547096937895E-004;6.917313206940889E-003;
2.405833333333334E+009;1.735906749963760E-001;1.064919680356979E-002;-1.788809749996290E-004;6.766754668205977E-003;
2.406000000000000E+009;1.735638529062271E-001;8.769957348704338E-003;1.260342542082071E-004;6.733628921210766E-003;
2.406166666666667E+009;1.730268150568008E-001;6.989572662860155E-003;3.665336407721043E-004;6.727737374603748E-003;
2.406333333333334E+009;1.730815023183823E-001;5.217958241701126E-003;6.557390443049371E-004;6.888777017593384E-003;
2.406500000000000E+009;1.728722155094147E-001;3.086823271587491E-003;8.816534536890686E-004;6.620379164814949E-003;
2.406666666666667E+009;1.725720614194870E-001;1.377614680677652E-003;1.117594423703849E-003;6.597067229449749E-003;
2.406833333333334E+009;1.727169156074524E-001;-7.083025411702693E-004;1.438906881958246E-003;6.508167367428541E-003;
2.407000000000000E+009;1.728579998016357E-001;-2.831225050613284E-003;1.763044157996774E-003;6.379740778356791E-003;
2.407166666666667E+009;1.731073409318924E-001;-4.827465396374464E-003;1.914593274705112E-003;6.354448385536671E-003;
2.407333333333334E+009;1.730209141969681E-001;-7.103970739990473E-003;2.198844216763973E-003;6.172775756567717E-003;
2.407500000000000E+009;1.732148677110672E-001;-9.103182703256607E-003;2.411163179203868E-003;6.011793855577707E-003;
2.407666666666667E+009;1.735114604234695E-001;-1.094199251383543E-002;2.568853320553899E-003;5.876950453966856E-003;
2.407833333333334E+009;1.737117022275925E-001;-1.328753400593996E-002;2.876345301046968E-003;5.716580897569656E-003;
2.408000000000000E+009;1.741175651550293E-001;-1.535918377339840E-002;3.253455273807049E-003;5.723712965846062E-003;
2.408166666666667E+009;1.744512617588043E-001;-1.722850278019905E-002;3.285534214228392E-003;5.350563209503889E-003;
2.408333333333334E+009;1.751704812049866E-001;-1.914017088711262E-002;3.474918194115162E-003;5.332232452929020E-003;
2.408500000000000E+009;1.753203868865967E-001;-2.122438512742519E-002;3.730132011696696E-003;4.898132756352425E-003;
2.408666666666667E+009;1.757184863090515E-001;-2.296931482851505E-002;3.914685919880867E-003;4.841801710426807E-003;
2.408833333333334E+009;1.760193556547165E-001;-2.478365600109100E-002;4.032071679830551E-003;4.736339673399925E-003;
2.409000000000000E+009;1.763877868652344E-001;-2.640762180089951E-002;4.135852213948965E-003;4.385600332170725E-003;
2.409166666666667E+009;1.768340766429901E-001;-2.805269882082939E-002;4.297617822885513E-003;4.244825337082148E-003;
2.409333333333334E+009;1.773309707641602E-001;-2.948989532887936E-002;4.503950942307711E-003;3.927749581634998E-003;
2.409500000000000E+009;1.775718927383423E-001;-3.096854314208031E-002;4.599301610141993E-003;3.605659352615476E-003;
2.409666666666667E+009;1.779664456844330E-001;-3.195723518729210E-002;4.704304505139589E-003;3.680043388158083E-003;
2.409833333333334E+009;1.784264743328095E-001;-3.296487405896187E-002;4.768046084791422E-003;3.308238927274942E-003;
2.410000000000000E+009;1.790639758110046E-001;-3.391632065176964E-002;5.085117183625698E-003;3.211504081264138E-003;
2.410166666666667E+009;1.793716847896576E-001;-3.474363684654236E-002;5.090598016977310E-003;3.075166139751673E-003;
2.410333333333334E+009;1.796188205480576E-001;-3.574887290596962E-002;5.078028887510300E-003;2.763280645012856E-003;
2.410500000000000E+009;1.800616681575775E-001;-3.651392459869385E-002;5.329589825123549E-003;2.575153717771173E-003;
2.410666666666667E+009;1.804755181074143E-001;-3.733175620436668E-002;5.352186970412731E-003;2.316046273335815E-003;
2.410833333333334E+009;1.809833347797394E-001;-3.788347914814949E-002;5.438421852886677E-003;2.141966484487057E-003;
2.411000000000000E+009;1.811873614788055E-001;-3.855501115322113E-002;5.545342806726694E-003;1.805586391128600E-003;
2.411166666666667E+009;1.813942193984985E-001;-3.902960196137428E-002;5.374099593609572E-003;1.355222775600851E-003;
2.411333333333334E+009;1.816352754831314E-001;-3.940744698047638E-002;5.552584771066904E-003;1.263282028958201E-003;
2.411500000000000E+009;1.816287636756897E-001;-4.010377079248428E-002;5.650250706821680E-003;8.300215122289956E-004;
2.411666666666667E+009;1.816313564777374E-001;-4.043873026967049E-002;5.456038285046816E-003;6.252972525544465E-004;
2.411833333333334E+009;1.814883947372437E-001;-4.062123596668243E-002;5.553282797336578E-003;2.551992947701365E-004;
2.412000000000000E+009;1.816272437572479E-001;-4.127596691250801E-002;5.476357880979776E-003;1.486315595684573E-004;
2.412166666666667E+009;1.811448186635971E-001;-4.149166122078896E-002;5.330251995474100E-003;-3.029445651918650E-004;
2.412333333333334E+009;1.811104118824005E-001;-4.174972325563431E-002;5.161697510629892E-003;-5.555489915423095E-004;
2.412500000000000E+009;1.802462935447693E-001;-4.207813739776611E-002;5.046232137829065E-003;-7.315313559956849E-004;
2.412666666666667E+009;1.800447106361389E-001;-4.262497276067734E-002;4.811101127415896E-003;-8.509231847710908E-004;
2.412833333333334E+009;1.793102473020554E-001;-4.303428903222084E-002;4.827664699405432E-003;-1.082787057384849E-003;
2.413000000000000E+009;1.786025166511536E-001;-4.336350038647652E-002;4.642155952751637E-003;-1.402919297106564E-003;
2.413166666666667E+009;1.777280122041702E-001;-4.365014657378197E-002;4.444596357643604E-003;-1.453118165954948E-003;
2.413333333333334E+009;1.768253594636917E-001;-4.417144507169724E-002;4.294654354453087E-003;-1.726458081975579E-003;
2.413500000000000E+009;1.757988482713699E-001;-4.482675343751907E-002;4.057438112795353E-003;-1.834669616073370E-003;
2.413666666666667E+009;1.749776154756546E-001;-4.536576196551323E-002;3.878583665937185E-003;-1.728508737869561E-003;
2.413833333333334E+009;1.737529635429382E-001;-4.579080641269684E-002;3.538278630003333E-003;-1.850195345468819E-003;
2.414000000000000E+009;1.726477295160294E-001;-4.659514129161835E-002;3.375677857547998E-003;-1.981486333534122E-003;
2.414166666666667E+009;1.716567277908325E-001;-4.724462702870369E-002;3.159210551530123E-003;-2.061451785266399E-003;
2.414333333333334E+009;1.703352928161621E-001;-4.812271520495415E-002;2.997327363118529E-003;-1.992483856156468E-003;
2.414500000000000E+009;1.692462563514710E-001;-4.893832281231880E-002;2.784698735922575E-003;-2.059632213786244E-003;
2.414666666666667E+009;1.680661439895630E-001;-4.977313801646233E-002;2.536187646910548E-003;-2.147807972505689E-003;
2.414833333333334E+009;1.668408662080765E-001;-5.098237097263336E-002;2.447208156809211E-003;-1.993598649278283E-003;
2.415000000000000E+009;1.656729876995087E-001;-5.190949887037277E-002;2.393020316958427E-003;-2.011050935834646E-003;
2.415166666666667E+009;1.644988358020783E-001;-5.326449126005173E-002;2.254296559840441E-003;-2.031677868217230E-003;
2.415333333333334E+009;1.633886694908142E-001;-5.463048070669174E-002;1.917632645927370E-003;-1.892480999231339E-003;
2.415500000000000E+009;1.621939390897751E-001;-5.592236295342445E-002;2.005561953410506E-003;-1.891818130388856E-003;
2.415666666666667E+009;1.610198915004730E-001;-5.746978148818016E-002;1.861677970737219E-003;-1.932752085849643E-003;
2.415833333333334E+009;1.600676327943802E-001;-5.910345911979675E-002;1.784435007721186E-003;-1.806967309676111E-003;
2.416000000000000E+009;1.588410139083862E-001;-6.070230901241303E-002;1.674990286119282E-003;-1.636630389839411E-003;
2.416166666666667E+009;1.580585539340973E-001;-6.246394664049149E-002;1.798464450985193E-003;-1.632817205972970E-003;
2.416333333333334E+009;1.570149362087250E-001;-6.415486335754395E-002;1.580584212206304E-003;-1.641736715100706E-003;
2.416500000000000E+009;1.560418903827667E-001;-6.612359732389450E-002;1.699808635748923E-003;-1.575486152432859E-003;
2.416666666666667E+009;1.551491767168045E-001;-6.798536330461502E-002;1.400778070092201E-003;-1.489113783463836E-003;
2.416833333333334E+009;1.544004529714584E-001;-6.994954496622086E-002;1.435652025975287E-003;-1.257543801330030E-003;
2.417000000000000E+009;1.534397751092911E-001;-7.195204496383667E-002;1.546543440781534E-003;-1.452271710149944E-003;
2.417166666666667E+009;1.527812033891678E-001;-7.370889186859131E-002;1.520433812402189E-003;-1.272560912184417E-003;
2.417333333333334E+009;1.521707177162170E-001;-7.567314058542252E-002;1.488176523707807E-003;-1.341288676485419E-003;
2.417500000000000E+009;1.514931172132492E-001;-7.776375114917755E-002;1.563693163916469E-003;-1.275137416087091E-003;
2.417666666666667E+009;1.512125581502914E-001;-7.947277277708054E-002;1.444510417059064E-003;-1.233387971296907E-003;
2.417833333333334E+009;1.506619751453400E-001;-8.130865544080734E-002;1.511049922555685E-003;-1.206013257615268E-003;
2.418000000000000E+009;1.501730680465698E-001;-8.325648307800293E-002;1.768235699273646E-003;-1.234773662872613E-003;
2.418166666666667E+009;1.498737335205078E-001;-8.486736565828323E-002;1.773196505382657E-003;-1.206069253385067E-003;
2.418333333333334E+009;1.499873399734497E-001;-8.667720854282379E-002;1.703115412965417E-003;-1.320042531006038E-003;
2.418500000000000E+009;1.496777832508087E-001;-8.825320750474930E-002;1.764381420798600E-003;-1.290124841034412E-003;
2.418666666666667E+009;1.497168242931366E-001;-8.984670788049698E-002;1.718600396998227E-003;-1.288589555770159E-003;
2.418833333333334E+009;1.494629681110382E-001;-9.132640063762665E-002;1.689528464339674E-003;-1.517053809948266E-003;
2.419000000000000E+009;1.495417505502701E-001;-9.258706867694855E-002;1.681504305452108E-003;-1.496431068517268E-003;
2.419166666666667E+009;1.494960486888886E-001;-9.387815743684769E-002;1.645568176172674E-003;-1.456359401345253E-003;
2.419333333333334E+009;1.494947224855423E-001;-9.479511529207230E-002;1.527516986243427E-003;-1.390590681694448E-003;
2.419500000000000E+009;1.497937887907028E-001;-9.608796238899231E-002;1.543985912576318E-003;-1.516264746896923E-003;
2.419666666666667E+009;1.500644236803055E-001;-9.706021845340729E-002;1.471109106205404E-003;-1.460224273614585E-003;
2.419833333333334E+009;1.500739604234695E-001;-9.775346517562866E-002;1.659517060033977E-003;-1.346168690361083E-003;
2.420000000000000E+009;1.504409015178680E-001;-9.844011068344116E-002;1.639973488636315E-003;-1.434934907592833E-003;
2.420166666666667E+009;1.506738215684891E-001;-9.913136810064316E-002;1.718779210932553E-003;-1.357097877189517E-003;
2.420333333333334E+009;1.509052217006683E-001;-9.957138448953629E-002;1.750485738739371E-003;-1.296066795475781E-003;
2.420500000000000E+009;1.512059420347214E-001;-9.964904934167862E-002;1.715027494356036E-003;-1.218960736878216E-003;
2.420666666666667E+009;1.514567285776138E-001;-9.979319572448731E-002;1.802892889827490E-003;-1.315853325650096E-003;
2.420833333333334E+009;1.517260670661926E-001;-1.001508161425591E-001;1.953790895640850E-003;-1.308867009356618E-003;
2.421000000000000E+009;1.518999785184860E-001;-1.003132387995720E-001;1.995186088606715E-003;-1.399508793838322E-003;
2.421166666666667E+009;1.521769762039185E-001;-1.001518368721008E-001;2.281503519043326E-003;-1.484769396483898E-003;
2.421333333333334E+009;1.523416638374329E-001;-1.002663969993591E-001;2.239403780549765E-003;-1.532778376713395E-003;
2.421500000000000E+009;1.523222476243973E-001;-1.000474169850349E-001;2.348900074139237E-003;-1.597378402948380E-003;
2.421666666666667E+009;1.524664908647537E-001;-9.991778433322907E-002;2.377636032178998E-003;-1.774179865606129E-003;
2.421833333333334E+009;1.526253521442413E-001;-9.971749782562256E-002;2.538539003580809E-003;-1.947081647813320E-003;
2.422000000000000E+009;1.521521955728531E-001;-9.925424307584763E-002;2.707192674279213E-003;-2.085371408611536E-003;
2.422166666666667E+009;1.520034074783325E-001;-9.924016147851944E-002;2.740351017564535E-003;-2.386185806244612E-003;
2.422333333333334E+009;1.517952531576157E-001;-9.881838411092758E-002;2.707061124965549E-003;-2.512789564207196E-003;
2.422500000000000E+009;1.512741595506668E-001;-9.844714403152466E-002;2.655890537425876E-003;-2.730581909418106E-003;
2.422666666666667E+009;1.505145281553268E-001;-9.808516502380371E-002;2.679974772036076E-003;-3.159070620313287E-003;
2.422833333333334E+009;1.500377953052521E-001;-9.780311584472656E-002;2.610401017591357E-003;-3.316284855827689E-003;
2.423000000000000E+009;1.491257697343826E-001;-9.749145805835724E-002;2.537239110097289E-003;-3.601786913350225E-003;
2.423166666666667E+009;1.484992206096649E-001;-9.721098840236664E-002;2.108249580487609E-003;-3.758786711841822E-003;
2.423333333333334E+009;1.475508362054825E-001;-9.670323878526688E-002;2.106550149619579E-003;-3.960251342505217E-003;
2.423500000000000E+009;1.464695036411285E-001;-9.635872393846512E-002;1.878868555650115E-003;-4.141416400671005E-003;
2.423666666666667E+009;1.450432091951370E-001;-9.626194834709168E-002;1.702261157333851E-003;-4.546683747321367E-003;
2.423833333333334E+009;1.441752016544342E-001;-9.594105184078217E-002;1.474363380111754E-003;-4.559436347335577E-003;
2.424000000000000E+009;1.428455114364624E-001;-9.546127915382385E-002;1.150699099525809E-003;-4.655764903873205E-003;
2.424166666666667E+009;1.413502395153046E-001;-9.538707137107849E-002;9.271561866626144E-004;-4.936135839670897E-003;
2.424333333333334E+009;1.401370167732239E-001;-9.530265629291534E-002;5.771155701950193E-004;-4.846162162721157E-003;
2.424500000000000E+009;1.387237608432770E-001;-9.506805986166000E-002;3.545025829225779E-004;-4.982239101082087E-003;
2.424666666666667E+009;1.373507678508759E-001;-9.502062946557999E-002;1.012882130453363E-004;-5.118974018841982E-003;
2.424833333333334E+009;1.357804834842682E-001;-9.550835192203522E-002;-3.317544469609857E-004;-5.151805467903614E-003;
2.425000000000000E+009;1.344184130430222E-001;-9.571415185928345E-002;-4.292509402148426E-004;-4.967126995325089E-003;
2.425166666666667E+009;1.327028572559357E-001;-9.603318572044373E-002;-8.421534439548850E-004;-4.952549468725920E-003;
2.425333333333334E+009;1.312861442565918E-001;-9.657748788595200E-002;-1.032139523886144E-003;-4.959014710038900E-003;
2.425500000000000E+009;1.299847811460495E-001;-9.723750501871109E-002;-1.226113643497229E-003;-4.761721938848496E-003;
2.425666666666667E+009;1.282144337892532E-001;-9.801084548234940E-002;-1.658717053942382E-003;-4.630967509001494E-003;
2.425833333333334E+009;1.268463879823685E-001;-9.876406192779541E-002;-1.834843191318214E-003;-4.409575834870338E-003;
2.426000000000000E+009;1.254853308200836E-001;-9.981163591146469E-002;-2.060628496110439E-003;-4.438729491084814E-003;
2.426166666666667E+009;1.242641285061836E-001;-1.009097024798393E-001;-2.124221064150333E-003;-4.144517704844475E-003;
2.426333333333334E+009;1.228591129183769E-001;-1.020038276910782E-001;-2.300484571605921E-003;-3.973324317485094E-003;
2.426500000000000E+009;1.216122061014175E-001;-1.033305376768112E-001;-2.418410964310169E-003;-3.818306373432279E-003;
2.426666666666667E+009;1.204829365015030E-001;-1.045817881822586E-001;-2.507931087166071E-003;-3.648778190836310E-003;
2.426833333333334E+009;1.192627251148224E-001;-1.060832962393761E-001;-2.588773379102349E-003;-3.402097616344690E-003;
2.427000000000000E+009;1.181660965085030E-001;-1.077251657843590E-001;-2.593116601929069E-003;-3.117821644991636E-003;
2.427166666666667E+009;1.171997636556625E-001;-1.092357784509659E-001;-2.665432868525386E-003;-2.967245876789093E-003;
2.427333333333334E+009;1.161836236715317E-001;-1.108243241906166E-001;-2.571791177615523E-003;-2.907706191763282E-003;
2.427500000000000E+009;1.154960170388222E-001;-1.124387755990028E-001;-2.651992719620466E-003;-2.652601338922977E-003;
2.427666666666667E+009;1.146380528807640E-001;-1.142893508076668E-001;-2.487551420927048E-003;-2.565938280895352E-003;
