# Version 1.00
#
freq[Hz];re:Trc1_S11;im:Trc1_S11;re:Trc2_S21;im:Trc2_S21;
2.400000000000000E+009;1.558800190687180E-001;1.108034774661064E-001;-6.282367976382375E-004;5.197551799938083E-004;
2.400166666666667E+009;1.553649008274078E-001;1.083994805812836E-001;-6.062421016395092E-004;7.241537678055465E-004;
2.400333333333334E+009;1.551244407892227E-001;1.063148528337479E-001;-4.003134672529995E-004;6.442308076657355E-004;
2.400500000000000E+009;1.546875685453415E-001;1.035507321357727E-001;-4.263275186531246E-004;8.557368419133127E-004;
2.400666666666667E+009;1.547215878963471E-001;1.012199893593788E-001;-1.946070988196880E-004;7.578835939057171E-004;
2.400833333333334E+009;1.542325466871262E-001;9.824139624834061E-002;-4.850570257985964E-005;8.421557722613215E-004;
2.401000000000000E+009;1.540794223546982E-001;9.533777832984924E-002;-2.960759047709871E-005;9.267695131711662E-004;
2.401166666666667E+009;1.540412604808807E-001;9.247297048568726E-002;-8.158212585840374E-005;8.944527362473309E-004;
2.401333333333334E+009;1.541744619607925E-001;8.947461098432541E-002;2.958452205348294E-005;9.122086339630187E-004;
2.401500000000000E+009;1.541913151741028E-001;8.658535778522492E-002;9.117644367506728E-005;8.406285196542740E-004;
2.401666666666667E+009;1.543614715337753E-001;8.356954157352448E-002;2.926041779574007E-004;9.469235083088279E-004;
2.401833333333334E+009;1.546537280082703E-001;8.063015341758728E-002;1.831162371672690E-004;1.024263678118587E-003;
2.402000000000000E+009;1.552364677190781E-001;7.771719992160797E-002;2.811842132359743E-004;1.098383683711290E-003;
2.402166666666667E+009;1.559212803840637E-001;7.492064684629440E-002;3.684411349240691E-004;1.163312233984470E-003;
2.402333333333334E+009;1.567705124616623E-001;7.198839634656906E-002;3.784976433962584E-004;1.114266226068139E-003;
2.402500000000000E+009;1.578526049852371E-001;6.922247260808945E-002;5.529786576516926E-004;1.218351768329740E-003;
2.402666666666667E+009;1.588876545429230E-001;6.654662638902664E-002;7.094739121384919E-004;1.264933496713638E-003;
2.402833333333334E+009;1.601212471723557E-001;6.389978528022766E-002;8.103026193566620E-004;1.123819733038545E-003;
2.403000000000000E+009;1.615382730960846E-001;6.120261549949646E-002;1.106365118175745E-003;1.196977216750383E-003;
2.403166666666667E+009;1.632601469755173E-001;5.879050865769386E-002;1.229736604727805E-003;1.159927342087030E-003;
2.403333333333334E+009;1.645902693271637E-001;5.625546723604202E-002;1.480661449022591E-003;1.040699426084757E-003;
2.403500000000000E+009;1.663224548101425E-001;5.396103113889694E-002;1.784116262570024E-003;1.088983262889087E-003;
2.403666666666667E+009;1.683003753423691E-001;5.169924348592758E-002;2.041218802332878E-003;7.742012385278940E-004;
2.403833333333334E+009;1.698892712593079E-001;4.967203736305237E-002;2.274621976539493E-003;5.436990759335458E-004;
2.404000000000000E+009;1.715279370546341E-001;4.788963496685028E-002;2.409839304164052E-003;2.845686394721270E-004;
2.404166666666667E+009;1.735317558050156E-001;4.594824835658073E-002;2.338692545890808E-003;3.692993777804077E-005;
2.404333333333334E+009;1.752805560827255E-001;4.421583190560341E-002;2.403124002739787E-003;-2.139480639016256E-004;
2.404500000000000E+009;1.770965307950974E-001;4.276391118764877E-002;2.254712628200650E-003;-5.027804290875793E-004;
2.404666666666667E+009;1.788276135921478E-001;4.147841408848763E-002;2.446964383125305E-003;-6.872725789435208E-004;
2.404833333333334E+009;1.807128638029099E-001;4.021651297807694E-002;2.171273343265057E-003;-1.276056631468236E-003;
2.405000000000000E+009;1.822864711284638E-001;3.940204903483391E-002;2.176559995859861E-003;-1.425986061803997E-003;
2.405166666666667E+009;1.840447485446930E-001;3.869615122675896E-002;1.863068202510476E-003;-1.538805896416307E-003;
2.405333333333334E+009;1.855929344892502E-001;3.791827335953713E-002;1.682656700722873E-003;-1.784744090400636E-003;
2.405500000000000E+009;1.873318254947662E-001;3.748556971549988E-002;1.642631716094911E-003;-1.869684434495866E-003;
2.405666666666667E+009;1.887972801923752E-001;3.720633313059807E-002;1.228234148584306E-003;-1.950341043993831E-003;
2.405833333333334E+009;1.902625858783722E-001;3.698533400893211E-002;1.025603385642171E-003;-2.043826738372445E-003;
2.406000000000000E+009;1.915826499462128E-001;3.681699559092522E-002;8.628742652945221E-004;-2.124114660546184E-003;
2.406166666666667E+009;1.927877962589264E-001;3.670258447527885E-002;7.408258388750255E-004;-2.090773778036237E-003;
2.406333333333334E+009;1.940677762031555E-001;3.694705665111542E-002;3.706057905219495E-004;-2.333036158233881E-003;
2.406500000000000E+009;1.949850767850876E-001;3.694804757833481E-002;2.988222113344818E-004;-2.359340665861964E-003;
2.406666666666667E+009;1.958062797784805E-001;3.717890381813049E-002;2.079858095385134E-004;-2.227689372375608E-003;
2.406833333333334E+009;1.966770887374878E-001;3.743439540266991E-002;-7.298870332306251E-005;-2.335361903533340E-003;
2.407000000000000E+009;1.971913427114487E-001;3.799241036176682E-002;-4.984206752851605E-004;-2.408889820799232E-003;
2.407166666666667E+009;1.977797895669937E-001;3.794015571475029E-002;-5.874901544302702E-004;-2.066872315481305E-003;
2.407333333333334E+009;1.977951377630234E-001;3.836252540349960E-002;-8.234726847149432E-004;-2.137374598532915E-003;
2.407500000000000E+009;1.979432106018066E-001;3.876682743430138E-002;-9.964009514078498E-004;-1.960028428584337E-003;
2.407666666666667E+009;1.981003880500794E-001;3.899004682898521E-002;-1.175862038508058E-003;-1.842035446316004E-003;
2.407833333333334E+009;1.976643800735474E-001;3.935050591826439E-002;-1.225466257892549E-003;-1.897653448395431E-003;
2.408000000000000E+009;1.978112906217575E-001;3.946817666292191E-002;-1.336418674327433E-003;-1.731983269564807E-003;
2.408166666666667E+009;1.973225921392441E-001;3.941269963979721E-002;-1.296639209613204E-003;-1.579061150550842E-003;
2.408333333333334E+009;1.968995630741119E-001;3.927934914827347E-002;-1.518101897090673E-003;-1.529745990410447E-003;
2.408500000000000E+009;1.963392198085785E-001;3.935301676392555E-002;-1.627870835363865E-003;-1.305799698457122E-003;
2.408666666666667E+009;1.956040114164352E-001;3.927415981888771E-002;-1.686247647739947E-003;-1.212073373608291E-003;
2.408833333333334E+009;1.949331611394882E-001;3.880949690937996E-002;-1.826926018111408E-003;-1.275842660106719E-003;
2.409000000000000E+009;1.938702911138535E-001;3.831463679671288E-002;-1.956623746082187E-003;-1.065764459781349E-003;
2.409166666666667E+009;1.929996311664581E-001;3.762600198388100E-002;-1.932017854414880E-003;-9.329149615950882E-004;
2.409333333333334E+009;1.918932050466538E-001;3.684051707386971E-002;-1.949060708284378E-003;-8.002637187018991E-004;
2.409500000000000E+009;1.906222552061081E-001;3.593171015381813E-002;-2.144628670066595E-003;-5.906840669922531E-004;
2.409666666666667E+009;1.895907223224640E-001;3.480838239192963E-002;-2.160134492442012E-003;-4.729025240521878E-004;
2.409833333333334E+009;1.882224231958389E-001;3.365739807486534E-002;-2.259728498756886E-003;-2.203505573561415E-004;
2.410000000000000E+009;1.871894747018814E-001;3.226489573717117E-002;-2.297124359756708E-003;-7.135965279303491E-005;
2.410166666666667E+009;1.859436482191086E-001;3.044363856315613E-002;-2.289779018610716E-003;1.870637497631833E-004;
2.410333333333334E+009;1.848130077123642E-001;2.898313663899899E-002;-2.229687990620732E-003;2.504602889530361E-004;
2.410500000000000E+009;1.835273802280426E-001;2.719589695334435E-002;-2.159419702365995E-003;5.832661991007626E-004;
2.410666666666667E+009;1.823138296604157E-001;2.521739155054092E-002;-2.278276719152927E-003;7.482222281396389E-004;
2.410833333333334E+009;1.815538257360458E-001;2.294480428099632E-002;-2.225678414106369E-003;9.114593267440796E-004;
2.411000000000000E+009;1.806832849979401E-001;2.078251540660858E-002;-1.869002007879317E-003;1.218620105646551E-003;
2.411166666666667E+009;1.796618551015854E-001;1.866544224321842E-002;-1.947786193341017E-003;1.197609701193869E-003;
2.411333333333334E+009;1.790315210819244E-001;1.616974920034409E-002;-1.766940462402999E-003;1.480504288338125E-003;
2.411500000000000E+009;1.782073676586151E-001;1.381092797964811E-002;-1.647847704589367E-003;1.629161997698247E-003;
2.411666666666667E+009;1.780637949705124E-001;1.133485697209835E-002;-1.700755674391985E-003;1.694769016467035E-003;
2.411833333333334E+009;1.773838996887207E-001;8.679933845996857E-003;-1.418336178176105E-003;1.861811848357320E-003;
2.412000000000000E+009;1.774265766143799E-001;6.087955087423325E-003;-1.175616518594325E-003;1.938852597959340E-003;
2.412166666666667E+009;1.772613078355789E-001;3.712357487529516E-003;-9.943072218447924E-004;2.053508069366217E-003;
2.412333333333334E+009;1.773285269737244E-001;9.143323404714465E-004;-7.930442807264626E-004;2.094339346513152E-003;
2.412500000000000E+009;1.774555146694183E-001;-1.631523249670863E-003;-7.636432419531047E-004;2.202878240495920E-003;
2.412666666666667E+009;1.781123578548431E-001;-4.433945287019014E-003;-5.202019819989801E-004;2.263285918161273E-003;
2.412833333333334E+009;1.786064505577087E-001;-7.085672579705715E-003;-2.608826616778970E-004;2.328047296032310E-003;
2.413000000000000E+009;1.794768273830414E-001;-9.752299636602402E-003;4.060315768583678E-005;2.214014064520598E-003;
2.413166666666667E+009;1.800388097763062E-001;-1.221391465514898E-002;3.253574250265956E-004;2.383646555244923E-003;
2.413333333333334E+009;1.810668259859085E-001;-1.469858456403017E-002;4.795566783286631E-004;2.136596478521824E-003;
2.413500000000000E+009;1.818998903036118E-001;-1.737569831311703E-002;8.640327141620219E-004;2.229699166491628E-003;
2.413666666666667E+009;1.830521970987320E-001;-1.982756145298481E-002;1.016214489936829E-003;1.930101658217609E-003;
2.413833333333334E+009;1.841852068901062E-001;-2.194930799305439E-002;1.192267751321197E-003;1.892545842565596E-003;
2.414000000000000E+009;1.853892654180527E-001;-2.425138466060162E-002;1.354371313937008E-003;1.829526503570378E-003;
2.414166666666667E+009;1.868570148944855E-001;-2.619788050651550E-002;1.561593264341354E-003;1.616101828403771E-003;
2.414333333333334E+009;1.881255507469177E-001;-2.847545780241489E-002;1.682233181782067E-003;1.143128261901438E-003;
2.414500000000000E+009;1.894208043813705E-001;-3.013381920754910E-002;1.664120703935623E-003;9.820701088756323E-004;
2.414666666666667E+009;1.908143460750580E-001;-3.194833919405937E-002;1.621154719032347E-003;7.996959029696882E-004;
2.414833333333334E+009;1.922240108251572E-001;-3.352635726332665E-002;1.698419335298240E-003;6.124392966739833E-004;
2.415000000000000E+009;1.936126500368118E-001;-3.506615757942200E-002;1.622284064069390E-003;3.453939280007035E-004;
2.415166666666667E+009;1.950856745243073E-001;-3.620094433426857E-002;1.426752423867583E-003;2.410001761745662E-004;
2.415333333333334E+009;1.964608430862427E-001;-3.745573386549950E-002;1.491368631832302E-003;9.552814299240708E-005;
2.415500000000000E+009;1.978664994239807E-001;-3.828278556466103E-002;1.385205425322056E-003;6.202019721968100E-005;
2.415666666666667E+009;1.991986036300659E-001;-3.921125829219818E-002;1.481224666349590E-003;-1.451700809411705E-004;
2.415833333333334E+009;2.003096938133240E-001;-4.008742794394493E-002;1.239500590600073E-003;-1.839553151512519E-004;
2.416000000000000E+009;2.013025879859924E-001;-4.068737849593163E-002;1.160907326266170E-003;-4.599261737894267E-004;
2.416166666666667E+009;2.024125754833221E-001;-4.138828441500664E-002;1.105400850065053E-003;-4.683690494857729E-004;
2.416333333333334E+009;2.033054232597351E-001;-4.174034297466278E-002;1.041063340380788E-003;-5.229393136687577E-004;
2.416500000000000E+009;2.039991617202759E-001;-4.202308505773544E-002;9.907277999445796E-004;-7.016327581368387E-004;
2.416666666666667E+009;2.046007066965103E-001;-4.233169555664063E-002;8.275452419184148E-004;-6.463704630732536E-004;
2.416833333333334E+009;2.051439285278320E-001;-4.231142997741699E-002;7.813592092134059E-004;-7.850303081795573E-004;
2.417000000000000E+009;2.056128084659576E-001;-4.238111153244972E-002;7.108955760486424E-004;-7.040592026896775E-004;
2.417166666666667E+009;2.055773138999939E-001;-4.227760061621666E-002;4.619333776645362E-004;-7.593173068016768E-004;
2.417333333333334E+009;2.055022120475769E-001;-4.199089482426643E-002;5.029041785746813E-004;-8.605644688941538E-004;
2.417500000000000E+009;2.054692953824997E-001;-4.182380810379982E-002;3.973821294493973E-004;-8.303810027427971E-004;
2.417666666666667E+009;2.053442895412445E-001;-4.131295159459114E-002;3.199224011041224E-004;-7.926527177914977E-004;
2.417833333333334E+009;2.049361914396286E-001;-4.114693030714989E-002;3.422334848437458E-004;-7.614829228259623E-004;
2.418000000000000E+009;2.044845372438431E-001;-4.079241678118706E-002;1.225855085067451E-004;-7.845119107514620E-004;
2.418166666666667E+009;2.038535326719284E-001;-4.045468941330910E-002;8.671080286148936E-005;-8.481827680952847E-004;
2.418333333333334E+009;2.030714154243469E-001;-4.002252221107483E-002;-7.259334233822301E-005;-8.752033463679254E-004;
2.418500000000000E+009;2.021099328994751E-001;-3.990872949361801E-002;-1.796618926164229E-005;-7.850234396755695E-004;
2.418666666666667E+009;2.013840377330780E-001;-3.956092149019241E-002;-1.809191890060902E-004;-7.142513059079647E-004;
2.418833333333334E+009;2.002828568220139E-001;-3.958532959222794E-002;-1.390594989061356E-004;-7.411596598103643E-004;
2.419000000000000E+009;1.989000886678696E-001;-3.953710570931435E-002;-3.730752214323729E-004;-7.694521918892860E-004;
2.419166666666667E+009;1.976071596145630E-001;-3.970007225871086E-002;-2.545250463299453E-004;-6.955253193154931E-004;
2.419333333333334E+009;1.962852180004120E-001;-3.990755975246429E-002;-4.845483636017889E-004;-8.095027878880501E-004;
2.419500000000000E+009;1.947168260812759E-001;-4.016004502773285E-002;-5.600851727649570E-004;-6.742183468304575E-004;
2.419666666666667E+009;1.929729580879211E-001;-4.076280817389488E-002;-7.414792780764401E-004;-7.073811138980091E-004;
2.419833333333334E+009;1.913987547159195E-001;-4.126015305519104E-002;-7.446341332979500E-004;-5.862787365913391E-004;
2.420000000000000E+009;1.896890997886658E-001;-4.201924055814743E-002;-9.830343769863248E-004;-4.693573282565922E-004;
2.420166666666667E+009;1.879257261753082E-001;-4.283378645777702E-002;-1.101450761780143E-003;-2.254808496218175E-004;
2.420333333333334E+009;1.861408501863480E-001;-4.376191645860672E-002;-1.099010347388685E-003;9.011224028654397E-005;
2.420500000000000E+009;1.843374371528626E-001;-4.499214515089989E-002;-1.215143245644867E-003;3.321835174574517E-005;
2.420666666666667E+009;1.824605166912079E-001;-4.610873758792877E-002;-1.189085887745023E-003;3.754315548576415E-004;
2.420833333333334E+009;1.806290745735169E-001;-4.758789017796516E-002;-1.198069076053798E-003;5.343882367014885E-004;
2.421000000000000E+009;1.790248602628708E-001;-4.895559698343277E-002;-9.628906263969839E-004;6.720731616951525E-004;
2.421166666666667E+009;1.774086803197861E-001;-5.078183114528656E-002;-9.782845154404640E-004;8.588289492763579E-004;
2.421333333333334E+009;1.755967885255814E-001;-5.242237076163292E-002;-7.274848758243024E-004;9.312167530879378E-004;
2.421500000000000E+009;1.738415211439133E-001;-5.428262054920197E-002;-8.068479946814477E-004;1.041834126226604E-003;
2.421666666666667E+009;1.723642647266388E-001;-5.630993098020554E-002;-5.682542105205357E-004;1.126493792980909E-003;
2.421833333333334E+009;1.710956096649170E-001;-5.806548893451691E-002;-3.825755557045341E-004;1.348487916402519E-003;
2.422000000000000E+009;1.697215884923935E-001;-6.009546294808388E-002;-1.289951469516382E-004;1.245055114850402E-003;
2.422166666666667E+009;1.685245037078857E-001;-6.231549754738808E-002;-2.352610754314810E-004;1.307659200392664E-003;
2.422333333333334E+009;1.673745810985565E-001;-6.464930623769760E-002;-3.877455310430378E-005;1.428733230568469E-003;
2.422500000000000E+009;1.663831323385239E-001;-6.669808924198151E-002;8.045928552746773E-005;1.491475268267095E-003;
2.422666666666667E+009;1.654199808835983E-001;-6.893705576658249E-002;2.227620861958712E-004;1.463392516598105E-003;
2.422833333333334E+009;1.648271977901459E-001;-7.109580188989639E-002;5.074262153357267E-004;1.465293695218861E-003;
2.423000000000000E+009;1.642265021800995E-001;-7.347177714109421E-002;5.158666172064841E-004;1.570757827721536E-003;
2.423166666666667E+009;1.634769886732101E-001;-7.557974755764008E-002;8.491479675285518E-004;1.397942542098463E-003;
2.423333333333334E+009;1.632683128118515E-001;-7.791586965322495E-002;9.758528904058039E-004;1.286752754822373E-003;
2.423500000000000E+009;1.631048470735550E-001;-7.998944818973541E-002;9.868198540061712E-004;1.405570772476494E-003;
2.423666666666667E+009;1.631341725587845E-001;-8.211045712232590E-002;1.033179461956024E-003;1.219380996190012E-003;
2.423833333333334E+009;1.628942489624023E-001;-8.402588218450546E-002;1.155812991783023E-003;1.171691110357642E-003;
2.424000000000000E+009;1.630998998880386E-001;-8.623665571212769E-002;1.444423571228981E-003;1.053233630955219E-003;
2.424166666666667E+009;1.631139367818832E-001;-8.801046758890152E-002;1.518445205874741E-003;1.033092150464654E-003;
2.424333333333334E+009;1.634199172258377E-001;-8.973671495914459E-002;1.519022975116968E-003;8.882994879968464E-004;
2.424500000000000E+009;1.639764904975891E-001;-9.169032424688339E-002;1.659234170801938E-003;9.340076358057559E-004;
2.424666666666667E+009;1.641570925712585E-001;-9.335920959711075E-002;1.785413827747107E-003;6.938276928849518E-004;
2.424833333333334E+009;1.648084074258804E-001;-9.487596154212952E-002;1.927846460603178E-003;6.179573247209191E-004;
2.425000000000000E+009;1.652309894561768E-001;-9.621031582355499E-002;1.905853510834277E-003;5.858043441548944E-004;
2.425166666666667E+009;1.656369566917419E-001;-9.746680408716202E-002;1.935740117914975E-003;3.820149577222765E-004;
2.425333333333334E+009;1.661751717329025E-001;-9.865577518939972E-002;2.120027085766196E-003;2.402127574896440E-004;
2.425500000000000E+009;1.668606847524643E-001;-9.974426031112671E-002;2.216824796050787E-003;-9.339707321487367E-005;
2.425666666666667E+009;1.673980653285980E-001;-1.007060334086418E-001;2.232198603451252E-003;-1.616300432942808E-004;
2.425833333333334E+009;1.678859144449234E-001;-1.015483587980270E-001;2.235475229099393E-003;-3.124477516394109E-004;
2.426000000000000E+009;1.684990525245667E-001;-1.021860167384148E-001;2.306445967406035E-003;-4.324016335885972E-004;
2.426166666666667E+009;1.691388636827469E-001;-1.027313917875290E-001;2.359732519835234E-003;-6.885154289193451E-004;
2.426333333333334E+009;1.695528328418732E-001;-1.032587140798569E-001;2.228567842394114E-003;-9.694707114249468E-004;
2.426500000000000E+009;1.701892018318176E-001;-1.035128980875015E-001;2.051591174677014E-003;-1.150814001448453E-003;
2.426666666666667E+009;1.706552505493164E-001;-1.040072590112686E-001;2.120257122442126E-003;-1.270195236429572E-003;
2.426833333333334E+009;1.710786521434784E-001;-1.043012514710426E-001;1.933854073286057E-003;-1.412997953593731E-003;
2.427000000000000E+009;1.713278591632843E-001;-1.044276431202889E-001;1.893476117402315E-003;-1.569207874126732E-003;
2.427166666666667E+009;1.717077046632767E-001;-1.044409796595573E-001;1.855396782048047E-003;-1.815089606679976E-003;
2.427333333333334E+009;1.717504709959030E-001;-1.045639961957932E-001;1.570975291542709E-003;-2.044242806732655E-003;
2.427500000000000E+009;1.716588437557221E-001;-1.046598851680756E-001;1.554341986775398E-003;-2.078734571114183E-003;
2.427666666666667E+009;1.715479642152786E-001;-1.046486943960190E-001;1.403109170496464E-003;-2.244558185338974E-003;
2.427833333333334E+009;1.714399456977844E-001;-1.046471968293190E-001;1.253685215488076E-003;-2.436128910630941E-003;
