# Version 1.00
#
freq[Hz];re:Trc1_S11;im:Trc1_S11;re:Trc2_S21;im:Trc2_S21;
2.400000000000000E+009;1.560292541980743E-001;1.112402379512787E-001;-7.930253050290048E-004;7.141228998079896E-004;
2.400166666666667E+009;1.556324511766434E-001;1.089347302913666E-001;-5.383821553550661E-004;7.038037292659283E-004;
2.400333333333334E+009;1.552692055702210E-001;1.066661030054092E-001;-3.748334129340947E-004;9.210970019921660E-004;
2.400500000000000E+009;1.548884510993958E-001;1.040287837386131E-001;-2.827619900926948E-004;8.361904183402658E-004;
2.400666666666667E+009;1.548159718513489E-001;1.014408916234970E-001;-2.154642570530996E-004;9.319611126556993E-004;
2.400833333333334E+009;1.544618308544159E-001;9.843824058771133E-002;-1.522703678347170E-004;9.551522671245039E-004;
2.401000000000000E+009;1.543565839529038E-001;9.570461511611939E-002;-2.367583219893277E-004;9.119558962993324E-004;
2.401166666666667E+009;1.542111188173294E-001;9.287834167480469E-002;-9.533143747830764E-005;8.559483103454113E-004;
2.401333333333334E+009;1.542102545499802E-001;8.997985720634460E-002;-2.395814213684844E-008;8.033334161154926E-004;
2.401500000000000E+009;1.546390205621719E-001;8.668418228626251E-002;3.997230305685662E-005;9.616910247132182E-004;
2.401666666666667E+009;1.546992063522339E-001;8.395131677389145E-002;1.282644807361066E-004;1.033336622640491E-003;
2.401833333333334E+009;1.549373865127564E-001;8.093668520450592E-002;1.630326296435669E-004;1.001709373667836E-003;
2.402000000000000E+009;1.555342376232147E-001;7.794962823390961E-002;1.793515693861991E-004;1.111067947931588E-003;
2.402166666666667E+009;1.564658731222153E-001;7.519831508398056E-002;1.417696475982666E-004;1.063794014044106E-003;
2.402333333333334E+009;1.571702659130096E-001;7.210499793291092E-002;5.413159960880876E-004;1.157889491878450E-003;
2.402500000000000E+009;1.582516729831696E-001;6.921596825122833E-002;5.480450345203280E-004;1.232081558555365E-003;
2.402666666666667E+009;1.592848151922226E-001;6.672408431768417E-002;7.607602165080607E-004;1.433620927855372E-003;
2.402833333333334E+009;1.604282408952713E-001;6.422432512044907E-002;9.260025690309703E-004;1.175916520878673E-003;
2.403000000000000E+009;1.620107442140579E-001;6.158365309238434E-002;9.604187216609716E-004;1.230584573931992E-003;
2.403166666666667E+009;1.637081354856491E-001;5.895277485251427E-002;1.179576269350946E-003;1.318104215897620E-003;
2.403333333333334E+009;1.650038361549377E-001;5.667280778288841E-002;1.370680169202387E-003;1.232794369570911E-003;
2.403500000000000E+009;1.668582409620285E-001;5.417462810873985E-002;1.817998592741787E-003;1.083389157429338E-003;
2.403666666666667E+009;1.686596125364304E-001;5.190137028694153E-002;1.971810124814510E-003;1.065897988155484E-003;
2.403833333333334E+009;1.703989058732987E-001;4.981365054845810E-002;2.165645826607943E-003;7.821047329343855E-004;
2.404000000000000E+009;1.719979643821716E-001;4.771232604980469E-002;2.354310359805822E-003;5.670362734235823E-004;
2.404166666666667E+009;1.739044338464737E-001;4.598160460591316E-002;2.485248260200024E-003;1.831238041631877E-004;
2.404333333333334E+009;1.757532060146332E-001;4.435032606124878E-002;2.390637295320630E-003;-1.773512340150774E-004;
2.404500000000000E+009;1.773273497819901E-001;4.285222664475441E-002;3.858033800497651E-003;-3.250511595979333E-003;
2.404666666666667E+009;1.794779449701309E-001;4.127630963921547E-002;2.268336480483413E-003;7.334038964472711E-004;
2.404833333333334E+009;1.811868846416473E-001;4.023464396595955E-002;1.673159189522266E-003;-2.546002622693777E-003;
2.405000000000000E+009;1.829204112291336E-001;3.928652405738831E-002;4.922933294437826E-004;-2.821758098434657E-004;
2.405166666666667E+009;1.843167990446091E-001;3.873294591903687E-002;1.859899726696312E-003;-3.579988842830062E-003;
2.405333333333334E+009;1.862598061561585E-001;3.794300183653832E-002;2.185993595048785E-003;-1.581134740263224E-003;
2.405500000000000E+009;1.877821385860443E-001;3.740744665265083E-002;1.460392377339304E-003;-1.827761647291482E-003;
2.405666666666667E+009;1.892897337675095E-001;3.702407702803612E-002;2.277130726724863E-003;-2.351837698370218E-003;
2.405833333333334E+009;1.908372193574905E-001;3.670793399214745E-002;2.259542001411319E-003;-6.133601418696344E-004;
2.406000000000000E+009;1.919952630996704E-001;3.676922246813774E-002;1.118299434892833E-003;-2.484005643054843E-003;
2.406166666666667E+009;1.933066993951798E-001;3.663801029324532E-002;1.151297357864678E-003;-1.734876190312207E-003;
2.406333333333334E+009;1.944185346364975E-001;3.680684044957161E-002;4.865342052653432E-004;-2.262826077640057E-003;
2.406500000000000E+009;1.954851597547531E-001;3.703572601079941E-002;2.430646127322689E-004;-2.244364470243454E-003;
2.406666666666667E+009;1.963164061307907E-001;3.719837218523026E-002;1.343885815003887E-004;-2.232868690043688E-003;
2.406833333333334E+009;1.971198618412018E-001;3.739572316408157E-002;-2.846347924787551E-004;-2.370748668909073E-003;
2.407000000000000E+009;1.976378560066223E-001;3.785212337970734E-002;-3.684169205371290E-004;-2.338454127311707E-003;
2.407166666666667E+009;1.981741189956665E-001;3.794435411691666E-002;-5.266465013846755E-004;-2.060016151517630E-003;
2.407333333333334E+009;1.982943117618561E-001;3.834740072488785E-002;-7.118885987438262E-004;-2.150271320715547E-003;
2.407500000000000E+009;1.984989047050476E-001;3.877456486225128E-002;-8.169016800820828E-004;-2.014881931245327E-003;
2.407666666666667E+009;1.985229849815369E-001;3.900632634758949E-002;-1.032012747600675E-003;-1.926003838889301E-003;
2.407833333333334E+009;1.982420086860657E-001;3.908611834049225E-002;-1.205921522341669E-003;-1.728453673422337E-003;
2.408000000000000E+009;1.981774121522903E-001;3.926828876137734E-002;-1.373101607896388E-003;-1.666404423303902E-003;
2.408166666666667E+009;1.976593285799027E-001;3.931989893317223E-002;-1.390693592838943E-003;-1.461827079765499E-003;
2.408333333333334E+009;1.973977684974670E-001;3.928249329328537E-002;-1.460219849832356E-003;-1.333411200903356E-003;
2.408500000000000E+009;1.966543644666672E-001;3.920036926865578E-002;-1.508773304522038E-003;-1.416856073774397E-003;
2.408666666666667E+009;1.960390955209732E-001;3.905526176095009E-002;-1.615128945559263E-003;-1.174887991510332E-003;
2.408833333333334E+009;1.952017247676849E-001;3.864145651459694E-002;-1.683266018517315E-003;-1.088548335246742E-003;
2.409000000000000E+009;1.942236721515656E-001;3.791377693414688E-002;-1.770494272932410E-003;-1.028666389174759E-003;
2.409166666666667E+009;1.932811141014099E-001;3.734250366687775E-002;-1.868301304057241E-003;-9.926561033353210E-004;
2.409333333333334E+009;1.921507120132446E-001;3.671251237392426E-002;-1.903171301819384E-003;-6.052097887732089E-004;
2.409500000000000E+009;1.909465640783310E-001;3.561446815729141E-002;-2.071379218250513E-003;-5.671630497090519E-004;
2.409666666666667E+009;1.897967755794525E-001;3.452584519982338E-002;-2.168707782402635E-003;-3.648485580924898E-004;
2.409833333333334E+009;1.886276602745056E-001;3.328215703368187E-002;-2.213034546002746E-003;-2.068735193461180E-004;
2.410000000000000E+009;1.874309331178665E-001;3.180774673819542E-002;-2.321291482076049E-003;7.355923298746347E-005;
2.410166666666667E+009;1.862115263938904E-001;3.019042871892452E-002;-2.236875239759684E-003;2.045668807113543E-004;
2.410333333333334E+009;1.849621981382370E-001;2.876688167452812E-002;-2.329095965251327E-003;4.130419983994216E-004;
2.410500000000000E+009;1.837958693504334E-001;2.691692300140858E-002;-2.149354899302125E-003;4.588492447510362E-004;
2.410666666666667E+009;1.826168894767761E-001;2.462630160152912E-002;-1.978547545149922E-003;7.699768757447600E-004;
2.410833333333334E+009;1.817617118358612E-001;2.270408906042576E-002;-2.062176121398807E-003;8.984550950117409E-004;
2.411000000000000E+009;1.807648390531540E-001;2.050699107348919E-002;-1.869900850579143E-003;1.111091114580631E-003;
2.411166666666667E+009;1.797746866941452E-001;1.842082105576992E-002;-1.810399000532925E-003;1.344033051282167E-003;
2.411333333333334E+009;1.791512817144394E-001;1.573346368968487E-002;-1.679186010733247E-003;1.355165732093155E-003;
2.411500000000000E+009;1.785116791725159E-001;1.328003779053688E-002;-1.534824725240469E-003;1.456781174056232E-003;
2.411666666666667E+009;1.782436668872833E-001;1.083698589354754E-002;-1.519629731774330E-003;1.775961252860725E-003;
2.411833333333334E+009;1.774404048919678E-001;8.314601145684719E-003;-1.474182354286313E-003;1.751599949784577E-003;
2.412000000000000E+009;1.775082349777222E-001;5.752180237323046E-003;-1.312704407609999E-003;1.935885753482580E-003;
2.412166666666667E+009;1.774071007966995E-001;3.399479435756803E-003;-1.112766098231077E-003;2.233250066637993E-003;
2.412333333333334E+009;1.775352507829666E-001;5.591753870248795E-004;-8.475250215269625E-004;2.170559018850327E-003;
2.412500000000000E+009;1.776782870292664E-001;-2.009531017392874E-003;-5.470205796882510E-004;2.238212851807475E-003;
2.412666666666667E+009;1.781469136476517E-001;-4.854049533605576E-003;-2.875892678275704E-004;2.381385536864400E-003;
2.412833333333334E+009;1.788041591644287E-001;-7.476493716239929E-003;-6.268257857300341E-005;2.316959202289581E-003;
2.413000000000000E+009;1.791841834783554E-001;-1.006581354886293E-002;2.258522581541911E-004;2.539103617891669E-003;
2.413166666666667E+009;1.800800561904907E-001;-1.259430684149265E-002;3.774769138544798E-004;2.416559960693121E-003;
2.413333333333334E+009;1.811460107564926E-001;-1.510441023856401E-002;5.878841620869935E-004;2.230960875749588E-003;
2.413500000000000E+009;1.819351911544800E-001;-1.767529360949993E-002;8.718996541574597E-004;2.002985915169120E-003;
2.413666666666667E+009;1.831248849630356E-001;-2.014422789216042E-002;1.185917411930859E-003;1.925286022014916E-003;
2.413833333333334E+009;1.841820478439331E-001;-2.253796160221100E-002;1.316811540164053E-003;1.740074600093067E-003;
2.414000000000000E+009;1.856045424938202E-001;-2.455778233706951E-002;1.482856227084994E-003;1.607362763024867E-003;
2.414166666666667E+009;1.868778467178345E-001;-2.665839344263077E-002;1.650035264901817E-003;1.434213132597506E-003;
2.414333333333334E+009;1.880811154842377E-001;-2.886945381760597E-002;1.616791123524308E-003;1.187030691653490E-003;
2.414500000000000E+009;1.893897503614426E-001;-3.049944341182709E-002;1.749762333929539E-003;1.003145938739181E-003;
2.414666666666667E+009;1.907825917005539E-001;-3.226457163691521E-002;1.718303305096924E-003;6.805994198657572E-004;
2.414833333333334E+009;1.921460479497910E-001;-3.384779766201973E-002;1.707837916910648E-003;5.173049285076559E-004;
2.415000000000000E+009;1.934444606304169E-001;-3.546331077814102E-002;1.706412527710199E-003;3.007634077221155E-004;
2.415166666666667E+009;1.948450207710266E-001;-3.659645840525627E-002;1.593100954778493E-003;5.699064786313102E-005;
2.415333333333334E+009;1.964458525180817E-001;-3.791450709104538E-002;1.560352160595357E-003;5.547821638174355E-005;
2.415500000000000E+009;1.976900547742844E-001;-3.869700804352760E-002;1.598722185008228E-003;-8.945280569605529E-005;
2.415666666666667E+009;1.989904940128326E-001;-3.969155997037888E-002;1.410797238349915E-003;-2.725424128584564E-004;
2.415833333333334E+009;2.002640217542648E-001;-4.032025113701820E-002;1.414343831129372E-003;-1.928460987983272E-004;
2.416000000000000E+009;2.012333571910858E-001;-4.110698774456978E-002;1.308923470787704E-003;-4.633575154002756E-004;
2.416166666666667E+009;2.021320909261704E-001;-4.171203821897507E-002;1.236411393620074E-003;-5.814224714413285E-004;
2.416333333333334E+009;2.031240761280060E-001;-4.191087558865547E-002;1.036442583426833E-003;-6.245314725674689E-004;
2.416500000000000E+009;2.039404511451721E-001;-4.227307438850403E-002;1.052987994626164E-003;-7.854213472455740E-004;
2.416666666666667E+009;2.045423686504364E-001;-4.266755282878876E-002;8.783549419604242E-004;-7.871066336520016E-004;
2.416833333333334E+009;2.049185782670975E-001;-4.259137809276581E-002;7.090478902682662E-004;-9.038355201482773E-004;
2.417000000000000E+009;2.052743136882782E-001;-4.262470826506615E-002;5.577714182436466E-004;-9.241018560715020E-004;
2.417166666666667E+009;2.052261680364609E-001;-4.244318231940270E-002;5.537250544875860E-004;-9.122071205638349E-004;
2.417333333333334E+009;2.052724212408066E-001;-4.220016300678253E-002;5.734819569624960E-004;-8.555784006603062E-004;
2.417500000000000E+009;2.052073180675507E-001;-4.211523756384850E-002;4.065123212058097E-004;-8.873047190718353E-004;
2.417666666666667E+009;2.049161046743393E-001;-4.171939566731453E-002;3.365246229805052E-004;-1.019912771880627E-003;
2.417833333333334E+009;2.046094983816147E-001;-4.135179892182350E-002;3.015628317371011E-004;-7.589262677356601E-004;
2.418000000000000E+009;2.042437642812729E-001;-4.090712219476700E-002;1.343102339887992E-004;-8.784885867498815E-004;
2.418166666666667E+009;2.035527527332306E-001;-4.066080600023270E-002;-6.045189365977421E-005;-7.209267350845039E-004;
2.418333333333334E+009;2.029592692852020E-001;-4.033981636166573E-002;3.730027310666628E-005;-8.393999887630343E-004;
2.418500000000000E+009;2.019310593605042E-001;-4.001427441835403E-002;6.821869465056807E-005;-7.974482141435146E-004;
2.418666666666667E+009;2.010729610919952E-001;-3.976165503263474E-002;-9.565256732457783E-006;-8.129597990773618E-004;
2.418833333333334E+009;1.998960673809052E-001;-3.963681682944298E-002;-1.802278711693361E-004;-7.850629626773298E-004;
2.419000000000000E+009;1.985470205545425E-001;-3.957541286945343E-002;-1.940240035764873E-004;-8.903185371309519E-004;
2.419166666666667E+009;1.974107176065445E-001;-3.968309611082077E-002;-4.793562402483076E-004;-8.635296253487468E-004;
2.419333333333334E+009;1.959738582372665E-001;-3.987894579768181E-002;-5.111329373903573E-004;-7.514196331612766E-004;
2.419500000000000E+009;1.944351196289063E-001;-4.022452980279923E-002;-6.751845940016210E-004;-7.462963694706559E-004;
2.419666666666667E+009;1.926897019147873E-001;-4.089073091745377E-002;-8.414523908868432E-004;-6.360298139043152E-004;
2.419833333333334E+009;1.910073310136795E-001;-4.132796823978424E-002;-8.105403394438326E-004;-6.084021879360080E-004;
2.420000000000000E+009;1.894778162240982E-001;-4.202238097786903E-002;-1.008266233839095E-003;-3.817568649537861E-004;
2.420166666666667E+009;1.876338869333267E-001;-4.288991540670395E-002;-1.027295598760247E-003;-2.246838266728446E-004;
2.420333333333334E+009;1.857565492391586E-001;-4.389589279890060E-002;-1.082637696526945E-003;-1.366227079415694E-004;
2.420500000000000E+009;1.840342134237289E-001;-4.498528316617012E-002;-1.307381317019463E-003;9.943864279193804E-005;
2.420666666666667E+009;1.822335124015808E-001;-4.614300280809403E-002;-1.209446927532554E-003;2.448447921779007E-004;
2.420833333333334E+009;1.804059147834778E-001;-4.755615815520287E-002;-1.220555859617889E-003;4.392218252178282E-004;
2.421000000000000E+009;1.787657141685486E-001;-4.906326532363892E-002;-1.042446005158126E-003;7.498326594941318E-004;
2.421166666666667E+009;1.771843880414963E-001;-5.082152038812637E-002;-9.530140669085085E-004;7.849934627301991E-004;
2.421333333333334E+009;1.752077192068100E-001;-5.229825153946877E-002;-9.000418358482420E-004;9.541110484860838E-004;
2.421500000000000E+009;1.736863553524017E-001;-5.428871139883995E-002;-7.665370940230787E-004;1.030887360684574E-003;
2.421666666666667E+009;1.722957491874695E-001;-5.612383410334587E-002;-5.787357222288847E-004;1.192877534776926E-003;
2.421833333333334E+009;1.708056181669235E-001;-5.809433758258820E-002;-5.218726582825184E-004;1.243860460817814E-003;
2.422000000000000E+009;1.696347445249558E-001;-6.022246181964874E-002;-4.681916907429695E-004;1.243445440195501E-003;
2.422166666666667E+009;1.682298630475998E-001;-6.236568838357925E-002;-3.190717252437025E-004;1.459825551137328E-003;
2.422333333333334E+009;1.671269536018372E-001;-6.459084898233414E-002;-9.873123053694144E-005;1.438110368326306E-003;
2.422500000000000E+009;1.662296354770660E-001;-6.673762202262878E-002;8.823684765957296E-005;1.456116209737957E-003;
2.422666666666667E+009;1.652338057756424E-001;-6.873165071010590E-002;1.380567555315793E-004;1.355235930532217E-003;
2.422833333333334E+009;1.646093726158142E-001;-7.102527469396591E-002;2.711414417717606E-004;1.342771458439529E-003;
2.423000000000000E+009;1.640446186065674E-001;-7.341063767671585E-002;4.714250098913908E-004;1.455151010304689E-003;
2.423166666666667E+009;1.634736657142639E-001;-7.561448216438294E-002;5.942762363702059E-004;1.532567082904279E-003;
2.423333333333334E+009;1.630035638809204E-001;-7.789558172225952E-002;8.681872277520597E-004;1.469607464969158E-003;
2.423500000000000E+009;1.628846377134323E-001;-7.981149852275848E-002;9.374574292451143E-004;1.221315353177488E-003;
2.423666666666667E+009;1.629501134157181E-001;-8.211898058652878E-002;9.212394361384213E-004;1.343548763543367E-003;
2.423833333333334E+009;1.627173572778702E-001;-8.412605524063110E-002;1.159737468697131E-003;1.148726674728096E-003;
2.424000000000000E+009;1.630253046751022E-001;-8.625390380620956E-002;1.250372966751456E-003;1.179135870188475E-003;
2.424166666666667E+009;1.630780845880508E-001;-8.786019682884216E-002;1.408474985510111E-003;9.005430038087070E-004;
2.424333333333334E+009;1.632333397865295E-001;-8.992329984903336E-002;1.385314622893930E-003;1.038394751958549E-003;
2.424500000000000E+009;1.637370735406876E-001;-9.175274521112442E-002;1.504773972555995E-003;9.392568608745933E-004;
2.424666666666667E+009;1.640120446681976E-001;-9.326856583356857E-002;1.681512221693993E-003;6.583820213563740E-004;
2.424833333333334E+009;1.646046191453934E-001;-9.487342834472656E-002;1.790616195648909E-003;7.756728446111083E-004;
2.425000000000000E+009;1.651443392038345E-001;-9.635806828737259E-002;1.951059792190790E-003;6.029664655216038E-004;
2.425166666666667E+009;1.654699891805649E-001;-9.759222716093063E-002;2.057457342743874E-003;2.090676862280816E-004;
2.425333333333334E+009;1.659794300794601E-001;-9.862449020147324E-002;1.922326395288110E-003;2.812230086419731E-004;
2.425500000000000E+009;1.667560786008835E-001;-9.983897209167481E-002;2.188328187912703E-003;5.569959103013389E-005;
2.425666666666667E+009;1.673081666231155E-001;-1.006419584155083E-001;2.087041502818465E-003;-2.606404596008360E-004;
2.425833333333334E+009;1.676715910434723E-001;-1.016425266861916E-001;2.086702967062593E-003;-3.802858700510114E-004;
2.426000000000000E+009;1.683508455753326E-001;-1.021320074796677E-001;2.198347589001060E-003;-5.584537284448743E-004;
2.426166666666667E+009;1.689667254686356E-001;-1.028359681367874E-001;2.217138884589076E-003;-7.363824406638742E-004;
2.426333333333334E+009;1.692710518836975E-001;-1.033676564693451E-001;2.116604475304484E-003;-1.026832615025342E-003;
2.426500000000000E+009;1.698785126209259E-001;-1.036585271358490E-001;2.050131093710661E-003;-1.118019921705127E-003;
2.426666666666667E+009;1.704578846693039E-001;-1.039247065782547E-001;1.996334409341216E-003;-1.224214909598231E-003;
2.426833333333334E+009;1.708581000566483E-001;-1.042687296867371E-001;2.041656291112304E-003;-1.460080384276807E-003;
2.427000000000000E+009;1.711496114730835E-001;-1.044541373848915E-001;1.925389748066664E-003;-1.681159250438213E-003;
2.427166666666667E+009;1.714276671409607E-001;-1.044056117534638E-001;1.791725866496563E-003;-1.866625738330185E-003;
2.427333333333334E+009;1.715721338987351E-001;-1.046072915196419E-001;1.749850576743484E-003;-1.975625520572066E-003;
2.427500000000000E+009;1.714504510164261E-001;-1.046334803104401E-001;1.575958332978189E-003;-2.044898457825184E-003;
2.427666666666667E+009;1.713649630546570E-001;-1.045985668897629E-001;1.329014892689884E-003;-2.373974537476897E-003;
2.427833333333334E+009;1.712926179170609E-001;-1.044977828860283E-001;1.154481898993254E-003;-2.297018188983202E-003;
