# Version 1.00
#
freq[Hz];re:Trc1_S11;im:Trc1_S11;re:Trc2_S21;im:Trc2_S21;
2.400000000000000E+009;1.606828868389130E-001;5.699332430958748E-002;1.248006010428071E-003;3.342881333082914E-003;
2.400166666666667E+009;1.608373522758484E-001;5.540684610605240E-002;1.342570758424699E-003;3.333157859742641E-003;
2.400333333333334E+009;1.610082536935806E-001;5.374404788017273E-002;1.627243240363896E-003;3.313274355605245E-003;
2.400500000000000E+009;1.610895842313767E-001;5.186317861080170E-002;1.631671446375549E-003;3.454175777733326E-003;
2.400666666666667E+009;1.610024273395538E-001;5.005542933940888E-002;1.737693790346384E-003;3.419758286327124E-003;
2.400833333333334E+009;1.614490002393723E-001;4.822821170091629E-002;2.037401311099529E-003;3.311506006866694E-003;
2.401000000000000E+009;1.614555865526199E-001;4.628513753414154E-002;2.075869590044022E-003;3.418464912101626E-003;
2.401166666666667E+009;1.616627275943756E-001;4.453763738274574E-002;2.257405547425151E-003;3.480284707620740E-003;
2.401333333333334E+009;1.620106250047684E-001;4.250528290867806E-002;2.352238399907947E-003;3.387992968782783E-003;
2.401500000000000E+009;1.623765826225281E-001;4.059443995356560E-002;2.660586498677731E-003;3.551835427060723E-003;
2.401666666666667E+009;1.627746522426605E-001;3.886217996478081E-002;2.907667076215148E-003;3.453206038102508E-003;
2.401833333333334E+009;1.632642298936844E-001;3.695588558912277E-002;3.029356012120843E-003;3.292385721579194E-003;
2.402000000000000E+009;1.633358746767044E-001;3.523807600140572E-002;3.206469351425767E-003;3.290306776762009E-003;
2.402166666666667E+009;1.639426797628403E-001;3.341610729694367E-002;3.197293030098081E-003;3.171461168676615E-003;
2.402333333333334E+009;1.645493656396866E-001;3.168823570013046E-002;3.485854715108872E-003;3.208760404959321E-003;
2.402500000000000E+009;1.653190553188324E-001;3.015122562646866E-002;3.633538726717234E-003;2.910008653998375E-003;
2.402666666666667E+009;1.657610386610031E-001;2.844928205013275E-002;3.913326654583216E-003;2.874631434679031E-003;
2.402833333333334E+009;1.665197908878326E-001;2.690784074366093E-002;4.095826297998428E-003;2.780004171654582E-003;
2.403000000000000E+009;1.671375334262848E-001;2.552707493305206E-002;4.341522231698036E-003;2.615077653899789E-003;
2.403166666666667E+009;1.678601801395416E-001;2.413428388535976E-002;4.429963417351246E-003;2.380316611379385E-003;
2.403333333333334E+009;1.685537844896317E-001;2.282061800360680E-002;4.475303925573826E-003;2.080258447676897E-003;
2.403500000000000E+009;1.692921072244644E-001;2.158440463244915E-002;4.633450414985418E-003;1.972396159544587E-003;
2.403666666666667E+009;1.699429154396057E-001;2.023717015981674E-002;4.850128665566444E-003;1.743311411701143E-003;
2.403833333333334E+009;1.708799004554749E-001;1.915133558213711E-002;4.907438065856695E-003;1.523741986602545E-003;
2.404000000000000E+009;1.715067178010941E-001;1.805069111287594E-002;4.934078548103571E-003;1.349611091427505E-003;
2.404166666666667E+009;1.722329258918762E-001;1.696623116731644E-002;4.927338100969791E-003;1.131836674176157E-003;
2.404333333333334E+009;1.729423701763153E-001;1.618179306387901E-002;4.949582740664482E-003;8.904936839826405E-004;
2.404500000000000E+009;1.733213663101196E-001;1.523547992110252E-002;5.050939042121172E-003;4.710591747425497E-004;
2.404666666666667E+009;1.742631942033768E-001;1.453563012182713E-002;4.909956827759743E-003;4.221412527840585E-004;
2.404833333333334E+009;1.747074276208878E-001;1.358685269951820E-002;5.139178596436977E-003;2.538372064009309E-004;
2.405000000000000E+009;1.753329336643219E-001;1.289859320968390E-002;4.949714988470078E-003;-1.152157419710420E-004;
2.405166666666667E+009;1.759503632783890E-001;1.231184322386980E-002;4.849262069910765E-003;-8.828096179058775E-005;
2.405333333333334E+009;1.765727400779724E-001;1.166513375937939E-002;4.840656183660030E-003;-4.023898218292743E-004;
2.405500000000000E+009;1.769738495349884E-001;1.124706119298935E-002;4.886040929704905E-003;-6.153350113891065E-004;
2.405666666666667E+009;1.772976666688919E-001;1.084504649043083E-002;4.680329002439976E-003;-7.599547971040011E-004;
2.405833333333334E+009;1.775968819856644E-001;1.036213338375092E-002;4.683677107095718E-003;-8.243198972195387E-004;
2.406000000000000E+009;1.779555231332779E-001;9.809708222746849E-003;4.654817748814821E-003;-9.330097818747163E-004;
2.406166666666667E+009;1.781112551689148E-001;9.650584310293198E-003;4.530032165348530E-003;-1.167392940260470E-003;
2.406333333333334E+009;1.784673929214478E-001;9.173098020255566E-003;4.697883501648903E-003;-1.214734977111220E-003;
2.406500000000000E+009;1.784277111291885E-001;8.827173151075840E-003;4.362544044852257E-003;-1.445622998289764E-003;
2.406666666666667E+009;1.784507036209106E-001;8.377027697861195E-003;4.352301824837923E-003;-1.504883286543191E-003;
2.406833333333334E+009;1.784873157739639E-001;8.040012791752815E-003;4.300517495721579E-003;-1.659907749854028E-003;
2.407000000000000E+009;1.783776283264160E-001;7.539853453636169E-003;4.198787268251181E-003;-1.680601504631341E-003;
2.407166666666667E+009;1.785127669572830E-001;7.182987406849861E-003;4.204098135232925E-003;-1.658568158745766E-003;
2.407333333333334E+009;1.780544966459274E-001;6.488676182925701E-003;4.176803398877382E-003;-1.871638698503375E-003;
2.407500000000000E+009;1.778422147035599E-001;5.970961879938841E-003;3.954199142754078E-003;-1.911826198920608E-003;
2.407666666666667E+009;1.776046454906464E-001;5.439697764813900E-003;4.021854139864445E-003;-2.107278909534216E-003;
2.407833333333334E+009;1.770468354225159E-001;4.692750517278910E-003;3.781192470341921E-003;-2.174650551751256E-003;
2.408000000000000E+009;1.768189221620560E-001;3.938319161534309E-003;3.870092565193772E-003;-2.220310037955642E-003;
2.408166666666667E+009;1.763472110033035E-001;3.276511561125517E-003;3.825380001217127E-003;-2.414033515378833E-003;
2.408333333333334E+009;1.759622395038605E-001;2.427170053124428E-003;3.669202327728272E-003;-2.539016772061586E-003;
2.408500000000000E+009;1.754649579524994E-001;1.316424342803657E-003;3.653451567515731E-003;-2.550728386268020E-003;
2.408666666666667E+009;1.747597008943558E-001;4.049716517329216E-004;3.582250559702516E-003;-2.763920230790973E-003;
2.408833333333334E+009;1.742066442966461E-001;-7.434339495375752E-004;3.531587542966008E-003;-2.676361938938499E-003;
2.409000000000000E+009;1.736406236886978E-001;-1.663224771618843E-003;3.421379486098886E-003;-2.648232737556100E-003;
2.409166666666667E+009;1.730781197547913E-001;-2.935524797067046E-003;3.233240684494376E-003;-2.890469972044230E-003;
2.409333333333334E+009;1.726501733064652E-001;-4.368048626929522E-003;3.169575938954949E-003;-2.922536106780171E-003;
2.409500000000000E+009;1.718464493751526E-001;-5.807524081319571E-003;3.170682350173593E-003;-2.833324018865824E-003;
2.409666666666667E+009;1.712329089641571E-001;-7.093401625752449E-003;3.169213887304068E-003;-3.001092234626412E-003;
2.409833333333334E+009;1.707243025302887E-001;-8.465456776320934E-003;2.906595123931766E-003;-2.891412470489740E-003;
2.410000000000000E+009;1.702588200569153E-001;-1.003473252058029E-002;2.897193189710379E-003;-3.130623605102301E-003;
2.410166666666667E+009;1.698959618806839E-001;-1.164804771542549E-002;2.801812719553709E-003;-3.118095686659217E-003;
2.410333333333334E+009;1.692376732826233E-001;-1.314455084502697E-002;2.863965695723891E-003;-3.219508100301027E-003;
2.410500000000000E+009;1.690341383218765E-001;-1.514477189630270E-002;2.726475475355983E-003;-3.291754052042961E-003;
2.410666666666667E+009;1.685454696416855E-001;-1.706370897591114E-002;2.801074180752039E-003;-3.358018351718783E-003;
2.410833333333334E+009;1.682528555393219E-001;-1.856848224997520E-002;2.670816145837307E-003;-3.352814354002476E-003;
2.411000000000000E+009;1.680026650428772E-001;-2.039769664406776E-002;2.687912900000811E-003;-3.534681629389525E-003;
2.411166666666667E+009;1.678665578365326E-001;-2.223598584532738E-002;2.746750134974718E-003;-3.432185621932149E-003;
2.411333333333334E+009;1.679321825504303E-001;-2.413756959140301E-002;2.669303212314844E-003;-3.606847254559398E-003;
2.411500000000000E+009;1.677346378564835E-001;-2.608924359083176E-002;2.610980533063412E-003;-3.763644956052303E-003;
2.411666666666667E+009;1.678712517023087E-001;-2.795550040900707E-002;2.553838072344661E-003;-3.817052114754915E-003;
2.411833333333334E+009;1.678408831357956E-001;-2.971746586263180E-002;2.568690804764628E-003;-3.946416079998016E-003;
2.412000000000000E+009;1.679885834455490E-001;-3.168008103966713E-002;2.472572494298220E-003;-4.074214026331902E-003;
2.412166666666667E+009;1.681341826915741E-001;-3.346750140190125E-002;2.484083641320467E-003;-4.291114397346973E-003;
2.412333333333334E+009;1.686785072088242E-001;-3.528240695595741E-002;2.309535630047321E-003;-4.402800463140011E-003;
2.412500000000000E+009;1.687856167554855E-001;-3.704973310232163E-002;2.069948939606547E-003;-4.484012722969055E-003;
2.412666666666667E+009;1.692009121179581E-001;-3.920990973711014E-002;2.018208149820566E-003;-4.686888307332993E-003;
2.412833333333334E+009;1.695104837417603E-001;-4.060802608728409E-002;1.844981918111444E-003;-5.022243130952120E-003;
2.413000000000000E+009;1.699587553739548E-001;-4.243243858218193E-002;1.669613295234740E-003;-4.960630089044571E-003;
2.413166666666667E+009;1.703893989324570E-001;-4.401766881346703E-002;1.508199609816074E-003;-5.089928396046162E-003;
2.413333333333334E+009;1.708127558231354E-001;-4.538431391119957E-002;1.321966759860516E-003;-5.285153631120920E-003;
2.413500000000000E+009;1.713859736919403E-001;-4.721328988671303E-002;1.256624353118241E-003;-5.413721781224012E-003;
2.413666666666667E+009;1.716924607753754E-001;-4.857640713453293E-002;9.486397611908615E-004;-5.429021082818508E-003;
2.413833333333334E+009;1.722709834575653E-001;-4.987854138016701E-002;8.136848919093609E-004;-5.452665966004133E-003;
2.414000000000000E+009;1.727280765771866E-001;-5.119088664650917E-002;4.250792553648353E-004;-5.820621270686388E-003;
2.414166666666667E+009;1.735074222087860E-001;-5.238355696201325E-002;4.158755473326892E-004;-5.669711623340845E-003;
2.414333333333334E+009;1.736719906330109E-001;-5.352126434445381E-002;-5.743469955632463E-005;-5.645755212754011E-003;
2.414500000000000E+009;1.745497584342957E-001;-5.450033023953438E-002;-2.192816900787875E-004;-5.729113239794970E-003;
2.414666666666667E+009;1.748361885547638E-001;-5.531429871916771E-002;-3.880106378346682E-004;-5.808160174638033E-003;
2.414833333333334E+009;1.752273291349411E-001;-5.639003217220306E-002;-7.528159767389298E-004;-5.598457064479590E-003;
2.415000000000000E+009;1.756904423236847E-001;-5.692633613944054E-002;-8.652340620756149E-004;-5.618732888251543E-003;
2.415166666666667E+009;1.758679598569870E-001;-5.789843946695328E-002;-1.192591036669910E-003;-5.732713732868433E-003;
2.415333333333334E+009;1.762988716363907E-001;-5.846215412020683E-002;-1.467550522647798E-003;-5.519299302250147E-003;
2.415500000000000E+009;1.766302585601807E-001;-5.893065407872200E-002;-1.744067412801087E-003;-5.565824452787638E-003;
2.415666666666667E+009;1.766480058431625E-001;-5.936845391988754E-002;-1.901873154565692E-003;-5.630034487694502E-003;
2.415833333333334E+009;1.768065989017487E-001;-5.989659950137138E-002;-2.165735000744462E-003;-5.420806817710400E-003;
2.416000000000000E+009;1.767014712095261E-001;-6.036293506622315E-002;-2.346245804801583E-003;-5.293124821037054E-003;
2.416166666666667E+009;1.769094616174698E-001;-6.071013957262039E-002;-2.661586506292224E-003;-5.236478988081217E-003;
2.416333333333334E+009;1.767671555280685E-001;-6.091296672821045E-002;-2.735036425292492E-003;-5.053188186138868E-003;
2.416500000000000E+009;1.765344738960266E-001;-6.132555007934570E-002;-2.874998841434717E-003;-4.855467937886715E-003;
2.416666666666667E+009;1.762647926807404E-001;-6.134563684463501E-002;-3.148282645270228E-003;-4.850564990192652E-003;
2.416833333333334E+009;1.760841012001038E-001;-6.175919622182846E-002;-3.333379514515400E-003;-4.516758024692535E-003;
2.417000000000000E+009;1.754992306232452E-001;-6.204272434115410E-002;-3.589230356737971E-003;-4.395737778395414E-003;
2.417166666666667E+009;1.749092191457748E-001;-6.210989877581596E-002;-3.687016665935516E-003;-4.237573128193617E-003;
2.417333333333334E+009;1.744884997606278E-001;-6.230452656745911E-002;-3.842383157461882E-003;-4.240450449287891E-003;
2.417500000000000E+009;1.737521886825562E-001;-6.278952956199646E-002;-3.954904619604349E-003;-3.947853576391935E-003;
2.417666666666667E+009;1.730825752019882E-001;-6.281907856464386E-002;-4.013502039015293E-003;-3.901305375620723E-003;
2.417833333333334E+009;1.721885204315186E-001;-6.317730993032455E-002;-4.084755666553974E-003;-3.647578181698918E-003;
2.418000000000000E+009;1.711009740829468E-001;-6.355063617229462E-002;-4.118391778320074E-003;-3.416149178519845E-003;
2.418166666666667E+009;1.701457798480988E-001;-6.381479650735855E-002;-4.344301763921976E-003;-3.232246963307262E-003;
2.418333333333334E+009;1.694245934486389E-001;-6.428003311157227E-002;-4.217639565467835E-003;-3.039448522031307E-003;
2.418500000000000E+009;1.681820303201675E-001;-6.468231230974197E-002;-4.450059961527586E-003;-2.884019166231155E-003;
2.418666666666667E+009;1.671002507209778E-001;-6.514008343219757E-002;-4.543202929198742E-003;-2.661406528204680E-003;
2.418833333333334E+009;1.658424139022827E-001;-6.581718474626541E-002;-4.572337493300438E-003;-2.548341639339924E-003;
2.419000000000000E+009;1.646139174699783E-001;-6.641405820846558E-002;-4.579469561576843E-003;-2.433037152513862E-003;
2.419166666666667E+009;1.635439991950989E-001;-6.711332499980927E-002;-4.722188692539930E-003;-2.169567858800292E-003;
2.419333333333334E+009;1.620619893074036E-001;-6.771083176136017E-002;-4.757212940603495E-003;-1.929715159349144E-003;
2.419500000000000E+009;1.609696298837662E-001;-6.872127950191498E-002;-4.678055178374052E-003;-1.870066276751459E-003;
2.419666666666667E+009;1.598265022039414E-001;-6.978174299001694E-002;-4.813865292817354E-003;-1.664772629737854E-003;
2.419833333333334E+009;1.585377901792526E-001;-7.055194675922394E-002;-4.805294331163168E-003;-1.569493324495852E-003;
2.420000000000000E+009;1.573543250560761E-001;-7.163991779088974E-002;-4.880097694694996E-003;-1.408726791851223E-003;
2.420166666666667E+009;1.563933640718460E-001;-7.271404564380646E-002;-4.901072010397911E-003;-1.039274851791561E-003;
2.420333333333334E+009;1.551596373319626E-001;-7.409548014402390E-002;-4.856914281845093E-003;-9.674007305875421E-004;
2.420500000000000E+009;1.542513966560364E-001;-7.524897158145905E-002;-4.747035913169384E-003;-7.589217275381088E-004;
2.420666666666667E+009;1.530997455120087E-001;-7.627416402101517E-002;-4.646168090403080E-003;-5.548180197365582E-004;
2.420833333333334E+009;1.522767990827560E-001;-7.792089879512787E-002;-4.784964025020599E-003;-3.899636794812977E-004;
2.421000000000000E+009;1.512459665536881E-001;-7.945533096790314E-002;-4.708158783614636E-003;-2.785236283671111E-004;
2.421166666666667E+009;1.506099998950958E-001;-8.081558346748352E-002;-4.711499903351069E-003;-3.250117879360914E-005;
2.421333333333334E+009;1.499325335025787E-001;-8.247016370296478E-002;-4.629035480320454E-003;2.658552512002643E-005;
2.421500000000000E+009;1.491141170263290E-001;-8.413489162921906E-002;-4.454098641872406E-003;2.955510572064668E-004;
2.421666666666667E+009;1.486064642667770E-001;-8.559956401586533E-002;-4.457782022655010E-003;4.776925779879093E-004;
2.421833333333334E+009;1.481097787618637E-001;-8.726208657026291E-002;-4.284499213099480E-003;5.341062787920237E-004;
2.422000000000000E+009;1.475052684545517E-001;-8.895032107830048E-002;-4.118727520108223E-003;7.679574191570282E-004;
2.422166666666667E+009;1.472372710704804E-001;-9.080597013235092E-002;-4.109231289476156E-003;8.884175913408399E-004;
2.422333333333334E+009;1.469746530056000E-001;-9.240090101957321E-002;-3.841982223093510E-003;8.278118912130594E-004;
2.422500000000000E+009;1.468217670917511E-001;-9.394455701112747E-002;-3.828200045973063E-003;1.008589635603130E-003;
2.422666666666667E+009;1.466242223978043E-001;-9.568752348423004E-002;-3.638042602688074E-003;1.037767156958580E-003;
2.422833333333334E+009;1.465484052896500E-001;-9.752941876649857E-002;-3.553607268258929E-003;1.308846171014011E-003;
2.423000000000000E+009;1.466396301984787E-001;-9.911233186721802E-002;-3.370664082467556E-003;1.227464061230421E-003;
2.423166666666667E+009;1.468288749456406E-001;-1.007683649659157E-001;-3.346039215102792E-003;1.147094182670116E-003;
2.423333333333334E+009;1.470766812562943E-001;-1.021751761436462E-001;-3.260609693825245E-003;1.295877969823778E-003;
2.423500000000000E+009;1.472310870885849E-001;-1.037995666265488E-001;-3.281847573816776E-003;1.185596804134548E-003;
2.423666666666667E+009;1.473453640937805E-001;-1.053080856800079E-001;-3.150254255160689E-003;1.312903361395001E-003;
2.423833333333334E+009;1.478479802608490E-001;-1.068670600652695E-001;-2.949597314000130E-003;1.404944341629744E-003;
2.424000000000000E+009;1.480070203542709E-001;-1.080907806754112E-001;-2.902019768953323E-003;1.301606069318950E-003;
2.424166666666667E+009;1.483117341995239E-001;-1.094511896371841E-001;-2.841859124600887E-003;1.425335765816271E-003;
2.424333333333334E+009;1.488392502069473E-001;-1.105863675475121E-001;-2.746754093095660E-003;1.368438242934644E-003;
2.424500000000000E+009;1.491449773311615E-001;-1.118888854980469E-001;-2.780170412734151E-003;1.526222098618746E-003;
2.424666666666667E+009;1.495821326971054E-001;-1.128529757261276E-001;-2.704407088458538E-003;1.605871017090976E-003;
2.424833333333334E+009;1.498626172542572E-001;-1.138752475380898E-001;-2.720028860494494E-003;1.336128334514797E-003;
2.425000000000000E+009;1.503000706434250E-001;-1.148591190576553E-001;-2.639482729136944E-003;1.576664042659104E-003;
2.425166666666667E+009;1.504545509815216E-001;-1.157835274934769E-001;-2.761111129075289E-003;1.576671493239701E-003;
2.425333333333334E+009;1.509599089622498E-001;-1.164952591061592E-001;-2.595587866380811E-003;1.531415036879480E-003;
2.425500000000000E+009;1.512819528579712E-001;-1.173289045691490E-001;-2.528645796701312E-003;1.586202532052994E-003;
2.425666666666667E+009;1.513199508190155E-001;-1.179508119821549E-001;-2.502527786418796E-003;1.628745114430785E-003;
2.425833333333334E+009;1.515027731657028E-001;-1.184800639748573E-001;-2.437946852296591E-003;1.794191543012857E-003;
2.426000000000000E+009;1.516295075416565E-001;-1.190301626920700E-001;-2.494984539225698E-003;1.726082758978009E-003;
2.426166666666667E+009;1.519850194454193E-001;-1.196093112230301E-001;-2.234524115920067E-003;1.695712329819799E-003;
2.426333333333334E+009;1.518759429454804E-001;-1.198584958910942E-001;-2.306666225194931E-003;1.761296531185508E-003;
2.426500000000000E+009;1.518207937479019E-001;-1.201335489749908E-001;-2.290508011355996E-003;1.787437591701746E-003;
2.426666666666667E+009;1.518654823303223E-001;-1.202710643410683E-001;-2.241306006908417E-003;2.001810353249311E-003;
2.426833333333334E+009;1.516099870204926E-001;-1.205399036407471E-001;-2.239263849332929E-003;1.916553708724678E-003;
2.427000000000000E+009;1.513312608003616E-001;-1.208775192499161E-001;-2.296638442203403E-003;1.977084204554558E-003;
2.427166666666667E+009;1.510022133588791E-001;-1.208843290805817E-001;-2.070007845759392E-003;1.936350134201348E-003;
2.427333333333334E+009;1.504584103822708E-001;-1.210221126675606E-001;-1.957501517608762E-003;1.974745420739055E-003;
2.427500000000000E+009;1.499943286180496E-001;-1.211567595601082E-001;-1.891160150989890E-003;2.038959646597505E-003;
2.427666666666667E+009;1.493298858404160E-001;-1.213140115141869E-001;-1.957871485501528E-003;2.132403198629618E-003;
