# Version 1.00
#
freq[Hz];re:Trc1_S11;im:Trc1_S11;re:Trc2_S21;im:Trc2_S21;
2.400000000000000E+009;1.585083156824112E-001;6.299800425767899E-002;-2.083051251247525E-003;4.780722782015801E-003;
2.400166666666667E+009;1.584071666002274E-001;6.155562400817871E-002;-1.909972750581801E-003;4.856737796217203E-003;
2.400333333333334E+009;1.582701802253723E-001;5.955996364355087E-002;-1.647673198021948E-003;4.877247381955385E-003;
2.400500000000000E+009;1.580741852521896E-001;5.775717273354530E-002;-1.538307638838887E-003;4.840765148401260E-003;
2.400666666666667E+009;1.580017954111099E-001;5.582956969738007E-002;-1.310489606112242E-003;4.886794369667769E-003;
2.400833333333334E+009;1.580589562654495E-001;5.392031371593475E-002;-1.163180102594197E-003;5.101861432194710E-003;
2.401000000000000E+009;1.580668538808823E-001;5.184190347790718E-002;-1.047978992573917E-003;4.978281445801258E-003;
2.401166666666667E+009;1.582829058170319E-001;4.979417845606804E-002;-7.239158148877323E-004;5.053539760410786E-003;
2.401333333333334E+009;1.582995951175690E-001;4.759215563535690E-002;-6.339917890727520E-004;4.861148539930582E-003;
2.401500000000000E+009;1.587359160184860E-001;4.549633711576462E-002;-5.649761296808720E-004;5.016038659960032E-003;
2.401666666666667E+009;1.589429974555969E-001;4.359067603945732E-002;-3.345944569446147E-004;4.981562960892916E-003;
2.401833333333334E+009;1.593143492937088E-001;4.131300374865532E-002;-1.374515122734010E-004;5.090659018605948E-003;
2.402000000000000E+009;1.594339162111282E-001;3.958564251661301E-002;1.384002280246932E-005;4.888079129159451E-003;
2.402166666666667E+009;1.602055579423904E-001;3.731567785143852E-002;1.358448644168675E-004;4.829067271202803E-003;
2.402333333333334E+009;1.605743467807770E-001;3.548257425427437E-002;9.972143743652850E-005;5.114023108035326E-003;
2.402500000000000E+009;1.614153236150742E-001;3.374499082565308E-002;3.839373239316046E-004;4.919250961393118E-003;
2.402666666666667E+009;1.620987653732300E-001;3.185039386153221E-002;5.433591431938112E-004;4.981468431651592E-003;
2.402833333333334E+009;1.626494973897934E-001;3.003792650997639E-002;8.034343481995165E-004;4.937648773193359E-003;
2.403000000000000E+009;1.633670777082443E-001;2.845874615013599E-002;1.011315267533064E-003;4.974651616066694E-003;
2.403166666666667E+009;1.642455011606216E-001;2.674177847802639E-002;1.159808831289411E-003;5.038960836827755E-003;
2.403333333333334E+009;1.653306782245636E-001;2.552587538957596E-002;1.081788679584861E-003;4.881764296442270E-003;
2.403500000000000E+009;1.660700291395187E-001;2.381930872797966E-002;1.357067492790520E-003;4.809319041669369E-003;
2.403666666666667E+009;1.669666767120361E-001;2.226238884031773E-002;1.506583299487829E-003;4.756231792271137E-003;
2.403833333333334E+009;1.680529415607452E-001;2.107551135122776E-002;1.674869097769260E-003;4.709798377007246E-003;
2.404000000000000E+009;1.688431501388550E-001;1.989683136343956E-002;1.748886308632791E-003;4.590488038957119E-003;
2.404166666666667E+009;1.698026061058044E-001;1.842600293457508E-002;2.072525443509221E-003;4.537508822977543E-003;
2.404333333333334E+009;1.709858328104019E-001;1.753786951303482E-002;2.080574398860335E-003;4.504743963479996E-003;
2.404500000000000E+009;1.719551831483841E-001;1.647474244236946E-002;2.450190950185061E-003;4.372004419565201E-003;
2.404666666666667E+009;1.729190945625305E-001;1.562509313225746E-002;2.560170833021402E-003;4.248476121574640E-003;
2.404833333333334E+009;1.737687289714813E-001;1.458350196480751E-002;2.616316312924027E-003;4.261107183992863E-003;
2.405000000000000E+009;1.747543811798096E-001;1.403550151735544E-002;2.869518240913749E-003;4.066678695380688E-003;
2.405166666666667E+009;1.755611300468445E-001;1.331752445548773E-002;3.090435871854425E-003;4.050413612276316E-003;
2.405333333333334E+009;1.764957010746002E-001;1.245962828397751E-002;3.170671407133341E-003;3.875843249261379E-003;
2.405500000000000E+009;1.771783977746964E-001;1.219379995018244E-002;3.296119626611471E-003;3.734045894816518E-003;
2.405666666666667E+009;1.779136508703232E-001;1.164666190743446E-002;3.471544012427330E-003;3.535662777721882E-003;
2.405833333333334E+009;1.784933656454086E-001;1.111707836389542E-002;3.625886514782906E-003;3.446085145696998E-003;
2.406000000000000E+009;1.791210174560547E-001;1.058867946267128E-002;3.736600978299975E-003;3.381487447768450E-003;
2.406166666666667E+009;1.794933974742889E-001;1.040730625391007E-002;3.905320772901177E-003;3.271431894972920E-003;
2.406333333333334E+009;1.801562160253525E-001;1.001053024083376E-002;3.931765910238028E-003;3.144789021462202E-003;
2.406500000000000E+009;1.805060654878616E-001;9.620519354939461E-003;4.046114161610603E-003;3.073033178225160E-003;
2.406666666666667E+009;1.805732846260071E-001;9.370892308652401E-003;4.188069142401218E-003;2.692910842597485E-003;
2.406833333333334E+009;1.809168905019760E-001;9.094618260860443E-003;4.222992341965437E-003;2.552988473325968E-003;
2.407000000000000E+009;1.811328977346420E-001;8.766337297856808E-003;4.406433086842299E-003;2.635983750224114E-003;
2.407166666666667E+009;1.811722517013550E-001;8.479957468807697E-003;4.370391368865967E-003;2.349393675103784E-003;
2.407333333333334E+009;1.809694319963455E-001;7.821317762136459E-003;4.475456196814776E-003;2.170398365706205E-003;
2.407500000000000E+009;1.809579730033875E-001;7.624035235494375E-003;4.588888026773930E-003;1.865347381681204E-003;
2.407666666666667E+009;1.807408034801483E-001;7.212606258690357E-003;4.750311374664307E-003;1.733245444484055E-003;
2.407833333333334E+009;1.802866607904434E-001;6.644551642239094E-003;4.776724148541689E-003;1.477178186178207E-003;
2.408000000000000E+009;1.800090521574020E-001;5.966140888631344E-003;4.765053745359182E-003;1.358692068606615E-003;
2.408166666666667E+009;1.797222644090653E-001;5.494903307408094E-003;4.729151725769043E-003;1.048930454999209E-003;
2.408333333333334E+009;1.793758720159531E-001;4.691885784268379E-003;4.738481715321541E-003;1.000117044895887E-003;
2.408500000000000E+009;1.786391139030457E-001;4.091862123459578E-003;4.774763714522123E-003;7.256718818098307E-004;
2.408666666666667E+009;1.781439483165741E-001;3.186617279425263E-003;4.732480738312006E-003;4.809028469026089E-004;
2.408833333333334E+009;1.773604303598404E-001;2.208160003647208E-003;4.810844082385302E-003;4.052440344821662E-004;
2.409000000000000E+009;1.766972541809082E-001;1.292309607379139E-003;4.673517309129238E-003;1.742738822940737E-004;
2.409166666666667E+009;1.761912107467651E-001;1.154077035607770E-004;4.708066117018461E-003;8.453464488411555E-007;
2.409333333333334E+009;1.753689944744110E-001;-1.035432913340628E-003;4.663743544369936E-003;-2.649306843522936E-004;
2.409500000000000E+009;1.747953295707703E-001;-2.291709417477250E-003;4.611239302903414E-003;-3.987023956142366E-004;
2.409666666666667E+009;1.737097054719925E-001;-3.565890016034246E-003;4.662269260734320E-003;-5.466523580253124E-004;
2.409833333333334E+009;1.731903105974197E-001;-4.937522113323212E-003;4.477105569094420E-003;-6.885593174956739E-004;
2.410000000000000E+009;1.725952923297882E-001;-6.245385855436325E-003;4.420224577188492E-003;-7.363068289123476E-004;
2.410166666666667E+009;1.719501167535782E-001;-7.855648174881935E-003;4.297677893191576E-003;-9.716717177070677E-004;
2.410333333333334E+009;1.712308675050736E-001;-9.403767064213753E-003;4.405852407217026E-003;-1.168070593848825E-003;
2.410500000000000E+009;1.708178520202637E-001;-1.115902792662382E-002;4.111699294298887E-003;-1.289418316446245E-003;
2.410666666666667E+009;1.700019836425781E-001;-1.293470896780491E-002;4.183261189609766E-003;-1.404255046509206E-003;
2.410833333333334E+009;1.696072816848755E-001;-1.456074602901936E-002;4.023995250463486E-003;-1.499083475209773E-003;
2.411000000000000E+009;1.693293452262878E-001;-1.649925112724304E-002;4.113665781915188E-003;-1.683520735241473E-003;
2.411166666666667E+009;1.688204556703568E-001;-1.842823438346386E-002;3.901246003806591E-003;-1.782030216418207E-003;
2.411333333333334E+009;1.685182750225067E-001;-2.020890079438686E-002;3.814321942627430E-003;-1.827638945542276E-003;
2.411500000000000E+009;1.682907491922379E-001;-2.226817421615124E-002;3.684451337903738E-003;-2.204213058575988E-003;
2.411666666666667E+009;1.683183312416077E-001;-2.419032715260983E-002;3.598020179197192E-003;-2.186363330110908E-003;
2.411833333333334E+009;1.680085510015488E-001;-2.590663544833660E-002;3.457906888797879E-003;-2.245364477857947E-003;
2.412000000000000E+009;1.680758893489838E-001;-2.804004773497582E-002;3.306415630504489E-003;-2.416147617623210E-003;
2.412166666666667E+009;1.680803298950195E-001;-2.998348325490952E-002;3.193236188963056E-003;-2.482785610482097E-003;
2.412333333333334E+009;1.683525294065476E-001;-3.179132193326950E-002;3.177645616233349E-003;-2.698453376069665E-003;
2.412500000000000E+009;1.683661937713623E-001;-3.383489698171616E-002;2.925605280324817E-003;-2.780278911814094E-003;
2.412666666666667E+009;1.686300635337830E-001;-3.589327633380890E-002;2.960070734843612E-003;-2.956192009150982E-003;
2.412833333333334E+009;1.690068095922470E-001;-3.776355832815170E-002;2.734544686973095E-003;-2.805460011586547E-003;
2.413000000000000E+009;1.693129986524582E-001;-3.945295885205269E-002;2.491255756467581E-003;-2.966033993288875E-003;
2.413166666666667E+009;1.697735041379929E-001;-4.119346663355827E-002;2.555191749706864E-003;-3.066342324018478E-003;
2.413333333333334E+009;1.698623299598694E-001;-4.298457503318787E-002;2.312301192432642E-003;-3.132476704195142E-003;
2.413500000000000E+009;1.706095933914185E-001;-4.452128708362579E-002;2.176088979467750E-003;-3.206421621143818E-003;
2.413666666666667E+009;1.711582094430924E-001;-4.626087471842766E-002;1.979215303435922E-003;-3.170734969899058E-003;
2.413833333333334E+009;1.715470701456070E-001;-4.774476960301399E-002;1.729894662275910E-003;-3.201145213097334E-003;
2.414000000000000E+009;1.720112264156342E-001;-4.924003034830093E-002;1.686328556388617E-003;-3.277255455031991E-003;
2.414166666666667E+009;1.726433336734772E-001;-5.045107379555702E-002;1.463301712647080E-003;-3.173893317580223E-003;
2.414333333333334E+009;1.731788516044617E-001;-5.173076689243317E-002;1.259475015103817E-003;-3.298572264611721E-003;
2.414500000000000E+009;1.740130335092545E-001;-5.279609560966492E-002;1.065321732312441E-003;-3.366956254467368E-003;
2.414666666666667E+009;1.742993593215942E-001;-5.386519432067871E-002;1.037509180605412E-003;-3.311017295345664E-003;
2.414833333333334E+009;1.747943758964539E-001;-5.493507161736488E-002;9.157524327747524E-004;-3.243007929995656E-003;
2.415000000000000E+009;1.752092242240906E-001;-5.587250366806984E-002;8.234039414674044E-004;-3.213863819837570E-003;
2.415166666666667E+009;1.756884902715683E-001;-5.663639679551125E-002;5.809008143842220E-004;-3.236292861402035E-003;
2.415333333333334E+009;1.761145591735840E-001;-5.748621746897697E-002;5.460076499730349E-004;-3.048348939046264E-003;
2.415500000000000E+009;1.764927208423615E-001;-5.798213556408882E-002;3.662042145151645E-004;-3.224001266062260E-003;
2.415666666666667E+009;1.767496913671494E-001;-5.859537422657013E-002;2.066905435640365E-004;-2.905472414568067E-003;
2.415833333333334E+009;1.771253794431686E-001;-5.913837999105454E-002;3.627044134191237E-005;-2.958553843200207E-003;
2.416000000000000E+009;1.771304905414581E-001;-5.959897115826607E-002;8.231082756537944E-005;-2.828188939020038E-003;
2.416166666666667E+009;1.773927211761475E-001;-5.989180132746697E-002;-9.876189869828522E-005;-2.850609365850687E-003;
2.416333333333334E+009;1.773761212825775E-001;-6.032838672399521E-002;-1.096031701308675E-004;-2.830482553690672E-003;
2.416500000000000E+009;1.773288100957871E-001;-6.063682213425636E-002;-3.663997340481728E-004;-2.808459801599383E-003;
2.416666666666667E+009;1.771676689386368E-001;-6.092608720064163E-002;-3.112120029982179E-004;-2.565416041761637E-003;
2.416833333333334E+009;1.769503951072693E-001;-6.121050566434860E-002;-3.432094817981124E-004;-2.548377029597759E-003;
2.417000000000000E+009;1.764972507953644E-001;-6.146307289600372E-002;-5.179637228138745E-004;-2.552831079810858E-003;
2.417166666666667E+009;1.761021912097931E-001;-6.142962351441383E-002;-5.966848693788052E-004;-2.565943170338869E-003;
2.417333333333334E+009;1.756370663642883E-001;-6.178388744592667E-002;-4.720322031062096E-004;-2.427815459668636E-003;
2.417500000000000E+009;1.750592589378357E-001;-6.207119673490524E-002;-5.295351147651672E-004;-2.243120688945055E-003;
2.417666666666667E+009;1.744830310344696E-001;-6.218088418245316E-002;-5.963477888144553E-004;-2.251035533845425E-003;
2.417833333333334E+009;1.737611591815949E-001;-6.239933520555496E-002;-5.580715951509774E-004;-2.208492718636990E-003;
2.418000000000000E+009;1.729479879140854E-001;-6.284444779157639E-002;-6.309500895440579E-004;-2.241063164547086E-003;
2.418166666666667E+009;1.720028221607208E-001;-6.288015097379684E-002;-8.847482386045158E-004;-2.249926095828414E-003;
2.418333333333334E+009;1.714730709791184E-001;-6.342170387506485E-002;-7.682089344598353E-004;-1.982651650905609E-003;
2.418500000000000E+009;1.701018959283829E-001;-6.382650136947632E-002;-6.910617230460048E-004;-2.218498382717371E-003;
2.418666666666667E+009;1.691878736019135E-001;-6.431345641613007E-002;-7.214422221295536E-004;-2.052827039733529E-003;
2.418833333333334E+009;1.678745001554489E-001;-6.481307744979858E-002;-9.232244919985533E-004;-1.964889001101255E-003;
2.419000000000000E+009;1.667028218507767E-001;-6.536134332418442E-002;-9.461927111260593E-004;-1.988638425245881E-003;
2.419166666666667E+009;1.657693088054657E-001;-6.584072113037109E-002;-9.061962482519448E-004;-1.923239673487842E-003;
2.419333333333334E+009;1.643567830324173E-001;-6.646720319986343E-002;-8.889876771718264E-004;-1.915938104502857E-003;
2.419500000000000E+009;1.632341891527176E-001;-6.727102398872376E-002;-1.014979206956923E-003;-1.776331220753491E-003;
2.419666666666667E+009;1.620690971612930E-001;-6.832337379455566E-002;-1.021233387291431E-003;-1.839140546508133E-003;
2.419833333333334E+009;1.607858985662460E-001;-6.906615197658539E-002;-9.771772893145680E-004;-1.734967459924519E-003;
2.420000000000000E+009;1.597902029752731E-001;-7.020816206932068E-002;-9.853879455476999E-004;-1.810883171856403E-003;
2.420166666666667E+009;1.586328148841858E-001;-7.120659202337265E-002;-9.607514366507530E-004;-1.797517528757453E-003;
2.420333333333334E+009;1.575774848461151E-001;-7.243948429822922E-002;-1.178765553049743E-003;-1.790556008927524E-003;
2.420500000000000E+009;1.565084606409073E-001;-7.344413548707962E-002;-1.211436698213220E-003;-1.595345442183316E-003;
2.420666666666667E+009;1.555842161178589E-001;-7.465429604053497E-002;-1.182194682769477E-003;-1.660957466810942E-003;
2.420833333333334E+009;1.547253429889679E-001;-7.623973488807678E-002;-1.334704342298210E-003;-1.638581161387265E-003;
2.421000000000000E+009;1.537118852138519E-001;-7.760187983512878E-002;-1.089989324100316E-003;-1.413704943843186E-003;
2.421166666666667E+009;1.527967900037766E-001;-7.900846749544144E-002;-1.259658136405051E-003;-1.386929652653635E-003;
2.421333333333334E+009;1.524081975221634E-001;-8.072507381439209E-002;-1.415048260241747E-003;-1.446886453777552E-003;
2.421500000000000E+009;1.516252905130386E-001;-8.215231448411942E-002;-1.420121989212930E-003;-1.328547368757427E-003;
2.421666666666667E+009;1.510036289691925E-001;-8.371775597333908E-002;-1.429334748536348E-003;-1.213451265357435E-003;
2.421833333333334E+009;1.506725698709488E-001;-8.558232337236404E-002;-1.568052219226956E-003;-1.235551084391773E-003;
2.422000000000000E+009;1.501167267560959E-001;-8.719632029533386E-002;-1.581761869601905E-003;-1.105799223296344E-003;
2.422166666666667E+009;1.498660445213318E-001;-8.903074264526367E-002;-1.563918543979526E-003;-1.059659291058779E-003;
2.422333333333334E+009;1.496715843677521E-001;-9.046790003776550E-002;-1.532211899757385E-003;-1.027835183776915E-003;
2.422500000000000E+009;1.494900733232498E-001;-9.222188591957092E-002;-1.475333585403860E-003;-1.013160450384021E-003;
2.422666666666667E+009;1.494840830564499E-001;-9.408175200223923E-002;-1.610201084986329E-003;-7.533176103606820E-004;
2.422833333333334E+009;1.494695544242859E-001;-9.580644965171814E-002;-1.592152519151568E-003;-7.986797718331218E-004;
2.423000000000000E+009;1.497244238853455E-001;-9.729968011379242E-002;-1.482694293372333E-003;-7.512020529247820E-004;
2.423166666666667E+009;1.497950851917267E-001;-9.905843436717987E-002;-1.669492805376649E-003;-5.572533700615168E-004;
2.423333333333334E+009;1.500841975212097E-001;-1.005664169788361E-001;-1.524977735243738E-003;-5.285067600198090E-004;
2.423500000000000E+009;1.503492891788483E-001;-1.022116392850876E-001;-1.432490418665111E-003;-2.554812235757709E-004;
2.423666666666667E+009;1.505199968814850E-001;-1.038859859108925E-001;-1.542674726806581E-003;-4.312178061809391E-004;
2.423833333333334E+009;1.511364430189133E-001;-1.053079366683960E-001;-1.291254186071456E-003;-1.786712091416121E-004;
2.424000000000000E+009;1.512250900268555E-001;-1.065097525715828E-001;-1.364581519737840E-003;-2.553397789597511E-004;
2.424166666666667E+009;1.518415212631226E-001;-1.080115884542465E-001;-1.335135195404291E-003;-2.298792533110827E-004;
2.424333333333334E+009;1.523642838001251E-001;-1.091717705130577E-001;-1.315977890044451E-003;-1.395815052092075E-004;
2.424500000000000E+009;1.528442800045013E-001;-1.105489134788513E-001;-1.198433456011117E-003;-1.237487158505246E-004;
2.424666666666667E+009;1.532799899578095E-001;-1.114853844046593E-001;-1.266358420252800E-003;-4.734730100608431E-005;
2.424833333333334E+009;1.536246240139008E-001;-1.126427948474884E-001;-1.161103253252804E-003;1.972504687728360E-004;
2.425000000000000E+009;1.542314738035202E-001;-1.135318353772163E-001;-1.001153956167400E-003;1.740665029501542E-004;
2.425166666666667E+009;1.544555574655533E-001;-1.144134849309921E-001;-1.014484325423837E-003;6.599797052331269E-005;
2.425333333333334E+009;1.549699008464813E-001;-1.152478754520416E-001;-1.016478054225445E-003;1.295459951506928E-004;
2.425500000000000E+009;1.553440093994141E-001;-1.160850822925568E-001;-9.316640207543969E-004;1.381091278744862E-004;
2.425666666666667E+009;1.555554866790772E-001;-1.165166124701500E-001;-8.092899224720895E-004;-1.147592956840526E-005;
2.425833333333334E+009;1.558554768562317E-001;-1.171919777989388E-001;-1.005513826385140E-003;2.466106088832021E-004;
2.426000000000000E+009;1.560379117727280E-001;-1.177913546562195E-001;-8.169948123395443E-004;8.913096826290712E-005;
2.426166666666667E+009;1.563845872879028E-001;-1.181434616446495E-001;-8.029279997572303E-004;1.386546064168215E-004;
2.426333333333334E+009;1.563166081905365E-001;-1.185405999422073E-001;-6.984468782320619E-004;5.597295603365637E-005;
2.426500000000000E+009;1.563704907894135E-001;-1.187611818313599E-001;-6.605948437936604E-004;1.407034724252299E-004;
2.426666666666667E+009;1.565076410770416E-001;-1.189687028527260E-001;-5.059914547018707E-004;1.178445527330041E-004;
2.426833333333334E+009;1.561685204505920E-001;-1.190713569521904E-001;-6.004129536449909E-004;6.216487236088142E-005;
2.427000000000000E+009;1.559388041496277E-001;-1.194598525762558E-001;-5.456350045278668E-004;-1.043293159455061E-004;
2.427166666666667E+009;1.555178910493851E-001;-1.194438040256500E-001;-5.310997366905212E-004;1.339478476438671E-004;
2.427333333333334E+009;1.550046801567078E-001;-1.195079535245895E-001;-5.001971148885787E-004;-9.446046897210181E-005;
2.427500000000000E+009;1.546611487865448E-001;-1.195835545659065E-001;-5.435409839265049E-004;-1.679577144386713E-005;
2.427666666666667E+009;1.539456695318222E-001;-1.197990104556084E-001;-4.258826957084239E-004;2.984281309181824E-005;
