# Version 1.00
#
freq[Hz];re:Trc1_S11;im:Trc1_S11;re:Trc2_S21;im:Trc2_S21;
2.400000000000000E+009;1.552417278289795E-001;1.066119074821472E-001;3.298694267868996E-003;-3.567679086700082E-003;
2.400166666666667E+009;1.549390405416489E-001;1.043288856744766E-001;3.166938200592995E-003;-3.618721617385745E-003;
2.400333333333334E+009;1.551011502742767E-001;1.019003763794899E-001;3.147168084979057E-003;-3.834841772913933E-003;
2.400500000000000E+009;1.551219373941422E-001;9.922426193952560E-002;3.042690455913544E-003;-3.841227618977428E-003;
2.400666666666667E+009;1.552271842956543E-001;9.682253003120422E-002;2.849255921319127E-003;-4.049615003168583E-003;
2.400833333333334E+009;1.551299095153809E-001;9.394280612468720E-002;2.562581794336438E-003;-4.056810867041349E-003;
2.401000000000000E+009;1.554380506277084E-001;9.098699688911438E-002;2.529313787817955E-003;-4.160477314144373E-003;
2.401166666666667E+009;1.554918438196182E-001;8.839035779237747E-002;2.542820060625672E-003;-4.402852617204189E-003;
2.401333333333334E+009;1.559841632843018E-001;8.549915254116058E-002;2.389319241046906E-003;-4.244200885295868E-003;
2.401500000000000E+009;1.564918905496597E-001;8.265119045972824E-002;2.154714660719037E-003;-4.403793718665838E-003;
2.401666666666667E+009;1.568290740251541E-001;7.991826534271240E-002;2.153094159439206E-003;-4.483744036406279E-003;
2.401833333333334E+009;1.572666168212891E-001;7.714281231164932E-002;1.992304343730211E-003;-4.796833731234074E-003;
2.402000000000000E+009;1.581571698188782E-001;7.433029264211655E-002;1.678357832133770E-003;-4.826878663152456E-003;
2.402166666666667E+009;1.589716225862503E-001;7.194963097572327E-002;1.637638430111110E-003;-4.932213108986616E-003;
2.402333333333334E+009;1.600243598222733E-001;6.942035257816315E-002;1.505707856267691E-003;-5.070937797427177E-003;
2.402500000000000E+009;1.612329483032227E-001;6.682071834802628E-002;1.182134728878737E-003;-5.118619650602341E-003;
2.402666666666667E+009;1.622258424758911E-001;6.445388495922089E-002;9.470445220358670E-004;-5.000464618206024E-003;
2.402833333333334E+009;1.637530326843262E-001;6.189065799117088E-002;9.281706879846752E-004;-5.325083155184984E-003;
2.403000000000000E+009;1.651875823736191E-001;5.963921546936035E-002;6.442199228331447E-004;-5.247060209512711E-003;
2.403166666666667E+009;1.669629365205765E-001;5.759760364890099E-002;4.251511418260634E-004;-5.247444380074740E-003;
2.403333333333334E+009;1.681291610002518E-001;5.539557337760925E-002;2.895106154028326E-004;-5.438051186501980E-003;
2.403500000000000E+009;1.700914949178696E-001;5.356627330183983E-002;-1.591949549037963E-004;-5.383852869272232E-003;
2.403666666666667E+009;1.716455668210983E-001;5.158253014087677E-002;-2.612108073662967E-004;-5.343858152627945E-003;
2.403833333333334E+009;1.729932129383087E-001;4.964856803417206E-002;-6.405619205906987E-004;-5.156436003744602E-003;
2.404000000000000E+009;1.746936291456223E-001;4.774709418416023E-002;-6.601039785891771E-004;-5.110862664878368E-003;
2.404166666666667E+009;1.766921132802963E-001;4.640129581093788E-002;-9.994563879445195E-004;-5.145449656993151E-003;
2.404333333333334E+009;1.781695783138275E-001;4.489006847143173E-002;-1.077057793736458E-003;-5.216213408857584E-003;
2.404500000000000E+009;1.798489093780518E-001;4.345368966460228E-002;-1.325871213339269E-003;-5.078097339719534E-003;
2.404666666666667E+009;1.814011186361313E-001;4.256492853164673E-002;-1.495711272582412E-003;-4.974956624209881E-003;
2.404833333333334E+009;1.829690188169479E-001;4.151420667767525E-002;-1.480026403442025E-003;-4.942403640598059E-003;
2.405000000000000E+009;1.842236816883087E-001;4.079780727624893E-002;-1.778714591637254E-003;-4.995481576770544E-003;
2.405166666666667E+009;1.856731176376343E-001;4.013980552554131E-002;-1.890470623038709E-003;-4.930481780320406E-003;
2.405333333333334E+009;1.871015876531601E-001;3.962236270308495E-002;-2.131513785570860E-003;-4.793502390384674E-003;
2.405500000000000E+009;1.886472404003143E-001;3.899591043591499E-002;-2.396037569269538E-003;-4.593308083713055E-003;
2.405666666666667E+009;1.896480619907379E-001;3.871987387537956E-002;-2.671089489012957E-003;-4.649349953979254E-003;
2.405833333333334E+009;1.908511519432068E-001;3.831347823143005E-002;-2.848915057256818E-003;-4.447702318429947E-003;
2.406000000000000E+009;1.918661147356033E-001;3.822841495275497E-002;-2.908756723627448E-003;-4.272955469787121E-003;
2.406166666666667E+009;1.929064244031906E-001;3.804964944720268E-002;-3.241101745516062E-003;-4.041043575853109E-003;
2.406333333333334E+009;1.937672495841980E-001;3.786468133330345E-002;-3.202850930392742E-003;-3.627907717600465E-003;
2.406500000000000E+009;1.939473301172257E-001;3.816200792789459E-002;-2.099860692396760E-003;-4.183116368949413E-003;
2.406666666666667E+009;1.948496550321579E-001;3.760506585240364E-002;-2.709371037781239E-003;-2.763058291748166E-003;
2.406833333333334E+009;1.954341530799866E-001;3.813851624727249E-002;-3.223789157345891E-003;-3.930250182747841E-003;
2.407000000000000E+009;1.959692537784576E-001;3.846814855933189E-002;-3.943328280001879E-003;-3.774396842345595E-003;
2.407166666666667E+009;1.961527466773987E-001;3.791218250989914E-002;-3.460662905126810E-003;-3.108569886535406E-003;
2.407333333333334E+009;1.961013525724411E-001;3.803456202149391E-002;-3.607396269217134E-003;-2.820646623149514E-003;
2.407500000000000E+009;1.960774660110474E-001;3.798662126064301E-002;-3.513525240123272E-003;-2.538329456001520E-003;
2.407666666666667E+009;1.963555812835693E-001;3.811999782919884E-002;-4.155015572905541E-003;-2.786826575174928E-003;
2.407833333333334E+009;1.956850886344910E-001;3.779213875532150E-002;-3.619334893301129E-003;-2.374292118474841E-003;
2.408000000000000E+009;1.954812705516815E-001;3.755697235465050E-002;-3.773922333493829E-003;-2.199006499722600E-003;
2.408166666666667E+009;1.949379295110703E-001;3.717130050063133E-002;-3.827177919447422E-003;-1.896840403787792E-003;
2.408333333333334E+009;1.945259422063828E-001;3.671974688768387E-002;-3.821489633992314E-003;-1.678455038927496E-003;
2.408500000000000E+009;1.937348991632462E-001;3.624857217073441E-002;-3.771478077396751E-003;-1.700012595392764E-003;
2.408666666666667E+009;1.931110769510269E-001;3.563995659351349E-002;-3.790316637605429E-003;-1.640593516640365E-003;
2.408833333333334E+009;1.925234347581863E-001;3.495679423213005E-002;-3.726159920915961E-003;-1.412767334841192E-003;
2.409000000000000E+009;1.916048377752304E-001;3.396221250295639E-002;-3.612080588936806E-003;-1.280692522414029E-003;
2.409166666666667E+009;1.906583905220032E-001;3.287553042173386E-002;-3.486460307613015E-003;-1.119432621635497E-003;
2.409333333333334E+009;1.896678656339645E-001;3.182519972324371E-002;-3.381967544555664E-003;-1.139809610322118E-003;
2.409500000000000E+009;1.885662972927094E-001;3.049278073012829E-002;-3.420404857024550E-003;-1.000216463580728E-003;
2.409666666666667E+009;1.875422000885010E-001;2.902205847203732E-002;-3.201821353286505E-003;-8.762194192968309E-004;
2.409833333333334E+009;1.864658892154694E-001;2.764360420405865E-002;-3.202763618901372E-003;-9.903350146487355E-004;
2.410000000000000E+009;1.856164187192917E-001;2.589268609881401E-002;-3.154717851430178E-003;-8.934262441471219E-004;
2.410166666666667E+009;1.845315992832184E-001;2.405471540987492E-002;-3.087009536102414E-003;-7.538075442425907E-004;
2.410333333333334E+009;1.836082339286804E-001;2.226504124701023E-002;-3.235612297430635E-003;-8.264687494374812E-004;
2.410500000000000E+009;1.826769709587097E-001;2.035632915794849E-002;-3.053320106118918E-003;-9.187519317492843E-004;
2.410666666666667E+009;1.818198412656784E-001;1.809101738035679E-002;-3.114886581897736E-003;-7.614716887474060E-004;
2.410833333333334E+009;1.810768991708756E-001;1.599558070302010E-002;-3.062824951484799E-003;-9.252516902051866E-004;
2.411000000000000E+009;1.803814470767975E-001;1.383636053651571E-002;-2.934539923444390E-003;-7.150532910600305E-004;
2.411166666666667E+009;1.798272430896759E-001;1.161896903067827E-002;-3.021116368472576E-003;-7.006273954175413E-004;
2.411333333333334E+009;1.793609261512756E-001;9.090770035982132E-003;-2.944941399618983E-003;-7.579847006127238E-004;
2.411500000000000E+009;1.789391040802002E-001;6.684713065624237E-003;-3.008052008226514E-003;-6.780594121664763E-004;
2.411666666666667E+009;1.786783486604691E-001;4.478203598409891E-003;-2.922775922343135E-003;-7.621978875249624E-004;
2.411833333333334E+009;1.782476752996445E-001;2.146345097571611E-003;-3.043841803446412E-003;-7.548658177256584E-004;
2.412000000000000E+009;1.784960329532623E-001;-3.009154461324215E-004;-3.066470380872488E-003;-8.302456117235124E-004;
2.412166666666667E+009;1.786157339811325E-001;-2.876133425161243E-003;-3.060001647099853E-003;-8.913453202694655E-004;
2.412333333333334E+009;1.788474619388580E-001;-5.376763176172972E-003;-3.135137958452106E-003;-8.595053805038333E-004;
2.412500000000000E+009;1.792946606874466E-001;-7.545582950115204E-003;-3.180944593623281E-003;-8.507423917762935E-004;
2.412666666666667E+009;1.798454374074936E-001;-1.012923009693623E-002;-3.370529972016811E-003;-7.870943518355489E-004;
2.412833333333334E+009;1.803745627403259E-001;-1.253233477473259E-002;-3.523405408486724E-003;-8.563526207581163E-004;
2.413000000000000E+009;1.812472641468048E-001;-1.478119660168886E-002;-3.557524178177118E-003;-7.920152274891734E-004;
2.413166666666667E+009;1.818535476922989E-001;-1.698939129710197E-002;-3.558702534064651E-003;-7.170822937041521E-004;
2.413333333333334E+009;1.830463260412216E-001;-1.928178034722805E-002;-3.950169775635004E-003;-7.757349521853030E-004;
2.413500000000000E+009;1.838152855634689E-001;-2.154252678155899E-002;-3.909103572368622E-003;-4.488800477702171E-004;
2.413666666666667E+009;1.850060820579529E-001;-2.365873754024506E-002;-4.208114929497242E-003;-3.029999497812241E-004;
2.413833333333334E+009;1.860049366950989E-001;-2.549832686781883E-002;-4.173071589320898E-003;-1.353815459879115E-004;
2.414000000000000E+009;1.871533244848251E-001;-2.745994552969933E-002;-4.188625141978264E-003;-7.845531945349649E-005;
2.414166666666667E+009;1.882240623235703E-001;-2.911318838596344E-002;-4.504216834902763E-003;2.189561200793833E-004;
2.414333333333334E+009;1.893472969532013E-001;-3.104708716273308E-002;-4.286237526685000E-003;2.632164687383920E-004;
2.414500000000000E+009;1.906559765338898E-001;-3.248937800526619E-002;-4.434934817254543E-003;5.763130029663444E-004;
2.414666666666667E+009;1.917277574539185E-001;-3.385885059833527E-002;-4.529069643467665E-003;7.605846039950848E-004;
2.414833333333334E+009;1.928999125957489E-001;-3.526456654071808E-002;-4.347929265350103E-003;8.261025068350136E-004;
2.415000000000000E+009;1.939481943845749E-001;-3.661295771598816E-002;-4.349472001194954E-003;9.020852739922702E-004;
2.415166666666667E+009;1.951506733894348E-001;-3.752260282635689E-002;-4.333574324846268E-003;1.044679316692054E-003;
2.415333333333334E+009;1.962560862302780E-001;-3.847547620534897E-002;-4.418880213052034E-003;1.116745872423053E-003;
2.415500000000000E+009;1.974135488271713E-001;-3.920283913612366E-002;-4.445980302989483E-003;1.248579355888069E-003;
2.415666666666667E+009;1.983527988195419E-001;-4.005759209394455E-002;-4.421378020197153E-003;1.285731210373342E-003;
2.415833333333334E+009;1.990931332111359E-001;-4.059136286377907E-002;-4.460688680410385E-003;1.617339905351400E-003;
2.416000000000000E+009;1.998205333948135E-001;-4.119418188929558E-002;-4.408888518810272E-003;1.748555339872837E-003;
2.416166666666667E+009;2.006412744522095E-001;-4.158973321318626E-002;-4.459965508431196E-003;1.903066411614418E-003;
2.416333333333334E+009;2.012289464473724E-001;-4.186769947409630E-002;-4.518273752182722E-003;2.104408806189895E-003;
2.416500000000000E+009;2.017924636602402E-001;-4.209445044398308E-002;-4.541616886854172E-003;2.330572577193379E-003;
2.416666666666667E+009;2.020062506198883E-001;-4.239657893776894E-002;-4.382449667900801E-003;2.460785908624530E-003;
2.416833333333334E+009;2.021774202585220E-001;-4.248509556055069E-002;-4.283753223717213E-003;2.641303231939673E-003;
2.417000000000000E+009;2.022749185562134E-001;-4.262752830982208E-002;-4.323611967265606E-003;2.971409121528268E-003;
2.417166666666667E+009;2.019261121749878E-001;-4.267904907464981E-002;-4.196222405880690E-003;3.113332903012633E-003;
2.417333333333334E+009;2.017574459314346E-001;-4.231365770101547E-002;-3.995352424681187E-003;3.369543235749006E-003;
2.417500000000000E+009;2.015253007411957E-001;-4.246372357010841E-002;-3.871028544381261E-003;3.391440492123365E-003;
2.417666666666667E+009;2.009065449237824E-001;-4.227817803621292E-002;-3.697061911225319E-003;3.658804809674621E-003;
2.417833333333334E+009;2.004343420267105E-001;-4.213783144950867E-002;-3.409220138564706E-003;3.962840419262648E-003;
2.418000000000000E+009;1.998330056667328E-001;-4.185323789715767E-002;-3.505631582811475E-003;4.059613682329655E-003;
2.418166666666667E+009;1.989894062280655E-001;-4.189794510602951E-002;-3.054871922358871E-003;4.089259076863527E-003;
2.418333333333334E+009;1.981134712696075E-001;-4.171577468514442E-002;-2.879910636693239E-003;4.296443425118923E-003;
2.418500000000000E+009;1.972372829914093E-001;-4.187500849366188E-002;-2.777693327516317E-003;4.348561167716980E-003;
2.418666666666667E+009;1.961693912744522E-001;-4.178704693913460E-002;-2.617900492623448E-003;4.401759710162878E-003;
2.418833333333334E+009;1.948604434728622E-001;-4.191920906305313E-002;-2.324457978829742E-003;4.466643556952477E-003;
2.419000000000000E+009;1.936404407024384E-001;-4.216323420405388E-002;-2.216184046119452E-003;4.499353002756834E-003;
2.419166666666667E+009;1.923878043889999E-001;-4.249613359570503E-002;-1.961366971954703E-003;4.484377801418304E-003;
2.419333333333334E+009;1.910322308540344E-001;-4.306648671627045E-002;-1.747739850543439E-003;4.567313939332962E-003;
2.419500000000000E+009;1.896053850650787E-001;-4.352646321058273E-002;-1.521445810794830E-003;4.519375972449780E-003;
2.419666666666667E+009;1.880359351634979E-001;-4.428901895880699E-002;-1.465199398808181E-003;4.464590921998024E-003;
2.419833333333334E+009;1.864931881427765E-001;-4.500886797904968E-002;-1.233023474924266E-003;4.540204536169767E-003;
2.420000000000000E+009;1.849196106195450E-001;-4.581019282341003E-002;-1.208605826832354E-003;4.494289401918650E-003;
2.420166666666667E+009;1.833460927009583E-001;-4.687892645597458E-002;-9.134782012552023E-004;4.577527754008770E-003;
2.420333333333334E+009;1.816164404153824E-001;-4.785595461726189E-002;-8.353480952791870E-004;4.411409143358469E-003;
2.420500000000000E+009;1.801480203866959E-001;-4.932972043752670E-002;-5.671462276950479E-004;4.372921306639910E-003;
2.420666666666667E+009;1.783982068300247E-001;-5.032452940940857E-002;-5.909807514399290E-004;4.386454354971647E-003;
2.420833333333334E+009;1.769528836011887E-001;-5.204423144459724E-002;-4.151196335442364E-004;4.452049266546965E-003;
2.421000000000000E+009;1.756040602922440E-001;-5.356577411293984E-002;-3.441741864662617E-004;4.444145131856203E-003;
2.421166666666667E+009;1.741542667150497E-001;-5.507774651050568E-002;-2.639889135025442E-004;4.241193179041147E-003;
2.421333333333334E+009;1.725580990314484E-001;-5.655635893344879E-002;-1.150592579506338E-004;4.243385046720505E-003;
2.421500000000000E+009;1.713303178548813E-001;-5.869005993008614E-002;-2.567891351645812E-005;4.170444328337908E-003;
2.421666666666667E+009;1.700742989778519E-001;-6.043448299169540E-002;-4.383701161714271E-005;4.146960563957691E-003;
2.421833333333334E+009;1.692741662263870E-001;-6.229744479060173E-002;1.392467584082624E-005;4.290092736482620E-003;
2.422000000000000E+009;1.679873317480087E-001;-6.420104950666428E-002;1.740027655614540E-004;4.186928272247315E-003;
2.422166666666667E+009;1.671243906021118E-001;-6.616302579641342E-002;2.178484282922000E-004;4.058837890625000E-003;
2.422333333333334E+009;1.661754399538040E-001;-6.820406019687653E-002;2.775980974547565E-004;4.067152272909880E-003;
2.422500000000000E+009;1.654155850410461E-001;-7.025669515132904E-002;4.466418176889420E-004;3.985639661550522E-003;
2.422666666666667E+009;1.647458076477051E-001;-7.215368002653122E-002;5.592812085524201E-004;4.101785831153393E-003;
2.422833333333334E+009;1.643837541341782E-001;-7.414555549621582E-002;5.009662709198892E-004;3.927158191800118E-003;
2.423000000000000E+009;1.637696623802185E-001;-7.623872160911560E-002;6.071217940188944E-004;3.886990481987596E-003;
2.423166666666667E+009;1.634713113307953E-001;-7.811183482408524E-002;6.745839491486549E-004;3.748234594240785E-003;
2.423333333333334E+009;1.632158607244492E-001;-8.015890419483185E-002;6.573034916073084E-004;3.727247472852469E-003;
2.423500000000000E+009;1.631474941968918E-001;-8.201906830072403E-002;9.228262351825833E-004;3.931971732527018E-003;
2.423666666666667E+009;1.631601154804230E-001;-8.379677683115006E-002;8.019016240723431E-004;3.829033114016056E-003;
2.423833333333334E+009;1.631814688444138E-001;-8.555508404970169E-002;1.092285150662065E-003;3.785024397075176E-003;
2.424000000000000E+009;1.632680445909500E-001;-8.731395751237869E-002;9.626056998968124E-004;3.906104480847716E-003;
2.424166666666667E+009;1.633036881685257E-001;-8.892056345939636E-002;1.164356130175293E-003;3.892132081091404E-003;
2.424333333333334E+009;1.635058224201202E-001;-9.041115641593933E-002;1.228243578225374E-003;3.974270075559616E-003;
2.424500000000000E+009;1.639114320278168E-001;-9.215105324983597E-002;1.379199093207717E-003;3.679211949929595E-003;
2.424666666666667E+009;1.639565825462341E-001;-9.344307333230972E-002;1.462780172005296E-003;3.959691151976585E-003;
2.424833333333334E+009;1.645789295434952E-001;-9.466727823019028E-002;1.564637525007129E-003;3.803377272561193E-003;
2.425000000000000E+009;1.649273037910461E-001;-9.590186923742294E-002;1.815016497857869E-003;3.801297163590789E-003;
2.425166666666667E+009;1.652398407459259E-001;-9.698888659477234E-002;1.722991582937539E-003;3.721684683114290E-003;
2.425333333333334E+009;1.655401289463043E-001;-9.791816025972366E-002;1.827361294999719E-003;3.665027208626270E-003;
2.425500000000000E+009;1.661083251237869E-001;-9.880267083644867E-002;2.005458110943437E-003;3.537795972079039E-003;
2.425666666666667E+009;1.663572192192078E-001;-9.949162602424622E-002;1.994927646592259E-003;3.595690010115504E-003;
2.425833333333334E+009;1.666405051946640E-001;-1.003310903906822E-001;2.121871337294579E-003;3.506666282191873E-003;
2.426000000000000E+009;1.670074313879013E-001;-1.007067188620567E-001;2.148627536371350E-003;3.343873424455524E-003;
2.426166666666667E+009;1.674148589372635E-001;-1.012390628457069E-001;2.321280073374510E-003;3.485162509605289E-003;
2.426333333333334E+009;1.674806475639343E-001;-1.017906516790390E-001;2.217123750597239E-003;3.261793870478869E-003;
2.426500000000000E+009;1.678802967071533E-001;-1.019815951585770E-001;2.588685601949692E-003;3.276531817391515E-003;
2.426666666666667E+009;1.680667400360107E-001;-1.023694053292275E-001;2.431462286040187E-003;3.227742854505777E-003;
2.426833333333334E+009;1.682398319244385E-001;-1.025780811905861E-001;2.687292406335473E-003;3.193373791873455E-003;
2.427000000000000E+009;1.680962741374970E-001;-1.027962937951088E-001;2.741787582635880E-003;3.131886245682836E-003;
2.427166666666667E+009;1.681743711233139E-001;-1.029492318630219E-001;2.850070362910628E-003;3.014022251591086E-003;
2.427333333333334E+009;1.681082099676132E-001;-1.031893715262413E-001;2.870844444260001E-003;3.006959799677134E-003;
2.427500000000000E+009;1.677085310220718E-001;-1.033630743622780E-001;2.963315462693572E-003;2.854695310816169E-003;
2.427666666666667E+009;1.673979312181473E-001;-1.034910082817078E-001;3.082408336922526E-003;2.703940263018012E-003;
