# Version 1.00
#
freq[Hz];re:Trc1_S11;im:Trc1_S11;re:Trc2_S21;im:Trc2_S21;
2.400000000000000E+009;1.572962999343872E-001;6.086254119873047E-002;-2.050390234217048E-003;-1.974026206880808E-003;
2.400166666666667E+009;1.573318690061569E-001;5.906502529978752E-002;-1.963812625035644E-003;-1.792829600162804E-003;
2.400333333333334E+009;1.572310328483582E-001;5.714659020304680E-002;-2.053983043879271E-003;-1.828235574066639E-003;
2.400500000000000E+009;1.574712842702866E-001;5.512621998786926E-002;-2.264160895720124E-003;-1.803138991817832E-003;
2.400666666666667E+009;1.575253903865814E-001;5.316847562789917E-002;-2.266116440296173E-003;-1.723785186186433E-003;
2.400833333333334E+009;1.580622792243958E-001;5.118417367339134E-002;-2.102510770782828E-003;-1.681667286902666E-003;
2.401000000000000E+009;1.580965369939804E-001;4.899098724126816E-002;-2.327885245904326E-003;-1.621626084670425E-003;
2.401166666666667E+009;1.584728956222534E-001;4.713642969727516E-002;-2.382152248173952E-003;-1.465945621021092E-003;
2.401333333333334E+009;1.587050259113312E-001;4.509542882442474E-002;-2.285049529746175E-003;-1.509146532043815E-003;
2.401500000000000E+009;1.594070345163345E-001;4.301887005567551E-002;-2.226827898994088E-003;-1.511413021944463E-003;
2.401666666666667E+009;1.596831232309341E-001;4.103489592671394E-002;-2.234850777313113E-003;-1.417014049366117E-003;
2.401833333333334E+009;1.601956933736801E-001;3.890448436141014E-002;-2.373466501012445E-003;-1.396227744407952E-003;
2.402000000000000E+009;1.606942862272263E-001;3.714453056454659E-002;-2.490285085514188E-003;-1.285821199417114E-003;
2.402166666666667E+009;1.614752709865570E-001;3.530490025877953E-002;-2.350163180381060E-003;-1.427691429853439E-003;
2.402333333333334E+009;1.621761322021484E-001;3.342347964644432E-002;-2.451864769682288E-003;-1.397550455294550E-003;
2.402500000000000E+009;1.630059629678726E-001;3.175535053014755E-002;-2.434343332424760E-003;-1.392105477862060E-003;
2.402666666666667E+009;1.636900603771210E-001;3.018266893923283E-002;-2.336074132472277E-003;-1.257387571968138E-003;
2.402833333333334E+009;1.645495742559433E-001;2.860264107584953E-002;-2.462913980707526E-003;-1.455071964301169E-003;
2.403000000000000E+009;1.655491292476654E-001;2.732852660119534E-002;-2.855296479538083E-003;-1.172849093563855E-003;
2.403166666666667E+009;1.663792729377747E-001;2.577905915677548E-002;-2.523873234167695E-003;-1.127514988183975E-003;
2.403333333333334E+009;1.671566367149353E-001;2.455190382897854E-002;-2.848055213689804E-003;-1.311411731876433E-003;
2.403500000000000E+009;1.682448685169220E-001;2.316766791045666E-002;-2.765238285064697E-003;-1.253275317139924E-003;
2.403666666666667E+009;1.691474318504334E-001;2.198464795947075E-002;-2.950419206172228E-003;-1.110656885430217E-003;
2.403833333333334E+009;1.700941026210785E-001;2.084325626492500E-002;-2.839997876435518E-003;-1.151316100731492E-003;
2.404000000000000E+009;1.709079146385193E-001;1.981495693325996E-002;-3.005244769155979E-003;-1.151714706793428E-003;
2.404166666666667E+009;1.718477010726929E-001;1.875505596399307E-002;-2.976341405883431E-003;-8.832364692352712E-004;
2.404333333333334E+009;1.725966334342957E-001;1.802166737616062E-002;-2.997360890731216E-003;-9.429191704839468E-004;
2.404500000000000E+009;1.735673099756241E-001;1.703666709363461E-002;-3.064767224714160E-003;-7.929635467007756E-004;
2.404666666666667E+009;1.744979172945023E-001;1.638388447463512E-002;-3.249717177823186E-003;-7.446079398505390E-004;
2.404833333333334E+009;1.752096116542816E-001;1.585895381867886E-002;-3.101132810115814E-003;-6.737514049746096E-004;
2.405000000000000E+009;1.759579479694367E-001;1.514371018856764E-002;-3.347838763147593E-003;-6.329366588033736E-004;
2.405166666666667E+009;1.766384243965149E-001;1.472349837422371E-002;-3.481535008177161E-003;-4.359033773653209E-004;
2.405333333333334E+009;1.774739176034927E-001;1.405958924442530E-002;-3.398600732907653E-003;-3.992751881014556E-004;
2.405500000000000E+009;1.779083758592606E-001;1.384330447763205E-002;-3.456303384155035E-003;-5.131815560162067E-004;
2.405666666666667E+009;1.785044074058533E-001;1.332005299627781E-002;-3.562516532838345E-003;-2.820505469571799E-004;
2.405833333333334E+009;1.787012070417404E-001;1.315198279917240E-002;-3.432019148021936E-003;-1.624964934308082E-004;
2.406000000000000E+009;1.791758984327316E-001;1.264944113790989E-002;-3.492460586130619E-003;-3.519673555274494E-005;
2.406166666666667E+009;1.793278604745865E-001;1.248772628605366E-002;-3.637527814134955E-003;8.777155017014593E-005;
2.406333333333334E+009;1.797710806131363E-001;1.211485452950001E-002;-3.611189313232899E-003;1.408236712450162E-004;
2.406500000000000E+009;1.798567920923233E-001;1.183476392179728E-002;-3.745221765711904E-003;4.285533213987947E-004;
2.406666666666667E+009;1.797137111425400E-001;1.149510871618986E-002;-3.574691480025649E-003;3.233514726161957E-004;
2.406833333333334E+009;1.799450963735580E-001;1.111263968050480E-002;-3.612660802900791E-003;5.200776504352689E-004;
2.407000000000000E+009;1.797940284013748E-001;1.074320822954178E-002;-3.599900053814054E-003;6.031790981069207E-004;
2.407166666666667E+009;1.797240674495697E-001;1.048090308904648E-002;-3.671398619189858E-003;6.270419689826667E-004;
2.407333333333334E+009;1.794293224811554E-001;9.866504929959774E-003;-3.673358121886849E-003;7.019220502115786E-004;
2.407500000000000E+009;1.791027486324310E-001;9.378510527312756E-003;-3.707928117364645E-003;9.348650346510112E-004;
2.407666666666667E+009;1.789591610431671E-001;8.973953314125538E-003;-3.531268099322915E-003;9.183266665786505E-004;
2.407833333333334E+009;1.783614754676819E-001;8.178682066500187E-003;-3.532012924551964E-003;1.194360549561679E-003;
2.408000000000000E+009;1.778717339038849E-001;7.409461308270693E-003;-3.415947314351797E-003;1.107584801502526E-003;
2.408166666666667E+009;1.772690564393997E-001;6.649009417742491E-003;-3.455613274127245E-003;1.329431426711381E-003;
2.408333333333334E+009;1.769753247499466E-001;5.670508369803429E-003;-3.394926432520151E-003;1.449448871426284E-003;
2.408500000000000E+009;1.762654185295105E-001;4.876716993749142E-003;-3.321395022794604E-003;1.520152669399977E-003;
2.408666666666667E+009;1.757031828165054E-001;3.606239799410105E-003;-3.178221639245749E-003;1.724833156913519E-003;
2.408833333333334E+009;1.749818027019501E-001;2.585048321634531E-003;-3.319321665912867E-003;1.697507803328335E-003;
2.409000000000000E+009;1.741720438003540E-001;1.454637153074145E-003;-3.254611277952790E-003;1.846288447268307E-003;
2.409166666666667E+009;1.736401468515396E-001;1.795314456103370E-004;-3.148490795865655E-003;1.867326209321618E-003;
2.409333333333334E+009;1.732086837291718E-001;-1.377438544295728E-003;-3.156587481498718E-003;1.834065536968410E-003;
2.409500000000000E+009;1.724296659231186E-001;-2.814284758642316E-003;-3.108447650447488E-003;1.987376948818564E-003;
2.409666666666667E+009;1.717361360788345E-001;-4.295078571885824E-003;-3.127806354314089E-003;2.013299614191055E-003;
2.409833333333334E+009;1.710091382265091E-001;-5.830206442624331E-003;-2.954915398731828E-003;2.222484676167369E-003;
2.410000000000000E+009;1.706655472517014E-001;-7.407960947602987E-003;-3.008165396749973E-003;2.193243475630879E-003;
2.410166666666667E+009;1.701168268918991E-001;-9.088526479899883E-003;-2.921193372458220E-003;2.206893172115088E-003;
2.410333333333334E+009;1.695415526628494E-001;-1.088518742471933E-002;-2.864900045096874E-003;2.332846866920590E-003;
2.410500000000000E+009;1.692378669977188E-001;-1.270781643688679E-002;-2.777445130050182E-003;2.357222372666001E-003;
2.410666666666667E+009;1.686674654483795E-001;-1.466272864490748E-002;-2.702256664633751E-003;2.447929698973894E-003;
2.410833333333334E+009;1.684231162071228E-001;-1.637807302176952E-002;-2.530975732952356E-003;2.521639456972480E-003;
2.411000000000000E+009;1.682019978761673E-001;-1.833530515432358E-002;-2.677336335182190E-003;2.563210437074304E-003;
2.411166666666667E+009;1.680408269166946E-001;-2.025283128023148E-002;-2.382340375334024E-003;2.604604931548238E-003;
2.411333333333334E+009;1.679041981697083E-001;-2.208372950553894E-002;-2.673028502613306E-003;2.525157760828733E-003;
2.411500000000000E+009;1.676959097385407E-001;-2.413818240165710E-002;-2.529935678467155E-003;2.665861044079065E-003;
2.411666666666667E+009;1.680129915475845E-001;-2.609912306070328E-002;-2.440208801999688E-003;2.886495320126414E-003;
2.411833333333334E+009;1.680844873189926E-001;-2.791132591664791E-002;-2.415407449007034E-003;2.933102659881115E-003;
2.412000000000000E+009;1.684377491474152E-001;-2.994037605822086E-002;-2.416869858279824E-003;3.046542871743441E-003;
2.412166666666667E+009;1.685522198677063E-001;-3.182345256209374E-002;-2.372700255364180E-003;3.053461667150259E-003;
2.412333333333334E+009;1.690812408924103E-001;-3.355923667550087E-002;-2.308298368006945E-003;3.164565190672875E-003;
2.412500000000000E+009;1.692809909582138E-001;-3.542102873325348E-002;-2.176658017560840E-003;3.229618771001697E-003;
2.412666666666667E+009;1.697168797254562E-001;-3.722593188285828E-002;-2.172637498006225E-003;3.324322868138552E-003;
2.412833333333334E+009;1.701816171407700E-001;-3.907629102468491E-002;-2.076698699966073E-003;3.246159525588155E-003;
2.413000000000000E+009;1.706888973712921E-001;-4.074667021632195E-002;-2.155713504180312E-003;3.432080848142505E-003;
2.413166666666667E+009;1.711569875478745E-001;-4.228137806057930E-002;-1.926863798871636E-003;3.660445567220449E-003;
2.413333333333334E+009;1.715687811374664E-001;-4.387239366769791E-002;-2.029433380812407E-003;3.647565376013517E-003;
2.413500000000000E+009;1.722757518291473E-001;-4.538196325302124E-002;-1.910787657834590E-003;3.836109302937985E-003;
2.413666666666667E+009;1.729463487863541E-001;-4.683291539549828E-002;-1.845211489126086E-003;3.881626063957810E-003;
2.413833333333334E+009;1.733974069356918E-001;-4.808957874774933E-002;-1.497691613622010E-003;3.802590304985642E-003;
2.414000000000000E+009;1.739318668842316E-001;-4.945371672511101E-002;-1.603273907676339E-003;3.984471317380667E-003;
2.414166666666667E+009;1.746149212121964E-001;-5.050965771079063E-002;-1.374346204102039E-003;4.128787666559219E-003;
2.414333333333334E+009;1.749936342239380E-001;-5.175520852208138E-002;-1.359459594823420E-003;4.223284777253866E-003;
2.414500000000000E+009;1.758095473051071E-001;-5.274425819516182E-002;-1.235678442753851E-003;4.201613366603851E-003;
2.414666666666667E+009;1.762991547584534E-001;-5.350999534130096E-002;-1.177133177407086E-003;4.245394375175238E-003;
2.414833333333334E+009;1.766192018985748E-001;-5.449014902114868E-002;-1.000609481707215E-003;4.459629300981760E-003;
2.415000000000000E+009;1.771177351474762E-001;-5.511815845966339E-002;-6.892950623296201E-004;4.425006918609142E-003;
2.415166666666667E+009;1.773750931024551E-001;-5.573684349656105E-002;-7.106667617335916E-004;4.442746285349131E-003;
2.415333333333334E+009;1.777773946523666E-001;-5.644667893648148E-002;-5.162427551113069E-004;4.522640258073807E-003;
2.415500000000000E+009;1.780524998903275E-001;-5.693734809756279E-002;-3.633678425103426E-004;4.523269366472960E-003;
2.415666666666667E+009;1.781269907951355E-001;-5.735503882169724E-002;-7.116895176295657E-006;4.629163537174463E-003;
2.415833333333334E+009;1.782861500978470E-001;-5.782739445567131E-002;-4.949195499648340E-005;4.738104064017534E-003;
2.416000000000000E+009;1.780733019113541E-001;-5.819193646311760E-002;2.491699415259063E-004;4.723669029772282E-003;
2.416166666666667E+009;1.780619919300079E-001;-5.850796774029732E-002;4.942993982695043E-004;4.700167104601860E-003;
2.416333333333334E+009;1.780309677124023E-001;-5.872456356883049E-002;4.558632208500058E-004;4.616194870322943E-003;
2.416500000000000E+009;1.778303682804108E-001;-5.905446782708168E-002;5.778447957709432E-004;4.645388573408127E-003;
2.416666666666667E+009;1.773204505443573E-001;-5.922063440084457E-002;9.491199743933976E-004;4.697016440331936E-003;
2.416833333333334E+009;1.771162450313568E-001;-5.953538045287132E-002;1.208719681017101E-003;4.613677971065044E-003;
2.417000000000000E+009;1.763661801815033E-001;-5.969088897109032E-002;1.298042014241219E-003;4.652449861168861E-003;
2.417166666666667E+009;1.759573519229889E-001;-5.990823358297348E-002;1.439391635358334E-003;4.638561978936195E-003;
2.417333333333334E+009;1.751390993595123E-001;-6.011816486716270E-002;1.523877028375864E-003;4.553570412099361E-003;
2.417500000000000E+009;1.744071245193481E-001;-6.046229600906372E-002;1.807309337891638E-003;4.547111690044403E-003;
2.417666666666667E+009;1.737602055072784E-001;-6.060824543237686E-002;1.948661403730512E-003;4.436396528035402E-003;
2.417833333333334E+009;1.728274375200272E-001;-6.092006713151932E-002;1.987998140975833E-003;4.367266315966845E-003;
2.418000000000000E+009;1.717130094766617E-001;-6.141978129744530E-002;2.159660449251533E-003;4.227632656693459E-003;
2.418166666666667E+009;1.706819087266922E-001;-6.171097978949547E-002;2.387324115261436E-003;4.297403618693352E-003;
2.418333333333334E+009;1.698201596736908E-001;-6.223293021321297E-002;2.596497070044279E-003;4.019317682832480E-003;
2.418500000000000E+009;1.686154752969742E-001;-6.281509250402451E-002;2.761191688477993E-003;4.005485214293003E-003;
2.418666666666667E+009;1.675653159618378E-001;-6.346544623374939E-002;2.737285569310188E-003;3.874615533277392E-003;
2.418833333333334E+009;1.662985682487488E-001;-6.407289952039719E-002;2.846911782398820E-003;3.745480673387647E-003;
2.419000000000000E+009;1.649640947580338E-001;-6.478692591190338E-002;2.970079658553004E-003;3.845775732770562E-003;
2.419166666666667E+009;1.637985706329346E-001;-6.559301912784576E-002;3.221384948119521E-003;3.473974065855146E-003;
2.419333333333334E+009;1.625025570392609E-001;-6.632938981056213E-002;3.389132209122181E-003;3.405884373933077E-003;
2.419500000000000E+009;1.613433361053467E-001;-6.740801036357880E-002;3.413647180423141E-003;3.301469143480063E-003;
2.419666666666667E+009;1.603060215711594E-001;-6.836127489805222E-002;3.369882935658097E-003;3.204745240509510E-003;
2.419833333333334E+009;1.591352075338364E-001;-6.946766376495361E-002;3.453461686149240E-003;3.053609281778336E-003;
2.420000000000000E+009;1.579653769731522E-001;-7.063224166631699E-002;3.550277324393392E-003;2.890541451051831E-003;
2.420166666666667E+009;1.568253040313721E-001;-7.181822508573532E-002;3.775900928303599E-003;2.615279983729124E-003;
2.420333333333334E+009;1.560329198837280E-001;-7.302103936672211E-002;3.627905389294028E-003;2.567996736615896E-003;
2.420500000000000E+009;1.551937162876129E-001;-7.445040345191956E-002;3.851756453514099E-003;2.333336742594838E-003;
2.420666666666667E+009;1.539292484521866E-001;-7.592205703258514E-002;3.888073842972517E-003;2.169886603951454E-003;
2.420833333333334E+009;1.533089727163315E-001;-7.745439559221268E-002;3.759748069569469E-003;2.157540991902351E-003;
2.421000000000000E+009;1.524195969104767E-001;-7.901284843683243E-002;3.851259360089898E-003;1.823684666305780E-003;
2.421166666666667E+009;1.517483144998550E-001;-8.050499111413956E-002;3.911552019417286E-003;1.718385727144778E-003;
2.421333333333334E+009;1.513679325580597E-001;-8.208473771810532E-002;3.931833896785975E-003;1.745287561789155E-003;
2.421500000000000E+009;1.507566124200821E-001;-8.392280340194702E-002;3.887620288878679E-003;1.387608586810529E-003;
2.421666666666667E+009;1.503491550683975E-001;-8.546909689903259E-002;3.792924340814352E-003;1.410391530953348E-003;
2.421833333333334E+009;1.500885337591171E-001;-8.701374381780624E-002;3.728922456502914E-003;1.220480888150632E-003;
2.422000000000000E+009;1.495579183101654E-001;-8.871429413557053E-002;3.704605158418417E-003;1.057634246535599E-003;
2.422166666666667E+009;1.495661586523056E-001;-9.062817692756653E-002;3.845064202323556E-003;9.053932153619826E-004;
2.422333333333334E+009;1.496243029832840E-001;-9.220651537179947E-002;3.767780959606171E-003;7.890692795626819E-004;
2.422500000000000E+009;1.494913101196289E-001;-9.389583021402359E-002;3.622721415013075E-003;6.519286544062197E-004;
2.422666666666667E+009;1.494460105895996E-001;-9.545762091875076E-002;3.632144303992391E-003;5.841123056598008E-004;
2.422833333333334E+009;1.496123969554901E-001;-9.712477028369904E-002;3.671759506687522E-003;6.629311246797442E-004;
2.423000000000000E+009;1.497689336538315E-001;-9.856455773115158E-002;3.577128751203418E-003;4.886605893261731E-004;
2.423166666666667E+009;1.501196324825287E-001;-1.003380119800568E-001;3.525609616190195E-003;3.753116470761597E-004;
2.423333333333334E+009;1.505953818559647E-001;-1.016001254320145E-001;3.410627366974950E-003;3.543778730090708E-004;
2.423500000000000E+009;1.509751379489899E-001;-1.031883880496025E-001;3.412577556446195E-003;2.737640752457082E-004;
2.423666666666667E+009;1.512755304574966E-001;-1.045923531055450E-001;3.470630617812276E-003;2.696982410270721E-004;
2.423833333333334E+009;1.518140286207199E-001;-1.059484779834747E-001;3.490010742098093E-003;2.578290877863765E-004;
2.424000000000000E+009;1.521887481212616E-001;-1.071268692612648E-001;3.382444614544511E-003;2.647987275850028E-004;
2.424166666666667E+009;1.525809466838837E-001;-1.082847490906715E-001;3.374950727447867E-003;-1.291711782869243E-006;
2.424333333333334E+009;1.530957818031311E-001;-1.092306599020958E-001;3.365204436704516E-003;2.876188409572933E-005;
2.424500000000000E+009;1.534538865089417E-001;-1.104770079255104E-001;3.302514320239425E-003;4.798558438778855E-005;
2.424666666666667E+009;1.541990935802460E-001;-1.113211214542389E-001;3.374097635969520E-003;1.016258647723589E-005;
2.424833333333334E+009;1.545230895280838E-001;-1.121026352047920E-001;3.388535929843783E-003;-9.043029422173277E-005;
2.425000000000000E+009;1.550608575344086E-001;-1.129904463887215E-001;3.373648272827268E-003;-1.210781047120690E-004;
2.425166666666667E+009;1.552432030439377E-001;-1.135809123516083E-001;3.439303254708648E-003;-1.302893797401339E-004;
2.425333333333334E+009;1.556511819362640E-001;-1.143962666392326E-001;3.484463086351752E-003;-3.363039868418127E-004;
2.425500000000000E+009;1.560191065073013E-001;-1.149503663182259E-001;3.472982440143824E-003;-3.666413540486246E-004;
2.425666666666667E+009;1.561208218336105E-001;-1.154600530862808E-001;3.414282342419028E-003;-5.682584014721215E-004;
2.425833333333334E+009;1.563421487808228E-001;-1.160181090235710E-001;3.359445836395025E-003;-4.497438785620034E-004;
2.426000000000000E+009;1.563637703657150E-001;-1.163352355360985E-001;3.431943478062749E-003;-5.576807307079434E-004;
2.426166666666667E+009;1.566744148731232E-001;-1.166022419929504E-001;3.360221628099680E-003;-6.352342315949500E-004;
2.426333333333334E+009;1.565362066030502E-001;-1.169193238019943E-001;3.522253595292568E-003;-6.444660248234868E-004;
2.426500000000000E+009;1.564570963382721E-001;-1.171389296650887E-001;3.281914861872792E-003;-7.601095130667090E-004;
2.426666666666667E+009;1.564493477344513E-001;-1.172692999243736E-001;3.425311995670199E-003;-9.379211696796119E-004;
2.426833333333334E+009;1.559651046991348E-001;-1.173576340079308E-001;3.411940531805158E-003;-1.008726307190955E-003;
2.427000000000000E+009;1.556483656167984E-001;-1.176396012306213E-001;3.238148055970669E-003;-1.027254387736321E-003;
2.427166666666667E+009;1.551457941532135E-001;-1.176693588495255E-001;3.304421436041594E-003;-1.311487634666264E-003;
2.427333333333334E+009;1.545131355524063E-001;-1.179005801677704E-001;3.262252081185579E-003;-1.392577658407390E-003;
2.427500000000000E+009;1.540375649929047E-001;-1.180005893111229E-001;3.214901778846979E-003;-1.322214375250042E-003;
2.427666666666667E+009;1.531337052583695E-001;-1.180777028203011E-001;3.237744793295860E-003;-1.433026976883411E-003;
2.427833333333334E+009;1.521857678890228E-001;-1.183200478553772E-001;3.062837990000844E-003;-1.487053348682821E-003;
