# Version 1.00
#
freq[Hz];re:Trc1_S11;im:Trc1_S11;re:Trc2_S21;im:Trc2_S21;
2.400000000000000E+009;1.572493761777878E-001;6.065948307514191E-002;-2.257630927488208E-003;-1.809258945286274E-003;
2.400166666666667E+009;1.572507023811340E-001;5.910864472389221E-002;-2.226201584562659E-003;-1.801137696020305E-003;
2.400333333333334E+009;1.572274714708328E-001;5.689297989010811E-002;-2.308648312464356E-003;-1.797825680114329E-003;
2.400500000000000E+009;1.574871391057968E-001;5.515830591320992E-002;-2.340869512408972E-003;-1.547956839203835E-003;
2.400666666666667E+009;1.574024260044098E-001;5.311358720064163E-002;-2.376518212258816E-003;-1.420813030563295E-003;
2.400833333333334E+009;1.576864868402481E-001;5.122766643762589E-002;-2.428101608529687E-003;-1.390836783684790E-003;
2.401000000000000E+009;1.578964591026306E-001;4.922343418002129E-002;-2.462226431816816E-003;-1.444117398932576E-003;
2.401166666666667E+009;1.583214253187180E-001;4.706860706210136E-002;-2.384045394137502E-003;-1.465648529119790E-003;
2.401333333333334E+009;1.586403101682663E-001;4.504879191517830E-002;-2.491381019353867E-003;-1.309278188273311E-003;
2.401500000000000E+009;1.591989248991013E-001;4.274414107203484E-002;-2.350653056055307E-003;-1.282299170270562E-003;
2.401666666666667E+009;1.597195565700531E-001;4.113987088203430E-002;-2.404059749096632E-003;-1.397440326400101E-003;
2.401833333333334E+009;1.602007001638413E-001;3.881347179412842E-002;-2.264711773023009E-003;-1.350146834738553E-003;
2.402000000000000E+009;1.606075167655945E-001;3.702108934521675E-002;-2.472657710313797E-003;-1.233158516697586E-003;
2.402166666666667E+009;1.611767709255219E-001;3.501262515783310E-002;-2.548474818468094E-003;-1.279352232813835E-003;
2.402333333333334E+009;1.620776057243347E-001;3.337627649307251E-002;-2.423990983515978E-003;-1.220835954882205E-003;
2.402500000000000E+009;1.629486232995987E-001;3.156098350882530E-002;-2.408033935353160E-003;-1.256563235074282E-003;
2.402666666666667E+009;1.637055575847626E-001;3.018128126859665E-002;-2.538147382438183E-003;-1.220859354361892E-003;
2.402833333333334E+009;1.645119488239288E-001;2.856773138046265E-002;-2.566432114690542E-003;-1.153213437646627E-003;
2.403000000000000E+009;1.652701348066330E-001;2.711190097033978E-002;-2.763706957921386E-003;-1.182288047857583E-003;
2.403166666666667E+009;1.663115173578262E-001;2.553350478410721E-002;-2.655646065250039E-003;-1.066597644239664E-003;
2.403333333333334E+009;1.672442406415939E-001;2.432057261466980E-002;-2.825820120051503E-003;-1.142967725172639E-003;
2.403500000000000E+009;1.680360883474350E-001;2.309402078390122E-002;-2.782670315355063E-003;-1.015389570966363E-003;
2.403666666666667E+009;1.689573526382446E-001;2.173989824950695E-002;-2.881135093048215E-003;-9.717912762425840E-004;
2.403833333333334E+009;1.698734015226364E-001;2.070266567170620E-002;-2.895624144002795E-003;-9.563490748405457E-004;
2.404000000000000E+009;1.708163619041443E-001;1.976207457482815E-002;-2.857228741049767E-003;-1.054223859682679E-003;
2.404166666666667E+009;1.718960553407669E-001;1.883574016392231E-002;-3.159411018714309E-003;-9.230257128365338E-004;
2.404333333333334E+009;1.726603955030441E-001;1.806290261447430E-002;-3.159583080559969E-003;-7.655998924747109E-004;
2.404500000000000E+009;1.732866466045380E-001;1.707710698246956E-002;-3.120252629742026E-003;-7.680657436139882E-004;
2.404666666666667E+009;1.742147207260132E-001;1.642485894262791E-002;-3.151408163830638E-003;-6.684342515654862E-004;
2.404833333333334E+009;1.750042587518692E-001;1.570312678813934E-002;-3.341885283589363E-003;-7.092342129908502E-004;
2.405000000000000E+009;1.758974641561508E-001;1.516125351190567E-002;-3.211395815014839E-003;-4.335088306106627E-004;
2.405166666666667E+009;1.764712035655975E-001;1.457012351602316E-002;-3.184573259204626E-003;-4.662890278268606E-004;
2.405333333333334E+009;1.771822869777679E-001;1.402436662465334E-002;-3.239008132368326E-003;-5.753790537710302E-005;
2.405500000000000E+009;1.779118776321411E-001;1.374140009284020E-002;-3.262462792918086E-003;-1.942306553246453E-004;
2.405666666666667E+009;1.783280521631241E-001;1.347047183662653E-002;-3.271878231316805E-003;1.682243782852311E-005;
2.405833333333334E+009;1.787142753601074E-001;1.324291247874498E-002;-3.478375263512135E-003;-7.670713966945186E-005;
2.406000000000000E+009;1.791020184755325E-001;1.273780409246683E-002;-3.331146668642759E-003;-1.042356525431387E-004;
2.406166666666667E+009;1.791588366031647E-001;1.245181914418936E-002;-3.447347087785602E-003;6.609248885069974E-006;
2.406333333333334E+009;1.795722693204880E-001;1.215076912194490E-002;-3.340008901432157E-003;2.558289561420679E-004;
2.406500000000000E+009;1.796990036964417E-001;1.182898785918951E-002;-3.366982331499457E-003;1.561997632961720E-004;
2.406666666666667E+009;1.796391308307648E-001;1.154432259500027E-002;-3.456617472693324E-003;4.526076954789460E-004;
2.406833333333334E+009;1.797630190849304E-001;1.117243804037571E-002;-3.451558295637369E-003;5.091684288345277E-004;
2.407000000000000E+009;1.796819716691971E-001;1.073178648948669E-002;-3.656027140095830E-003;5.409314762800932E-004;
2.407166666666667E+009;1.796592324972153E-001;1.039167959243059E-002;-3.443763125687838E-003;7.572709582746029E-004;
2.407333333333334E+009;1.793474107980728E-001;9.841637685894966E-003;-3.569868393242359E-003;7.651414489373565E-004;
2.407500000000000E+009;1.789593249559403E-001;9.394380263984203E-003;-3.451199037954211E-003;1.003232784569264E-003;
2.407666666666667E+009;1.787250936031342E-001;8.886375464498997E-003;-3.442541696131229E-003;9.643555385991931E-004;
2.407833333333334E+009;1.782774031162262E-001;8.088163100183010E-003;-3.367544384673238E-003;1.178127713501453E-003;
2.408000000000000E+009;1.777721643447876E-001;7.245063316076994E-003;-3.286841791123152E-003;1.256824354641140E-003;
2.408166666666667E+009;1.772935837507248E-001;6.742274388670921E-003;-3.302002558484674E-003;1.161466236226261E-003;
2.408333333333334E+009;1.767722517251968E-001;5.824939813464880E-003;-3.166044363752008E-003;1.199941150844097E-003;
2.408500000000000E+009;1.762496680021286E-001;4.918087273836136E-003;-3.260597353801131E-003;1.271201879717410E-003;
2.408666666666667E+009;1.755593419075012E-001;3.736384212970734E-003;-3.250668756663799E-003;1.395216211676598E-003;
2.408833333333334E+009;1.748233288526535E-001;2.557372441515327E-003;-3.021550364792347E-003;1.611908897757530E-003;
2.409000000000000E+009;1.742394566535950E-001;1.450030482374132E-003;-3.200550563633442E-003;1.575045753270388E-003;
2.409166666666667E+009;1.736027598381043E-001;1.191479386761785E-004;-3.132186364382505E-003;1.748345792293549E-003;
2.409333333333334E+009;1.729192882776260E-001;-1.327042235061526E-003;-3.028080100193620E-003;1.684508170001209E-003;
2.409500000000000E+009;1.722868382930756E-001;-2.861745422706008E-003;-3.019620431587100E-003;1.861136872321367E-003;
2.409666666666667E+009;1.715902537107468E-001;-4.152722656726837E-003;-2.898275619372726E-003;2.028448740020394E-003;
2.409833333333334E+009;1.711087524890900E-001;-5.673931445926428E-003;-2.977015450596809E-003;1.944624935276806E-003;
2.410000000000000E+009;1.706021875143051E-001;-7.358076516538858E-003;-2.732863416895270E-003;2.138664713129401E-003;
2.410166666666667E+009;1.700465232133865E-001;-9.051868692040443E-003;-2.845637733116746E-003;2.175180008634925E-003;
2.410333333333334E+009;1.694184541702271E-001;-1.092774234712124E-002;-2.828643191605806E-003;2.182951429858804E-003;
2.410500000000000E+009;1.689754575490952E-001;-1.255948003381491E-002;-2.734872279688716E-003;2.222272800281644E-003;
2.410666666666667E+009;1.686954051256180E-001;-1.457704231142998E-002;-2.741535194218159E-003;2.319160150364041E-003;
2.410833333333334E+009;1.682365089654923E-001;-1.630234904587269E-002;-2.629421651363373E-003;2.265447052195668E-003;
2.411000000000000E+009;1.681015640497208E-001;-1.817514002323151E-002;-2.518805442377925E-003;2.346694702282548E-003;
2.411166666666667E+009;1.679963767528534E-001;-2.006764151155949E-002;-2.533819060772657E-003;2.438274910673499E-003;
2.411333333333334E+009;1.678387969732285E-001;-2.196668833494186E-002;-2.591206459328532E-003;2.527086297050118E-003;
2.411500000000000E+009;1.677543371915817E-001;-2.408817782998085E-002;-2.556412247940898E-003;2.625082852318883E-003;
2.411666666666667E+009;1.679942011833191E-001;-2.600461244583130E-002;-2.502713119611144E-003;2.608203794807196E-003;
2.411833333333334E+009;1.679440587759018E-001;-2.790128253400326E-002;-2.524403156712651E-003;2.811069600284100E-003;
2.412000000000000E+009;1.682557910680771E-001;-2.986471541225910E-002;-2.406199229881167E-003;2.894183155149221E-003;
2.412166666666667E+009;1.684180945158005E-001;-3.159414231777191E-002;-2.414509886875749E-003;2.873534569516778E-003;
2.412333333333334E+009;1.689716279506683E-001;-3.358575329184532E-002;-2.398033393546939E-003;2.963700797408819E-003;
2.412500000000000E+009;1.692366153001785E-001;-3.533739969134331E-002;-2.416270785033703E-003;3.007309744134545E-003;
2.412666666666667E+009;1.697555333375931E-001;-3.716810792684555E-002;-2.061350271105766E-003;3.232716582715511E-003;
2.412833333333334E+009;1.701173782348633E-001;-3.898489847779274E-002;-2.172209555283189E-003;3.257923293858767E-003;
2.413000000000000E+009;1.705796122550964E-001;-4.050976783037186E-002;-2.074349205940962E-003;3.350829239934683E-003;
2.413166666666667E+009;1.711211204528809E-001;-4.219621047377586E-002;-2.112991409376264E-003;3.557977266609669E-003;
2.413333333333334E+009;1.717209368944168E-001;-4.379436001181603E-002;-2.015003236010671E-003;3.612384200096130E-003;
2.413500000000000E+009;1.723782122135162E-001;-4.536211118102074E-002;-1.834452967159450E-003;3.551768837496638E-003;
2.413666666666667E+009;1.729983240365982E-001;-4.673624411225319E-002;-1.820584875531495E-003;3.929453901946545E-003;
2.413833333333334E+009;1.733409017324448E-001;-4.812964797019959E-002;-1.749442890286446E-003;3.902689786627889E-003;
2.414000000000000E+009;1.739777326583862E-001;-4.939970374107361E-002;-1.531024696305394E-003;4.077678080648184E-003;
2.414166666666667E+009;1.745432317256928E-001;-5.047232657670975E-002;-1.579451491124928E-003;3.980337642133236E-003;
2.414333333333334E+009;1.750818490982056E-001;-5.166730657219887E-002;-1.391439582221210E-003;4.265908617526293E-003;
2.414500000000000E+009;1.757226586341858E-001;-5.255339294672012E-002;-1.179285696707666E-003;4.320021718740463E-003;
2.414666666666667E+009;1.763113439083099E-001;-5.335290729999542E-002;-1.039454829879105E-003;4.282258450984955E-003;
2.414833333333334E+009;1.765570044517517E-001;-5.429844930768013E-002;-9.228991693817079E-004;4.312210716307163E-003;
2.415000000000000E+009;1.769942790269852E-001;-5.493500083684921E-002;-7.082060328684747E-004;4.414262715727091E-003;
2.415166666666667E+009;1.773220598697662E-001;-5.562328919768333E-002;-5.399337387643755E-004;4.594030324369669E-003;
2.415333333333334E+009;1.778268218040466E-001;-5.631174147129059E-002;-5.965835880488157E-004;4.627870395779610E-003;
2.415500000000000E+009;1.781097054481506E-001;-5.668841302394867E-002;-2.949118206743151E-004;4.753390792757273E-003;
2.415666666666667E+009;1.782604008913040E-001;-5.715196579694748E-002;-2.687220694497228E-004;4.646897781640291E-003;
2.415833333333334E+009;1.784473806619644E-001;-5.761877447366715E-002;-9.092793334275484E-005;4.595260601490736E-003;
2.416000000000000E+009;1.781667470932007E-001;-5.804090574383736E-002;1.082891176338308E-004;4.644489381462336E-003;
2.416166666666667E+009;1.782500594854355E-001;-5.829116329550743E-002;4.520533548202366E-004;4.696428775787354E-003;
2.416333333333334E+009;1.781073361635208E-001;-5.850869789719582E-002;5.464746500365436E-004;4.751967731863260E-003;
2.416500000000000E+009;1.778337657451630E-001;-5.888651683926582E-002;7.810725364834070E-004;4.600196611136198E-003;
2.416666666666667E+009;1.774899363517761E-001;-5.898430570960045E-002;8.059177780523896E-004;4.611095879226923E-003;
2.416833333333334E+009;1.772489249706268E-001;-5.947063490748406E-002;1.095166779123247E-003;4.636832047253847E-003;
2.417000000000000E+009;1.764682829380035E-001;-5.972271412611008E-002;1.244610059075058E-003;4.703890066593885E-003;
2.417166666666667E+009;1.759631186723709E-001;-5.981118604540825E-002;1.429197611287236E-003;4.561626352369785E-003;
2.417333333333334E+009;1.753481775522232E-001;-6.004396080970764E-002;1.538236043415964E-003;4.546200856566429E-003;
2.417500000000000E+009;1.745334267616272E-001;-6.049323454499245E-002;1.837872434407473E-003;4.572188016027212E-003;
2.417666666666667E+009;1.738744378089905E-001;-6.060042604804039E-002;1.964875729754567E-003;4.438546020537615E-003;
2.417833333333334E+009;1.729712337255478E-001;-6.100296974182129E-002;2.152534900233150E-003;4.467576742172241E-003;
2.418000000000000E+009;1.717769354581833E-001;-6.147476285696030E-002;2.054734854027629E-003;4.246265627443790E-003;
2.418166666666667E+009;1.708171814680100E-001;-6.181750819087029E-002;2.278765896335244E-003;4.212291911244392E-003;
2.418333333333334E+009;1.700517088174820E-001;-6.229626759886742E-002;2.449023537337780E-003;4.128814674913883E-003;
2.418500000000000E+009;1.687643080949783E-001;-6.268430501222611E-002;2.448163926601410E-003;4.108872264623642E-003;
2.418666666666667E+009;1.676016300916672E-001;-6.344413757324219E-002;2.692315261811018E-003;3.958940040320158E-003;
2.418833333333334E+009;1.663201153278351E-001;-6.413032859563828E-002;2.781190676614642E-003;3.903307486325502E-003;
2.419000000000000E+009;1.651055067777634E-001;-6.473072618246079E-002;3.070475067943335E-003;3.611360210925341E-003;
2.419166666666667E+009;1.638747006654739E-001;-6.563776731491089E-002;3.037789138033986E-003;3.606254234910011E-003;
2.419333333333334E+009;1.626137197017670E-001;-6.622374057769775E-002;3.207565983757377E-003;3.483640495687723E-003;
2.419500000000000E+009;1.614072620868683E-001;-6.741610914468765E-002;3.352188039571047E-003;3.369077341631055E-003;
2.419666666666667E+009;1.603441685438156E-001;-6.848314404487610E-002;3.416045568883419E-003;3.270946675911546E-003;
2.419833333333334E+009;1.590169966220856E-001;-6.940338015556335E-002;3.491627052426338E-003;3.083225572481751E-003;
2.420000000000000E+009;1.580461412668228E-001;-7.059523463249207E-002;3.518540412187576E-003;2.988215535879135E-003;
2.420166666666667E+009;1.567835062742233E-001;-7.191263884305954E-002;3.623459488153458E-003;2.728037070482969E-003;
2.420333333333334E+009;1.559443622827530E-001;-7.328570634126663E-002;3.699323162436485E-003;2.649928210303187E-003;
2.420500000000000E+009;1.550202667713165E-001;-7.458122074604034E-002;3.686500247567892E-003;2.383758779615164E-003;
2.420666666666667E+009;1.540431529283524E-001;-7.583495229482651E-002;3.868519328534603E-003;2.169737126678228E-003;
2.420833333333334E+009;1.534261107444763E-001;-7.748250663280487E-002;3.831093432381749E-003;2.084668260067701E-003;
2.421000000000000E+009;1.524246633052826E-001;-7.900992035865784E-002;3.938717301934958E-003;1.975480699911714E-003;
2.421166666666667E+009;1.517160981893539E-001;-8.050385862588882E-002;3.812627401202917E-003;1.851336564868689E-003;
2.421333333333334E+009;1.513658463954926E-001;-8.221074193716049E-002;3.708867589011788E-003;1.702777808532119E-003;
2.421500000000000E+009;1.507648974657059E-001;-8.376911282539368E-002;3.851577639579773E-003;1.663383329287171E-003;
2.421666666666667E+009;1.504197716712952E-001;-8.553513884544373E-002;3.785917768254876E-003;1.419570646248758E-003;
2.421833333333334E+009;1.500471979379654E-001;-8.732376247644424E-002;3.682827576994896E-003;1.283515477553010E-003;
2.422000000000000E+009;1.497621238231659E-001;-8.876379579305649E-002;4.016991704702377E-003;1.127654220908880E-003;
2.422166666666667E+009;1.495507061481476E-001;-9.064798802137375E-002;3.717441810294986E-003;1.032844535075128E-003;
2.422333333333334E+009;1.494272798299789E-001;-9.216143935918808E-002;3.651260398328304E-003;9.865544270724058E-004;
2.422500000000000E+009;1.493052095174789E-001;-9.372106194496155E-002;3.793825395405293E-003;7.962877280078828E-004;
2.422666666666667E+009;1.494288593530655E-001;-9.552119672298431E-002;3.640835173428059E-003;6.671445444226265E-004;
2.422833333333334E+009;1.496208608150482E-001;-9.722307324409485E-002;3.571348730474711E-003;6.542940391227603E-004;
2.423000000000000E+009;1.498374342918396E-001;-9.869848191738129E-002;3.535775933414698E-003;4.746652266476303E-004;
2.423166666666667E+009;1.502218842506409E-001;-1.002895459532738E-001;3.579963929951191E-003;5.174406105652452E-004;
2.423333333333334E+009;1.505717784166336E-001;-1.015757173299789E-001;3.530704416334629E-003;3.714757622219622E-004;
2.423500000000000E+009;1.507433056831360E-001;-1.031616106629372E-001;3.495614044368267E-003;4.576588689815253E-004;
2.423666666666667E+009;1.510458141565323E-001;-1.046516671776772E-001;3.603390650823712E-003;4.057616752106696E-004;
2.423833333333334E+009;1.516482681035996E-001;-1.060122326016426E-001;3.281216137111187E-003;4.050814022775739E-004;
2.424000000000000E+009;1.521118283271790E-001;-1.071734949946404E-001;3.380018752068281E-003;1.169931929325685E-004;
2.424166666666667E+009;1.526023745536804E-001;-1.083290129899979E-001;3.524386789649725E-003;1.099640940083191E-004;
2.424333333333334E+009;1.531068980693817E-001;-1.094996109604836E-001;3.456482896581292E-003;1.794573472579941E-004;
2.424500000000000E+009;1.536490321159363E-001;-1.104042232036591E-001;3.442229703068733E-003;-1.074086903827265E-004;
2.424666666666667E+009;1.541010886430740E-001;-1.112255752086639E-001;3.348930273205042E-003;-3.078023655689322E-005;
2.424833333333334E+009;1.544302999973297E-001;-1.121783480048180E-001;3.289793385192752E-003;-2.032529846474063E-005;
2.425000000000000E+009;1.549708396196365E-001;-1.130880489945412E-001;3.446028102189302E-003;-1.766007771948353E-004;
2.425166666666667E+009;1.552130728960037E-001;-1.136158406734467E-001;3.550048917531967E-003;-1.673542428761721E-004;
2.425333333333334E+009;1.555566638708115E-001;-1.143579557538033E-001;3.466535825282335E-003;-3.072586550842971E-004;
2.425500000000000E+009;1.560307741165161E-001;-1.150056049227715E-001;3.423924790695310E-003;-1.972765312530100E-004;
2.425666666666667E+009;1.560848951339722E-001;-1.153962984681130E-001;3.287552390247583E-003;-3.737436782103032E-004;
2.425833333333334E+009;1.562952101230621E-001;-1.159209236502647E-001;3.415690036490560E-003;-4.998521180823445E-004;
2.426000000000000E+009;1.563924551010132E-001;-1.163432523608208E-001;3.447639057412744E-003;-4.891917342320085E-004;
2.426166666666667E+009;1.567466109991074E-001;-1.166482865810394E-001;3.399917855858803E-003;-5.918013630434871E-004;
2.426333333333334E+009;1.565173119306564E-001;-1.169841289520264E-001;3.494820324704051E-003;-6.915410631336272E-004;
2.426500000000000E+009;1.564642041921616E-001;-1.170806512236595E-001;3.419816261157394E-003;-7.223421707749367E-004;
2.426666666666667E+009;1.563224196434021E-001;-1.171389818191528E-001;3.366624703630805E-003;-8.995190146379173E-004;
2.426833333333334E+009;1.560903340578079E-001;-1.174951195716858E-001;3.408649470657110E-003;-1.011830987408757E-003;
2.427000000000000E+009;1.556002199649811E-001;-1.176242753863335E-001;3.269547596573830E-003;-1.052417559549213E-003;
2.427166666666667E+009;1.550398319959641E-001;-1.177327409386635E-001;3.436467377468944E-003;-1.246487721800804E-003;
2.427333333333334E+009;1.545495837926865E-001;-1.178204044699669E-001;3.302084282040596E-003;-1.215786556713283E-003;
2.427500000000000E+009;1.538985669612885E-001;-1.179232597351074E-001;3.345989389345050E-003;-1.473815296776593E-003;
2.427666666666667E+009;1.531533300876617E-001;-1.181572750210762E-001;3.359055379405618E-003;-1.230022520758212E-003;
2.427833333333334E+009;1.521590799093247E-001;-1.182014644145966E-001;3.459927858784795E-003;-1.510545960627496E-003;
