# Version 1.00
#
freq[Hz];re:Trc1_S11;im:Trc1_S11;re:Trc2_S21;im:Trc2_S21;
2.400000000000000E+009;1.688089668750763E-001;4.688246920704842E-002;-2.759693423286080E-003;-7.785441703163087E-004;
2.400166666666667E+009;1.697747558355331E-001;4.584122076630592E-002;-2.544683404266834E-003;-6.304569542407990E-004;
2.400333333333334E+009;1.707475781440735E-001;4.489738494157791E-002;-2.677524928003550E-003;-7.975195767357945E-004;
2.400500000000000E+009;1.716878265142441E-001;4.388305172324181E-002;-2.927656052634120E-003;-6.352675845846534E-004;
2.400666666666667E+009;1.724162548780441E-001;4.300201684236527E-002;-2.763218712061644E-003;-6.333921919576824E-004;
2.400833333333334E+009;1.734165251255035E-001;4.212699085474014E-002;-2.950191730633378E-003;-4.758720460813493E-004;
2.401000000000000E+009;1.741666495800018E-001;4.138471558690071E-002;-2.817833097651601E-003;-5.348751437850297E-004;
2.401166666666667E+009;1.747380197048187E-001;4.066246375441551E-002;-3.144718008115888E-003;-4.457750765141100E-004;
2.401333333333334E+009;1.754305958747864E-001;3.990215435624123E-002;-3.043475095182657E-003;-2.519902482163161E-004;
2.401500000000000E+009;1.761975139379501E-001;3.931219503283501E-002;-3.130154917016625E-003;-3.331501211505383E-004;
2.401666666666667E+009;1.768590211868286E-001;3.873755037784576E-002;-3.186520421877503E-003;-4.749765867018141E-005;
2.401833333333334E+009;1.772937178611755E-001;3.803590685129166E-002;-3.144360380247235E-003;1.880489580798894E-004;
2.402000000000000E+009;1.775672137737274E-001;3.749389946460724E-002;-3.108324483036995E-003;5.238491212367080E-005;
2.402166666666667E+009;1.779927164316177E-001;3.692021593451500E-002;-3.310409374535084E-003;2.498467802070081E-004;
2.402333333333334E+009;1.782146990299225E-001;3.623114898800850E-002;-3.184336703270674E-003;2.349919086555019E-004;
2.402500000000000E+009;1.787062734365463E-001;3.553161397576332E-002;-3.199177561327815E-003;4.067141271661967E-004;
2.402666666666667E+009;1.788507848978043E-001;3.496231883764267E-002;-3.300760872662067E-003;3.871966328006238E-004;
2.402833333333334E+009;1.791118830442429E-001;3.428009152412415E-002;-3.279318334534764E-003;5.590493674390018E-004;
2.403000000000000E+009;1.790737956762314E-001;3.348842263221741E-002;-3.424005350098014E-003;6.704944535158575E-004;
2.403166666666667E+009;1.790074706077576E-001;3.266681358218193E-002;-3.302711993455887E-003;7.703063311055303E-004;
2.403333333333334E+009;1.792041659355164E-001;3.185232728719711E-002;-3.435117192566395E-003;8.574579842388630E-004;
2.403500000000000E+009;1.788893342018127E-001;3.078722953796387E-002;-3.359969705343247E-003;1.181949395686388E-003;
2.403666666666667E+009;1.786326318979263E-001;2.952517755329609E-002;-3.351368475705385E-003;1.334840548224747E-003;
2.403833333333334E+009;1.784090250730515E-001;2.855921722948551E-002;-3.510461887344718E-003;1.291546737775207E-003;
2.404000000000000E+009;1.780711412429810E-001;2.741141617298126E-002;-3.498166799545288E-003;1.631831168197095E-003;
2.404166666666667E+009;1.776176095008850E-001;2.620129100978375E-002;-3.313326975330710E-003;1.736820209771395E-003;
2.404333333333334E+009;1.771441102027893E-001;2.495199441909790E-002;-3.340094815939665E-003;1.922684721648693E-003;
2.404500000000000E+009;1.767357289791107E-001;2.362128533422947E-002;-3.336035180836916E-003;2.082059392705560E-003;
2.404666666666667E+009;1.762839406728745E-001;2.219924330711365E-002;-3.182776039466262E-003;2.261145506054163E-003;
2.404833333333334E+009;1.757838875055313E-001;2.061415091156960E-002;-3.163150977343321E-003;2.419762546196580E-003;
2.405000000000000E+009;1.753701865673065E-001;1.916213333606720E-002;-2.942820778116584E-003;2.628446789458394E-003;
2.405166666666667E+009;1.749466955661774E-001;1.751345209777355E-002;-2.833514474332333E-003;2.903791144490242E-003;
2.405333333333334E+009;1.745431721210480E-001;1.581837423145771E-002;-2.598910592496395E-003;2.845668466761708E-003;
2.405500000000000E+009;1.740641891956329E-001;1.418335549533367E-002;-2.502812305465341E-003;2.894022502005100E-003;
2.405666666666667E+009;1.739099025726318E-001;1.230939850211144E-002;-2.320257481187582E-003;3.296730807051063E-003;
2.405833333333334E+009;1.734003722667694E-001;1.072113122791052E-002;-2.095001749694347E-003;3.215090371668339E-003;
2.406000000000000E+009;1.732245832681656E-001;8.609703741967678E-003;-1.994404941797257E-003;3.306420287117362E-003;
2.406166666666667E+009;1.728807538747788E-001;6.848915945738554E-003;-1.744796056300402E-003;3.425102215260267E-003;
2.406333333333334E+009;1.729263812303543E-001;4.927437286823988E-003;-1.616327790543437E-003;3.334720153361559E-003;
2.406500000000000E+009;1.727796494960785E-001;2.848487580195069E-003;-1.364818424917758E-003;3.474070457741618E-003;
2.406666666666667E+009;1.726148575544357E-001;8.435986237600446E-004;-1.158857718110085E-003;3.288351465016604E-003;
2.406833333333334E+009;1.727783232927322E-001;-1.214957679621875E-003;-1.043867319822311E-003;3.461230779066682E-003;
2.407000000000000E+009;1.728670150041580E-001;-3.318472532555461E-003;-7.469272823072970E-004;3.270300803706050E-003;
2.407166666666667E+009;1.730600744485855E-001;-5.243664607405663E-003;-5.498874816112220E-004;3.393493127077818E-003;
2.407333333333334E+009;1.731544584035873E-001;-7.434303406625986E-003;-4.830326652154326E-004;3.397138323634863E-003;
2.407500000000000E+009;1.735028028488159E-001;-9.483232162892819E-003;-4.204897559247911E-004;3.414957085624337E-003;
2.407666666666667E+009;1.738577783107758E-001;-1.140903495252132E-002;-1.408209354849532E-004;3.088920610025525E-003;
2.407833333333334E+009;1.741089224815369E-001;-1.357680931687355E-002;1.207615205203183E-004;3.099095541983843E-003;
2.408000000000000E+009;1.745861917734146E-001;-1.568450406193733E-002;-1.015253656078130E-005;2.966321539133787E-003;
2.408166666666667E+009;1.748496443033218E-001;-1.750120893120766E-002;9.927067731041461E-005;2.819590736180544E-003;
2.408333333333334E+009;1.754196286201477E-001;-1.943604834377766E-002;1.230798225151375E-004;2.674821298569441E-003;
2.408500000000000E+009;1.759835928678513E-001;-2.147105708718300E-002;3.424344176892191E-004;2.618194324895740E-003;
2.408666666666667E+009;1.760129779577255E-001;-2.315379120409489E-002;3.546917578205466E-004;2.584138186648488E-003;
2.408833333333334E+009;1.766304075717926E-001;-2.510843984782696E-002;3.034286201000214E-004;2.426235936582089E-003;
2.409000000000000E+009;1.771384328603745E-001;-2.641868963837624E-002;5.189108196645975E-004;2.544730901718140E-003;
2.409166666666667E+009;1.778308749198914E-001;-2.776657976210117E-002;8.317085448652506E-004;2.316297730430961E-003;
2.409333333333334E+009;1.780691742897034E-001;-2.933127246797085E-002;5.486013833433390E-004;2.303228480741382E-003;
2.409500000000000E+009;1.783532947301865E-001;-3.086704574525356E-002;4.545037518255413E-004;2.372662769630551E-003;
2.409666666666667E+009;1.787781417369843E-001;-3.216423466801643E-002;3.909224760718644E-004;2.237634966149926E-003;
2.409833333333334E+009;1.793785244226456E-001;-3.302633762359619E-002;4.994046757929027E-004;2.196120563894510E-003;
2.410000000000000E+009;1.797093898057938E-001;-3.388994187116623E-002;4.024151421617717E-004;2.156211761757731E-003;
2.410166666666667E+009;1.803578436374664E-001;-3.477108106017113E-002;4.429197870194912E-004;2.025430323556066E-003;
2.410333333333334E+009;1.805328875780106E-001;-3.555659577250481E-002;4.716431431006640E-004;2.074705203995109E-003;
2.410500000000000E+009;1.811950802803040E-001;-3.621159121394157E-002;6.053752149455249E-004;1.942220027558506E-003;
2.410666666666667E+009;1.813595294952393E-001;-3.708207979798317E-002;5.932664498686791E-004;2.108059357851744E-003;
2.410833333333334E+009;1.817128062248230E-001;-3.756468370556831E-002;5.493878270499408E-004;1.977421110495925E-003;
2.411000000000000E+009;1.821608692407608E-001;-3.810279443860054E-002;5.012363544665277E-004;1.920307171531022E-003;
2.411166666666667E+009;1.822907328605652E-001;-3.863687440752983E-002;5.064488505013287E-004;2.198619302362204E-003;
2.411333333333334E+009;1.824209392070770E-001;-3.910879790782929E-002;4.838268796447665E-004;2.105663297697902E-003;
2.411500000000000E+009;1.823178231716156E-001;-3.946026414632797E-002;5.768587579950690E-004;2.166591351851821E-003;
2.411666666666667E+009;1.823533177375794E-001;-3.989011794328690E-002;6.129615940153599E-004;2.059887163341045E-003;
2.411833333333334E+009;1.823517531156540E-001;-4.033071175217629E-002;5.298684700392187E-004;2.074480522423983E-003;
2.412000000000000E+009;1.820648312568665E-001;-4.073579981923103E-002;6.207081023603678E-004;2.043787157163024E-003;
2.412166666666667E+009;1.815665960311890E-001;-4.115447402000427E-002;7.123848190531135E-004;2.204874530434609E-003;
2.412333333333334E+009;1.813243776559830E-001;-4.136497527360916E-002;6.548514938913286E-004;2.120755380019546E-003;
2.412500000000000E+009;1.806742399930954E-001;-4.165223613381386E-002;6.261489470489323E-004;2.287409268319607E-003;
2.412666666666667E+009;1.802093088626862E-001;-4.223504662513733E-002;8.036140352487564E-004;2.288907300680876E-003;
2.412833333333334E+009;1.795642524957657E-001;-4.261203855276108E-002;8.605164475739002E-004;2.320234896615148E-003;
2.413000000000000E+009;1.786676496267319E-001;-4.292116314172745E-002;8.403974934481084E-004;2.443749224767089E-003;
2.413166666666667E+009;1.778366565704346E-001;-4.340204969048500E-002;8.057374507188797E-004;2.342039952054620E-003;
2.413333333333334E+009;1.767384111881256E-001;-4.380932450294495E-002;9.460448636673391E-004;2.491239225491881E-003;
2.413500000000000E+009;1.758468002080917E-001;-4.444523155689240E-002;1.037837821058929E-003;2.433598740026355E-003;
2.413666666666667E+009;1.749790459871292E-001;-4.507701843976975E-002;1.089225988835096E-003;2.395017305389047E-003;
2.413833333333334E+009;1.735924184322357E-001;-4.542102664709091E-002;1.230071531608701E-003;2.565776696428657E-003;
2.414000000000000E+009;1.722650378942490E-001;-4.636555537581444E-002;1.356380293145776E-003;2.499249530956149E-003;
2.414166666666667E+009;1.714211404323578E-001;-4.693195596337318E-002;1.434873323887587E-003;2.498414367437363E-003;
2.414333333333334E+009;1.701536476612091E-001;-4.779956862330437E-002;1.506296684965491E-003;2.556066494435072E-003;
2.414500000000000E+009;1.690892875194550E-001;-4.877832531929016E-002;1.717791659757495E-003;2.287290757521987E-003;
2.414666666666667E+009;1.677590161561966E-001;-4.976037889719009E-002;1.802440150640905E-003;2.400665776804090E-003;
2.414833333333334E+009;1.664661318063736E-001;-5.083109065890312E-002;1.865827944129705E-003;2.388352528214455E-003;
2.415000000000000E+009;1.652235388755798E-001;-5.197615176439285E-002;1.925239339470863E-003;2.442190889269114E-003;
2.415166666666667E+009;1.639691591262817E-001;-5.336752906441689E-002;2.190333558246493E-003;2.375352894887328E-003;
2.415333333333334E+009;1.629720628261566E-001;-5.484372749924660E-002;2.232890576124191E-003;2.271615434437990E-003;
2.415500000000000E+009;1.617671698331833E-001;-5.613300204277039E-002;2.445149933919311E-003;2.087637083604932E-003;
2.415666666666667E+009;1.606361716985703E-001;-5.756256356835365E-002;2.446141326799989E-003;2.117350697517395E-003;
2.415833333333334E+009;1.596084833145142E-001;-5.928631871938705E-002;2.456700429320335E-003;2.079591155052185E-003;
2.416000000000000E+009;1.584109067916870E-001;-6.102052330970764E-002;2.696831710636616E-003;1.909309416078031E-003;
2.416166666666667E+009;1.576775908470154E-001;-6.279731541872025E-002;2.882970497012138E-003;1.815237686969340E-003;
2.416333333333334E+009;1.566061526536942E-001;-6.451111286878586E-002;2.848828677088022E-003;1.599036273546517E-003;
2.416500000000000E+009;1.557040512561798E-001;-6.653398275375366E-002;3.036462469026446E-003;1.512110116891563E-003;
2.416666666666667E+009;1.548396348953247E-001;-6.836098432540894E-002;3.064232878386974E-003;1.298116054385901E-003;
2.416833333333334E+009;1.541713625192642E-001;-7.052114605903626E-002;3.235039766877890E-003;1.236337586306036E-003;
2.417000000000000E+009;1.532829552888870E-001;-7.244349271059036E-002;2.947803586721420E-003;1.182439620606601E-003;
2.417166666666667E+009;1.526373028755188E-001;-7.428942620754242E-002;3.092478262260556E-003;1.009788364171982E-003;
2.417333333333334E+009;1.520484238862991E-001;-7.614178955554962E-002;3.085917327553034E-003;8.755458402447403E-004;
2.417500000000000E+009;1.514686942100525E-001;-7.834922522306442E-002;3.217639401555061E-003;6.559841567650437E-004;
2.417666666666667E+009;1.511442810297012E-001;-8.003804832696915E-002;3.225656459107995E-003;6.141253397800028E-004;
2.417833333333334E+009;1.506337672472000E-001;-8.194964379072189E-002;3.150165546685457E-003;4.401459300424904E-004;
2.418000000000000E+009;1.503397971391678E-001;-8.374189585447311E-002;3.080824390053749E-003;4.482595832087100E-004;
2.418166666666667E+009;1.500010192394257E-001;-8.533091843128204E-002;3.034872002899647E-003;9.050913649844006E-005;
2.418333333333334E+009;1.501169949769974E-001;-8.706922084093094E-002;3.177748993039131E-003;-3.748796473246330E-008;
2.418500000000000E+009;1.497965902090073E-001;-8.876536786556244E-002;2.985155209898949E-003;-1.551206805743277E-004;
2.418666666666667E+009;1.499249637126923E-001;-9.008753299713135E-002;2.957932418212295E-003;-6.306950672296807E-005;
2.418833333333334E+009;1.496677398681641E-001;-9.160947799682617E-002;2.934923861175776E-003;-3.369030309841037E-004;
2.419000000000000E+009;1.497847586870194E-001;-9.282312542200089E-002;2.819728339090943E-003;-5.123595474287868E-004;
2.419166666666667E+009;1.498202383518219E-001;-9.408727288246155E-002;2.901812782511115E-003;-5.425253184512258E-004;
2.419333333333334E+009;1.499941796064377E-001;-9.511272609233856E-002;2.764435717836022E-003;-5.752695724368095E-004;
2.419500000000000E+009;1.501484066247940E-001;-9.618304669857025E-002;2.595735946670175E-003;-6.921099848113954E-004;
2.419666666666667E+009;1.505213677883148E-001;-9.711543470621109E-002;2.646641572937369E-003;-5.964172305539250E-004;
2.419833333333334E+009;1.506239026784897E-001;-9.771740436553955E-002;2.374265110120177E-003;-7.666382589377463E-004;
2.420000000000000E+009;1.509843021631241E-001;-9.856331348419190E-002;2.439150353893638E-003;-8.046712609939277E-004;
2.420166666666667E+009;1.513628661632538E-001;-9.891200065612793E-002;2.415405120700598E-003;-6.364044384099543E-004;
2.420333333333334E+009;1.516494899988174E-001;-9.939519315958023E-002;2.209297381341457E-003;-8.265269570983946E-004;
2.420500000000000E+009;1.520007401704788E-001;-9.958549588918686E-002;2.270739059895277E-003;-8.565523312427104E-004;
2.420666666666667E+009;1.522081047296524E-001;-9.984543919563294E-002;2.193637192249298E-003;-8.404678665101528E-004;
2.420833333333334E+009;1.525522768497467E-001;-9.984496235847473E-002;2.220900729298592E-003;-7.415800355374813E-004;
2.421000000000000E+009;1.526560038328171E-001;-9.993261843919754E-002;2.194102387875319E-003;-7.602408295497298E-004;
2.421166666666667E+009;1.526937186717987E-001;-9.997889399528503E-002;2.056562807410955E-003;-7.504966924898326E-004;
2.421333333333334E+009;1.530867367982864E-001;-9.999002516269684E-002;2.186175202950835E-003;-6.455839611589909E-004;
2.421500000000000E+009;1.531125307083130E-001;-9.966389089822769E-002;2.077810000628233E-003;-7.565672276541591E-004;
2.421666666666667E+009;1.531324982643127E-001;-9.948525577783585E-002;2.272696001455188E-003;-8.144519524648786E-004;
2.421833333333334E+009;1.529869586229324E-001;-9.922838956117630E-002;2.474682172760367E-003;-7.541303057223558E-004;
2.422000000000000E+009;1.527287811040878E-001;-9.900279343128204E-002;2.432151231914759E-003;-8.600650471635163E-004;
2.422166666666667E+009;1.525378078222275E-001;-9.904951602220535E-002;2.566324081271887E-003;-1.013360801152885E-003;
2.422333333333334E+009;1.520819664001465E-001;-9.848512709140778E-002;2.530304482206702E-003;-1.091448357328773E-003;
2.422500000000000E+009;1.518226861953735E-001;-9.801602363586426E-002;2.673546783626080E-003;-1.139028929173946E-003;
2.422666666666667E+009;1.509954333305359E-001;-9.775939583778381E-002;2.698042429983616E-003;-1.267942017875612E-003;
2.422833333333334E+009;1.503952592611313E-001;-9.748588502407074E-002;2.515160245820880E-003;-1.423053443431854E-003;
2.423000000000000E+009;1.493842899799347E-001;-9.705198556184769E-002;2.634885488077998E-003;-1.489005517214537E-003;
2.423166666666667E+009;1.487118303775787E-001;-9.672286361455917E-002;2.576520433649421E-003;-1.808482222259045E-003;
2.423333333333334E+009;1.476007699966431E-001;-9.622442722320557E-002;2.620401326566935E-003;-1.922987401485443E-003;
2.423500000000000E+009;1.464647203683853E-001;-9.590464085340500E-002;2.607107628136873E-003;-2.067204797640443E-003;
2.423666666666667E+009;1.451641023159027E-001;-9.570559114217758E-002;2.491831779479981E-003;-2.113157883286476E-003;
2.423833333333334E+009;1.440564244985580E-001;-9.541423618793488E-002;2.338310936465859E-003;-2.221750793978572E-003;
2.424000000000000E+009;1.426557451486588E-001;-9.505370259284973E-002;2.302293665707111E-003;-2.474170411005616E-003;
2.424166666666667E+009;1.412253230810165E-001;-9.495509415864945E-002;2.011012984439731E-003;-2.477715024724603E-003;
2.424333333333334E+009;1.399871259927750E-001;-9.477718919515610E-002;1.935821142978966E-003;-2.672346075996757E-003;
2.424500000000000E+009;1.384588479995728E-001;-9.487035125494003E-002;1.987242139875889E-003;-2.660353668034077E-003;
2.424666666666667E+009;1.371422111988068E-001;-9.474802017211914E-002;1.870276406407356E-003;-2.686659339815378E-003;
2.424833333333334E+009;1.355341374874115E-001;-9.502498805522919E-002;1.817819778807461E-003;-2.831711200997233E-003;
2.425000000000000E+009;1.340801566839218E-001;-9.541411697864533E-002;1.652840524911881E-003;-2.667059656232595E-003;
2.425166666666667E+009;1.323702931404114E-001;-9.585530310869217E-002;1.427149167284370E-003;-2.891823183745146E-003;
2.425333333333334E+009;1.310607343912125E-001;-9.630809724330902E-002;1.299953204579651E-003;-2.804850693792105E-003;
2.425500000000000E+009;1.296119987964630E-001;-9.708973020315170E-002;1.309443265199661E-003;-3.012986388057470E-003;
2.425666666666667E+009;1.279704123735428E-001;-9.781192988157272E-002;1.241739955730736E-003;-2.858143299818039E-003;
2.425833333333334E+009;1.268363147974014E-001;-9.867226332426071E-002;1.047774567268789E-003;-2.781173912808299E-003;
2.426000000000000E+009;1.253386288881302E-001;-9.982842206954956E-002;7.850684341974556E-004;-2.970752306282520E-003;
2.426166666666667E+009;1.240421533584595E-001;-1.009978950023651E-001;7.644472061656416E-004;-2.995120128616691E-003;
2.426333333333334E+009;1.226653382182121E-001;-1.022091358900070E-001;7.457700558006764E-004;-2.816896419972181E-003;
2.426500000000000E+009;1.215861514210701E-001;-1.036085188388825E-001;5.067745223641396E-004;-2.846625633537769E-003;
2.426666666666667E+009;1.204720810055733E-001;-1.048636510968208E-001;4.192988562863320E-004;-2.814057050272822E-003;
2.426833333333334E+009;1.192745193839073E-001;-1.064390540122986E-001;1.810333051253110E-004;-2.622236264869571E-003;
2.427000000000000E+009;1.181781515479088E-001;-1.079809814691544E-001;2.298345352755860E-004;-2.528777113184333E-003;
2.427166666666667E+009;1.172209829092026E-001;-1.095517724752426E-001;6.918214785400778E-005;-2.578743034973741E-003;
2.427333333333334E+009;1.163639873266220E-001;-1.112628728151321E-001;1.409512333339080E-004;-2.552126767113805E-003;
2.427500000000000E+009;1.156462654471397E-001;-1.130990758538246E-001;4.670232374337502E-005;-2.593314973637462E-003;
2.427666666666667E+009;1.148913428187370E-001;-1.148244515061379E-001;1.005727681331337E-004;-2.582170302048326E-003;
2.427833333333334E+009;1.141390502452850E-001;-1.166317313909531E-001;1.212909337482415E-004;-2.358685247600079E-003;
