# Version 1.00
#
freq[Hz];re:Trc1_S11;im:Trc1_S11;re:Trc2_S21;im:Trc2_S21;
2.400000000000000E+009;1.687271744012833E-001;4.695599898695946E-002;-2.643981715664268E-003;-6.661261431872845E-004;
2.400166666666667E+009;1.699049472808838E-001;4.608262702822685E-002;-2.665617736056447E-003;-6.867650081403554E-004;
2.400333333333334E+009;1.706349253654480E-001;4.492883756756783E-002;-2.673082984983921E-003;-6.680589867755771E-004;
2.400500000000000E+009;1.715594530105591E-001;4.387674853205681E-002;-2.714464208111167E-003;-6.409836350940168E-004;
2.400666666666667E+009;1.724067926406860E-001;4.291072487831116E-002;-2.799674868583679E-003;-5.920509574934840E-004;
2.400833333333334E+009;1.732747554779053E-001;4.218774288892746E-002;-2.757202601060271E-003;-5.250763497315347E-004;
2.401000000000000E+009;1.740078628063202E-001;4.141494259238243E-002;-2.856719540432096E-003;-4.451498971320689E-004;
2.401166666666667E+009;1.748455464839935E-001;4.067776724696159E-002;-3.037797985598445E-003;-3.368698235135526E-004;
2.401333333333334E+009;1.754641979932785E-001;3.981160745024681E-002;-3.043054835870862E-003;-3.186200337950140E-004;
2.401500000000000E+009;1.763456761837006E-001;3.924349322915077E-002;-3.117615822702646E-003;-1.818027376430109E-004;
2.401666666666667E+009;1.767844259738922E-001;3.862022981047630E-002;-2.992322901263833E-003;-2.628583752084523E-005;
2.401833333333334E+009;1.772847026586533E-001;3.808001056313515E-002;-3.186674788594246E-003;-7.229917537188157E-005;
2.402000000000000E+009;1.777150630950928E-001;3.742558881640434E-002;-3.133197547867894E-003;9.033303649630398E-005;
2.402166666666667E+009;1.781365871429443E-001;3.674811869859695E-002;-3.349072299897671E-003;1.784942869562656E-004;
2.402333333333334E+009;1.784405559301376E-001;3.607910126447678E-002;-3.300162497907877E-003;2.944909501820803E-004;
2.402500000000000E+009;1.788386851549149E-001;3.561080247163773E-002;-3.287051105871797E-003;3.372004721313715E-004;
2.402666666666667E+009;1.788069307804108E-001;3.494843095541000E-002;-3.323784098029137E-003;6.840427522547543E-004;
2.402833333333334E+009;1.791585534811020E-001;3.414495661854744E-002;-3.277002600952983E-003;5.939838592894375E-004;
2.403000000000000E+009;1.791107356548309E-001;3.348407521843910E-002;-3.322659293189645E-003;6.486590136773884E-004;
2.403166666666667E+009;1.791266351938248E-001;3.246387094259262E-002;-3.414026228711009E-003;8.633300894871354E-004;
2.403333333333334E+009;1.790837496519089E-001;3.170421347022057E-002;-3.460862440988421E-003;1.001911819912493E-003;
2.403500000000000E+009;1.789133995771408E-001;3.062924556434155E-002;-3.430749056860805E-003;1.022311975248158E-003;
2.403666666666667E+009;1.786601096391678E-001;2.969036810100079E-002;-3.338900394737721E-003;1.185066881589592E-003;
2.403833333333334E+009;1.782086044549942E-001;2.843529917299748E-002;-3.323464188724756E-003;1.406407915055752E-003;
2.404000000000000E+009;1.781400144100189E-001;2.743875607848167E-002;-3.491824259981513E-003;1.542152487672865E-003;
2.404166666666667E+009;1.776786893606186E-001;2.598433569073677E-002;-3.276324132457376E-003;1.606934820301831E-003;
2.404333333333334E+009;1.772405058145523E-001;2.498230896890163E-002;-3.241189522668719E-003;1.871227286756039E-003;
2.404500000000000E+009;1.765726059675217E-001;2.335484139621258E-002;-3.222782630473375E-003;2.172077074646950E-003;
2.404666666666667E+009;1.763744354248047E-001;2.189111150801182E-002;-3.228962887078524E-003;2.178440568968654E-003;
2.404833333333334E+009;1.758429706096649E-001;2.069125324487686E-002;-3.063142532482743E-003;2.332856180146337E-003;
2.405000000000000E+009;1.753504425287247E-001;1.914791762828827E-002;-2.778463298454881E-003;2.547837560996413E-003;
2.405166666666667E+009;1.749808490276337E-001;1.746174693107605E-002;-2.670742105692625E-003;2.745101926848292E-003;
2.405333333333334E+009;1.745499670505524E-001;1.560402102768421E-002;-2.639551181346178E-003;2.775055356323719E-003;
2.405500000000000E+009;1.739911437034607E-001;1.393844187259674E-002;-2.431096043437719E-003;2.975139999762178E-003;
2.405666666666667E+009;1.738652288913727E-001;1.233109366148710E-002;-2.320995554327965E-003;3.239565528929234E-003;
2.405833333333334E+009;1.733365952968597E-001;1.073312666267157E-002;-2.025229623541236E-003;3.220022656023502E-003;
2.406000000000000E+009;1.731887310743332E-001;8.678560145199299E-003;-1.919310656376183E-003;3.474636469036341E-003;
2.406166666666667E+009;1.729442328214645E-001;6.895632483065128E-003;-1.789352623745799E-003;3.468730021268129E-003;
2.406333333333334E+009;1.729406267404556E-001;4.793482366949320E-003;-1.522955019026995E-003;3.436997765675187E-003;
2.406500000000000E+009;1.727470308542252E-001;2.955835545435548E-003;-1.338491449132562E-003;3.348326310515404E-003;
2.406666666666667E+009;1.725257933139801E-001;9.162583155557513E-004;-1.167284557595849E-003;3.382613649591804E-003;
2.406833333333334E+009;1.727206856012344E-001;-1.256388844922185E-003;-8.690876420587301E-004;3.406781703233719E-003;
2.407000000000000E+009;1.728207021951675E-001;-3.286573570221663E-003;-6.988658569753170E-004;3.454807214438915E-003;
2.407166666666667E+009;1.731316149234772E-001;-5.307992920279503E-003;-6.811645580455661E-004;3.133395686745644E-003;
2.407333333333334E+009;1.732560694217682E-001;-7.414108607918024E-003;-5.708243697881699E-004;3.295081900432706E-003;
2.407500000000000E+009;1.735100895166397E-001;-9.443992748856545E-003;-3.901809395756573E-004;3.251906950026751E-003;
2.407666666666667E+009;1.738219112157822E-001;-1.143881026655436E-002;-1.999149098992348E-004;3.130264114588499E-003;
2.407833333333334E+009;1.741257905960083E-001;-1.363041531294584E-002;-7.831879338482395E-005;3.075140994042158E-003;
2.408000000000000E+009;1.745073646306992E-001;-1.569839194417000E-002;-2.144825702998787E-005;2.987805986776948E-003;
2.408166666666667E+009;1.749378591775894E-001;-1.751001365482807E-002;5.417679494712502E-005;2.777978312224150E-003;
2.408333333333334E+009;1.756498664617539E-001;-1.944593340158463E-002;1.533396862214431E-004;2.759195864200592E-003;
2.408500000000000E+009;1.759830713272095E-001;-2.144436724483967E-002;2.496408706065267E-004;2.726228907704353E-003;
2.408666666666667E+009;1.763696223497391E-001;-2.338000014424324E-002;2.532612998038530E-004;2.646233420819044E-003;
2.408833333333334E+009;1.768083274364471E-001;-2.499705553054810E-002;3.707905998453498E-004;2.548019867390394E-003;
2.409000000000000E+009;1.770420521497726E-001;-2.664392627775669E-002;2.910380135290325E-004;2.498092129826546E-003;
2.409166666666667E+009;1.776958405971527E-001;-2.825156599283218E-002;5.097593530081213E-004;2.480708528310061E-003;
2.409333333333334E+009;1.780589073896408E-001;-2.952014654874802E-002;5.911923362873495E-004;2.318343380466104E-003;
2.409500000000000E+009;1.785708814859390E-001;-3.091457672417164E-002;4.070731811225414E-004;2.325014676898718E-003;
2.409666666666667E+009;1.787987798452377E-001;-3.207969292998314E-002;2.838040527421981E-004;2.106179948896170E-003;
2.409833333333334E+009;1.792061477899551E-001;-3.289880231022835E-002;5.116456886753440E-004;2.252090489491820E-003;
2.410000000000000E+009;1.799221783876419E-001;-3.390945866703987E-002;5.285814986564219E-004;2.048354130238295E-003;
2.410166666666667E+009;1.804213076829910E-001;-3.493830189108849E-002;3.759203245863318E-004;2.090565627440810E-003;
2.410333333333334E+009;1.807447075843811E-001;-3.557707369327545E-002;3.970073594246060E-004;2.092370064929128E-003;
2.410500000000000E+009;1.810626834630966E-001;-3.618792071938515E-002;4.370753304101527E-004;2.120281103998423E-003;
2.410666666666667E+009;1.813657879829407E-001;-3.718486055731773E-002;4.128248256165534E-004;2.076021395623684E-003;
2.410833333333334E+009;1.817635595798492E-001;-3.758917748928070E-002;5.104932934045792E-004;2.197490772232413E-003;
2.411000000000000E+009;1.820966005325317E-001;-3.803865239024162E-002;4.738860880024731E-004;2.032310934737325E-003;
2.411166666666667E+009;1.822852790355682E-001;-3.873153030872345E-002;4.207283200230449E-004;2.033454598858953E-003;
2.411333333333334E+009;1.824256926774979E-001;-3.898262232542038E-002;3.791190101765096E-004;2.184299984946847E-003;
2.411500000000000E+009;1.822346895933151E-001;-3.970613703131676E-002;5.023156409151852E-004;2.052289200946689E-003;
2.411666666666667E+009;1.824013143777847E-001;-4.014286026358604E-002;4.980891826562583E-004;2.062673913314939E-003;
2.411833333333334E+009;1.821733564138413E-001;-4.040906205773354E-002;4.580027889460325E-004;2.064427826553583E-003;
2.412000000000000E+009;1.820759773254395E-001;-4.081302508711815E-002;5.280482582747936E-004;2.227968070656061E-003;
2.412166666666667E+009;1.815695762634277E-001;-4.109088331460953E-002;6.144533981569111E-004;2.280338900163770E-003;
2.412333333333334E+009;1.813509315252304E-001;-4.136652871966362E-002;7.349786465056241E-004;2.205061726272106E-003;
2.412500000000000E+009;1.806053817272186E-001;-4.174006730318070E-002;5.986156756989658E-004;2.185526071116328E-003;
2.412666666666667E+009;1.802483052015305E-001;-4.219188913702965E-002;8.285543299280107E-004;2.184687880799174E-003;
2.412833333333334E+009;1.793652921915054E-001;-4.247760400176048E-002;7.767394999973476E-004;2.354324562475085E-003;
2.413000000000000E+009;1.787834763526917E-001;-4.296808317303658E-002;8.734875591471791E-004;2.496386645361781E-003;
2.413166666666667E+009;1.776321381330490E-001;-4.323725402355194E-002;9.510346571914852E-004;2.280289074406028E-003;
2.413333333333334E+009;1.767322421073914E-001;-4.365853592753410E-002;9.542030165903270E-004;2.462412929162383E-003;
2.413500000000000E+009;1.757249087095261E-001;-4.437347128987312E-002;1.148076611571014E-003;2.318765968084335E-003;
2.413666666666667E+009;1.749069541692734E-001;-4.505996778607369E-002;9.358871611766517E-004;2.613367279991508E-003;
2.413833333333334E+009;1.737266331911087E-001;-4.554567858576775E-002;1.315749017521739E-003;2.526995493099093E-003;
2.414000000000000E+009;1.722790300846100E-001;-4.636310413479805E-002;1.313070184551179E-003;2.370950765907764E-003;
2.414166666666667E+009;1.713562607765198E-001;-4.709908738732338E-002;1.463312888517976E-003;2.465457655489445E-003;
2.414333333333334E+009;1.700165271759033E-001;-4.787582904100418E-002;1.582699129357934E-003;2.357438672333956E-003;
2.414500000000000E+009;1.692335009574890E-001;-4.884546250104904E-002;1.529573812149465E-003;2.454616827890277E-003;
2.414666666666667E+009;1.678372472524643E-001;-4.981144517660141E-002;1.771152950823307E-003;2.276947954669595E-003;
2.414833333333334E+009;1.664098501205444E-001;-5.094731226563454E-002;2.088587498292327E-003;2.434483962133527E-003;
2.415000000000000E+009;1.652222871780396E-001;-5.198141559958458E-002;1.924573676660657E-003;2.279882319271565E-003;
2.415166666666667E+009;1.639685481786728E-001;-5.326975882053375E-002;2.084938576444984E-003;2.294957172125578E-003;
2.415333333333334E+009;1.629092842340469E-001;-5.469362065196037E-002;2.226475393399596E-003;2.298592124134302E-003;
2.415500000000000E+009;1.617739051580429E-001;-5.609284341335297E-002;2.261568093672395E-003;2.147156978026032E-003;
2.415666666666667E+009;1.605111062526703E-001;-5.767496302723885E-002;2.691721310839057E-003;1.957138068974018E-003;
2.415833333333334E+009;1.595558077096939E-001;-5.925874039530754E-002;2.680388977751136E-003;2.023593056946993E-003;
2.416000000000000E+009;1.583716422319412E-001;-6.096198782324791E-002;2.750829793512821E-003;1.796037307940424E-003;
2.416166666666667E+009;1.576356589794159E-001;-6.273818761110306E-002;2.840803470462561E-003;1.690244767814875E-003;
2.416333333333334E+009;1.565712094306946E-001;-6.458700448274612E-002;2.842185320332646E-003;1.483624218963087E-003;
2.416500000000000E+009;1.557287871837616E-001;-6.647701561450958E-002;2.956371521577239E-003;1.498201512731612E-003;
2.416666666666667E+009;1.548260450363159E-001;-6.835775822401047E-002;2.922076499089599E-003;1.314299297519028E-003;
2.416833333333334E+009;1.541545242071152E-001;-7.044581323862076E-002;3.065744647756219E-003;1.209619455039501E-003;
2.417000000000000E+009;1.531691700220108E-001;-7.236576825380325E-002;3.163352143019438E-003;1.012375461868942E-003;
2.417166666666667E+009;1.525598764419556E-001;-7.423046231269836E-002;2.977197291329503E-003;9.504265035502613E-004;
2.417333333333334E+009;1.520355939865112E-001;-7.613412290811539E-002;3.027218859642744E-003;8.439004886895418E-004;
2.417500000000000E+009;1.515072733163834E-001;-7.828410714864731E-002;2.979237819090486E-003;7.979734218679369E-004;
2.417666666666667E+009;1.510878503322601E-001;-8.001527190208435E-002;3.069249913096428E-003;6.730864406563342E-004;
2.417833333333334E+009;1.506683528423309E-001;-8.178153634071350E-002;3.120089648291469E-003;3.765386936720461E-004;
2.418000000000000E+009;1.503029614686966E-001;-8.374230563640595E-002;3.009495092555881E-003;3.269346198067069E-004;
2.418166666666667E+009;1.500431597232819E-001;-8.537137508392334E-002;3.135543549433351E-003;1.941906666615978E-004;
2.418333333333334E+009;1.500633060932159E-001;-8.705928176641464E-002;3.040503012016416E-003;3.194165401509963E-005;
2.418500000000000E+009;1.498261243104935E-001;-8.866679668426514E-002;3.123817266896367E-003;4.460535637917928E-005;
2.418666666666667E+009;1.498567909002304E-001;-9.027664363384247E-002;3.034052904695272E-003;-2.250459219794720E-004;
2.418833333333334E+009;1.498094648122788E-001;-9.152154624462128E-002;2.808027900755405E-003;-2.017624938162044E-004;
2.419000000000000E+009;1.497020721435547E-001;-9.288545697927475E-002;2.836293075233698E-003;-2.568442723713815E-004;
2.419166666666667E+009;1.499371230602264E-001;-9.414519369602203E-002;2.836894243955612E-003;-4.426946397870779E-004;
2.419333333333334E+009;1.499317139387131E-001;-9.499305486679077E-002;2.853264333680272E-003;-4.925577668473125E-004;
2.419500000000000E+009;1.502771377563477E-001;-9.637322276830673E-002;2.708507236093283E-003;-5.578092532232404E-004;
2.419666666666667E+009;1.506502330303192E-001;-9.706146270036697E-002;2.654140349477530E-003;-5.060272524133325E-004;
2.419833333333334E+009;1.506931185722351E-001;-9.772568196058273E-002;2.587782684713602E-003;-6.658973870798945E-004;
2.420000000000000E+009;1.511041522026062E-001;-9.825154393911362E-002;2.606957452371717E-003;-6.368127069436014E-004;
2.420166666666667E+009;1.512920558452606E-001;-9.888310730457306E-002;2.368210814893246E-003;-8.254610584117472E-004;
2.420333333333334E+009;1.515871733427048E-001;-9.943971782922745E-002;2.408343134447932E-003;-7.589742890559137E-004;
2.420500000000000E+009;1.520396322011948E-001;-9.946018457412720E-002;2.369164256379008E-003;-7.293788366951048E-004;
2.420666666666667E+009;1.521971970796585E-001;-9.977607429027557E-002;2.289154101163149E-003;-7.896460592746735E-004;
2.420833333333334E+009;1.523438543081284E-001;-9.984847903251648E-002;2.428811276331544E-003;-6.973803392611444E-004;
2.421000000000000E+009;1.526609212160111E-001;-1.000361889600754E-001;2.355124568566680E-003;-7.347927312366664E-004;
2.421166666666667E+009;1.529291123151779E-001;-9.992130845785141E-002;2.446286845952272E-003;-7.212465279735625E-004;
2.421333333333334E+009;1.531941741704941E-001;-9.999280422925949E-002;2.115746261551976E-003;-6.659999489784241E-004;
2.421500000000000E+009;1.530828177928925E-001;-9.966912865638733E-002;2.355744829401374E-003;-6.733707850798965E-004;
2.421666666666667E+009;1.531523019075394E-001;-9.959923475980759E-002;2.334867138415575E-003;-8.109301561489701E-004;
2.421833333333334E+009;1.530825197696686E-001;-9.915965795516968E-002;2.415140625089407E-003;-8.649069350212812E-004;
2.422000000000000E+009;1.529068499803543E-001;-9.912681579589844E-002;2.527581527829170E-003;-8.300232584588230E-004;
2.422166666666667E+009;1.526236087083817E-001;-9.888859838247299E-002;2.374625299125910E-003;-9.556536679156125E-004;
2.422333333333334E+009;1.522138565778732E-001;-9.853193908929825E-002;2.605860121548176E-003;-1.092198188416660E-003;
2.422500000000000E+009;1.516962647438049E-001;-9.806193411350250E-002;2.688277978450060E-003;-1.045352080836892E-003;
2.422666666666667E+009;1.509786546230316E-001;-9.772305935621262E-002;2.575281774625182E-003;-1.294425805099309E-003;
2.422833333333334E+009;1.502770334482193E-001;-9.755212813615799E-002;2.684566425159574E-003;-1.302667311392725E-003;
2.423000000000000E+009;1.494951695203781E-001;-9.712275117635727E-002;2.640798222273588E-003;-1.552059082314372E-003;
2.423166666666667E+009;1.486830562353134E-001;-9.678044915199280E-002;2.668230794370174E-003;-1.708421041257680E-003;
2.423333333333334E+009;1.477224975824356E-001;-9.626382589340210E-002;2.601184416562319E-003;-1.813896000385284E-003;
2.423500000000000E+009;1.464408785104752E-001;-9.589845687150955E-002;2.508155768737197E-003;-1.949973870068789E-003;
2.423666666666667E+009;1.450746208429337E-001;-9.571946412324905E-002;2.319664461538196E-003;-2.178785856813192E-003;
2.423833333333334E+009;1.440241187810898E-001;-9.549085050821304E-002;2.292191842570901E-003;-2.130318200215697E-003;
2.424000000000000E+009;1.426013708114624E-001;-9.514446556568146E-002;2.261910820379853E-003;-2.299834974110127E-003;
2.424166666666667E+009;1.411373168230057E-001;-9.492473304271698E-002;2.169420709833503E-003;-2.396474359557033E-003;
2.424333333333334E+009;1.399057805538178E-001;-9.481195360422134E-002;1.983627909794450E-003;-2.514012390747666E-003;
2.424500000000000E+009;1.384253799915314E-001;-9.481165558099747E-002;1.811047550290823E-003;-2.538568340241909E-003;
2.424666666666667E+009;1.371341496706009E-001;-9.479779750108719E-002;1.768051879480481E-003;-2.647488377988339E-003;
2.424833333333334E+009;1.354435980319977E-001;-9.502270817756653E-002;1.666930154897273E-003;-2.604385139420629E-003;
2.425000000000000E+009;1.341167539358139E-001;-9.550445526838303E-002;1.518327859230340E-003;-2.688513835892081E-003;
2.425166666666667E+009;1.324317306280136E-001;-9.581618756055832E-002;1.599702867679298E-003;-2.831061603501439E-003;
2.425333333333334E+009;1.310103237628937E-001;-9.623160958290100E-002;1.310919644311070E-003;-2.726293401792646E-003;
2.425500000000000E+009;1.295993477106094E-001;-9.701183438301086E-002;1.246783416718245E-003;-2.779729431495071E-003;
2.425666666666667E+009;1.279258131980896E-001;-9.783033281564713E-002;1.081918831914663E-003;-2.958200871944428E-003;
2.425833333333334E+009;1.266434639692307E-001;-9.870746731758118E-002;1.002441393211484E-003;-2.937738317996264E-003;
2.426000000000000E+009;1.253464370965958E-001;-9.988178312778473E-002;8.064925204962492E-004;-2.955636708065867E-003;
2.426166666666667E+009;1.240602955222130E-001;-1.009570360183716E-001;7.661743438802660E-004;-2.975051756948233E-003;
2.426333333333334E+009;1.226206049323082E-001;-1.021610796451569E-001;5.488900933414698E-004;-2.749679610133171E-003;
2.426500000000000E+009;1.215544566512108E-001;-1.034892648458481E-001;4.021392087452114E-004;-2.922553569078445E-003;
2.426666666666667E+009;1.204252019524574E-001;-1.048271209001541E-001;3.743013949133456E-004;-2.835816936567426E-003;
2.426833333333334E+009;1.192146539688110E-001;-1.063363403081894E-001;2.036028017755598E-004;-2.831427147611976E-003;
2.427000000000000E+009;1.181869953870773E-001;-1.080845668911934E-001;1.606420264579356E-004;-2.638061530888081E-003;
2.427166666666667E+009;1.171323880553246E-001;-1.095235347747803E-001;6.938016304047778E-005;-2.615840174257755E-003;
2.427333333333334E+009;1.163529381155968E-001;-1.113251298666000E-001;3.184851811965928E-005;-2.591461874544621E-003;
2.427500000000000E+009;1.156842783093453E-001;-1.129657849669457E-001;5.893543493584730E-005;-2.614530269056559E-003;
2.427666666666667E+009;1.148767620325089E-001;-1.148031353950501E-001;7.498568720620824E-006;-2.400320488959551E-003;
2.427833333333334E+009;1.141818612813950E-001;-1.166909933090210E-001;-2.371413283981383E-004;-2.306779613718391E-003;
