# Version 1.00
#
freq[Hz];re:Trc1_S11;im:Trc1_S11;re:Trc2_S21;im:Trc2_S21;
2.400000000000000E+009;1.553472429513931E-001;1.102065742015839E-001;-2.154860412701964E-003;3.514412790536881E-003;
2.400166666666667E+009;1.547840088605881E-001;1.078488379716873E-001;-2.041199710220099E-003;3.552033798769116E-003;
2.400333333333334E+009;1.545289158821106E-001;1.055572107434273E-001;-1.763229374773800E-003;3.759686835110188E-003;
2.400500000000000E+009;1.542339622974396E-001;1.029377058148384E-001;-1.584022305905819E-003;3.682003123685718E-003;
2.400666666666667E+009;1.539502888917923E-001;1.004320085048676E-001;-1.421990687958896E-003;3.752407385036349E-003;
2.400833333333334E+009;1.538109630346298E-001;9.746032953262329E-002;-1.478402758948505E-003;3.703556023538113E-003;
2.401000000000000E+009;1.536135077476502E-001;9.472750872373581E-002;-1.299186493270099E-003;3.667230717837811E-003;
2.401166666666667E+009;1.534175872802734E-001;9.188823401927948E-002;-1.266887411475182E-003;3.757253289222717E-003;
2.401333333333334E+009;1.534326225519180E-001;8.895780146121979E-002;-1.247545937076211E-003;3.798811230808497E-003;
2.401500000000000E+009;1.536280363798142E-001;8.580886572599411E-002;-1.210526679642499E-003;3.715971251949668E-003;
2.401666666666667E+009;1.537436246871948E-001;8.279552310705185E-002;-1.055327360518277E-003;3.722739638760686E-003;
2.401833333333334E+009;1.539373248815537E-001;7.988885045051575E-002;-9.838836267590523E-004;3.695254446938634E-003;
2.402000000000000E+009;1.546967327594757E-001;7.706470042467117E-002;-1.053602667525411E-003;3.723012981936336E-003;
2.402166666666667E+009;1.553060412406921E-001;7.437843084335327E-002;-1.013963017612696E-003;4.028097726404667E-003;
2.402333333333334E+009;1.560894250869751E-001;7.145650684833527E-002;-1.038658549077809E-003;3.974473569542170E-003;
2.402500000000000E+009;1.571334600448608E-001;6.860688328742981E-002;-9.166190866380930E-004;4.177181981503964E-003;
2.402666666666667E+009;1.582556217908859E-001;6.616885960102081E-002;-8.149495697580278E-004;4.366275388747454E-003;
2.402833333333334E+009;1.593828350305557E-001;6.341457366943359E-002;-7.579240482300520E-004;4.440776072442532E-003;
2.403000000000000E+009;1.606638878583908E-001;6.076666340231895E-002;-5.250013200566173E-004;4.716230090707541E-003;
2.403166666666667E+009;1.625006347894669E-001;5.841180682182312E-002;-4.314772959332913E-004;4.654533695429564E-003;
2.403333333333334E+009;1.637699007987976E-001;5.583044141530991E-002;-2.780193171929568E-004;4.721511155366898E-003;
2.403500000000000E+009;1.655009984970093E-001;5.343042686581612E-002;-3.625039607868530E-005;4.998796153813601E-003;
2.403666666666667E+009;1.674871891736984E-001;5.153895169496536E-002;4.373279225546867E-004;5.094326566904783E-003;
2.403833333333334E+009;1.692972928285599E-001;4.938683658838272E-002;7.731718942523003E-004;5.134871695190668E-003;
2.404000000000000E+009;1.707720458507538E-001;4.725168272852898E-002;9.878925047814846E-004;5.155686289072037E-003;
2.404166666666667E+009;1.726744174957275E-001;4.569974914193153E-002;1.291780965402722E-003;5.269424058496952E-003;
2.404333333333334E+009;1.744583100080490E-001;4.386003315448761E-002;1.641857554204762E-003;5.119217559695244E-003;
2.404500000000000E+009;1.763639748096466E-001;4.225664213299751E-002;1.819306751713157E-003;5.032221321016550E-003;
2.404666666666667E+009;1.780369430780411E-001;4.120354354381561E-002;2.158825984224677E-003;4.707150626927614E-003;
2.404833333333334E+009;1.800120323896408E-001;3.990854695439339E-002;2.184158656746149E-003;4.639254417270422E-003;
2.405000000000000E+009;1.815465092658997E-001;3.920691832900047E-002;2.629187889397144E-003;4.540086258202791E-003;
2.405166666666667E+009;1.832306981086731E-001;3.823230415582657E-002;2.726282225921750E-003;4.448226653039455E-003;
2.405333333333334E+009;1.847528815269470E-001;3.783036395907402E-002;2.968103857710958E-003;4.143133293837309E-003;
2.405500000000000E+009;1.864446699619293E-001;3.728136047720909E-002;3.142262110486627E-003;4.118148237466812E-003;
2.405666666666667E+009;1.878772228956223E-001;3.715750575065613E-002;3.239980665966868E-003;3.895667847245932E-003;
2.405833333333334E+009;1.893767416477203E-001;3.697367012500763E-002;3.389979945495725E-003;3.791947383433580E-003;
2.406000000000000E+009;1.906491667032242E-001;3.667785972356796E-002;3.504114458337426E-003;3.524525091052055E-003;
2.406166666666667E+009;1.919614225625992E-001;3.673121705651283E-002;3.657620167359710E-003;3.265029750764370E-003;
2.406333333333334E+009;1.931493729352951E-001;3.690400347113609E-002;3.945733420550823E-003;3.078232053667307E-003;
2.406500000000000E+009;1.941406279802322E-001;3.715994954109192E-002;4.003009293228388E-003;3.009901149198413E-003;
2.406666666666667E+009;1.948902755975723E-001;3.753517940640450E-002;3.982214722782373E-003;2.667227992787957E-003;
2.406833333333334E+009;1.956145465373993E-001;3.775528445839882E-002;4.126710817217827E-003;2.640420105308294E-003;
2.407000000000000E+009;1.962435394525528E-001;3.808476775884628E-002;4.111548420041800E-003;2.420264529064298E-003;
2.407166666666667E+009;1.968224793672562E-001;3.823636472225189E-002;4.125693347305059E-003;2.247828058898449E-003;
2.407333333333334E+009;1.969885975122452E-001;3.880327567458153E-002;4.304198082536459E-003;2.050120849162340E-003;
2.407500000000000E+009;1.970584243535996E-001;3.920595720410347E-002;4.246233031153679E-003;1.869228435680270E-003;
2.407666666666667E+009;1.973758786916733E-001;3.950138017535210E-002;4.338602069765329E-003;1.544404891319573E-003;
2.407833333333334E+009;1.969872117042542E-001;3.970849514007568E-002;4.422078374773264E-003;1.553309615701437E-003;
2.408000000000000E+009;1.970464289188385E-001;4.001412913203239E-002;4.454005043953657E-003;1.282301847822964E-003;
2.408166666666667E+009;1.965768039226532E-001;3.988949954509735E-002;4.437328316271305E-003;1.030440209433436E-003;
2.408333333333334E+009;1.962246149778366E-001;3.990811109542847E-002;4.405153915286064E-003;8.645085035823286E-004;
2.408500000000000E+009;1.955413073301315E-001;3.998643159866333E-002;4.553221631795168E-003;5.460215033963323E-004;
2.408666666666667E+009;1.948870122432709E-001;3.986747562885284E-002;4.255969077348709E-003;4.723763850051910E-004;
2.408833333333334E+009;1.943063139915466E-001;3.952066972851753E-002;4.433121997863054E-003;3.274769405834377E-004;
2.409000000000000E+009;1.932617425918579E-001;3.894485905766487E-002;4.085737280547619E-003;1.620955881662667E-004;
2.409166666666667E+009;1.923066675662994E-001;3.818379342556000E-002;4.010437522083521E-003;-3.644519892986864E-005;
2.409333333333334E+009;1.913865059614182E-001;3.743794187903404E-002;4.022451583296061E-003;-2.532154030632228E-004;
2.409500000000000E+009;1.901027560234070E-001;3.651489317417145E-002;3.714932128787041E-003;-4.451446293387562E-004;
2.409666666666667E+009;1.889839917421341E-001;3.549016267061234E-002;3.640199778601527E-003;-5.338406772352755E-004;
2.409833333333334E+009;1.877600103616715E-001;3.427188098430634E-002;3.521774196997285E-003;-4.184815916232765E-004;
2.410000000000000E+009;1.866630613803864E-001;3.283220529556274E-002;3.293121699243784E-003;-4.936534678563476E-004;
2.410166666666667E+009;1.855008155107498E-001;3.115383721888065E-002;3.282875753939152E-003;-5.469559691846371E-004;
2.410333333333334E+009;1.843414902687073E-001;2.959962002933025E-002;3.135951468721032E-003;-5.816997727379203E-004;
2.410500000000000E+009;1.831739693880081E-001;2.788749523460865E-002;3.151181153953075E-003;-5.895764334127307E-004;
2.410666666666667E+009;1.819922477006912E-001;2.571636252105236E-002;3.085135482251644E-003;-6.043849280104041E-004;
2.410833333333334E+009;1.812757849693298E-001;2.355876006186009E-002;2.970926463603973E-003;-5.784592940472066E-004;
2.411000000000000E+009;1.802222877740860E-001;2.140190266072750E-002;3.060086397454143E-003;-4.518832429312170E-004;
2.411166666666667E+009;1.792501062154770E-001;1.929266005754471E-002;2.918745856732130E-003;-5.777869373559952E-004;
2.411333333333334E+009;1.786698102951050E-001;1.654770597815514E-002;2.898600650951266E-003;-6.370770861394703E-004;
2.411500000000000E+009;1.778893470764160E-001;1.425666455179453E-002;2.923784544691443E-003;-6.441946607083082E-004;
2.411666666666667E+009;1.775498241186142E-001;1.193882431834936E-002;2.850928343832493E-003;-4.938220954500139E-004;
2.411833333333334E+009;1.771173477172852E-001;9.319376200437546E-003;2.652533585205674E-003;-5.790753057226539E-004;
2.412000000000000E+009;1.771127134561539E-001;6.541093811392784E-003;2.732154214754701E-003;-7.233726792037487E-004;
2.412166666666667E+009;1.771072298288345E-001;4.100342746824026E-003;2.688193693757057E-003;-5.652453401125968E-004;
2.412333333333334E+009;1.771501600742340E-001;1.515945536084473E-003;2.785570686683059E-003;-5.878734518773854E-004;
2.412500000000000E+009;1.774390488862991E-001;-1.192591502331197E-003;2.833377104252577E-003;-6.438561831600964E-004;
2.412666666666667E+009;1.778217107057571E-001;-3.875208320096135E-003;2.752854954451323E-003;-6.177645991556346E-004;
2.412833333333334E+009;1.784022301435471E-001;-6.495944224298000E-003;2.813299186527729E-003;-5.580064607784152E-004;
2.413000000000000E+009;1.791083961725235E-001;-9.097542613744736E-003;2.862823195755482E-003;-6.574573926627636E-004;
2.413166666666667E+009;1.799313426017761E-001;-1.164843793958426E-002;3.016685834154487E-003;-4.822960472665727E-004;
2.413333333333334E+009;1.810263842344284E-001;-1.423297729343176E-002;2.958513563498855E-003;-5.614566034637392E-004;
2.413500000000000E+009;1.817678958177567E-001;-1.673316955566406E-002;3.243576968088746E-003;-6.583634531125426E-004;
2.413666666666667E+009;1.832084953784943E-001;-1.920102909207344E-002;3.089497098699212E-003;-7.123278337530792E-004;
2.413833333333334E+009;1.842138022184372E-001;-2.137479931116104E-002;3.308751387521625E-003;-7.383390911854804E-004;
2.414000000000000E+009;1.852570623159409E-001;-2.375200949609280E-002;3.409113036468625E-003;-9.653287706896663E-004;
2.414166666666667E+009;1.869118660688400E-001;-2.591482549905777E-002;3.362218616530299E-003;-9.644094388931990E-004;
2.414333333333334E+009;1.880753636360169E-001;-2.819848619401455E-002;3.511321032419801E-003;-9.377285023219883E-004;
2.414500000000000E+009;1.896088868379593E-001;-2.974876016378403E-002;3.584537887945771E-003;-1.254770555533469E-003;
2.414666666666667E+009;1.909865885972977E-001;-3.155267611145973E-002;3.378093009814620E-003;-1.325320452451706E-003;
2.414833333333334E+009;1.923017054796219E-001;-3.304541110992432E-002;3.592539811506867E-003;-1.615067711099982E-003;
2.415000000000000E+009;1.936753392219544E-001;-3.449502587318420E-002;3.626155667006970E-003;-1.734646502882242E-003;
2.415166666666667E+009;1.952345222234726E-001;-3.590794652700424E-002;3.776870900765061E-003;-1.948069431819022E-003;
2.415333333333334E+009;1.965342611074448E-001;-3.700235113501549E-002;3.620782634243369E-003;-2.206837059929967E-003;
2.415500000000000E+009;1.979505568742752E-001;-3.790817782282829E-002;3.666373435407877E-003;-2.227793680503964E-003;
2.415666666666667E+009;1.992246657609940E-001;-3.887374699115753E-002;3.658274421468377E-003;-2.516746288165450E-003;
2.415833333333334E+009;2.003507167100906E-001;-3.962755575776100E-002;3.697508946061134E-003;-2.662979532033205E-003;
2.416000000000000E+009;2.014528810977936E-001;-4.021243751049042E-002;3.496950026601553E-003;-2.753265900537372E-003;
2.416166666666667E+009;2.025225311517716E-001;-4.090064018964768E-002;3.482674248516560E-003;-2.952518640086055E-003;
2.416333333333334E+009;2.034175097942352E-001;-4.120530560612679E-002;3.266713814809918E-003;-2.982533304020762E-003;
2.416500000000000E+009;2.042194902896881E-001;-4.156740009784699E-002;3.300605341792107E-003;-3.243404207751155E-003;
2.416666666666667E+009;2.047833055257797E-001;-4.188056662678719E-002;3.092430531978607E-003;-3.582454985007644E-003;
2.416833333333334E+009;2.052610963582993E-001;-4.189521446824074E-002;3.042295575141907E-003;-3.800946054980159E-003;
2.417000000000000E+009;2.056501954793930E-001;-4.199516773223877E-002;2.874781610444188E-003;-3.843438811600208E-003;
2.417166666666667E+009;2.056814879179001E-001;-4.183445498347282E-002;2.766477875411511E-003;-4.020676482468844E-003;
2.417333333333334E+009;2.056332677602768E-001;-4.154504463076592E-002;2.564680064097047E-003;-4.087070934474468E-003;
2.417500000000000E+009;2.056256532669067E-001;-4.143715649843216E-002;2.329803304746747E-003;-4.332126583904028E-003;
2.417666666666667E+009;2.052650451660156E-001;-4.110705107450485E-002;2.172026084735990E-003;-4.442462231963873E-003;
2.417833333333334E+009;2.051365375518799E-001;-4.084064811468124E-002;1.922773197293282E-003;-4.469503182917833E-003;
2.418000000000000E+009;2.047858238220215E-001;-4.041254892945290E-002;1.925497665069997E-003;-4.583687055855990E-003;
2.418166666666667E+009;2.039925754070282E-001;-4.004358872771263E-002;1.949021825566888E-003;-4.876028280705214E-003;
2.418333333333334E+009;2.032457143068314E-001;-3.974543884396553E-002;1.721313688904047E-003;-4.841072019189596E-003;
2.418500000000000E+009;2.022765129804611E-001;-3.960621729493141E-002;1.478918245993555E-003;-4.972041584551334E-003;
2.418666666666667E+009;2.014617025852203E-001;-3.926991298794746E-002;1.287493854761124E-003;-5.056414753198624E-003;
2.418833333333334E+009;2.003350108861923E-001;-3.926535695791245E-002;1.158080063760281E-003;-5.183407105505467E-003;
2.419000000000000E+009;1.990625709295273E-001;-3.930683434009552E-002;8.510754560120404E-004;-5.259365774691105E-003;
2.419166666666667E+009;1.979120224714279E-001;-3.938719257712364E-002;6.419272976927459E-004;-5.344440694898367E-003;
2.419333333333334E+009;1.964865624904633E-001;-3.968225046992302E-002;3.690097364597023E-004;-5.307024810463190E-003;
2.419500000000000E+009;1.947331279516220E-001;-3.986149653792381E-002;1.231928472407162E-004;-5.550406407564879E-003;
2.419666666666667E+009;1.931825280189514E-001;-4.040404409170151E-002;1.679663728282321E-005;-5.596120376139879E-003;
2.419833333333334E+009;1.914609968662262E-001;-4.098587110638619E-002;-3.736159123945981E-004;-5.598827265202999E-003;
2.420000000000000E+009;1.897827684879303E-001;-4.184270277619362E-002;-4.657273821067065E-004;-5.546434782445431E-003;
2.420166666666667E+009;1.879196763038635E-001;-4.248753190040588E-002;-8.373324526473880E-004;-5.582935176789761E-003;
2.420333333333334E+009;1.862922757863998E-001;-4.357130080461502E-002;-1.125147100538015E-003;-5.327095277607441E-003;
2.420500000000000E+009;1.844207346439362E-001;-4.478449001908302E-002;-1.502357306890190E-003;-5.396078806370497E-003;
2.420666666666667E+009;1.824510246515274E-001;-4.570556059479713E-002;-1.694137812592089E-003;-5.371313542127609E-003;
2.420833333333334E+009;1.807123720645905E-001;-4.734345525503159E-002;-1.921172020956874E-003;-5.176576320081949E-003;
2.421000000000000E+009;1.789471954107285E-001;-4.874344170093536E-002;-2.123522339388728E-003;-4.909165203571320E-003;
2.421166666666667E+009;1.775350719690323E-001;-5.055033415555954E-002;-2.255071187391877E-003;-4.811844788491726E-003;
2.421333333333334E+009;1.755034923553467E-001;-5.195412784814835E-002;-2.438620431348681E-003;-4.781260620802641E-003;
2.421500000000000E+009;1.739393323659897E-001;-5.407222360372543E-002;-2.532375045120716E-003;-4.515721462666988E-003;
2.421666666666667E+009;1.724795252084732E-001;-5.590771883726120E-002;-2.457635710015893E-003;-4.386035725474358E-003;
2.421833333333334E+009;1.711008399724960E-001;-5.760509893298149E-002;-2.664262894541025E-003;-4.204411059617996E-003;
2.422000000000000E+009;1.695976555347443E-001;-5.997224897146225E-002;-2.858095802366734E-003;-4.128903150558472E-003;
2.422166666666667E+009;1.685249060392380E-001;-6.209780648350716E-002;-2.867228817194700E-003;-3.986665513366461E-003;
2.422333333333334E+009;1.674806624650955E-001;-6.418506801128388E-002;-2.909092232584953E-003;-3.925418946892023E-003;
2.422500000000000E+009;1.663817018270493E-001;-6.618217378854752E-002;-3.164971247315407E-003;-3.772870171815157E-003;
2.422666666666667E+009;1.654265969991684E-001;-6.845643371343613E-002;-3.197622951120138E-003;-3.727614646777511E-003;
2.422833333333334E+009;1.648836135864258E-001;-7.081957906484604E-002;-3.355983644723892E-003;-3.586488310247660E-003;
2.423000000000000E+009;1.641915142536163E-001;-7.290699332952499E-002;-3.257901873439550E-003;-3.470494644716382E-003;
2.423166666666667E+009;1.637756973505020E-001;-7.510479539632797E-002;-3.420961089432240E-003;-3.363640746101737E-003;
2.423333333333334E+009;1.634434461593628E-001;-7.741729915142059E-002;-3.535898169502616E-003;-3.256203373894095E-003;
2.423500000000000E+009;1.633577197790146E-001;-7.939928025007248E-002;-3.665854688733816E-003;-3.081559902057052E-003;
2.423666666666667E+009;1.633970737457275E-001;-8.148479461669922E-002;-3.845087019726634E-003;-3.156329505145550E-003;
2.423833333333334E+009;1.631297916173935E-001;-8.354570716619492E-002;-3.998358268290758E-003;-2.822344657033682E-003;
2.424000000000000E+009;1.633047759532929E-001;-8.560623228549957E-002;-4.144828300923109E-003;-2.842085435986519E-003;
2.424166666666667E+009;1.634300202131271E-001;-8.752602338790894E-002;-4.268960561603308E-003;-2.622917760163546E-003;
2.424333333333334E+009;1.638106256723404E-001;-8.927787095308304E-002;-4.279590211808682E-003;-2.386146923527122E-003;
2.424500000000000E+009;1.640891134738922E-001;-9.128848463296890E-002;-4.442101810127497E-003;-2.299080602824688E-003;
2.424666666666667E+009;1.645615547895432E-001;-9.281351417303085E-002;-4.461337812244892E-003;-2.000946784391999E-003;
2.424833333333334E+009;1.651303619146347E-001;-9.434804320335388E-002;-4.633811302483082E-003;-1.767834648489952E-003;
2.425000000000000E+009;1.656633019447327E-001;-9.583455324172974E-002;-4.707663785666227E-003;-1.698451931588352E-003;
2.425166666666667E+009;1.660650074481964E-001;-9.716095030307770E-002;-4.604021087288857E-003;-1.513021183200181E-003;
2.425333333333334E+009;1.666870266199112E-001;-9.832246601581574E-002;-4.601872060447931E-003;-1.124269329011440E-003;
2.425500000000000E+009;1.673547327518463E-001;-9.935738891363144E-002;-4.776804242283106E-003;-1.143795088864863E-003;
2.425666666666667E+009;1.679505854845047E-001;-1.002517268061638E-001;-4.689871333539486E-003;-8.703738567419350E-004;
2.425833333333334E+009;1.684532612562180E-001;-1.012840718030930E-001;-4.636030178517103E-003;-5.705761723220348E-004;
2.426000000000000E+009;1.691733300685883E-001;-1.018731594085693E-001;-4.605718422681093E-003;-4.203000862617046E-004;
2.426166666666667E+009;1.697209030389786E-001;-1.024119406938553E-001;-4.582108929753304E-003;-3.590514243114740E-004;
2.426333333333334E+009;1.699858307838440E-001;-1.031181588768959E-001;-4.651522729545832E-003;-1.480736682424322E-004;
2.426500000000000E+009;1.707095652818680E-001;-1.032715737819672E-001;-4.512404557317495E-003;8.131145295919851E-005;
2.426666666666667E+009;1.711562126874924E-001;-1.036739498376846E-001;-4.484523553401232E-003;4.722543962998316E-005;
2.426833333333334E+009;1.717632561922073E-001;-1.039365753531456E-001;-4.367023240774870E-003;3.909335355274379E-004;
2.427000000000000E+009;1.719219386577606E-001;-1.041488498449326E-001;-4.449812229722738E-003;5.245861830189824E-004;
2.427166666666667E+009;1.722575724124908E-001;-1.043190658092499E-001;-4.309227224439383E-003;5.543195293284953E-004;
2.427333333333334E+009;1.724396049976349E-001;-1.044262424111366E-001;-4.212716128677130E-003;7.881887140683830E-004;
2.427500000000000E+009;1.723805963993073E-001;-1.045989394187927E-001;-4.138916730880737E-003;1.044610748067498E-003;
2.427666666666667E+009;1.722706705331802E-001;-1.045456528663635E-001;-3.939936403185129E-003;1.060228096321225E-003;
