# Version 1.00
#
freq[Hz];re:Trc1_S11;im:Trc1_S11;re:Trc2_S21;im:Trc2_S21;
2.400000000000000E+009;1.557039022445679E-001;1.106888055801392E-001;-2.125768922269344E-003;3.417801111936569E-003;
2.400166666666667E+009;1.551427990198135E-001;1.083453372120857E-001;-2.159410854801536E-003;3.520027967169881E-003;
2.400333333333334E+009;1.549626588821411E-001;1.062111631035805E-001;-2.003133529797196E-003;3.558632917702198E-003;
2.400500000000000E+009;1.546279042959213E-001;1.035523414611816E-001;-1.730995136313140E-003;3.649811958894134E-003;
2.400666666666667E+009;1.542966514825821E-001;1.009673848748207E-001;-1.555433613248169E-003;3.613674081861973E-003;
2.400833333333334E+009;1.540752202272415E-001;9.793735295534134E-002;-1.478349207900465E-003;3.677216591313481E-003;
2.401000000000000E+009;1.540408432483673E-001;9.534057974815369E-002;-1.463197753764689E-003;3.489894792437553E-003;
2.401166666666667E+009;1.537443548440933E-001;9.230225533246994E-002;-1.142718829214573E-003;3.498325357213616E-003;
2.401333333333334E+009;1.537686735391617E-001;8.956278860569000E-002;-1.108911936171353E-003;3.621235257014632E-003;
2.401500000000000E+009;1.540032029151917E-001;8.644352853298187E-002;-1.135111204348505E-003;3.491268726065755E-003;
2.401666666666667E+009;1.542034298181534E-001;8.326052874326706E-002;-1.161248655989766E-003;3.563282545655966E-003;
2.401833333333334E+009;1.544999629259110E-001;8.038813620805740E-002;-1.144944457337260E-003;3.624676959589124E-003;
2.402000000000000E+009;1.550255715847015E-001;7.742851227521896E-002;-1.031855586916208E-003;3.676887135952711E-003;
2.402166666666667E+009;1.556792557239533E-001;7.473655790090561E-002;-1.120567787438631E-003;3.928261809051037E-003;
2.402333333333334E+009;1.566205322742462E-001;7.181804627180100E-002;-1.043670345097780E-003;3.950993530452251E-003;
2.402500000000000E+009;1.575560122728348E-001;6.910964846611023E-002;-9.125173091888428E-004;4.002943169325590E-003;
2.402666666666667E+009;1.586510986089706E-001;6.646848469972611E-002;-8.501795236952603E-004;4.136171191930771E-003;
2.402833333333334E+009;1.598778963088989E-001;6.372714042663574E-002;-8.919840329326689E-004;4.435154143720865E-003;
2.403000000000000E+009;1.612740308046341E-001;6.116339936852455E-002;-4.914495511911809E-004;4.588271956890822E-003;
2.403166666666667E+009;1.628766506910324E-001;5.880336090922356E-002;-2.947878383565694E-004;4.727708641439676E-003;
2.403333333333334E+009;1.644160151481628E-001;5.631170794367790E-002;-2.641074243001640E-004;4.798354115337133E-003;
2.403500000000000E+009;1.659138053655624E-001;5.398813635110855E-002;-1.659078589000274E-005;4.860081709921360E-003;
2.403666666666667E+009;1.677785366773605E-001;5.170893669128418E-002;2.910148177761585E-004;5.136742256581783E-003;
2.403833333333334E+009;1.695502847433090E-001;4.971269145607948E-002;6.513259140774608E-004;5.043815355747938E-003;
2.404000000000000E+009;1.712902784347534E-001;4.761080071330071E-002;8.967840112745762E-004;5.120554007589817E-003;
2.404166666666667E+009;1.731337904930115E-001;4.591177403926849E-002;1.166829722933471E-003;5.095649976283312E-003;
2.404333333333334E+009;1.749546974897385E-001;4.430951550602913E-002;1.569133019074798E-003;5.060276947915554E-003;
2.404500000000000E+009;1.767658740282059E-001;4.259634390473366E-002;1.783868414349854E-003;4.889852367341518E-003;
2.404666666666667E+009;1.785775572061539E-001;4.136228561401367E-002;2.020315965637565E-003;4.829723387956619E-003;
2.404833333333334E+009;1.804150640964508E-001;4.013244807720184E-002;2.269332762807608E-003;4.625693894922733E-003;
2.405000000000000E+009;1.820636838674545E-001;3.937531635165215E-002;2.453467575833201E-003;4.449947271496058E-003;
2.405166666666667E+009;1.836798340082169E-001;3.858208283782005E-002;2.681401558220387E-003;4.334892146289349E-003;
2.405333333333334E+009;1.852870881557465E-001;3.812070563435555E-002;2.889779163524509E-003;4.334047902375460E-003;
2.405500000000000E+009;1.869288384914398E-001;3.749978914856911E-002;3.026376944035292E-003;4.127644933760166E-003;
2.405666666666667E+009;1.884502172470093E-001;3.718900308012962E-002;3.318378701806068E-003;3.871998982504010E-003;
2.405833333333334E+009;1.899565309286118E-001;3.713388368487358E-002;3.308143699541688E-003;3.622406627982855E-003;
2.406000000000000E+009;1.911604106426239E-001;3.691632300615311E-002;3.629958024248481E-003;3.505887463688850E-003;
2.406166666666667E+009;1.923744529485703E-001;3.678986057639122E-002;3.663682145997882E-003;3.346665995195508E-003;
2.406333333333334E+009;1.936343312263489E-001;3.706396743655205E-002;3.660448594018817E-003;3.244884544983506E-003;
2.406500000000000E+009;1.945771872997284E-001;3.727703914046288E-002;3.837055759504437E-003;2.982149133458734E-003;
2.406666666666667E+009;1.955256015062332E-001;3.746535629034042E-002;4.070287104696035E-003;2.824360970407724E-003;
2.406833333333334E+009;1.963242143392563E-001;3.777983039617539E-002;4.017999861389399E-003;2.624523360282183E-003;
2.407000000000000E+009;1.967586725950241E-001;3.826669976115227E-002;4.074586555361748E-003;2.468715421855450E-003;
2.407166666666667E+009;1.973926275968552E-001;3.826463967561722E-002;4.143757279962301E-003;2.265763701871038E-003;
2.407333333333334E+009;1.975257247686386E-001;3.874585777521133E-002;4.259517882019281E-003;2.027404727414250E-003;
2.407500000000000E+009;1.976388990879059E-001;3.915926814079285E-002;4.207152873277664E-003;1.952245365828276E-003;
2.407666666666667E+009;1.979261636734009E-001;3.940895199775696E-002;4.232487175613642E-003;1.823039143346250E-003;
2.407833333333334E+009;1.975074857473373E-001;3.970076143741608E-002;4.189152736216784E-003;1.482407562434673E-003;
2.408000000000000E+009;1.977119892835617E-001;3.990092128515244E-002;4.300069995224476E-003;1.417388557456434E-003;
2.408166666666667E+009;1.970712542533875E-001;3.991007804870606E-002;4.196361638605595E-003;1.120421569794416E-003;
2.408333333333334E+009;1.967787742614746E-001;3.974283114075661E-002;4.302116576582193E-003;9.997063316404820E-004;
2.408500000000000E+009;1.962195038795471E-001;4.000066220760346E-002;4.048130474984646E-003;7.614953792653978E-004;
2.408666666666667E+009;1.955253481864929E-001;3.968988731503487E-002;4.427216015756130E-003;8.886563009582460E-004;
2.408833333333334E+009;1.948198974132538E-001;3.921091556549072E-002;4.236410371959209E-003;4.051499126944691E-004;
2.409000000000000E+009;1.937535107135773E-001;3.861918672919273E-002;4.151274450123310E-003;1.821612822823227E-004;
2.409166666666667E+009;1.928575634956360E-001;3.812628984451294E-002;3.800529055297375E-003;2.788691233490681E-007;
2.409333333333334E+009;1.919052898883820E-001;3.737198933959007E-002;3.851333400234580E-003;-1.157159204012714E-004;
2.409500000000000E+009;1.905751228332520E-001;3.633152320981026E-002;3.746191272512078E-003;-4.188051389064640E-004;
2.409666666666667E+009;1.895224899053574E-001;3.526369854807854E-002;3.696324070915580E-003;-2.621461462695152E-004;
2.409833333333334E+009;1.884020417928696E-001;3.410521522164345E-002;3.433519974350929E-003;-3.023239842150360E-004;
2.410000000000000E+009;1.871403306722641E-001;3.275727108120918E-002;3.312387270852923E-003;-5.106781609356403E-004;
2.410166666666667E+009;1.860525161027908E-001;3.105532564222813E-002;3.228201996535063E-003;-4.859406035393477E-004;
2.410333333333334E+009;1.847853958606720E-001;2.948876284062862E-002;3.130363998934627E-003;-5.541832069866359E-004;
2.410500000000000E+009;1.836346834897995E-001;2.762149088084698E-002;3.126309951767325E-003;-4.122939426451922E-004;
2.410666666666667E+009;1.824931651353836E-001;2.552080713212490E-002;3.107350785285235E-003;-4.751728265546262E-004;
2.410833333333334E+009;1.816784888505936E-001;2.342020720243454E-002;2.998796058818698E-003;-5.633498076349497E-004;
2.411000000000000E+009;1.807630658149719E-001;2.130918018519878E-002;2.865580841898918E-003;-5.150546203367412E-004;
2.411166666666667E+009;1.798627674579620E-001;1.905991137027741E-002;2.794311149045825E-003;-4.591479082591832E-004;
2.411333333333334E+009;1.792030781507492E-001;1.630683429539204E-002;2.872284967452288E-003;-5.226589273661375E-004;
2.411500000000000E+009;1.785257011651993E-001;1.405382994562388E-002;2.868651179596782E-003;-5.165099282748997E-004;
2.411666666666667E+009;1.781090348958969E-001;1.176869682967663E-002;2.827072516083717E-003;-5.612570676021278E-004;
2.411833333333334E+009;1.775921285152435E-001;9.180992841720581E-003;2.786892233416438E-003;-5.636572022922337E-004;
2.412000000000000E+009;1.776141524314880E-001;6.346554961055517E-003;2.696535084396601E-003;-4.304979520384222E-004;
2.412166666666667E+009;1.775345355272293E-001;4.025442060083151E-003;2.818545559421182E-003;-5.475941579788923E-004;
2.412333333333334E+009;1.776121854782105E-001;1.275127986446023E-003;2.725345781072974E-003;-4.698194679804146E-004;
2.412500000000000E+009;1.778818070888519E-001;-1.463365973904729E-003;2.701388206332922E-003;-5.706042284145951E-004;
2.412666666666667E+009;1.782903224229813E-001;-4.107411019504070E-003;2.719839336350560E-003;-4.343773180153221E-004;
2.412833333333334E+009;1.789535582065582E-001;-6.968051195144653E-003;2.665647305548191E-003;-4.559077206067741E-004;
2.413000000000000E+009;1.794805526733398E-001;-9.382025338709354E-003;2.825676696375012E-003;-4.401156038511545E-004;
2.413166666666667E+009;1.801398098468781E-001;-1.200087741017342E-002;2.904426772147417E-003;-5.724334623664618E-004;
2.413333333333334E+009;1.813910007476807E-001;-1.464421488344669E-002;2.978929551318288E-003;-4.639756807591766E-004;
2.413500000000000E+009;1.823044270277023E-001;-1.713907159864903E-002;3.206654451787472E-003;-5.119399866089225E-004;
2.413666666666667E+009;1.834200769662857E-001;-1.961472444236279E-002;3.249533008784056E-003;-6.684461259283125E-004;
2.413833333333334E+009;1.848296374082565E-001;-2.184209972620010E-002;3.402285277843475E-003;-5.828881985507906E-004;
2.414000000000000E+009;1.858774125576019E-001;-2.415755018591881E-002;3.449712647125125E-003;-8.023963309824467E-004;
2.414166666666667E+009;1.871966570615768E-001;-2.605093456804752E-002;3.510404843837023E-003;-9.756430517882109E-004;
2.414333333333334E+009;1.884547173976898E-001;-2.854592353105545E-002;3.446690039709210E-003;-1.136273145675659E-003;
2.414500000000000E+009;1.899942159652710E-001;-3.014697320759296E-002;3.481295425444841E-003;-1.255323295481503E-003;
2.414666666666667E+009;1.911363452672958E-001;-3.187731280922890E-002;3.720654407516122E-003;-1.592459273524582E-003;
2.414833333333334E+009;1.925935149192810E-001;-3.350935131311417E-002;3.663715207949281E-003;-1.460627885535359E-003;
2.415000000000000E+009;1.939130723476410E-001;-3.500874340534210E-002;3.784444183111191E-003;-1.701988861896098E-003;
2.415166666666667E+009;1.956109106540680E-001;-3.631589934229851E-002;3.508318215608597E-003;-1.908789388835430E-003;
2.415333333333334E+009;1.969009637832642E-001;-3.762757405638695E-002;3.694677725434303E-003;-2.034569624811411E-003;
2.415500000000000E+009;1.981175839900971E-001;-3.830300644040108E-002;3.540893085300922E-003;-2.265591407194734E-003;
2.415666666666667E+009;1.994768679141998E-001;-3.935456275939941E-002;3.628689795732498E-003;-2.299907384440303E-003;
2.415833333333334E+009;2.006747573614121E-001;-4.014985263347626E-002;3.653702791780233E-003;-2.712592948228121E-003;
2.416000000000000E+009;2.017984539270401E-001;-4.077162221074104E-002;3.508163150399923E-003;-2.657180652022362E-003;
2.416166666666667E+009;2.026967853307724E-001;-4.141014069318771E-002;3.636675188317895E-003;-2.917000325396657E-003;
2.416333333333334E+009;2.037152796983719E-001;-4.178110882639885E-002;3.480672370642424E-003;-3.020434640347958E-003;
2.416500000000000E+009;2.043811976909638E-001;-4.213434457778931E-002;3.366022603586316E-003;-3.460142761468887E-003;
2.416666666666667E+009;2.049863189458847E-001;-4.242054745554924E-002;3.170956391841173E-003;-3.502009436488152E-003;
2.416833333333334E+009;2.053886502981186E-001;-4.231827706098557E-002;3.057362744584680E-003;-3.737364662811160E-003;
2.417000000000000E+009;2.057854533195496E-001;-4.251016676425934E-002;2.747551770880818E-003;-4.001107066869736E-003;
2.417166666666667E+009;2.058502584695816E-001;-4.243229329586029E-002;2.620555693283677E-003;-4.108716268092394E-003;
2.417333333333334E+009;2.058653682470322E-001;-4.220288246870041E-002;2.604252193123102E-003;-4.000088665634394E-003;
2.417500000000000E+009;2.057392150163651E-001;-4.201271012425423E-002;2.374338917434216E-003;-4.344413522630930E-003;
2.417666666666667E+009;2.053891122341156E-001;-4.166904091835022E-002;2.424855716526508E-003;-4.388787318021059E-003;
2.417833333333334E+009;2.052784562110901E-001;-4.143008217215538E-002;2.441157586872578E-003;-4.429084714502096E-003;
2.418000000000000E+009;2.047410607337952E-001;-4.094105586409569E-002;1.982758985832334E-003;-4.593020305037499E-003;
2.418166666666667E+009;2.040119320154190E-001;-4.078026115894318E-002;1.860404852777720E-003;-4.670265130698681E-003;
2.418333333333334E+009;2.032300680875778E-001;-4.036035761237145E-002;1.859366195276380E-003;-4.680463112890720E-003;
2.418500000000000E+009;2.023507505655289E-001;-4.012582451105118E-002;1.613432192243636E-003;-4.790931940078735E-003;
2.418666666666667E+009;2.015351653099060E-001;-3.983237594366074E-002;1.448718132451177E-003;-4.973185248672962E-003;
2.418833333333334E+009;2.002581655979157E-001;-3.975753858685494E-002;1.179235987365246E-003;-5.186933092772961E-003;
2.419000000000000E+009;1.989618688821793E-001;-3.990853950381279E-002;9.225303656421602E-004;-5.264986306428909E-003;
2.419166666666667E+009;1.976396888494492E-001;-3.994001820683479E-002;7.539145881310105E-004;-5.309893749654293E-003;
2.419333333333334E+009;1.964486539363861E-001;-4.027162864804268E-002;6.150018307380378E-004;-5.486960057169199E-003;
2.419500000000000E+009;1.947500705718994E-001;-4.037120938301086E-002;2.600269217509776E-004;-5.503563210368156E-003;
2.419666666666667E+009;1.930652409791946E-001;-4.107265546917915E-002;-7.929416824481450E-006;-5.531321279704571E-003;
2.419833333333334E+009;1.912776380777359E-001;-4.161594808101654E-002;-2.091737842420116E-004;-5.529597867280245E-003;
2.420000000000000E+009;1.896764189004898E-001;-4.232586920261383E-002;-5.304086371324956E-004;-5.527031607925892E-003;
2.420166666666667E+009;1.878793984651566E-001;-4.305217787623406E-002;-6.851765792816877E-004;-5.506440065801144E-003;
2.420333333333334E+009;1.860132664442062E-001;-4.424837231636047E-002;-1.025741687044501E-003;-5.425856448709965E-003;
2.420500000000000E+009;1.840851753950119E-001;-4.531000554561615E-002;-1.326933619566262E-003;-5.319226533174515E-003;
2.420666666666667E+009;1.824106127023697E-001;-4.635497182607651E-002;-1.527909771539271E-003;-5.204877350479364E-003;
2.420833333333334E+009;1.804774850606918E-001;-4.791470989584923E-002;-1.766684232279658E-003;-5.185688845813274E-003;
2.421000000000000E+009;1.788211315870285E-001;-4.929199814796448E-002;-1.932452665641904E-003;-4.998582415282726E-003;
2.421166666666667E+009;1.770513057708740E-001;-5.103801935911179E-002;-2.135359682142735E-003;-4.825606476515532E-003;
2.421333333333334E+009;1.751930713653565E-001;-5.258620902895927E-002;-2.184656681492925E-003;-4.719753284007311E-003;
2.421500000000000E+009;1.736110001802445E-001;-5.441092327237129E-002;-2.495463704690337E-003;-4.575194790959358E-003;
2.421666666666667E+009;1.721963137388229E-001;-5.638521164655685E-002;-2.584494184702635E-003;-4.523676354438067E-003;
2.421833333333334E+009;1.707510352134705E-001;-5.828992649912834E-002;-2.854635007679462E-003;-4.253544844686985E-003;
2.422000000000000E+009;1.692740619182587E-001;-6.025127694010735E-002;-2.702075289562345E-003;-4.274230916053057E-003;
2.422166666666667E+009;1.683446168899536E-001;-6.246404722332954E-002;-2.869845600798726E-003;-4.127567168325186E-003;
2.422333333333334E+009;1.669351905584335E-001;-6.469820439815521E-002;-3.034299705177546E-003;-3.875927533954382E-003;
2.422500000000000E+009;1.660307645797730E-001;-6.685290485620499E-002;-2.942639403045178E-003;-3.786636749282479E-003;
2.422666666666667E+009;1.653223335742950E-001;-6.892555952072144E-002;-3.051552455872297E-003;-3.646124852821231E-003;
2.422833333333334E+009;1.645713746547699E-001;-7.119057327508926E-002;-3.266655839979649E-003;-3.701560199260712E-003;
2.423000000000000E+009;1.639318466186523E-001;-7.348245382308960E-002;-3.376672510057688E-003;-3.525337204337120E-003;
2.423166666666667E+009;1.633278727531433E-001;-7.564786821603775E-002;-3.528233151882887E-003;-3.290294203907251E-003;
2.423333333333334E+009;1.630327850580216E-001;-7.779175043106079E-002;-3.535287920385599E-003;-3.374048275873065E-003;
2.423500000000000E+009;1.629891097545624E-001;-7.978995144367218E-002;-3.712870413437486E-003;-3.187416121363640E-003;
2.423666666666667E+009;1.629119515419006E-001;-8.211212605237961E-002;-3.786457469686866E-003;-3.164092311635613E-003;
2.423833333333334E+009;1.628206074237824E-001;-8.383121341466904E-002;-3.981586080044508E-003;-2.921226667240262E-003;
2.424000000000000E+009;1.629573851823807E-001;-8.599288016557694E-002;-4.090097732841969E-003;-2.826119074597955E-003;
2.424166666666667E+009;1.629979312419891E-001;-8.763077855110169E-002;-4.250444006174803E-003;-2.641162136569619E-003;
2.424333333333334E+009;1.633122861385346E-001;-8.952349424362183E-002;-4.346350673586130E-003;-2.549277152866125E-003;
2.424500000000000E+009;1.637832075357437E-001;-9.153008460998535E-002;-4.443677607923746E-003;-2.379244891926646E-003;
2.424666666666667E+009;1.640567183494568E-001;-9.309916943311691E-002;-4.604535643011332E-003;-2.170416060835123E-003;
2.424833333333334E+009;1.648564785718918E-001;-9.456642717123032E-002;-4.554241430014372E-003;-1.858846750110388E-003;
2.425000000000000E+009;1.652520298957825E-001;-9.593892097473145E-002;-4.652367904782295E-003;-1.759707927703857E-003;
2.425166666666667E+009;1.657662093639374E-001;-9.732705354690552E-002;-4.636863246560097E-003;-1.491460716351867E-003;
2.425333333333334E+009;1.663006097078323E-001;-9.838608652353287E-002;-4.800604656338692E-003;-1.379585708491504E-003;
2.425500000000000E+009;1.669068485498428E-001;-9.970954805612564E-002;-4.707801155745983E-003;-1.033336855471134E-003;
2.425666666666667E+009;1.675120294094086E-001;-1.003270521759987E-001;-4.773289430886507E-003;-7.861728663556278E-004;
2.425833333333334E+009;1.681113243103027E-001;-1.014085039496422E-001;-4.672553855925798E-003;-6.574366707354784E-004;
2.426000000000000E+009;1.684890091419220E-001;-1.019535437226296E-001;-4.699592012912035E-003;-6.419661804102361E-004;
2.426166666666667E+009;1.693078875541687E-001;-1.025012806057930E-001;-4.790255799889565E-003;-3.559118486009538E-004;
2.426333333333334E+009;1.696840226650238E-001;-1.031935885548592E-001;-4.478812683373690E-003;-2.757844340521842E-004;
2.426500000000000E+009;1.703646034002304E-001;-1.035093069076538E-001;-4.510311875492334E-003;-2.138640120392665E-004;
2.426666666666667E+009;1.706694960594177E-001;-1.037690341472626E-001;-4.542145412415266E-003;1.178105867438717E-005;
2.426833333333334E+009;1.713407784700394E-001;-1.040070578455925E-001;-4.459849558770657E-003;2.437358780298382E-004;
2.427000000000000E+009;1.715315133333206E-001;-1.043191701173782E-001;-4.400537349283695E-003;5.701109766960144E-004;
2.427166666666667E+009;1.719311922788620E-001;-1.041812449693680E-001;-4.461151082068682E-003;6.361482082866132E-004;
2.427333333333334E+009;1.719918400049210E-001;-1.044888943433762E-001;-4.375286865979433E-003;7.758751744404435E-004;
2.427500000000000E+009;1.719087958335877E-001;-1.045775264501572E-001;-4.363572224974632E-003;8.126826724037528E-004;
2.427666666666667E+009;1.718918830156326E-001;-1.045182794332504E-001;-4.121198318898678E-003;1.164175686426461E-003;
