# Version 1.00
#
freq[Hz];re:Trc1_S11;im:Trc1_S11;re:Trc2_S21;im:Trc2_S21;
2.400000000000000E+009;1.559613198041916E-001;6.018297374248505E-002;-4.201563540846109E-003;2.935517695732415E-004;
2.400166666666667E+009;1.560427248477936E-001;5.837818607687950E-002;-4.024396184831858E-003;3.644505050033331E-004;
2.400333333333334E+009;1.561607867479324E-001;5.633387342095375E-002;-3.840410383418202E-003;5.741434288211167E-004;
2.400500000000000E+009;1.564919501543045E-001;5.449087172746658E-002;-4.200432915240526E-003;6.566018564626575E-004;
2.400666666666667E+009;1.566892415285111E-001;5.235539376735687E-002;-4.072765819728375E-003;1.068109879270196E-003;
2.400833333333334E+009;1.570459604263306E-001;5.030887573957443E-002;-3.977913409471512E-003;1.095813349820674E-003;
2.401000000000000E+009;1.575502753257752E-001;4.809169098734856E-002;-3.972880542278290E-003;1.058705733157694E-003;
2.401166666666667E+009;1.578753739595413E-001;4.587629809975624E-002;-3.741126973181963E-003;1.261354889720678E-003;
2.401333333333334E+009;1.581719070672989E-001;4.409492760896683E-002;-3.602739423513413E-003;1.382590970024467E-003;
2.401500000000000E+009;1.590352058410645E-001;4.180520772933960E-002;-3.669491037726402E-003;1.550222979858518E-003;
2.401666666666667E+009;1.596659421920776E-001;3.997445106506348E-002;-3.419355722144246E-003;1.677277497947216E-003;
2.401833333333334E+009;1.603084206581116E-001;3.787583485245705E-002;-3.354836953803897E-003;1.779023674316704E-003;
2.402000000000000E+009;1.608501523733139E-001;3.603208437561989E-002;-3.276481525972486E-003;1.979878405109048E-003;
2.402166666666667E+009;1.614586412906647E-001;3.412736579775810E-002;-3.096792846918106E-003;1.882724231109023E-003;
2.402333333333334E+009;1.624996364116669E-001;3.237607330083847E-002;-2.960989018902183E-003;2.174890832975507E-003;
2.402500000000000E+009;1.634300053119659E-001;3.070836141705513E-002;-2.984324004501104E-003;2.299125073477626E-003;
2.402666666666667E+009;1.642843484878540E-001;2.937702834606171E-002;-2.846783725544810E-003;2.270743716508150E-003;
2.402833333333334E+009;1.651535481214523E-001;2.765404060482979E-002;-2.348698442801833E-003;2.496653934940696E-003;
2.403000000000000E+009;1.660082340240479E-001;2.622402273118496E-002;-2.414269838482142E-003;2.254648134112358E-003;
2.403166666666667E+009;1.670341342687607E-001;2.495235577225685E-002;-2.276157727465034E-003;2.452148823067546E-003;
2.403333333333334E+009;1.680275201797485E-001;2.372194081544876E-002;-2.145797479897738E-003;2.487042220309377E-003;
2.403500000000000E+009;1.688282191753388E-001;2.250166982412338E-002;-2.128579420968890E-003;2.420254284515977E-003;
2.403666666666667E+009;1.699611544609070E-001;2.129698917269707E-002;-1.927796052768827E-003;2.490849466994405E-003;
2.403833333333334E+009;1.709593087434769E-001;2.045520581305027E-002;-1.973585924133658E-003;2.389405621215701E-003;
2.404000000000000E+009;1.718149483203888E-001;1.959403231739998E-002;-1.663141185417771E-003;2.604334848001599E-003;
2.404166666666667E+009;1.727254092693329E-001;1.852094382047653E-002;-1.513649011030793E-003;2.653526840731502E-003;
2.404333333333334E+009;1.735201179981232E-001;1.782942377030850E-002;-1.578491996042430E-003;2.545122290030122E-003;
2.404500000000000E+009;1.744093745946884E-001;1.715616881847382E-002;-1.534017967060208E-003;2.562637673690915E-003;
2.404666666666667E+009;1.753878891468048E-001;1.648754626512528E-002;-1.383579219691455E-003;2.497015986591578E-003;
2.404833333333334E+009;1.760596185922623E-001;1.596624404191971E-002;-1.328252954408526E-003;2.543613780289888E-003;
2.405000000000000E+009;1.767710000276566E-001;1.554029062390328E-002;-1.192320603877306E-003;2.488796133548021E-003;
2.405166666666667E+009;1.773627698421478E-001;1.500287372618914E-002;-8.364421664737165E-004;2.482562791556120E-003;
2.405333333333334E+009;1.780749708414078E-001;1.448313985019922E-002;-8.557664696127176E-004;2.514951396733522E-003;
2.405500000000000E+009;1.784623712301254E-001;1.432860549539328E-002;-1.008273917250335E-003;2.637848490849137E-003;
2.405666666666667E+009;1.788793504238129E-001;1.400717068463564E-002;-8.285323274321854E-004;2.472515683621168E-003;
2.405833333333334E+009;1.791905760765076E-001;1.382282748818398E-002;-7.724257884547114E-004;2.368600107729435E-003;
2.406000000000000E+009;1.794635206460953E-001;1.339071895927191E-002;-6.228139391168952E-004;2.460097428411245E-003;
2.406166666666667E+009;1.795068979263306E-001;1.347800623625517E-002;-7.189679890871048E-004;2.392142545431852E-003;
2.406333333333334E+009;1.797436773777008E-001;1.317455898970366E-002;-4.961602389812470E-004;2.369388705119491E-003;
2.406500000000000E+009;1.798338294029236E-001;1.270739454776049E-002;-3.066335921175778E-004;2.252676989883184E-003;
2.406666666666667E+009;1.795543432235718E-001;1.252694334834814E-002;-2.058350801235065E-004;2.161980606615543E-003;
2.406833333333334E+009;1.794632077217102E-001;1.210798881947994E-002;-2.535051025915891E-004;2.187075791880488E-003;
2.407000000000000E+009;1.794392466545105E-001;1.180578675121069E-002;-1.365104544674978E-004;2.119999378919601E-003;
2.407166666666667E+009;1.793127059936523E-001;1.141162496060133E-002;-1.599941606400535E-004;2.044784836471081E-003;
2.407333333333334E+009;1.788814067840576E-001;1.086502242833376E-002;-2.413839392829686E-004;1.933955005370081E-003;
2.407500000000000E+009;1.784215420484543E-001;1.028355956077576E-002;6.574753206223249E-005;2.036363119259477E-003;
2.407666666666667E+009;1.780374050140381E-001;9.819592349231243E-003;-5.370588041841984E-005;1.942985109053552E-003;
2.407833333333334E+009;1.772842705249786E-001;8.971766568720341E-003;2.468573438818567E-005;1.810420188121498E-003;
2.408000000000000E+009;1.767161935567856E-001;8.068749681115151E-003;1.196789089590311E-004;2.003834582865238E-003;
2.408166666666667E+009;1.761888712644577E-001;7.505604531615973E-003;1.023011500365101E-004;1.714403042569757E-003;
2.408333333333334E+009;1.757705658674240E-001;6.493479479104281E-003;6.443132861022605E-006;1.720018452033401E-003;
2.408500000000000E+009;1.749977022409439E-001;5.382660776376724E-003;1.671563368290663E-004;1.522973645478487E-003;
2.408666666666667E+009;1.741647720336914E-001;4.154779948294163E-003;6.885678158141673E-005;1.714013167656958E-003;
2.408833333333334E+009;1.734908968210220E-001;3.131505334749818E-003;6.862025475129485E-005;1.770351780578494E-003;
2.409000000000000E+009;1.729321330785751E-001;1.807229011319578E-003;-3.772954732994549E-005;1.626700279302895E-003;
2.409166666666667E+009;1.722403168678284E-001;4.500288341660053E-004;2.032907359534875E-004;1.577145420014858E-003;
2.409333333333334E+009;1.716334074735642E-001;-1.065010437741876E-003;2.091327478410676E-004;1.519032055512071E-003;
2.409500000000000E+009;1.709784567356110E-001;-2.717297291383147E-003;-3.573896901798435E-005;1.534568727947772E-003;
2.409666666666667E+009;1.702139526605606E-001;-4.122519399970770E-003;1.888385741040111E-004;1.567234750837088E-003;
2.409833333333334E+009;1.696801632642746E-001;-5.827017594128847E-003;1.405589282512665E-004;1.398204476572573E-003;
2.410000000000000E+009;1.692754179239273E-001;-7.480388507246971E-003;1.372001715935767E-004;1.453718286938965E-003;
2.410166666666667E+009;1.686759591102600E-001;-9.489598684012890E-003;1.916523033287376E-004;1.383001916110516E-003;
2.410333333333334E+009;1.681508719921112E-001;-1.124278549104929E-002;2.004471461987123E-004;1.527513493783772E-003;
2.410500000000000E+009;1.679732054471970E-001;-1.302810478955507E-002;6.887970812385902E-005;1.405929098837078E-003;
2.410666666666667E+009;1.675285547971726E-001;-1.499906741082668E-002;2.411112800473347E-004;1.471051480621100E-003;
2.410833333333334E+009;1.672822833061218E-001;-1.690669171512127E-002;1.915558241307735E-004;1.534617738798261E-003;
2.411000000000000E+009;1.672710925340653E-001;-1.884400658309460E-002;2.122286095982418E-004;1.340808114036918E-003;
2.411166666666667E+009;1.670088171958923E-001;-2.100333012640476E-002;1.296729751629755E-004;1.379223540425301E-003;
2.411333333333334E+009;1.669763475656509E-001;-2.271942794322968E-002;8.854399493429810E-005;1.466379966586828E-003;
2.411500000000000E+009;1.670797467231751E-001;-2.505025081336498E-002;1.197844903799705E-004;1.479595666751266E-003;
2.411666666666667E+009;1.674198955297470E-001;-2.694788016378880E-002;1.851589768193662E-004;1.238751108758152E-003;
2.411833333333334E+009;1.676211953163147E-001;-2.866888791322708E-002;3.234657342545688E-004;1.467746449634433E-003;
2.412000000000000E+009;1.679786294698715E-001;-3.068181686103344E-002;2.604481414891779E-004;1.488559064455330E-003;
2.412166666666667E+009;1.682969480752945E-001;-3.257736191153526E-002;2.562080044299364E-004;1.465526525862515E-003;
2.412333333333334E+009;1.689805090427399E-001;-3.433842957019806E-002;3.218230558559299E-004;1.397281186655164E-003;
2.412500000000000E+009;1.694226264953613E-001;-3.617398068308830E-002;3.501452738419175E-004;1.479132915847004E-003;
2.412666666666667E+009;1.698006391525269E-001;-3.790595382452011E-002;4.374861891847104E-004;1.561994315125048E-003;
2.412833333333334E+009;1.703684031963348E-001;-3.970146924257278E-002;3.439543361309916E-004;1.540052006021142E-003;
2.413000000000000E+009;1.708994060754776E-001;-4.129188135266304E-002;3.099278546869755E-004;1.607018988579512E-003;
2.413166666666667E+009;1.714397370815277E-001;-4.290027916431427E-002;4.858485772274435E-004;1.468872418627143E-003;
2.413333333333334E+009;1.721768826246262E-001;-4.429053515195847E-002;3.389797930140048E-004;1.527097192592919E-003;
2.413500000000000E+009;1.729043573141098E-001;-4.569044336676598E-002;6.481356685981154E-004;1.592065789736807E-003;
2.413666666666667E+009;1.735996752977371E-001;-4.720895737409592E-002;5.202994798310101E-004;1.521873637102544E-003;
2.413833333333334E+009;1.741828173398972E-001;-4.845587536692619E-002;7.163610425777733E-004;1.468533067964017E-003;
2.414000000000000E+009;1.746813356876373E-001;-4.961879923939705E-002;7.188591989688575E-004;1.486359746195376E-003;
2.414166666666667E+009;1.753809154033661E-001;-5.071802809834480E-002;6.743585690855980E-004;1.492471667006612E-003;
2.414333333333334E+009;1.760660558938980E-001;-5.178193002939224E-002;8.760755881667137E-004;1.427488750778139E-003;
2.414500000000000E+009;1.765858083963394E-001;-5.261944606900215E-002;7.657395908609033E-004;1.315051107667387E-003;
2.414666666666667E+009;1.770408153533936E-001;-5.341940000653267E-002;1.047904952429235E-003;1.441057189367712E-003;
2.414833333333334E+009;1.774682998657227E-001;-5.428704246878624E-002;8.814178290776908E-004;1.299849129281938E-003;
2.415000000000000E+009;1.779308915138245E-001;-5.483793839812279E-002;9.422858129255474E-004;1.157508813776076E-003;
2.415166666666667E+009;1.780818551778793E-001;-5.521784722805023E-002;8.719452889636159E-004;1.062096212990582E-003;
2.415333333333334E+009;1.786311566829681E-001;-5.582239106297493E-002;1.129489508457482E-003;1.208194531500340E-003;
2.415500000000000E+009;1.785453259944916E-001;-5.624429136514664E-002;1.148471026681364E-003;1.103153568692505E-003;
2.415666666666667E+009;1.787900775671005E-001;-5.663470551371574E-002;1.090231584385037E-003;1.132660894654691E-003;
2.415833333333334E+009;1.788484305143356E-001;-5.703734606504440E-002;1.222817227244377E-003;9.778947569429874E-004;
2.416000000000000E+009;1.787217259407044E-001;-5.721155926585197E-002;1.152305398136377E-003;7.770498632453382E-004;
2.416166666666667E+009;1.788307428359985E-001;-5.742846056818962E-002;1.212123781442642E-003;9.523750049993396E-004;
2.416333333333334E+009;1.786281764507294E-001;-5.772225186228752E-002;1.071173348464072E-003;7.642718846909702E-004;
2.416500000000000E+009;1.782082766294479E-001;-5.798532441258431E-002;1.215993775986135E-003;6.595004233531654E-004;
2.416666666666667E+009;1.777420043945313E-001;-5.811076983809471E-002;1.043152762576938E-003;7.412749691866338E-004;
2.416833333333334E+009;1.773335635662079E-001;-5.840861424803734E-002;1.211404916830361E-003;6.613797741010785E-004;
2.417000000000000E+009;1.764472872018814E-001;-5.861143022775650E-002;1.028938917443156E-003;6.416481919586659E-004;
2.417166666666667E+009;1.759120374917984E-001;-5.860993638634682E-002;1.153681660071015E-003;6.485786871053278E-004;
2.417333333333334E+009;1.752061992883682E-001;-5.886442959308624E-002;1.001012744382024E-003;5.825402331538498E-004;
2.417500000000000E+009;1.742772310972214E-001;-5.935747548937798E-002;9.510069503448904E-004;4.101262602489442E-004;
2.417666666666667E+009;1.734698861837387E-001;-5.946157127618790E-002;1.001961063593626E-003;5.058878450654447E-004;
2.417833333333334E+009;1.724265515804291E-001;-5.984764173626900E-002;8.994132513180375E-004;4.424089856911451E-004;
2.418000000000000E+009;1.713075041770935E-001;-6.041417270898819E-002;8.525922312401235E-004;4.812278202734888E-004;
2.418166666666667E+009;1.701268851757050E-001;-6.071710214018822E-002;8.347934926860035E-004;3.120849432889372E-004;
2.418333333333334E+009;1.692825555801392E-001;-6.128820404410362E-002;6.422795122489333E-004;3.849169879686087E-004;
2.418500000000000E+009;1.678323149681091E-001;-6.184072792530060E-002;7.485175738111138E-004;3.806600871030241E-004;
2.418666666666667E+009;1.667955964803696E-001;-6.248304247856140E-002;7.161997491493821E-004;4.427690873853862E-004;
2.418833333333334E+009;1.653780788183212E-001;-6.338546425104141E-002;7.380259921774268E-004;3.262765239924192E-004;
2.419000000000000E+009;1.640114933252335E-001;-6.397141516208649E-002;6.753181223757565E-004;3.668628050945699E-004;
2.419166666666667E+009;1.628790795803070E-001;-6.493584811687470E-002;5.318517214618623E-004;4.305673355702311E-004;
2.419333333333334E+009;1.614082008600235E-001;-6.584658473730087E-002;6.625400856137276E-004;3.778704849537462E-004;
2.419500000000000E+009;1.602406352758408E-001;-6.708088517189026E-002;6.746830767951906E-004;5.155935068614781E-004;
2.419666666666667E+009;1.593569368124008E-001;-6.818326562643051E-002;6.149876862764359E-004;5.031151231378317E-004;
2.419833333333334E+009;1.580373346805573E-001;-6.927166134119034E-002;5.278682801872492E-004;6.476234993897378E-004;
2.420000000000000E+009;1.569517254829407E-001;-7.053756713867188E-002;4.861270135734230E-004;6.891317898407579E-004;
2.420166666666667E+009;1.559700369834900E-001;-7.185073941946030E-002;6.483435863628984E-004;6.413581431843340E-004;
2.420333333333334E+009;1.550074517726898E-001;-7.336283475160599E-002;6.424616440199316E-004;7.189373136498034E-004;
2.420500000000000E+009;1.539741009473801E-001;-7.472823560237885E-002;5.611685919575393E-004;6.752503104507923E-004;
2.420666666666667E+009;1.530692428350449E-001;-7.598141580820084E-002;7.665989687666297E-004;7.372991531156004E-004;
2.420833333333334E+009;1.524471342563629E-001;-7.781612128019333E-002;4.912593867629767E-004;7.804199703969061E-004;
2.421000000000000E+009;1.516512781381607E-001;-7.948184758424759E-002;6.688124849461019E-004;9.413952939212322E-004;
2.421166666666667E+009;1.510527431964874E-001;-8.114992827177048E-002;6.975425058044493E-004;8.998460834845901E-004;
2.421333333333334E+009;1.507210731506348E-001;-8.262524008750916E-002;6.324418936856091E-004;9.163551148958504E-004;
2.421500000000000E+009;1.501327008008957E-001;-8.442644774913788E-002;7.752412348054349E-004;9.668400161899626E-004;
2.421666666666667E+009;1.498819440603256E-001;-8.617074042558670E-002;7.676436216570437E-004;9.412159561179578E-004;
2.421833333333334E+009;1.496347934007645E-001;-8.782690018415451E-002;8.515859954059124E-004;9.584511280991137E-004;
2.422000000000000E+009;1.494025886058807E-001;-8.968346565961838E-002;7.388117955997586E-004;8.670365205034614E-004;
2.422166666666667E+009;1.493600606918335E-001;-9.152240306138992E-002;9.339486132375896E-004;1.045464770868421E-003;
2.422333333333334E+009;1.494240462779999E-001;-9.305064380168915E-002;9.807142196223140E-004;9.780643740668893E-004;
2.422500000000000E+009;1.493446230888367E-001;-9.457203000783920E-002;1.079669222235680E-003;8.947505848482251E-004;
2.422666666666667E+009;1.494284123182297E-001;-9.643493592739105E-002;1.027527614496648E-003;9.321750258095563E-004;
2.422833333333334E+009;1.498077213764191E-001;-9.804905951023102E-002;1.068726996891201E-003;1.029484905302525E-003;
2.423000000000000E+009;1.499387174844742E-001;-9.961277991533279E-002;1.206164248287678E-003;8.910354226827622E-004;
2.423166666666667E+009;1.503315418958664E-001;-1.010786220431328E-001;1.239478820934892E-003;7.980916416272521E-004;
2.423333333333334E+009;1.508655846118927E-001;-1.023744419217110E-001;1.396301318891347E-003;1.089854631572962E-003;
2.423500000000000E+009;1.512978821992874E-001;-1.038774624466896E-001;1.350603066384792E-003;9.508694638498128E-004;
2.423666666666667E+009;1.516238152980804E-001;-1.052328273653984E-001;1.484911073930562E-003;7.608231389895082E-004;
2.423833333333334E+009;1.523516327142716E-001;-1.065064445137978E-001;1.522375503554940E-003;7.846569642424583E-004;
2.424000000000000E+009;1.526652127504349E-001;-1.075137555599213E-001;1.449325936846435E-003;7.244254811666906E-004;
2.424166666666667E+009;1.532491892576218E-001;-1.087953820824623E-001;1.620080089196563E-003;8.403765386901796E-004;
2.424333333333334E+009;1.538126468658447E-001;-1.097547858953476E-001;1.516097807325423E-003;6.436953553929925E-004;
2.424500000000000E+009;1.542465984821320E-001;-1.106357425451279E-001;1.751847565174103E-003;6.986642838455737E-004;
2.424666666666667E+009;1.548256874084473E-001;-1.114034503698349E-001;1.807484542950988E-003;5.810858565382659E-004;
2.424833333333334E+009;1.552528589963913E-001;-1.122157573699951E-001;1.696566818282008E-003;5.817756755277515E-004;
2.425000000000000E+009;1.557781994342804E-001;-1.128932163119316E-001;1.917842659167945E-003;3.761869156733155E-004;
2.425166666666667E+009;1.559636890888214E-001;-1.135994493961334E-001;1.920031150802970E-003;4.514503816608340E-004;
2.425333333333334E+009;1.564252227544785E-001;-1.141165569424629E-001;1.729162409901619E-003;3.210399008821696E-004;
2.425500000000000E+009;1.567381024360657E-001;-1.147170364856720E-001;1.891086343675852E-003;1.006105667329393E-004;
2.425666666666667E+009;1.568063944578171E-001;-1.151284500956535E-001;1.972043653950095E-003;1.632196654099971E-004;
2.425833333333334E+009;1.569001972675324E-001;-1.153973117470741E-001;2.006527734920383E-003;1.359981615678407E-005;
2.426000000000000E+009;1.570318788290024E-001;-1.158697605133057E-001;1.896932371892035E-003;-6.329759798973100E-006;
2.426166666666667E+009;1.572810560464859E-001;-1.160553917288780E-001;1.820145756937563E-003;-2.991488727275282E-004;
2.426333333333334E+009;1.571238040924072E-001;-1.162400469183922E-001;1.748662209138274E-003;-2.277708990732208E-004;
2.426500000000000E+009;1.568330377340317E-001;-1.163686290383339E-001;1.904825796373189E-003;-2.500569971743971E-004;
2.426666666666667E+009;1.566865742206574E-001;-1.164259165525436E-001;1.732606906443834E-003;-2.850106684491038E-004;
2.426833333333334E+009;1.562285721302033E-001;-1.165011078119278E-001;1.768125221133232E-003;-4.775060515385121E-004;
2.427000000000000E+009;1.558037847280502E-001;-1.167137771844864E-001;1.841292600147426E-003;-4.299302818253636E-004;
2.427166666666667E+009;1.553436815738678E-001;-1.166946217417717E-001;1.678162720054388E-003;-3.691140736918896E-004;
2.427333333333334E+009;1.545441597700119E-001;-1.168175786733627E-001;1.767427660524845E-003;-3.355414955876768E-004;
2.427500000000000E+009;1.538857966661453E-001;-1.169504448771477E-001;1.694159815087915E-003;-4.315503756515682E-004;
2.427666666666667E+009;1.529566347599030E-001;-1.171333938837051E-001;1.575851114466786E-003;-3.049631195608527E-004;
2.427833333333334E+009;1.519941240549088E-001;-1.172129288315773E-001;1.577683375217021E-003;-4.632078344002366E-004;
