# Version 1.00
#
freq[Hz];re:Trc1_S11;im:Trc1_S11;re:Trc2_S21;im:Trc2_S21;
2.400000000000000E+009;1.559264212846756E-001;6.020661070942879E-002;-4.161711316555738E-003;1.922938681673259E-004;
2.400166666666667E+009;1.561536043882370E-001;5.860212072730064E-002;-4.105526953935623E-003;5.340962670743465E-004;
2.400333333333334E+009;1.562164872884750E-001;5.631658062338829E-002;-4.080587066709995E-003;6.506889476440847E-004;
2.400500000000000E+009;1.564915478229523E-001;5.424654856324196E-002;-4.038253799080849E-003;6.716762436553836E-004;
2.400666666666667E+009;1.568421721458435E-001;5.215146020054817E-002;-3.925011027604342E-003;8.395281620323658E-004;
2.400833333333334E+009;1.571724712848663E-001;5.019575729966164E-002;-3.792509669438005E-003;1.060431241057813E-003;
2.401000000000000E+009;1.575442105531693E-001;4.791309684514999E-002;-4.016971681267023E-003;1.021759933792055E-003;
2.401166666666667E+009;1.580917537212372E-001;4.583979770541191E-002;-3.790929215028882E-003;1.396180829033256E-003;
2.401333333333334E+009;1.583997011184692E-001;4.374995827674866E-002;-3.664046293124557E-003;1.317444141022861E-003;
2.401500000000000E+009;1.590636372566223E-001;4.189742356538773E-002;-3.650666214525700E-003;1.589150284416974E-003;
2.401666666666667E+009;1.595816612243652E-001;4.004831239581108E-002;-3.542277961969376E-003;1.678223721683025E-003;
2.401833333333334E+009;1.601905524730682E-001;3.790655359625816E-002;-3.369592130184174E-003;1.791037619113922E-003;
2.402000000000000E+009;1.607160270214081E-001;3.598653152585030E-002;-3.301730845123529E-003;1.929832156747580E-003;
2.402166666666667E+009;1.616684198379517E-001;3.406266868114471E-002;-3.170052077621222E-003;2.135338727384806E-003;
2.402333333333334E+009;1.623217016458511E-001;3.240386024117470E-002;-2.986401785165072E-003;1.995697850361466E-003;
2.402500000000000E+009;1.633978337049484E-001;3.079086542129517E-002;-3.045114921405911E-003;2.060621045529842E-003;
2.402666666666667E+009;1.640157848596573E-001;2.919668145477772E-002;-2.738697454333305E-003;2.338602906093001E-003;
2.402833333333334E+009;1.651664972305298E-001;2.767437696456909E-002;-2.674064366146922E-003;2.371274400502443E-003;
2.403000000000000E+009;1.660349965095520E-001;2.622921951115131E-002;-2.431797794997692E-003;2.407465828582645E-003;
2.403166666666667E+009;1.670345515012741E-001;2.478874102234840E-002;-2.339002210646868E-003;2.437820192426443E-003;
2.403333333333334E+009;1.679471284151077E-001;2.374928444623947E-002;-2.206223085522652E-003;2.390847774222493E-003;
2.403500000000000E+009;1.689457446336746E-001;2.250789478421211E-002;-2.132605761289597E-003;2.450637752190232E-003;
2.403666666666667E+009;1.697826087474823E-001;2.131087519228458E-002;-2.000926760956645E-003;2.360259415581822E-003;
2.403833333333334E+009;1.709093302488327E-001;2.031376957893372E-002;-1.896776491776109E-003;2.387570915743709E-003;
2.404000000000000E+009;1.718064248561859E-001;1.950799301266670E-002;-1.847456092946231E-003;2.435233909636736E-003;
2.404166666666667E+009;1.726161837577820E-001;1.854606159031391E-002;-1.627485384233296E-003;2.559538697823882E-003;
2.404333333333334E+009;1.735724508762360E-001;1.774707809090614E-002;-1.665574032813311E-003;2.542924834415317E-003;
2.404500000000000E+009;1.744340360164642E-001;1.715072058141232E-002;-1.456688507460058E-003;2.562752459198237E-003;
2.404666666666667E+009;1.753144413232803E-001;1.652050949633122E-002;-1.275386661291122E-003;2.549616387113929E-003;
2.404833333333334E+009;1.760022193193436E-001;1.592878066003323E-002;-1.405633985996246E-003;2.509845653548837E-003;
2.405000000000000E+009;1.767098158597946E-001;1.551831606775522E-002;-1.202221726998687E-003;2.521912567317486E-003;
2.405166666666667E+009;1.774100661277771E-001;1.508584059774876E-002;-1.166901085525751E-003;2.625698223710060E-003;
2.405333333333334E+009;1.779235601425171E-001;1.448616664856672E-002;-1.063890755176544E-003;2.454286208376288E-003;
2.405500000000000E+009;1.785551309585571E-001;1.429103221744299E-002;-8.312189020216465E-004;2.343554748222232E-003;
2.405666666666667E+009;1.789118051528931E-001;1.411140616983175E-002;-7.198452367447317E-004;2.428993582725525E-003;
2.405833333333334E+009;1.790419369935989E-001;1.381022296845913E-002;-6.866186740808189E-004;2.410664223134518E-003;
2.406000000000000E+009;1.795289814472199E-001;1.344680879265070E-002;-6.204082164913416E-004;2.493482548743486E-003;
2.406166666666667E+009;1.795097142457962E-001;1.329355780035257E-002;-6.104038911871612E-004;2.321333857253194E-003;
2.406333333333334E+009;1.798030138015747E-001;1.308509800583124E-002;-3.768217575270683E-004;2.239010296761990E-003;
2.406500000000000E+009;1.798569709062576E-001;1.263528503477573E-002;-2.470636100042611E-004;2.242911141365767E-003;
2.406666666666667E+009;1.796700060367584E-001;1.250454783439636E-002;-2.792581217363477E-004;2.298722509294748E-003;
2.406833333333334E+009;1.796637028455734E-001;1.208108756691217E-002;-1.610829640412703E-004;2.169806510210037E-003;
2.407000000000000E+009;1.794804781675339E-001;1.176562532782555E-002;-3.492979449220002E-004;2.164338715374470E-003;
2.407166666666667E+009;1.792537122964859E-001;1.144740357995033E-002;1.352100935037015E-005;2.037547063082457E-003;
2.407333333333334E+009;1.788355857133865E-001;1.078687794506550E-002;-8.637546125100926E-005;1.995515078306198E-003;
2.407500000000000E+009;1.783920824527741E-001;1.026415918022394E-002;-1.137448489316739E-004;1.972760073840618E-003;
2.407666666666667E+009;1.779031157493591E-001;9.695539250969887E-003;-4.819221067009494E-005;1.810575136914849E-003;
2.407833333333334E+009;1.773005276918411E-001;8.872288279235363E-003;-5.178343144507380E-006;1.814711838960648E-003;
2.408000000000000E+009;1.768839061260223E-001;8.094944991171360E-003;9.693218453321606E-005;1.825815299525857E-003;
2.408166666666667E+009;1.761743426322937E-001;7.465059403330088E-003;6.351892352540745E-006;1.934201922267675E-003;
2.408333333333334E+009;1.757669448852539E-001;6.331015843898058E-003;1.474083546781912E-004;1.705802278593183E-003;
2.408500000000000E+009;1.749187409877777E-001;5.240148864686489E-003;1.340055746368307E-006;1.777001540176570E-003;
2.408666666666667E+009;1.742981076240540E-001;4.013466648757458E-003;8.293041901197285E-005;1.655480358749628E-003;
2.408833333333334E+009;1.735519170761108E-001;2.906640293076634E-003;7.035474118310958E-005;1.615532673895359E-003;
2.409000000000000E+009;1.728122532367706E-001;1.753770047798753E-003;-3.785406806855463E-005;1.607216894626617E-003;
2.409166666666667E+009;1.721000820398331E-001;3.508723457343876E-004;1.591446634847671E-004;1.538485987111926E-003;
2.409333333333334E+009;1.714702546596527E-001;-1.163582317531109E-003;6.184775702422485E-005;1.547301770187914E-003;
2.409500000000000E+009;1.707765907049179E-001;-2.847935538738966E-003;2.713865069381427E-005;1.400921493768692E-003;
2.409666666666667E+009;1.701454073190689E-001;-4.310100805014372E-003;8.646032802062109E-005;1.487267087213695E-003;
2.409833333333334E+009;1.695384681224823E-001;-5.887609440833330E-003;1.211722410516813E-004;1.431754208169878E-003;
2.410000000000000E+009;1.690926849842072E-001;-7.604820653796196E-003;4.705067908616911E-007;1.443621586076915E-003;
2.410166666666667E+009;1.686725616455078E-001;-9.350534528493881E-003;1.449083065381274E-004;1.607155660167337E-003;
2.410333333333334E+009;1.682358086109161E-001;-1.136223040521145E-002;2.686676089069806E-005;1.439982792362571E-003;
2.410500000000000E+009;1.678182929754257E-001;-1.324929296970367E-002;5.703998249373399E-005;1.516262069344521E-003;
2.410666666666667E+009;1.676172167062759E-001;-1.519358158111572E-002;1.488957059336826E-004;1.561448909342289E-003;
2.410833333333334E+009;1.673011183738709E-001;-1.686338707804680E-002;-2.847761425073259E-005;1.364253577776253E-003;
2.411000000000000E+009;1.671441942453384E-001;-1.892900466918945E-002;1.498447963967919E-004;1.493350602686405E-003;
2.411166666666667E+009;1.669990867376328E-001;-2.085300162434578E-002;1.261985307792202E-004;1.340767368674278E-003;
2.411333333333334E+009;1.671120822429657E-001;-2.283100783824921E-002;1.285115140490234E-004;1.379340304993093E-003;
2.411500000000000E+009;1.671462059020996E-001;-2.486025542020798E-002;3.639413625933230E-005;1.438015839084983E-003;
2.411666666666667E+009;1.673749089241028E-001;-2.696996740996838E-002;3.140652552247047E-004;1.465743174776435E-003;
2.411833333333334E+009;1.676192730665207E-001;-2.862603589892387E-002;2.011178876273334E-004;1.404226757586002E-003;
2.412000000000000E+009;1.679421216249466E-001;-3.072819486260414E-002;2.152427477994934E-004;1.558339572511613E-003;
2.412166666666667E+009;1.682209372520447E-001;-3.257716819643974E-002;2.075723168672994E-004;1.446123002097011E-003;
2.412333333333334E+009;1.687302142381668E-001;-3.430119901895523E-002;2.228980738436803E-004;1.529484638012946E-003;
2.412500000000000E+009;1.691643148660660E-001;-3.621721640229225E-002;3.098986344411969E-004;1.467557973228395E-003;
2.412666666666667E+009;1.696964204311371E-001;-3.810876980423927E-002;2.557979023549706E-004;1.373704173602164E-003;
2.412833333333334E+009;1.703473031520844E-001;-3.979523479938507E-002;2.883518463931978E-004;1.615661894902587E-003;
2.413000000000000E+009;1.709171831607819E-001;-4.124336317181587E-002;3.696788044180721E-004;1.435998361557722E-003;
2.413166666666667E+009;1.715964674949646E-001;-4.285645484924316E-002;4.397130978759378E-004;1.504805986769497E-003;
2.413333333333334E+009;1.721244007349014E-001;-4.439808055758476E-002;3.477333229966462E-004;1.491088187322021E-003;
2.413500000000000E+009;1.728705614805222E-001;-4.582008346915245E-002;5.100976559333503E-004;1.641242182813585E-003;
2.413666666666667E+009;1.737256199121475E-001;-4.726698249578476E-002;6.332702469080687E-004;1.497978926636279E-003;
2.413833333333334E+009;1.742230504751205E-001;-4.850272089242935E-002;5.476253572851419E-004;1.401208923198283E-003;
2.414000000000000E+009;1.746434718370438E-001;-4.956722632050514E-002;6.696985219605267E-004;1.464137458242476E-003;
2.414166666666667E+009;1.753751486539841E-001;-5.069630965590477E-002;8.494383073411882E-004;1.524192630313337E-003;
2.414333333333334E+009;1.760724186897278E-001;-5.172168090939522E-002;8.170750224962831E-004;1.371907186694443E-003;
2.414500000000000E+009;1.766734868288040E-001;-5.264735966920853E-002;7.944333483465016E-004;1.253610011190176E-003;
2.414666666666667E+009;1.770567148923874E-001;-5.344002321362495E-002;7.998450309969485E-004;1.275393296964467E-003;
2.414833333333334E+009;1.774538457393646E-001;-5.418837070465088E-002;9.231506846845150E-004;1.195644843392074E-003;
2.415000000000000E+009;1.777804046869278E-001;-5.484207719564438E-002;8.913167985156179E-004;1.225217478349805E-003;
2.415166666666667E+009;1.782332509756088E-001;-5.530435964465141E-002;1.026036334224045E-003;1.231093076057732E-003;
2.415333333333334E+009;1.786212325096130E-001;-5.602362379431725E-002;1.008726772852242E-003;1.257243915461004E-003;
2.415500000000000E+009;1.786380559206009E-001;-5.631987378001213E-002;1.081094029359520E-003;1.060486771166325E-003;
2.415666666666667E+009;1.789489537477493E-001;-5.655930936336517E-002;1.031633932143450E-003;1.167972572147846E-003;
2.415833333333334E+009;1.789119988679886E-001;-5.706294625997543E-002;1.089557074010372E-003;1.010433654300869E-003;
2.416000000000000E+009;1.788290441036224E-001;-5.732716992497444E-002;1.028884202241898E-003;9.964850032702088E-004;
2.416166666666667E+009;1.788115054368973E-001;-5.757039040327072E-002;1.178939943201840E-003;8.446761057712138E-004;
2.416333333333334E+009;1.784534007310867E-001;-5.773080140352249E-002;1.166071160696447E-003;7.119901129044592E-004;
2.416500000000000E+009;1.782513260841370E-001;-5.806738883256912E-002;1.171357929706574E-003;7.401788607239723E-004;
2.416666666666667E+009;1.776734590530396E-001;-5.811433494091034E-002;1.118977321311832E-003;7.186813745647669E-004;
2.416833333333334E+009;1.773677319288254E-001;-5.843812227249146E-002;1.202172716148198E-003;6.859305431134999E-004;
2.417000000000000E+009;1.765448600053787E-001;-5.856846645474434E-002;1.016656751744449E-003;6.017732666805387E-004;
2.417166666666667E+009;1.758843958377838E-001;-5.873768404126167E-002;1.032110885716975E-003;4.797092115040869E-004;
2.417333333333334E+009;1.751680076122284E-001;-5.890608951449394E-002;1.151209347881377E-003;5.244293133728206E-004;
2.417500000000000E+009;1.741170734167099E-001;-5.935702845454216E-002;1.045978977344930E-003;4.400442703627050E-004;
2.417666666666667E+009;1.734420210123062E-001;-5.959004163742065E-002;9.047780185937882E-004;5.518916295841336E-004;
2.417833333333334E+009;1.724371612071991E-001;-5.986727401614189E-002;8.264924399554730E-004;5.027534789405763E-004;
2.418000000000000E+009;1.711410880088806E-001;-6.052848324179649E-002;9.492187527939677E-004;6.357794627547264E-004;
2.418166666666667E+009;1.702562272548676E-001;-6.072571873664856E-002;9.053885587491095E-004;3.351839841343463E-004;
2.418333333333334E+009;1.692330092191696E-001;-6.132944673299789E-002;8.131960057653487E-004;4.649316833820194E-004;
2.418500000000000E+009;1.678712815046310E-001;-6.187762320041657E-002;7.407661760225892E-004;4.466574755497277E-004;
2.418666666666667E+009;1.667894870042801E-001;-6.257267296314240E-002;7.081137155182660E-004;4.493957385420799E-004;
2.418833333333334E+009;1.654406487941742E-001;-6.329070776700974E-002;5.885388236492872E-004;3.094446728937328E-004;
2.419000000000000E+009;1.640360355377197E-001;-6.404513120651245E-002;6.510969251394272E-004;4.650905320886523E-004;
2.419166666666667E+009;1.629440486431122E-001;-6.501065939664841E-002;5.731569253839552E-004;5.668302765116096E-004;
2.419333333333334E+009;1.614836752414703E-001;-6.572374701499939E-002;5.459656822495163E-004;4.751829546876252E-004;
2.419500000000000E+009;1.603247374296188E-001;-6.700351089239121E-002;5.254613934084773E-004;3.602102515287697E-004;
2.419666666666667E+009;1.593080610036850E-001;-6.803475320339203E-002;4.627140879165381E-004;5.085939192213118E-004;
2.419833333333334E+009;1.580190211534500E-001;-6.923729926347733E-002;5.625694757327437E-004;5.985743482597172E-004;
2.420000000000000E+009;1.570848971605301E-001;-7.054591178894043E-002;5.128746852278709E-004;5.985219613648951E-004;
2.420166666666667E+009;1.559278964996338E-001;-7.198952138423920E-002;5.180513253435493E-004;5.343545926734805E-004;
2.420333333333334E+009;1.549547612667084E-001;-7.346441596746445E-002;5.580316646955907E-004;6.916422280482948E-004;
2.420500000000000E+009;1.540412008762360E-001;-7.458958029747009E-002;5.149588687345386E-004;7.338057039305568E-004;
2.420666666666667E+009;1.531457453966141E-001;-7.606516033411026E-002;5.622899043373764E-004;7.733028614893556E-004;
2.420833333333334E+009;1.524995416402817E-001;-7.778780907392502E-002;5.560413701459765E-004;8.449154556728900E-004;
2.421000000000000E+009;1.516201794147492E-001;-7.948052138090134E-002;7.836621953174472E-004;8.812427404336631E-004;
2.421166666666667E+009;1.509442627429962E-001;-8.099579066038132E-002;7.578135700896382E-004;6.846950273029506E-004;
2.421333333333334E+009;1.506045013666153E-001;-8.283781260251999E-002;6.920889718458056E-004;8.645220659673214E-004;
2.421500000000000E+009;1.502093076705933E-001;-8.443802595138550E-002;8.313468424603343E-004;8.731115958653390E-004;
2.421666666666667E+009;1.498315185308456E-001;-8.620785176753998E-002;7.143915863707662E-004;7.590847671963275E-004;
2.421833333333334E+009;1.495683342218399E-001;-8.777528256177902E-002;7.874611765146256E-004;7.954660104587674E-004;
2.422000000000000E+009;1.493993103504181E-001;-8.965626358985901E-002;6.633256562054157E-004;1.082326169125736E-003;
2.422166666666667E+009;1.493924707174301E-001;-9.146692603826523E-002;8.925881120376289E-004;9.262448293156922E-004;
2.422333333333334E+009;1.494658142328262E-001;-9.302353113889694E-002;1.060596201568842E-003;1.041849958710372E-003;
2.422500000000000E+009;1.493085473775864E-001;-9.460896253585815E-002;1.030178042128682E-003;9.596465970389545E-004;
2.422666666666667E+009;1.494386345148087E-001;-9.630823880434036E-002;9.298844961449504E-004;9.634835296310484E-004;
2.422833333333334E+009;1.497640907764435E-001;-9.805155545473099E-002;1.143616740591824E-003;9.770705364644527E-004;
2.423000000000000E+009;1.500979661941528E-001;-9.964039921760559E-002;1.214979565702379E-003;9.407817269675434E-004;
2.423166666666667E+009;1.505321562290192E-001;-1.012311950325966E-001;1.417935709469020E-003;9.221956133842468E-004;
2.423333333333334E+009;1.510261148214340E-001;-1.024310961365700E-001;1.265706261619926E-003;1.066900207661092E-003;
2.423500000000000E+009;1.514772772789002E-001;-1.038581281900406E-001;1.386145013384521E-003;9.465892217122018E-004;
2.423666666666667E+009;1.517212241888046E-001;-1.053204163908958E-001;1.562960562296212E-003;9.025506442412734E-004;
2.423833333333334E+009;1.524429619312286E-001;-1.066136583685875E-001;1.576881273649633E-003;8.306881063617766E-004;
2.424000000000000E+009;1.527927070856094E-001;-1.076031923294067E-001;1.670418307185173E-003;8.135772077366710E-004;
2.424166666666667E+009;1.531615853309631E-001;-1.088010519742966E-001;1.731713535264134E-003;8.074445649981499E-004;
2.424333333333334E+009;1.538666784763336E-001;-1.097832545638084E-001;1.621275558136404E-003;7.365638157352805E-004;
2.424500000000000E+009;1.543402373790741E-001;-1.108062714338303E-001;1.744535285979509E-003;5.035091890022159E-004;
2.424666666666667E+009;1.549389511346817E-001;-1.114882752299309E-001;1.890292158350349E-003;5.729561089538038E-004;
2.424833333333334E+009;1.552756279706955E-001;-1.123383790254593E-001;1.853539492003620E-003;4.979260265827179E-004;
2.425000000000000E+009;1.557410508394241E-001;-1.131156980991364E-001;1.830386230722070E-003;3.496008284855634E-004;
2.425166666666667E+009;1.559056639671326E-001;-1.137272641062737E-001;1.866226783022285E-003;2.621503081172705E-004;
2.425333333333334E+009;1.563299596309662E-001;-1.142422184348106E-001;1.900378498248756E-003;3.120757464785129E-004;
2.425500000000000E+009;1.567646414041519E-001;-1.148287951946259E-001;2.018795115873218E-003;2.547173644416034E-004;
2.425666666666667E+009;1.567932814359665E-001;-1.150958612561226E-001;1.926763216033578E-003;1.903467491501942E-004;
2.425833333333334E+009;1.570434570312500E-001;-1.154990866780281E-001;1.850286964327097E-003;-8.213715773308650E-006;
2.426000000000000E+009;1.570641845464706E-001;-1.158581972122192E-001;1.810724847018719E-003;-1.563589612487704E-004;
2.426166666666667E+009;1.572081297636032E-001;-1.161019951105118E-001;1.818560413084924E-003;-2.037326048593968E-004;
2.426333333333334E+009;1.570304781198502E-001;-1.163110062479973E-001;1.904080272652209E-003;-1.136539358412847E-004;
2.426500000000000E+009;1.569042503833771E-001;-1.165788471698761E-001;1.825807150453329E-003;-2.120336139341816E-004;
2.426666666666667E+009;1.568035483360291E-001;-1.164767742156982E-001;1.781714730896056E-003;-2.327025285921991E-004;
2.426833333333334E+009;1.562960147857666E-001;-1.166928261518478E-001;1.726568094454706E-003;-3.970435063820332E-004;
2.427000000000000E+009;1.557291001081467E-001;-1.167370080947876E-001;1.750312396325171E-003;-3.524909843690693E-004;
2.427166666666667E+009;1.552226096391678E-001;-1.168119981884956E-001;1.817698823288083E-003;-2.565567556302995E-004;
2.427333333333334E+009;1.544515639543533E-001;-1.168760433793068E-001;1.681861700490117E-003;-3.350872721057385E-004;
2.427500000000000E+009;1.538540720939636E-001;-1.170202717185020E-001;1.660862821154296E-003;-4.232442006468773E-004;
2.427666666666667E+009;1.529670506715775E-001;-1.172186732292175E-001;1.624937867745757E-003;-4.451058921404183E-004;
2.427833333333334E+009;1.520002037286758E-001;-1.173167675733566E-001;1.711293705739081E-003;-3.815796226263046E-004;
