# Version 1.00
#
freq[Hz];re:Trc1_S11;im:Trc1_S11;re:Trc2_S21;im:Trc2_S21;
2.400000000000000E+009;1.559776067733765E-001;6.025827303528786E-002;-4.188938532024622E-003;3.349524922668934E-004;
2.400166666666667E+009;1.561938524246216E-001;5.833106487989426E-002;-4.116905853152275E-003;4.462165234144777E-004;
2.400333333333334E+009;1.562539190053940E-001;5.633784458041191E-002;-4.175904672592878E-003;6.014102254994214E-004;
2.400500000000000E+009;1.566311269998550E-001;5.442358180880547E-002;-4.126265645027161E-003;5.807669367641211E-004;
2.400666666666667E+009;1.566533297300339E-001;5.208436772227287E-002;-4.055390600115061E-003;8.967300527729094E-004;
2.400833333333334E+009;1.571030765771866E-001;5.010339990258217E-002;-3.845761762931943E-003;9.462205925956368E-004;
2.401000000000000E+009;1.575348079204559E-001;4.814364388585091E-002;-3.942970186471939E-003;1.206813612952828E-003;
2.401166666666667E+009;1.579776704311371E-001;4.578329250216484E-002;-3.833526745438576E-003;1.263187965378165E-003;
2.401333333333334E+009;1.583812385797501E-001;4.379083588719368E-002;-3.798833815380931E-003;1.378456829115748E-003;
2.401500000000000E+009;1.589958220720291E-001;4.197660833597183E-002;-3.524989122524858E-003;1.423971378244460E-003;
2.401666666666667E+009;1.596261560916901E-001;3.962261602282524E-002;-3.517094766721129E-003;1.753660966642201E-003;
2.401833333333334E+009;1.603247374296188E-001;3.804095089435577E-002;-3.310403786599636E-003;1.790156005881727E-003;
2.402000000000000E+009;1.607264131307602E-001;3.597407415509224E-002;-3.213153919205070E-003;1.915401080623269E-003;
2.402166666666667E+009;1.616825014352799E-001;3.418282046914101E-002;-3.199444850906730E-003;1.948401564732194E-003;
2.402333333333334E+009;1.623885631561279E-001;3.239616379141808E-002;-3.113948507234454E-003;2.106044441461563E-003;
2.402500000000000E+009;1.634328067302704E-001;3.062318451702595E-002;-3.060220973566175E-003;2.146304352208972E-003;
2.402666666666667E+009;1.642526537179947E-001;2.923495694994927E-002;-2.765935380011797E-003;2.246057614684105E-003;
2.402833333333334E+009;1.652049124240875E-001;2.779114618897438E-002;-2.475953428074718E-003;2.311589661985636E-003;
2.403000000000000E+009;1.659926623106003E-001;2.628258056938648E-002;-2.415117342025042E-003;2.545981435105205E-003;
2.403166666666667E+009;1.668802350759506E-001;2.502045035362244E-002;-2.375882118940353E-003;2.488272497430444E-003;
2.403333333333334E+009;1.680149883031845E-001;2.361174672842026E-002;-2.275175647810102E-003;2.424113918095827E-003;
2.403500000000000E+009;1.687852591276169E-001;2.250280976295471E-002;-2.263722475618124E-003;2.462760545313358E-003;
2.403666666666667E+009;1.699708104133606E-001;2.139928378164768E-002;-2.087829867377877E-003;2.619618782773614E-003;
2.403833333333334E+009;1.710214614868164E-001;2.044780924916267E-002;-1.983005553483963E-003;2.466348465532064E-003;
2.404000000000000E+009;1.718158572912216E-001;1.942365430295467E-002;-1.830052700825036E-003;2.558790845796466E-003;
2.404166666666667E+009;1.727175712585449E-001;1.860054023563862E-002;-1.685617840848863E-003;2.665683394297957E-003;
2.404333333333334E+009;1.735334247350693E-001;1.793987862765789E-002;-1.461459905840457E-003;2.637060126289725E-003;
2.404500000000000E+009;1.743034571409226E-001;1.717221736907959E-002;-1.512503600679338E-003;2.485767239704728E-003;
2.404666666666667E+009;1.752488911151886E-001;1.659732311964035E-002;-1.459487830288708E-003;2.469787141308188E-003;
2.404833333333334E+009;1.760266125202179E-001;1.596029475331307E-002;-1.218766206875444E-003;2.427987521514297E-003;
2.405000000000000E+009;1.765740364789963E-001;1.551218703389168E-002;-1.218246645294130E-003;2.574404934421182E-003;
2.405166666666667E+009;1.773362606763840E-001;1.511684618890286E-002;-9.053574758581817E-004;2.467795973643661E-003;
2.405333333333334E+009;1.779906600713730E-001;1.450510509312153E-002;-1.032072468660772E-003;2.474433276802301E-003;
2.405500000000000E+009;1.783548444509506E-001;1.436995342373848E-002;-7.925918325781822E-004;2.390604699030519E-003;
2.405666666666667E+009;1.788767427206039E-001;1.406198274344206E-002;-7.750318036414683E-004;2.563095185905695E-003;
2.405833333333334E+009;1.790774166584015E-001;1.377198286354542E-002;-7.310570217669010E-004;2.572448225691915E-003;
2.406000000000000E+009;1.793940365314484E-001;1.338831055909395E-002;-5.585572798736394E-004;2.468372695147991E-003;
2.406166666666667E+009;1.795132756233215E-001;1.341586653143168E-002;-5.556936375796795E-004;2.443717094138265E-003;
2.406333333333334E+009;1.797611117362976E-001;1.306153368204832E-002;-4.341564199421555E-004;2.414545975625515E-003;
2.406500000000000E+009;1.797469556331635E-001;1.279026549309492E-002;-4.206095181871206E-004;2.363320672884584E-003;
2.406666666666667E+009;1.795343309640884E-001;1.247891969978809E-002;-2.224534837296233E-004;2.124495571479201E-003;
2.406833333333334E+009;1.794941723346710E-001;1.220818329602480E-002;-2.174921683035791E-004;2.014624886214733E-003;
2.407000000000000E+009;1.794873774051666E-001;1.164919044822455E-002;-2.509272599127144E-005;2.102033467963338E-003;
2.407166666666667E+009;1.791622191667557E-001;1.141906995326281E-002;-1.835458097048104E-004;2.119876677170396E-003;
2.407333333333334E+009;1.787302047014237E-001;1.069606374949217E-002;-3.627347905421630E-005;1.954335952177644E-003;
2.407500000000000E+009;1.784086972475052E-001;1.046811044216156E-002;-1.335786364506930E-004;1.912021660245955E-003;
2.407666666666667E+009;1.779179871082306E-001;9.737584739923477E-003;1.321859162999317E-004;2.076828153803945E-003;
2.407833333333334E+009;1.774818003177643E-001;8.978552184998989E-003;-9.459727152716368E-006;1.943305367603898E-003;
2.408000000000000E+009;1.767115294933319E-001;8.155942894518375E-003;-1.668442018853966E-005;1.788709661923349E-003;
2.408166666666667E+009;1.762549430131912E-001;7.558155339211226E-003;1.580508433107752E-005;1.774447271600366E-003;
2.408333333333334E+009;1.758604347705841E-001;6.582667585462332E-003;5.977114778943360E-005;1.692744204774499E-003;
2.408500000000000E+009;1.750124543905258E-001;5.371076986193657E-003;1.786211796570569E-004;1.674710889346898E-003;
2.408666666666667E+009;1.743925511837006E-001;4.266385454684496E-003;1.332529354840517E-004;1.727135619148612E-003;
2.408833333333334E+009;1.736811101436615E-001;3.082437207922339E-003;2.319850027561188E-004;1.632386236451566E-003;
2.409000000000000E+009;1.728541851043701E-001;1.749194343574345E-003;6.704573024762794E-006;1.654308172874153E-003;
2.409166666666667E+009;1.721802651882172E-001;4.420450713951141E-004;8.540964336134493E-005;1.570177031680942E-003;
2.409333333333334E+009;1.716124564409256E-001;-1.063668169081211E-003;2.002526889555156E-004;1.460959436371923E-003;
2.409500000000000E+009;1.709496378898621E-001;-2.787658246234059E-003;1.468491391278803E-004;1.463195891119540E-003;
2.409666666666667E+009;1.703026443719864E-001;-4.309332463890314E-003;1.156501184595982E-005;1.393699320033193E-003;
2.409833333333334E+009;1.697135716676712E-001;-5.749908741563559E-003;1.168147209682502E-004;1.472087576985359E-003;
2.410000000000000E+009;1.692401021718979E-001;-7.616112008690834E-003;6.193220178829506E-005;1.545886974781752E-003;
2.410166666666667E+009;1.687662452459335E-001;-9.204662404954433E-003;1.465096429456025E-004;1.445222762413323E-003;
2.410333333333334E+009;1.683338880538940E-001;-1.126565691083670E-002;1.093012688215822E-004;1.496340148150921E-003;
2.410500000000000E+009;1.679162681102753E-001;-1.312784478068352E-002;1.443317451048642E-004;1.486337627284229E-003;
2.410666666666667E+009;1.675891578197479E-001;-1.508430484682322E-002;1.675369276199490E-004;1.455916557461023E-003;
2.410833333333334E+009;1.674115359783173E-001;-1.708479225635529E-002;1.587062288308516E-004;1.468467642553151E-003;
2.411000000000000E+009;1.671484559774399E-001;-1.889951154589653E-002;1.335253473371267E-004;1.479342230595648E-003;
2.411166666666667E+009;1.670534461736679E-001;-2.097337320446968E-002;2.087087777908891E-004;1.418816740624607E-003;
2.411333333333334E+009;1.671929210424423E-001;-2.283841557800770E-002;1.567541039548814E-004;1.432271325029433E-003;
2.411500000000000E+009;1.671555638313294E-001;-2.492218464612961E-002;2.059540856862441E-004;1.344519900158048E-003;
2.411666666666667E+009;1.673363745212555E-001;-2.679733932018280E-002;3.307099686935544E-004;1.256980584003031E-003;
2.411833333333334E+009;1.677260696887970E-001;-2.863979898393154E-002;2.495232329238206E-004;1.449995441362262E-003;
2.412000000000000E+009;1.678230315446854E-001;-3.063822723925114E-002;8.025368151720613E-005;1.572209759615362E-003;
2.412166666666667E+009;1.680956929922104E-001;-3.262959048151970E-002;3.104111528955400E-004;1.555406954139471E-003;
2.412333333333334E+009;1.689212322235107E-001;-3.442883118987083E-002;2.584650355856866E-004;1.523362239822745E-003;
2.412500000000000E+009;1.690683066844940E-001;-3.610603511333466E-002;4.337046411819756E-004;1.627687131986022E-003;
2.412666666666667E+009;1.698625236749649E-001;-3.808091580867767E-002;3.600386262405664E-004;1.587644801475108E-003;
2.412833333333334E+009;1.701745539903641E-001;-3.981269523501396E-002;3.445905167609453E-004;1.604634104296565E-003;
2.413000000000000E+009;1.709731817245483E-001;-4.129582270979881E-002;2.511078491806984E-004;1.538331387564540E-003;
2.413166666666667E+009;1.715340167284012E-001;-4.279892519116402E-002;5.662828334607184E-004;1.536322524771094E-003;
2.413333333333334E+009;1.720645278692246E-001;-4.442116990685463E-002;6.376783130690455E-004;1.533727976493537E-003;
2.413500000000000E+009;1.727617532014847E-001;-4.587265104055405E-002;6.730890600010753E-004;1.423434470780194E-003;
2.413666666666667E+009;1.735204458236694E-001;-4.711864143610001E-002;6.730399327352643E-004;1.519216690212488E-003;
2.413833333333334E+009;1.741753220558167E-001;-4.845887050032616E-002;6.938545266166329E-004;1.500796643085778E-003;
2.414000000000000E+009;1.747319996356964E-001;-4.973016679286957E-002;7.707839831709862E-004;1.399510540068150E-003;
2.414166666666667E+009;1.753977239131928E-001;-5.073751509189606E-002;7.605655700899661E-004;1.445339643396437E-003;
2.414333333333334E+009;1.759896874427795E-001;-5.173765495419502E-002;9.671016596257687E-004;1.367970486171544E-003;
2.414500000000000E+009;1.766815334558487E-001;-5.257327109575272E-002;8.678858284838498E-004;1.357956207357347E-003;
2.414666666666667E+009;1.769955754280090E-001;-5.344608798623085E-002;9.897709824144840E-004;1.304816105403006E-003;
2.414833333333334E+009;1.773647218942642E-001;-5.412418022751808E-002;8.687369409017265E-004;1.297231414355338E-003;
2.415000000000000E+009;1.778321564197540E-001;-5.480437353253365E-002;9.974999120458961E-004;1.237735617905855E-003;
2.415166666666667E+009;1.781734973192215E-001;-5.548268184065819E-002;9.175806189887226E-004;1.251479960046709E-003;
2.415333333333334E+009;1.784898787736893E-001;-5.594191327691078E-002;8.779091294854879E-004;1.132596167735755E-003;
2.415500000000000E+009;1.786306202411652E-001;-5.638388171792030E-002;1.086006406694651E-003;1.070486032404006E-003;
2.415666666666667E+009;1.788106560707092E-001;-5.661589652299881E-002;1.082547940313816E-003;1.153361168690026E-003;
2.415833333333334E+009;1.790277361869812E-001;-5.701617896556854E-002;1.202153740450740E-003;9.211790165863931E-004;
2.416000000000000E+009;1.787202656269074E-001;-5.726686120033264E-002;1.026052399538457E-003;9.414792875759304E-004;
2.416166666666667E+009;1.788066774606705E-001;-5.755990743637085E-002;1.109933597035706E-003;8.699317113496363E-004;
2.416333333333334E+009;1.783512681722641E-001;-5.778631195425987E-002;1.003346405923367E-003;7.054637535475195E-004;
2.416500000000000E+009;1.781750917434692E-001;-5.800267681479454E-002;1.112293684855104E-003;8.334720623679459E-004;
2.416666666666667E+009;1.776923984289169E-001;-5.807741731405258E-002;1.139851636253297E-003;7.988219149410725E-004;
2.416833333333334E+009;1.773155778646469E-001;-5.842136591672897E-002;1.177460304461420E-003;6.736909854225814E-004;
2.417000000000000E+009;1.765255481004715E-001;-5.860368907451630E-002;1.126297865994275E-003;4.426467057783157E-004;
2.417166666666667E+009;1.758227050304413E-001;-5.866968631744385E-002;1.056485809385777E-003;5.957090179435909E-004;
2.417333333333334E+009;1.750707477331162E-001;-5.899528786540031E-002;1.018690294586122E-003;4.642416024580598E-004;
2.417500000000000E+009;1.742600500583649E-001;-5.940269678831101E-002;9.899481665343046E-004;5.012094625271857E-004;
2.417666666666667E+009;1.733847558498383E-001;-5.957063660025597E-002;1.002861419692636E-003;3.727016737684608E-004;
2.417833333333334E+009;1.723958998918533E-001;-5.987265706062317E-002;1.002085395157337E-003;3.507815708871931E-004;
2.418000000000000E+009;1.712297797203064E-001;-6.037819758057594E-002;8.576727705076337E-004;4.080774961039424E-004;
2.418166666666667E+009;1.701355725526810E-001;-6.065827980637550E-002;8.304845541715622E-004;3.961955371778458E-004;
2.418333333333334E+009;1.692819744348526E-001;-6.129041686654091E-002;8.027642033994198E-004;3.509805828798562E-004;
2.418500000000000E+009;1.678054034709930E-001;-6.193561479449272E-002;6.865016184747219E-004;3.215856850147247E-004;
2.418666666666667E+009;1.667234897613525E-001;-6.258367747068405E-002;6.807187455706298E-004;3.694328188430518E-004;
2.418833333333334E+009;1.653084903955460E-001;-6.330288946628571E-002;6.525572971440852E-004;2.251586556667462E-004;
2.419000000000000E+009;1.640376001596451E-001;-6.409361213445664E-002;5.707864766009152E-004;4.273297672625631E-004;
2.419166666666667E+009;1.629020124673843E-001;-6.495106965303421E-002;5.709633696824312E-004;4.751742235384882E-004;
2.419333333333334E+009;1.614499092102051E-001;-6.569906324148178E-002;4.947257693856955E-004;4.675812670029700E-004;
2.419500000000000E+009;1.603607535362244E-001;-6.712089478969574E-002;4.432673158589751E-004;4.336472775321454E-004;
2.419666666666667E+009;1.591650843620300E-001;-6.840229034423828E-002;6.411020876839757E-004;4.894369631074369E-004;
2.419833333333334E+009;1.581006199121475E-001;-6.914909183979034E-002;6.739809759892523E-004;6.732014589942992E-004;
2.420000000000000E+009;1.570595502853394E-001;-7.056449353694916E-002;4.405462823342532E-004;5.910889594815671E-004;
2.420166666666667E+009;1.558932811021805E-001;-7.191586494445801E-002;5.413101171143353E-004;5.844894913025200E-004;
2.420333333333334E+009;1.549330651760101E-001;-7.331466674804688E-002;5.687537486664951E-004;7.766208145767450E-004;
2.420500000000000E+009;1.539998501539230E-001;-7.466466724872589E-002;5.482378182932735E-004;6.939471932128072E-004;
2.420666666666667E+009;1.530726850032806E-001;-7.603530585765839E-002;5.288004176691175E-004;8.547549368813634E-004;
2.420833333333334E+009;1.523547619581223E-001;-7.780574262142181E-002;6.099366582930088E-004;8.546464378014207E-004;
2.421000000000000E+009;1.516930907964706E-001;-7.929113507270813E-002;7.203492568805814E-004;8.167057530954480E-004;
2.421166666666667E+009;1.511570662260056E-001;-8.104950934648514E-002;6.726050633005798E-004;7.570516900159419E-004;
2.421333333333334E+009;1.507144719362259E-001;-8.280835300683975E-002;7.669078768230975E-004;9.091320680454373E-004;
2.421500000000000E+009;1.500088721513748E-001;-8.439316600561142E-002;9.086026111617684E-004;8.789506391622126E-004;
2.421666666666667E+009;1.498042494058609E-001;-8.624134957790375E-002;8.313040598295629E-004;8.927044109441340E-004;
2.421833333333334E+009;1.494698375463486E-001;-8.793161809444428E-002;8.254343410953879E-004;1.054550753906369E-003;
2.422000000000000E+009;1.493602395057678E-001;-8.952094614505768E-002;8.326747920364142E-004;1.062180381268263E-003;
2.422166666666667E+009;1.492640674114227E-001;-9.141146391630173E-002;1.109826378524303E-003;9.772870689630508E-004;
2.422333333333334E+009;1.492447406053543E-001;-9.291879832744598E-002;9.138164459727705E-004;9.249660652130842E-004;
2.422500000000000E+009;1.493649184703827E-001;-9.460458159446716E-002;1.015314133837819E-003;9.757210500538349E-004;
2.422666666666667E+009;1.495076417922974E-001;-9.628165513277054E-002;1.045661163516343E-003;9.697304922156036E-004;
2.422833333333334E+009;1.496698409318924E-001;-9.810769557952881E-002;1.202808227390051E-003;9.537673904560506E-004;
2.423000000000000E+009;1.499033272266388E-001;-9.952529519796372E-002;1.065709977410734E-003;1.163443201221526E-003;
2.423166666666667E+009;1.504603177309036E-001;-1.010027453303337E-001;1.141427783295512E-003;9.348685853183270E-004;
2.423333333333334E+009;1.509564518928528E-001;-1.022949218750000E-001;1.220810110680759E-003;8.212595130316913E-004;
2.423500000000000E+009;1.513077616691589E-001;-1.039189100265503E-001;1.396616222336888E-003;9.905127808451653E-004;
2.423666666666667E+009;1.515457183122635E-001;-1.051847636699677E-001;1.335033099167049E-003;7.600323879159987E-004;
2.423833333333334E+009;1.522644162178040E-001;-1.064411252737045E-001;1.477392390370369E-003;7.804771885275841E-004;
2.424000000000000E+009;1.526903361082077E-001;-1.076219603419304E-001;1.575273810885847E-003;7.182771805673838E-004;
2.424166666666667E+009;1.532339751720429E-001;-1.087089255452156E-001;1.572622801177204E-003;9.352383785881102E-004;
2.424333333333334E+009;1.537923216819763E-001;-1.097541972994804E-001;1.738961203955114E-003;7.833453710190952E-004;
2.424500000000000E+009;1.542829871177673E-001;-1.106506064534187E-001;1.797350822016597E-003;6.073680706322193E-004;
2.424666666666667E+009;1.549064218997955E-001;-1.113881319761276E-001;1.833965885452926E-003;6.051472155377269E-004;
2.424833333333334E+009;1.552755981683731E-001;-1.123256236314774E-001;1.825340092182159E-003;5.295815062709153E-004;
2.425000000000000E+009;1.556802541017532E-001;-1.131562367081642E-001;1.853173947893083E-003;3.309760359115899E-004;
2.425166666666667E+009;1.559826582670212E-001;-1.136661693453789E-001;1.957130152732134E-003;2.957994875032455E-004;
2.425333333333334E+009;1.563367694616318E-001;-1.141063570976257E-001;1.898664166219533E-003;3.619741764850915E-004;
2.425500000000000E+009;1.567567288875580E-001;-1.147148907184601E-001;1.977859297767282E-003;2.549627097323537E-004;
2.425666666666667E+009;1.568900495767593E-001;-1.151137053966522E-001;1.969638047739863E-003;7.358013681368902E-005;
2.425833333333334E+009;1.570204198360443E-001;-1.155781596899033E-001;1.885730656795204E-003;-5.276561569189653E-005;
2.426000000000000E+009;1.570282727479935E-001;-1.157810688018799E-001;1.836751820519567E-003;5.009263622923754E-005;
2.426166666666667E+009;1.571872681379318E-001;-1.160590425133705E-001;1.920506474561989E-003;-1.268822961719707E-004;
2.426333333333334E+009;1.569529473781586E-001;-1.162185370922089E-001;1.889328123070300E-003;-2.453238448651973E-005;
2.426500000000000E+009;1.569081842899323E-001;-1.164532080292702E-001;1.829953514970839E-003;-2.373816678300500E-004;
2.426666666666667E+009;1.567797362804413E-001;-1.164237558841705E-001;1.845832681283355E-003;-2.388300927123055E-004;
2.426833333333334E+009;1.562651991844177E-001;-1.165570765733719E-001;1.786248874850571E-003;-2.891969343181700E-004;
2.427000000000000E+009;1.556868255138397E-001;-1.168115437030792E-001;1.764594344422221E-003;-4.004051734227687E-004;
2.427166666666667E+009;1.552523970603943E-001;-1.167229115962982E-001;1.642765942960978E-003;-4.371761169750243E-004;
2.427333333333334E+009;1.544740498065949E-001;-1.168427392840385E-001;1.724546076729894E-003;-4.193195782136172E-004;
2.427500000000000E+009;1.538147479295731E-001;-1.169690415263176E-001;1.756261568516493E-003;-5.774346063844860E-004;
2.427666666666667E+009;1.529493331909180E-001;-1.171728298068047E-001;1.549095264635980E-003;-3.591382410377264E-004;
2.427833333333334E+009;1.518611907958984E-001;-1.173242107033730E-001;1.610016683116555E-003;-5.098974797874689E-004;
