# Version 1.00
#
freq[Hz];re:Trc1_S11;im:Trc1_S11;re:Trc2_S21;im:Trc2_S21;
2.400000000000000E+009;1.515011340379715E-001;1.152534559369087E-001;1.263474579900503E-003;-4.966766107827425E-003;
2.400166666666667E+009;1.510521769523621E-001;1.128281280398369E-001;1.191991032101214E-003;-5.105334799736738E-003;
2.400333333333334E+009;1.511293053627014E-001;1.106227338314056E-001;1.243603299371898E-003;-5.023018456995487E-003;
2.400500000000000E+009;1.509431898593903E-001;1.080607995390892E-001;1.062845345586538E-003;-5.178320687264204E-003;
2.400666666666667E+009;1.509235799312592E-001;1.057471483945847E-001;1.063760952092707E-003;-5.358025431632996E-003;
2.400833333333334E+009;1.507370173931122E-001;1.027082800865173E-001;1.024144352413714E-003;-5.254972726106644E-003;
2.401000000000000E+009;1.509980708360672E-001;9.999352693557739E-002;1.059389789588749E-003;-5.628339946269989E-003;
2.401166666666667E+009;1.509627699851990E-001;9.713552147150040E-002;6.053227698430419E-004;-5.754481069743633E-003;
2.401333333333334E+009;1.510392874479294E-001;9.412739425897598E-002;4.680866550188512E-004;-5.799995735287666E-003;
2.401500000000000E+009;1.514555215835571E-001;9.136495739221573E-002;2.779972564894706E-004;-6.035206839442253E-003;
2.401666666666667E+009;1.519141495227814E-001;8.822457492351532E-002;-1.479263446526602E-004;-6.204944103956223E-003;
2.401833333333334E+009;1.523069888353348E-001;8.561957627534866E-002;-4.648648318834603E-004;-6.222180090844631E-003;
2.402000000000000E+009;1.532177329063416E-001;8.276844024658203E-002;-8.131579379551113E-004;-6.290171761065722E-003;
2.402166666666667E+009;1.538401842117310E-001;8.004406094551086E-002;-1.210555899888277E-003;-6.213342305272818E-003;
2.402333333333334E+009;1.547249257564545E-001;7.718610763549805E-002;-1.473015756346285E-003;-6.236833520233631E-003;
2.402500000000000E+009;1.559286415576935E-001;7.450652122497559E-002;-1.786294975318015E-003;-6.051177624613047E-003;
2.402666666666667E+009;1.570413410663605E-001;7.209478318691254E-002;-2.288678660988808E-003;-5.953642074018717E-003;
2.402833333333334E+009;1.585497707128525E-001;6.953431665897369E-002;-2.631629817187786E-003;-5.682602059096098E-003;
2.403000000000000E+009;1.601122915744782E-001;6.709238141775131E-002;-2.579567255452275E-003;-5.582625512033701E-003;
2.403166666666667E+009;1.618343144655228E-001;6.471142917871475E-002;-3.126399358734489E-003;-5.410120822489262E-003;
2.403333333333334E+009;1.636001169681549E-001;6.247378140687943E-002;-3.297154558822513E-003;-5.025522783398628E-003;
2.403500000000000E+009;1.653268635272980E-001;6.018311902880669E-002;-3.395090578123927E-003;-5.108300596475601E-003;
2.403666666666667E+009;1.673675030469894E-001;5.821041017770767E-002;-3.399183042347431E-003;-4.754217341542244E-003;
2.403833333333334E+009;1.691839247941971E-001;5.610789731144905E-002;-3.370797261595726E-003;-4.342293366789818E-003;
2.404000000000000E+009;1.710683703422546E-001;5.416132509708405E-002;-3.509437432512641E-003;-4.179809242486954E-003;
2.404166666666667E+009;1.730016916990280E-001;5.252707749605179E-002;-3.810460679233074E-003;-3.990064375102520E-003;
2.404333333333334E+009;1.749319881200790E-001;5.072470009326935E-002;-3.809162182733417E-003;-3.807401517406106E-003;
2.404500000000000E+009;1.767477989196777E-001;4.916577413678169E-002;-3.799422178417444E-003;-3.644577460363507E-003;
2.404666666666667E+009;1.786991953849793E-001;4.791731014847755E-002;-3.918710630387068E-003;-3.730302443727851E-003;
2.404833333333334E+009;1.805767714977264E-001;4.677072167396545E-002;-3.772059222683311E-003;-3.522756043821573E-003;
2.405000000000000E+009;1.822291165590286E-001;4.580614715814591E-002;-4.096339456737042E-003;-3.301567863672972E-003;
2.405166666666667E+009;1.839843541383743E-001;4.499357193708420E-002;-4.048523493111134E-003;-3.158765379339457E-003;
2.405333333333334E+009;1.858519911766052E-001;4.432528093457222E-002;-4.168259445577860E-003;-3.179870778694749E-003;
2.405500000000000E+009;1.874487549066544E-001;4.377252981066704E-002;-4.225063603371382E-003;-3.021818585693836E-003;
2.405666666666667E+009;1.889678686857224E-001;4.322987422347069E-002;-4.387059714645147E-003;-2.917229430750012E-003;
2.405833333333334E+009;1.906927376985550E-001;4.297982156276703E-002;-4.483177792280912E-003;-2.568496391177177E-003;
2.406000000000000E+009;1.919100135564804E-001;4.282753914594650E-002;-4.609046969562769E-003;-2.436323324218392E-003;
2.406166666666667E+009;1.932211965322495E-001;4.260482266545296E-002;-4.627983551472426E-003;-2.173294080421329E-003;
2.406333333333334E+009;1.944351345300674E-001;4.250071570277214E-002;-4.782719071954489E-003;-2.103969454765320E-003;
2.406500000000000E+009;1.955174952745438E-001;4.254243522882462E-002;-4.718485288321972E-003;-1.906916266307235E-003;
2.406666666666667E+009;1.964138895273209E-001;4.256679117679596E-002;-4.614130593836308E-003;-1.727361697703600E-003;
2.406833333333334E+009;1.971669793128967E-001;4.268548265099526E-002;-4.729035776108503E-003;-1.433967379853129E-003;
2.407000000000000E+009;1.976748704910278E-001;4.283331334590912E-002;-4.877988714724779E-003;-1.311737927608192E-003;
2.407166666666667E+009;1.982499361038208E-001;4.270260408520699E-002;-4.992385394871235E-003;-1.225247979164124E-003;
2.407333333333334E+009;1.984104663133621E-001;4.310153052210808E-002;-4.800837952643633E-003;-1.008572988212109E-003;
2.407500000000000E+009;1.986352950334549E-001;4.318966716527939E-002;-4.690945614129305E-003;-6.990853580646217E-004;
2.407666666666667E+009;1.987243294715881E-001;4.313693568110466E-002;-4.762442316859961E-003;-6.764600984752178E-004;
2.407833333333334E+009;1.982964277267456E-001;4.328479617834091E-002;-4.687742795795202E-003;-4.661432467401028E-004;
2.408000000000000E+009;1.982529759407044E-001;4.312492907047272E-002;-4.616415593773127E-003;-3.451713710092008E-004;
2.408166666666667E+009;1.977622658014298E-001;4.297842085361481E-002;-4.651256836950779E-003;-1.945482654264197E-004;
2.408333333333334E+009;1.973316967487335E-001;4.266059398651123E-002;-4.563431255519390E-003;5.299227996147238E-005;
2.408500000000000E+009;1.967266798019409E-001;4.247056692838669E-002;-4.489606712013483E-003;1.351029641227797E-004;
2.408666666666667E+009;1.959626674652100E-001;4.199959710240364E-002;-4.570737946778536E-003;5.215965793468058E-004;
2.408833333333334E+009;1.952986568212509E-001;4.152298346161842E-002;-4.309704527258873E-003;5.629246006719768E-004;
2.409000000000000E+009;1.943320482969284E-001;4.090628772974014E-002;-4.194054286926985E-003;6.312314071692526E-004;
2.409166666666667E+009;1.932644248008728E-001;4.010511934757233E-002;-4.075484815984964E-003;7.649949402548373E-004;
2.409333333333334E+009;1.921432912349701E-001;3.934322670102119E-002;-3.993068356066942E-003;7.553983596153557E-004;
2.409500000000000E+009;1.909188181161881E-001;3.810656443238258E-002;-3.775332123041153E-003;8.911969489417970E-004;
2.409666666666667E+009;1.897512227296829E-001;3.684177249670029E-002;-3.713770303875208E-003;9.427804034203291E-004;
2.409833333333334E+009;1.886681169271469E-001;3.548123687505722E-002;-3.534452524036169E-003;8.813912863843143E-004;
2.410000000000000E+009;1.874188482761383E-001;3.414428979158402E-002;-3.567838575690985E-003;8.927417220547795E-004;
2.410166666666667E+009;1.862709820270538E-001;3.237453475594521E-002;-3.474064636975527E-003;8.866401039995253E-004;
2.410333333333334E+009;1.851809918880463E-001;3.081587702035904E-002;-3.424808382987976E-003;7.944045355543494E-004;
2.410500000000000E+009;1.840235441923142E-001;2.888703718781471E-002;-3.322970122098923E-003;8.033394115045667E-004;
2.410666666666667E+009;1.828896552324295E-001;2.680776827037334E-002;-3.263532416895032E-003;7.491828873753548E-004;
2.410833333333334E+009;1.821253597736359E-001;2.481474727392197E-002;-3.252994036301971E-003;7.551959133706987E-004;
2.411000000000000E+009;1.811906695365906E-001;2.266671508550644E-002;-3.412496997043490E-003;7.363591575995088E-004;
2.411166666666667E+009;1.802512705326080E-001;2.047497406601906E-002;-3.334646113216877E-003;6.279017543420196E-004;
2.411333333333334E+009;1.796671450138092E-001;1.778441295027733E-002;-3.489761613309383E-003;7.467378745786846E-004;
2.411500000000000E+009;1.789434701204300E-001;1.538837142288685E-002;-3.580109216272831E-003;6.568104145117104E-004;
2.411666666666667E+009;1.785431206226349E-001;1.305942423641682E-002;-3.691813442856073E-003;6.485166377387941E-004;
2.411833333333334E+009;1.779550760984421E-001;1.057572942227125E-002;-3.825678722932935E-003;7.473262376151979E-004;
2.412000000000000E+009;1.779609024524689E-001;7.993186824023724E-003;-3.988092765212059E-003;7.790054660290480E-004;
2.412166666666667E+009;1.778579801321030E-001;5.536438431590796E-003;-4.185868892818689E-003;9.745086426846683E-004;
2.412333333333334E+009;1.780425906181335E-001;2.803622512146831E-003;-4.317444749176502E-003;1.040108036249876E-003;
2.412500000000000E+009;1.784266084432602E-001;2.956446260213852E-004;-4.382657352834940E-003;1.408108277246356E-003;
2.412666666666667E+009;1.787288337945938E-001;-2.212299499660730E-003;-4.555137362331152E-003;1.596203306689858E-003;
2.412833333333334E+009;1.793737113475800E-001;-4.935986362397671E-003;-4.540925379842520E-003;1.815960509702563E-003;
2.413000000000000E+009;1.799951791763306E-001;-7.583823986351490E-003;-4.492646083235741E-003;1.982809044420719E-003;
2.413166666666667E+009;1.806837171316147E-001;-9.734951891005039E-003;-4.749978426843882E-003;2.284918911755085E-003;
2.413333333333334E+009;1.816941648721695E-001;-1.234885584563017E-002;-4.532911814749241E-003;2.730072243139148E-003;
2.413500000000000E+009;1.825207471847534E-001;-1.462118793278933E-002;-4.430562257766724E-003;3.138235071673989E-003;
2.413666666666667E+009;1.835927516222000E-001;-1.725229434669018E-002;-4.312679637223482E-003;3.218667116016150E-003;
2.413833333333334E+009;1.845949590206146E-001;-1.947230845689774E-002;-4.274130798876286E-003;3.623141674324870E-003;
2.414000000000000E+009;1.857933104038239E-001;-2.140443585813046E-002;-4.136040341109037E-003;3.949406556785107E-003;
2.414166666666667E+009;1.871041059494019E-001;-2.342267893254757E-002;-3.881430951878429E-003;4.216349218040705E-003;
2.414333333333334E+009;1.882285475730896E-001;-2.548171952366829E-002;-3.490365808829665E-003;4.356200806796551E-003;
2.414500000000000E+009;1.896082013845444E-001;-2.720617316663265E-002;-3.421503817662597E-003;4.575533326715231E-003;
2.414666666666667E+009;1.909636259078980E-001;-2.885897830128670E-002;-3.053516382351518E-003;4.698822274804115E-003;
2.414833333333334E+009;1.919695585966110E-001;-3.020696714520454E-002;-2.818004693835974E-003;4.747263621538878E-003;
2.415000000000000E+009;1.933489888906479E-001;-3.188604116439819E-002;-2.486407756805420E-003;4.852172452956438E-003;
2.415166666666667E+009;1.947046816349030E-001;-3.316398337483406E-002;-2.192777581512928E-003;4.864115733653307E-003;
2.415333333333334E+009;1.958729475736618E-001;-3.400581702589989E-002;-1.928069046698511E-003;5.035385955125094E-003;
2.415500000000000E+009;1.972671449184418E-001;-3.486604988574982E-002;-1.747506903484464E-003;5.121985916048288E-003;
2.415666666666667E+009;1.984256058931351E-001;-3.583849966526032E-002;-1.524565974250436E-003;5.026972386986017E-003;
2.415833333333334E+009;1.994069665670395E-001;-3.653601557016373E-002;-1.474658842198551E-003;4.932887386530638E-003;
2.416000000000000E+009;2.004489302635193E-001;-3.715870156884193E-002;-1.168907852843404E-003;5.122819915413857E-003;
2.416166666666667E+009;2.014381885528565E-001;-3.767725080251694E-002;-1.008863560855389E-003;5.000713746994734E-003;
2.416333333333334E+009;2.022543400526047E-001;-3.798094391822815E-002;-8.047944866120815E-004;5.080495495349169E-003;
2.416500000000000E+009;2.027892023324966E-001;-3.821715712547302E-002;-5.208034417591989E-004;5.087585188448429E-003;
2.416666666666667E+009;2.033382505178452E-001;-3.861734643578529E-002;-3.378481196705252E-004;5.285648629069328E-003;
2.416833333333334E+009;2.037103027105331E-001;-3.851971402764320E-002;-2.228910452686250E-004;5.118009168654680E-003;
2.417000000000000E+009;2.039845585823059E-001;-3.853517025709152E-002;1.653887920838315E-005;5.270552821457386E-003;
2.417166666666667E+009;2.039988636970520E-001;-3.834120556712151E-002;3.792476200032979E-004;5.190892145037651E-003;
2.417333333333334E+009;2.040514796972275E-001;-3.804779052734375E-002;5.570210050791502E-004;5.080326925963163E-003;
2.417500000000000E+009;2.039793580770493E-001;-3.802770376205444E-002;7.945019169710577E-004;4.991289693862200E-003;
2.417666666666667E+009;2.036499828100205E-001;-3.766276314854622E-002;8.980215643532574E-004;4.837865009903908E-003;
2.417833333333334E+009;2.034010440111160E-001;-3.723264113068581E-002;1.324565731920302E-003;4.756041336804628E-003;
2.418000000000000E+009;2.029374688863754E-001;-3.682364523410797E-002;1.465544686652720E-003;4.807786550372839E-003;
2.418166666666667E+009;2.023425847291946E-001;-3.657478094100952E-002;1.538897631689906E-003;4.575487226247788E-003;
2.418333333333334E+009;2.016359567642212E-001;-3.628662228584290E-002;1.780543127097189E-003;4.471528343856335E-003;
2.418500000000000E+009;2.008005231618881E-001;-3.625837713479996E-002;1.998570747673512E-003;4.153277724981308E-003;
2.418666666666667E+009;2.000560015439987E-001;-3.586995601654053E-002;2.170496387407184E-003;4.120877012610436E-003;
2.418833333333334E+009;1.989450454711914E-001;-3.589558601379395E-002;2.251268830150366E-003;3.958583809435368E-003;
2.419000000000000E+009;1.977575868368149E-001;-3.602963313460350E-002;2.306858776137233E-003;3.721826244145632E-003;
2.419166666666667E+009;1.966027021408081E-001;-3.614826127886772E-002;2.299646148458123E-003;3.602194832637906E-003;
2.419333333333334E+009;1.953664869070053E-001;-3.655504807829857E-002;2.602093387395144E-003;3.482002764940262E-003;
2.419500000000000E+009;1.938167959451675E-001;-3.690768405795097E-002;2.536192536354065E-003;3.276126692071557E-003;
2.419666666666667E+009;1.923788189888001E-001;-3.748846426606178E-002;2.603295957669616E-003;3.055634442716837E-003;
2.419833333333334E+009;1.907721012830734E-001;-3.796461224555969E-002;2.599532483145595E-003;2.906976034864783E-003;
2.420000000000000E+009;1.890008747577667E-001;-3.877729550004005E-002;2.484307158738375E-003;2.767482772469521E-003;
2.420166666666667E+009;1.874524056911469E-001;-3.959797695279121E-002;2.500251634046435E-003;2.517380751669407E-003;
2.420333333333334E+009;1.856659203767777E-001;-4.058394953608513E-002;2.490184968337417E-003;2.455039881169796E-003;
2.420500000000000E+009;1.839470416307449E-001;-4.182265698909760E-002;2.489216625690460E-003;2.386367879807949E-003;
2.420666666666667E+009;1.821166425943375E-001;-4.300229251384735E-002;2.376733580604196E-003;2.229942940175533E-003;
2.420833333333334E+009;1.804791241884232E-001;-4.439818114042282E-002;2.272661542519927E-003;2.393411472439766E-003;
2.421000000000000E+009;1.787147670984268E-001;-4.598005488514900E-002;2.427822910249233E-003;2.366636646911502E-003;
2.421166666666667E+009;1.771582961082459E-001;-4.748246818780899E-002;2.334523014724255E-003;2.235667547211051E-003;
2.421333333333334E+009;1.754197776317596E-001;-4.904884472489357E-002;2.328384667634964E-003;2.339964034035802E-003;
2.421500000000000E+009;1.738192141056061E-001;-5.094607919454575E-002;2.549196360632777E-003;2.257602522149682E-003;
2.421666666666667E+009;1.724322289228439E-001;-5.271173268556595E-002;2.519916277378798E-003;2.312103053554893E-003;
2.421833333333334E+009;1.709696948528290E-001;-5.448482930660248E-002;2.618601778522134E-003;2.240828704088926E-003;
2.422000000000000E+009;1.698642224073410E-001;-5.632225796580315E-002;2.660455647855997E-003;2.204221906140447E-003;
2.422166666666667E+009;1.687725186347961E-001;-5.863200873136520E-002;2.795380307361484E-003;2.051109215244651E-003;
2.422333333333334E+009;1.676653176546097E-001;-6.063246726989746E-002;2.816717140376568E-003;2.068819245323539E-003;
2.422500000000000E+009;1.666901558637619E-001;-6.248023733496666E-002;2.798378467559815E-003;2.029898576438427E-003;
2.422666666666667E+009;1.659451127052307E-001;-6.473962962627411E-002;2.903133630752564E-003;1.870866864919663E-003;
2.422833333333334E+009;1.652396023273468E-001;-6.674639880657196E-002;2.714737551286817E-003;1.809817273169756E-003;
2.423000000000000E+009;1.647034436464310E-001;-6.878852099180222E-002;2.818392589688301E-003;1.882754266262054E-003;
2.423166666666667E+009;1.641799360513687E-001;-7.094841450452805E-002;2.846984891220927E-003;1.641189679503441E-003;
2.423333333333334E+009;1.641269922256470E-001;-7.300831377506256E-002;2.850815420970321E-003;1.669855439104140E-003;
2.423500000000000E+009;1.638882905244827E-001;-7.493427395820618E-002;2.935722935944796E-003;1.434413483366370E-003;
2.423666666666667E+009;1.640532016754150E-001;-7.689806818962097E-002;3.109924262389541E-003;1.470067771151662E-003;
2.423833333333334E+009;1.638478040695190E-001;-7.886424660682678E-002;2.895090728998184E-003;1.457381993532181E-003;
2.424000000000000E+009;1.640200018882752E-001;-8.094479143619537E-002;3.026306163519621E-003;1.369829755276442E-003;
2.424166666666667E+009;1.641789376735687E-001;-8.251032233238220E-002;3.059895709156990E-003;1.297072158195078E-003;
2.424333333333334E+009;1.645261794328690E-001;-8.420244604349136E-002;3.159862942993641E-003;1.179922255687416E-003;
2.424500000000000E+009;1.648729443550110E-001;-8.612220734357834E-002;3.314915345981717E-003;1.222329447045922E-003;
2.424666666666667E+009;1.652500629425049E-001;-8.740649372339249E-002;3.186880145221949E-003;9.350646287202835E-004;
2.424833333333334E+009;1.658973246812820E-001;-8.891104906797409E-002;3.313778666779399E-003;8.386957342736423E-004;
2.425000000000000E+009;1.663609892129898E-001;-9.018487483263016E-002;3.240774618461728E-003;7.539953221566975E-004;
2.425166666666667E+009;1.668786257505417E-001;-9.144899994134903E-002;3.380520502105355E-003;6.100393366068602E-004;
2.425333333333334E+009;1.673430949449539E-001;-9.251615405082703E-002;3.472607117146254E-003;4.368639492895454E-004;
2.425500000000000E+009;1.680929660797119E-001;-9.360797703266144E-002;3.243715502321720E-003;3.105909854639322E-004;
2.425666666666667E+009;1.686347275972366E-001;-9.444970637559891E-002;3.265237668529153E-003;4.373615665826947E-004;
2.425833333333334E+009;1.691973656415939E-001;-9.547207504510880E-002;3.220731858164072E-003;3.104737552348524E-004;
2.426000000000000E+009;1.699661761522293E-001;-9.604196250438690E-002;3.271544585004449E-003;4.254106534062885E-005;
2.426166666666667E+009;1.705842316150665E-001;-9.666451811790466E-002;3.286300459876657E-003;6.922705506440252E-005;
2.426333333333334E+009;1.708941757678986E-001;-9.728159010410309E-002;3.204314270988107E-003;4.253042425261810E-005;
2.426500000000000E+009;1.716223359107971E-001;-9.761682152748108E-002;3.217064542695880E-003;-1.078462883015163E-004;
2.426666666666667E+009;1.720211803913117E-001;-9.791950136423111E-002;3.274718066677451E-003;-6.487671726063127E-006;
2.426833333333334E+009;1.726776659488678E-001;-9.838364273309708E-002;3.277085023000836E-003;-1.953604951268062E-004;
2.427000000000000E+009;1.727774590253830E-001;-9.861476719379425E-002;3.235504729673266E-003;-1.589677267475054E-004;
2.427166666666667E+009;1.731462776660919E-001;-9.875845164060593E-002;3.413499100133777E-003;-4.048522969242185E-004;
2.427333333333334E+009;1.733306199312210E-001;-9.912919998168945E-002;3.372202394530177E-003;-4.705488681793213E-004;
2.427500000000000E+009;1.733339726924896E-001;-9.945267438888550E-002;3.387836040928960E-003;-6.427451153285801E-004;
2.427666666666667E+009;1.731726229190826E-001;-9.947085380554199E-002;3.395033068954945E-003;-7.525723776780069E-004;
2.427833333333334E+009;1.730668246746063E-001;-9.955269098281860E-002;3.420592984184623E-003;-7.871772395446897E-004;
