# Version 1.00
#
freq[Hz];re:Trc1_S11;im:Trc1_S11;re:Trc2_S21;im:Trc2_S21;
2.400000000000000E+009;1.563476473093033E-001;1.059476956725121E-001;-1.297357841394842E-003;-1.496450160630047E-003;
2.400166666666667E+009;1.563583910465241E-001;1.035452187061310E-001;-1.333063351921737E-003;-1.458333805203438E-003;
2.400333333333334E+009;1.566661596298218E-001;1.014560982584953E-001;-1.498732133768499E-003;-1.560231903567910E-003;
2.400500000000000E+009;1.567431092262268E-001;9.875283390283585E-002;-1.767050591297448E-003;-1.627102843485773E-003;
2.400666666666667E+009;1.571467667818070E-001;9.647399187088013E-002;-1.829662476666272E-003;-1.566034276038408E-003;
2.400833333333334E+009;1.570935100317001E-001;9.365707635879517E-002;-1.987422350794077E-003;-1.555627328343689E-003;
2.401000000000000E+009;1.574744135141373E-001;9.090448915958405E-002;-2.185702091082931E-003;-1.537675154395402E-003;
2.401166666666667E+009;1.576528102159500E-001;8.837275952100754E-002;-2.221694681793451E-003;-1.414410537108779E-003;
2.401333333333334E+009;1.581717729568481E-001;8.575257658958435E-002;-2.302834531292319E-003;-1.435108599252999E-003;
2.401500000000000E+009;1.587214618921280E-001;8.325020968914032E-002;-2.507316879928112E-003;-1.226356951519847E-003;
2.401666666666667E+009;1.592230498790741E-001;8.037324249744415E-002;-2.596118720248342E-003;-1.116610714234412E-003;
2.401833333333334E+009;1.596082150936127E-001;7.790930569171906E-002;-2.869517309591174E-003;-1.139860250987113E-003;
2.402000000000000E+009;1.605430841445923E-001;7.525122910737991E-002;-2.827757969498634E-003;-8.537662215530872E-004;
2.402166666666667E+009;1.613622456789017E-001;7.308404892683029E-002;-2.787420991808176E-003;-9.125407086685300E-004;
2.402333333333334E+009;1.624477952718735E-001;7.057138532400131E-002;-2.749980660155416E-003;-6.229893187992275E-004;
2.402500000000000E+009;1.635663658380508E-001;6.815444678068161E-002;-2.974025439471006E-003;-6.655303877778351E-004;
2.402666666666667E+009;1.646884679794312E-001;6.610292196273804E-002;-2.947667846456170E-003;-4.876451857853681E-004;
2.402833333333334E+009;1.658950299024582E-001;6.369745731353760E-002;-2.805146621540189E-003;-5.077446112409234E-004;
2.403000000000000E+009;1.672635674476624E-001;6.150726974010468E-002;-2.868812764063478E-003;-2.086135355057195E-004;
2.403166666666667E+009;1.689128577709198E-001;5.932145565748215E-002;-2.969566732645035E-003;-1.029436170938425E-004;
2.403333333333334E+009;1.702165156602860E-001;5.726763606071472E-002;-3.030966967344284E-003;-1.587670267326757E-004;
2.403500000000000E+009;1.717272549867630E-001;5.527439713478088E-002;-2.910567680373788E-003;1.190212860819884E-004;
2.403666666666667E+009;1.733868718147278E-001;5.370565876364708E-002;-2.858646912500262E-003;6.606632814509794E-005;
2.403833333333334E+009;1.749623715877533E-001;5.185465514659882E-002;-3.016365692019463E-003;1.610634899407160E-005;
2.404000000000000E+009;1.762687861919403E-001;5.011420324444771E-002;-3.027626080438495E-003;2.022019180003554E-004;
2.404166666666667E+009;1.779192239046097E-001;4.871349409222603E-002;-3.068210091441870E-003;3.763810382224619E-004;
2.404333333333334E+009;1.794510185718536E-001;4.722484946250916E-002;-3.163420129567385E-003;4.734842223115265E-004;
2.404500000000000E+009;1.806983947753906E-001;4.575110599398613E-002;-2.993750618770719E-003;4.066214314661920E-004;
2.404666666666667E+009;1.821917593479157E-001;4.486692696809769E-002;-3.049863735213876E-003;4.340174200478941E-004;
2.404833333333334E+009;1.837026029825211E-001;4.348077625036240E-002;-3.212313866242766E-003;7.212778436951339E-004;
2.405000000000000E+009;1.847565919160843E-001;4.296967014670372E-002;-3.041502553969622E-003;9.228703565895557E-004;
2.405166666666667E+009;1.861261129379273E-001;4.217122495174408E-002;-3.263264428824186E-003;1.028345082886517E-003;
2.405333333333334E+009;1.872420310974121E-001;4.158256202936173E-002;-3.232046728953719E-003;1.167515758424997E-003;
2.405500000000000E+009;1.885527819395065E-001;4.110973700881004E-002;-3.070460399612784E-003;1.273973146453500E-003;
2.405666666666667E+009;1.896553039550781E-001;4.056647792458534E-002;-3.319968469440937E-003;1.308418810367584E-003;
2.405833333333334E+009;1.907280683517456E-001;4.025179520249367E-002;-3.253437811508775E-003;1.567691680975258E-003;
2.406000000000000E+009;1.913743764162064E-001;3.986996784806252E-002;-3.165767295286059E-003;1.659761765040457E-003;
2.406166666666667E+009;1.923150867223740E-001;3.952192142605782E-002;-3.186165355145931E-003;1.997276674956083E-003;
2.406333333333334E+009;1.931119561195374E-001;3.951122239232063E-002;-3.079511458054185E-003;2.034934703260660E-003;
2.406500000000000E+009;1.937403231859207E-001;3.927763924002647E-002;-2.788083860650659E-003;2.271030331030488E-003;
2.406666666666667E+009;1.942796558141708E-001;3.912495821714401E-002;-2.734834095463157E-003;2.379624638706446E-003;
2.406833333333334E+009;1.947181224822998E-001;3.900434821844101E-002;-2.776458393782377E-003;2.661380916833878E-003;
2.407000000000000E+009;1.949925720691681E-001;3.899838775396347E-002;-2.466409001499414E-003;2.631451934576035E-003;
2.407166666666667E+009;1.952339261770248E-001;3.865619376301765E-002;-2.317552221938968E-003;2.766481367871165E-003;
2.407333333333334E+009;1.951719820499420E-001;3.865043446421623E-002;-2.316129393875599E-003;2.882594475522637E-003;
2.407500000000000E+009;1.951620131731033E-001;3.854494541883469E-002;-2.104236511513591E-003;2.979293232783675E-003;
2.407666666666667E+009;1.951471269130707E-001;3.836564719676971E-002;-1.956547610461712E-003;2.866988768801093E-003;
2.407833333333334E+009;1.947513073682785E-001;3.802694007754326E-002;-1.818093471229076E-003;2.954685594886541E-003;
2.408000000000000E+009;1.948081105947495E-001;3.789599984884262E-002;-1.592852640897036E-003;3.190988907590509E-003;
2.408166666666667E+009;1.942647248506546E-001;3.729728981852531E-002;-1.678660046309233E-003;3.266088431701064E-003;
2.408333333333334E+009;1.939209699630737E-001;3.661760315299034E-002;-1.459678867831826E-003;3.196476958692074E-003;
2.408500000000000E+009;1.933334618806839E-001;3.619918227195740E-002;-1.356585882604122E-003;3.420653054490686E-003;
2.408666666666667E+009;1.929167360067368E-001;3.551753610372543E-002;-1.167366048321128E-003;3.441345412284136E-003;
2.408833333333334E+009;1.923155933618546E-001;3.450730443000794E-002;-1.008071820251644E-003;3.374033840373159E-003;
2.409000000000000E+009;1.915179938077927E-001;3.366743773221970E-002;-1.010976266115904E-003;3.518856829032302E-003;
2.409166666666667E+009;1.907472759485245E-001;3.250302746891975E-002;-7.393138948827982E-004;3.422221634536982E-003;
2.409333333333334E+009;1.900411546230316E-001;3.157687559723854E-002;-4.336969868745655E-004;3.476316574960947E-003;
2.409500000000000E+009;1.891074180603027E-001;3.026209399104118E-002;-3.803931467700750E-004;3.447427181527019E-003;
2.409666666666667E+009;1.884172558784485E-001;2.878448367118835E-002;-1.706187467789277E-004;3.548864740878344E-003;
2.409833333333334E+009;1.874577701091766E-001;2.741606160998344E-002;1.981539389817044E-004;3.502071136608720E-003;
2.410000000000000E+009;1.866383701562882E-001;2.565171383321285E-002;2.224077470600605E-004;3.389457939192653E-003;
2.410166666666667E+009;1.860192120075226E-001;2.384831756353378E-002;4.282457230146974E-004;3.020389471203089E-003;
2.410333333333334E+009;1.851311624050140E-001;2.224628813564777E-002;5.809926078654826E-004;3.145965980365872E-003;
2.410500000000000E+009;1.843259632587433E-001;2.038769051432610E-002;5.495771183632314E-004;3.183005144819617E-003;
2.410666666666667E+009;1.836073398590088E-001;1.819006167352200E-002;7.468113908544183E-004;2.815336920320988E-003;
2.410833333333334E+009;1.832139045000076E-001;1.597801223397255E-002;8.163579623214901E-004;2.753545064479113E-003;
2.411000000000000E+009;1.826442629098892E-001;1.399136241525412E-002;7.439707987941802E-004;2.868039533495903E-003;
2.411166666666667E+009;1.822258681058884E-001;1.179550308734179E-002;8.202600292861462E-004;2.673673909157515E-003;
2.411333333333334E+009;1.817161589860916E-001;9.335106238722801E-003;9.962865151464939E-004;2.663693157956004E-003;
2.411500000000000E+009;1.813340187072754E-001;7.351241540163755E-003;1.188045833259821E-003;2.519580535590649E-003;
2.411666666666667E+009;1.813807189464569E-001;5.026488564908505E-003;1.153371646068990E-003;2.537481719627976E-003;
2.411833333333334E+009;1.810666918754578E-001;2.870551776140928E-003;1.242667436599731E-003;2.393441740423441E-003;
2.412000000000000E+009;1.814858019351959E-001;4.003178037237376E-004;1.249899738468230E-003;2.213904866948724E-003;
2.412166666666667E+009;1.815636754035950E-001;-1.721462118439376E-003;1.297747483476996E-003;2.228616969659925E-003;
2.412333333333334E+009;1.816240698099136E-001;-4.009859170764685E-003;1.287039951421320E-003;2.040153369307518E-003;
2.412500000000000E+009;1.822808384895325E-001;-6.249885540455580E-003;1.312370295636356E-003;2.053919248282909E-003;
2.412666666666667E+009;1.826432943344116E-001;-8.726843632757664E-003;1.402138499543071E-003;1.866961480118334E-003;
2.412833333333334E+009;1.834207177162170E-001;-1.085008867084980E-002;1.211848692037165E-003;1.911721192300320E-003;
2.413000000000000E+009;1.839094012975693E-001;-1.308880932629108E-002;1.222802442498505E-003;1.765257911756635E-003;
2.413166666666667E+009;1.849979460239410E-001;-1.513745170086622E-002;1.200353261083365E-003;1.628300873562694E-003;
2.413333333333334E+009;1.858799010515213E-001;-1.742054149508476E-002;1.287975348532200E-003;1.596439047716558E-003;
2.413500000000000E+009;1.866161972284317E-001;-1.932995207607746E-002;1.301603391766548E-003;1.567649771459401E-003;
2.413666666666667E+009;1.876932531595230E-001;-2.144576236605644E-002;1.189695321954787E-003;1.636185683310032E-003;
2.413833333333334E+009;1.886737048625946E-001;-2.334734983742237E-002;9.352111956104636E-004;1.619959482923150E-003;
2.414000000000000E+009;1.895485371351242E-001;-2.546084672212601E-002;1.133588375523686E-003;1.626852899789810E-003;
2.414166666666667E+009;1.906658113002777E-001;-2.695261314511299E-002;1.148149953223765E-003;1.475707977078855E-003;
2.414333333333334E+009;1.916276216506958E-001;-2.888757362961769E-002;1.173880067653954E-003;1.529472414404154E-003;
2.414500000000000E+009;1.926552653312683E-001;-3.010297566652298E-002;1.092358841560781E-003;1.549127628095448E-003;
2.414666666666667E+009;1.935760676860809E-001;-3.164004534482956E-002;1.140756765380502E-003;1.469519222155213E-003;
2.414833333333334E+009;1.945773065090179E-001;-3.296655789017677E-002;1.259704236872494E-003;1.620440045371652E-003;
2.415000000000000E+009;1.956509649753571E-001;-3.431939706206322E-002;1.156994374468923E-003;1.492273062467575E-003;
2.415166666666667E+009;1.967267841100693E-001;-3.541311621665955E-002;1.083808136172593E-003;1.550479675643146E-003;
2.415333333333334E+009;1.976438909769058E-001;-3.618790581822395E-002;1.070416765287519E-003;1.585635822266340E-003;
2.415500000000000E+009;1.985885500907898E-001;-3.696512058377266E-002;1.120175584219396E-003;1.440984779037535E-003;
2.415666666666667E+009;1.993556618690491E-001;-3.800437599420548E-002;1.122534391470254E-003;1.572720706462860E-003;
2.415833333333334E+009;2.001229822635651E-001;-3.857418894767761E-002;1.201438833959401E-003;1.564704813063145E-003;
2.416000000000000E+009;2.007202059030533E-001;-3.931136429309845E-002;1.236598356626928E-003;1.648183562792838E-003;
2.416166666666667E+009;2.012433707714081E-001;-3.987865149974823E-002;1.394063932821155E-003;1.668587909080088E-003;
2.416333333333334E+009;2.017239332199097E-001;-4.023230820894241E-002;1.435556099750102E-003;1.665056217461824E-003;
2.416500000000000E+009;2.020599395036697E-001;-4.071952030062676E-002;1.476326724514365E-003;1.846894971095026E-003;
2.416666666666667E+009;2.022743970155716E-001;-4.101947695016861E-002;1.588179613463581E-003;1.713094301521778E-003;
2.416833333333334E+009;2.022660672664642E-001;-4.115550592541695E-002;1.757309539243579E-003;1.720409491099417E-003;
2.417000000000000E+009;2.023084014654160E-001;-4.151370003819466E-002;1.756492070853710E-003;1.730466959998012E-003;
2.417166666666667E+009;2.018090039491653E-001;-4.159274324774742E-002;1.915701781399548E-003;1.661314163357019E-003;
2.417333333333334E+009;2.014806419610977E-001;-4.153954982757568E-002;2.058918355032802E-003;1.611592480912805E-003;
2.417500000000000E+009;2.012246996164322E-001;-4.174948111176491E-002;2.071384340524674E-003;1.281527453102171E-003;
2.417666666666667E+009;2.005825638771057E-001;-4.170272499322891E-002;2.300282241776586E-003;1.256966614164412E-003;
2.417833333333334E+009;2.001023888587952E-001;-4.157296195626259E-002;2.366850385442376E-003;1.212131232023239E-003;
2.418000000000000E+009;1.995570808649063E-001;-4.152375087141991E-002;2.235683379694820E-003;1.105367555283010E-003;
2.418166666666667E+009;1.986419856548309E-001;-4.166197031736374E-002;2.336926059797406E-003;1.108817174099386E-003;
2.418333333333334E+009;1.978360265493393E-001;-4.166562855243683E-002;2.321317093446851E-003;1.085901632905006E-003;
2.418500000000000E+009;1.967924237251282E-001;-4.182381927967072E-002;2.410865854471922E-003;8.808640995994210E-004;
2.418666666666667E+009;1.960144788026810E-001;-4.183809831738472E-002;2.271066186949611E-003;9.949868544936180E-004;
2.418833333333334E+009;1.948188841342926E-001;-4.231877252459526E-002;2.469683997333050E-003;1.023453893139958E-003;
2.419000000000000E+009;1.935161054134369E-001;-4.253009334206581E-002;2.348673064261675E-003;8.333639125339687E-004;
2.419166666666667E+009;1.924122571945190E-001;-4.286669939756393E-002;2.336887409910560E-003;6.922867614775896E-004;
2.419333333333334E+009;1.911106854677200E-001;-4.366698861122131E-002;2.470497507601976E-003;9.296077769249678E-004;
2.419500000000000E+009;1.897231191396713E-001;-4.406164586544037E-002;2.466143574565649E-003;7.720183930359781E-004;
2.419666666666667E+009;1.881629079580307E-001;-4.492324590682983E-002;2.668574219569564E-003;7.867132662795484E-004;
2.419833333333334E+009;1.866632550954819E-001;-4.574207589030266E-002;2.690868219360709E-003;6.797981914132834E-004;
2.420000000000000E+009;1.854105293750763E-001;-4.663395509123802E-002;2.865547547116876E-003;6.712411413900554E-004;
2.420166666666667E+009;1.839053034782410E-001;-4.765343293547630E-002;2.878914354369044E-003;6.312630721367896E-004;
2.420333333333334E+009;1.824728548526764E-001;-4.868949577212334E-002;2.960799029096961E-003;5.573000526055694E-004;
2.420500000000000E+009;1.808652579784393E-001;-5.010207742452622E-002;3.035269211977720E-003;3.277351206634194E-004;
2.420666666666667E+009;1.795060634613037E-001;-5.114519596099854E-002;3.015406662598252E-003;1.120695087593049E-004;
2.420833333333334E+009;1.779357343912125E-001;-5.265134945511818E-002;3.248162334784865E-003;4.130114393774420E-005;
2.421000000000000E+009;1.767278462648392E-001;-5.414503812789917E-002;3.259944263845682E-003;-1.698835112620145E-004;
2.421166666666667E+009;1.755127012729645E-001;-5.573795363306999E-002;3.333854023367167E-003;-2.785854449030012E-004;
2.421333333333334E+009;1.739414930343628E-001;-5.702336505055428E-002;3.343953983858228E-003;-5.994866951368749E-004;
2.421500000000000E+009;1.728235483169556E-001;-5.907398462295532E-002;3.216410987079144E-003;-6.649142596870661E-004;
2.421666666666667E+009;1.716580539941788E-001;-6.081883609294891E-002;3.422723384574056E-003;-9.116588626056910E-004;
2.421833333333334E+009;1.706680506467819E-001;-6.258713454008102E-002;3.178711282089353E-003;-1.181841827929020E-003;
2.422000000000000E+009;1.695962697267532E-001;-6.446282565593720E-002;3.146164817735553E-003;-1.332325395196676E-003;
2.422166666666667E+009;1.687951534986496E-001;-6.632162630558014E-002;3.141693305224180E-003;-1.412812969647348E-003;
2.422333333333334E+009;1.679753214120865E-001;-6.822048872709274E-002;3.065079217776656E-003;-1.571236876770854E-003;
2.422500000000000E+009;1.671710610389710E-001;-6.993003189563751E-002;2.837268169969320E-003;-1.713148085400462E-003;
2.422666666666667E+009;1.666393280029297E-001;-7.182102650403976E-002;2.813584404066205E-003;-1.878562849014998E-003;
2.422833333333334E+009;1.662509888410568E-001;-7.371111959218979E-002;2.711338689550757E-003;-1.956207910552621E-003;
2.423000000000000E+009;1.657570153474808E-001;-7.559681683778763E-002;2.518650377169251E-003;-2.141951117664576E-003;
2.423166666666667E+009;1.654400378465653E-001;-7.730943709611893E-002;2.313372446224093E-003;-2.131272340193391E-003;
2.423333333333334E+009;1.652121841907501E-001;-7.938401401042938E-002;2.297391183674336E-003;-2.327219583094120E-003;
2.423500000000000E+009;1.648839563131332E-001;-8.105909824371338E-002;2.253905404359102E-003;-2.264190465211868E-003;
2.423666666666667E+009;1.652148067951202E-001;-8.283810317516327E-002;2.067582681775093E-003;-2.412818372249603E-003;
2.423833333333334E+009;1.649807244539261E-001;-8.444149792194367E-002;1.945213996805251E-003;-2.448190702125430E-003;
2.424000000000000E+009;1.650267541408539E-001;-8.602167665958405E-002;1.759758335538209E-003;-2.397267147898674E-003;
2.424166666666667E+009;1.650154888629913E-001;-8.765631169080734E-002;1.510875998064876E-003;-2.377411583438516E-003;
2.424333333333334E+009;1.652429848909378E-001;-8.902912586927414E-002;1.402447582222521E-003;-2.539882436394692E-003;
2.424500000000000E+009;1.655195057392120E-001;-9.076043218374252E-002;1.303952885791659E-003;-2.568594180047512E-003;
2.424666666666667E+009;1.657767295837402E-001;-9.200798720121384E-002;1.279185293242335E-003;-2.414382295683026E-003;
2.424833333333334E+009;1.662267446517944E-001;-9.321915358304977E-002;1.051870407536626E-003;-2.428300911560655E-003;
2.425000000000000E+009;1.664883792400360E-001;-9.445729106664658E-002;9.151330450549722E-004;-2.480209572240710E-003;
2.425166666666667E+009;1.666647046804428E-001;-9.550832957029343E-002;6.230031722225249E-004;-2.282173605635762E-003;
2.425333333333334E+009;1.668508201837540E-001;-9.639029204845429E-002;7.991254096850753E-004;-2.290397882461548E-003;
2.425500000000000E+009;1.672610938549042E-001;-9.742264449596405E-002;6.203265511430800E-004;-2.619441598653793E-003;
2.425666666666667E+009;1.675712764263153E-001;-9.811539202928543E-002;5.430970340967178E-004;-2.433582209050655E-003;
2.425833333333334E+009;1.677141636610031E-001;-9.900659322738648E-002;3.497313300613314E-004;-2.276324434205890E-003;
2.426000000000000E+009;1.680917143821716E-001;-9.952718019485474E-002;2.488706086296588E-004;-2.225205535069108E-003;
2.426166666666667E+009;1.683620959520340E-001;-1.001049801707268E-001;2.411324967397377E-004;-2.135494258254767E-003;
2.426333333333334E+009;1.683393418788910E-001;-1.006407141685486E-001;1.385493233101443E-004;-2.279690932482481E-003;
2.426500000000000E+009;1.687097251415253E-001;-1.009981408715248E-001;7.229636685224250E-005;-2.112670335918665E-003;
2.426666666666667E+009;1.688704788684845E-001;-1.014093160629273E-001;6.876316183479503E-005;-1.980474684387445E-003;
2.426833333333334E+009;1.690653413534164E-001;-1.017557680606842E-001;-9.307865411756211E-008;-2.007322618737817E-003;
2.427000000000000E+009;1.690316647291184E-001;-1.020640209317207E-001;-1.050495370691351E-006;-2.061366103589535E-003;
2.427166666666667E+009;1.689775437116623E-001;-1.023191809654236E-001;5.521634375327267E-005;-1.929770689457655E-003;
2.427333333333334E+009;1.688900291919708E-001;-1.027669087052345E-001;-1.306249614572153E-004;-1.855370239354670E-003;
2.427500000000000E+009;1.686755418777466E-001;-1.029745787382126E-001;9.795162623049691E-005;-1.914907596074045E-003;
2.427666666666667E+009;1.683633476495743E-001;-1.031774133443832E-001;5.789596343674930E-006;-1.760560437105596E-003;
2.427833333333334E+009;1.679761558771133E-001;-1.034677773714066E-001;-2.573955862317234E-004;-1.846728031523526E-003;
