# Version 1.00
#
freq[Hz];re:Trc1_S11;im:Trc1_S11;re:Trc2_S21;im:Trc2_S21;
2.400000000000000E+009;1.562694609165192E-001;1.057477891445160E-001;-1.135393511503935E-003;-1.272957772016525E-003;
2.400166666666667E+009;1.562407314777374E-001;1.034485921263695E-001;-1.308547682128847E-003;-1.233342685736716E-003;
2.400333333333334E+009;1.565448641777039E-001;1.011658757925034E-001;-1.455421559512615E-003;-1.398870022967458E-003;
2.400500000000000E+009;1.566671729087830E-001;9.856029599905014E-002;-1.640814472921193E-003;-1.377459149807692E-003;
2.400666666666667E+009;1.570421010255814E-001;9.637206047773361E-002;-1.678396714851260E-003;-1.407826319336891E-003;
2.400833333333334E+009;1.569775193929672E-001;9.353445470333099E-002;-1.734077464789152E-003;-1.255139010027051E-003;
2.401000000000000E+009;1.574145257472992E-001;9.081555902957916E-002;-2.043480752035976E-003;-1.256408751942217E-003;
2.401166666666667E+009;1.575220674276352E-001;8.829422295093536E-002;-2.357408870011568E-003;-1.278458163142204E-003;
2.401333333333334E+009;1.582074314355850E-001;8.569326996803284E-002;-2.132730791345239E-003;-1.135090366005898E-003;
2.401500000000000E+009;1.586832255125046E-001;8.296490460634232E-002;-2.359434263780713E-003;-1.100813969969750E-003;
2.401666666666667E+009;1.590499877929688E-001;8.040635287761688E-002;-2.429776592180133E-003;-8.997491677291691E-004;
2.401833333333334E+009;1.596384048461914E-001;7.782322913408279E-002;-2.405303996056318E-003;-9.659401257522404E-004;
2.402000000000000E+009;1.605178415775299E-001;7.521434128284454E-002;-2.454032422974706E-003;-7.091833977028728E-004;
2.402166666666667E+009;1.611430495977402E-001;7.287833094596863E-002;-2.628218615427613E-003;-6.992812268435955E-004;
2.402333333333334E+009;1.621060371398926E-001;7.031807303428650E-002;-2.426781924441457E-003;-4.158959491178393E-004;
2.402500000000000E+009;1.633203774690628E-001;6.813308596611023E-002;-2.595182973891497E-003;-6.395729142241180E-004;
2.402666666666667E+009;1.644069254398346E-001;6.577151268720627E-002;-2.583965426310897E-003;-2.753814624156803E-004;
2.402833333333334E+009;1.657461225986481E-001;6.354222446680069E-002;-2.761831507086754E-003;-3.340689581818879E-004;
2.403000000000000E+009;1.670624464750290E-001;6.152945384383202E-002;-2.718927338719368E-003;-2.338127669645473E-004;
2.403166666666667E+009;1.683644056320190E-001;5.932601913809776E-002;-2.752501284703612E-003;-5.455894279293716E-005;
2.403333333333334E+009;1.696298122406006E-001;5.679319426417351E-002;-3.380077658221126E-003;3.408035263419151E-004;
2.403500000000000E+009;1.712009757757187E-001;5.479222163558006E-002;-3.620471106842160E-003;2.190233499277383E-004;
2.403666666666667E+009;1.740425974130631E-001;5.372528359293938E-002;-2.549123018980026E-003;-8.994665695354343E-004;
2.403833333333334E+009;1.745736747980118E-001;5.222835019230843E-002;-2.188429003581405E-003;-3.875886977766641E-005;
2.404000000000000E+009;1.758783012628555E-001;4.965526238083839E-002;-3.628696780651808E-003;5.531152128241956E-004;
2.404166666666667E+009;1.772491484880447E-001;4.877375438809395E-002;-2.571850083768368E-003;4.596830112859607E-004;
2.404333333333334E+009;1.786131560802460E-001;4.728088900446892E-002;-2.747052116319537E-003;7.931230356916785E-004;
2.404500000000000E+009;1.807962805032730E-001;4.563821479678154E-002;-2.708099316805601E-003;-2.771458239294589E-004;
2.404666666666667E+009;1.817606091499329E-001;4.512302204966545E-002;-2.049003494903445E-003;6.585188093595207E-004;
2.404833333333334E+009;1.834516823291779E-001;4.364525526762009E-002;-2.787493169307709E-003;6.915297708474100E-004;
2.405000000000000E+009;1.844065636396408E-001;4.298136383295059E-002;-2.899475861340761E-003;8.105901652015746E-004;
2.405166666666667E+009;1.857642829418182E-001;4.222728312015533E-002;-2.900036051869392E-003;8.352055447176099E-004;
2.405333333333334E+009;1.869572699069977E-001;4.159128665924072E-002;-2.922831103205681E-003;1.068916637450457E-003;
2.405500000000000E+009;1.881782561540604E-001;4.108003154397011E-002;-2.902835141867399E-003;1.138212857767940E-003;
2.405666666666667E+009;1.892552375793457E-001;4.053858667612076E-002;-2.843697788193822E-003;1.404251088388264E-003;
2.405833333333334E+009;1.903494596481323E-001;4.027034714818001E-002;-2.895206911489368E-003;1.427295384928584E-003;
2.406000000000000E+009;1.911855190992355E-001;3.994521126151085E-002;-2.772621111944318E-003;1.629859791137278E-003;
2.406166666666667E+009;1.920709758996964E-001;3.966778889298439E-002;-2.609480172395706E-003;1.838351017795503E-003;
2.406333333333334E+009;1.927732676267624E-001;3.976035118103027E-002;-2.734002424404025E-003;1.812702743336558E-003;
2.406500000000000E+009;1.934602856636047E-001;3.954385966062546E-002;-2.735172398388386E-003;2.012370154261589E-003;
2.406666666666667E+009;1.940085142850876E-001;3.936178609728813E-002;-2.520958660170436E-003;2.305615227669478E-003;
2.406833333333334E+009;1.944473534822464E-001;3.930058330297470E-002;-2.452249871566892E-003;2.400353318080306E-003;
2.407000000000000E+009;1.947907507419586E-001;3.925624862313271E-002;-2.195109380409122E-003;2.508048433810473E-003;
2.407166666666667E+009;1.949864476919174E-001;3.891501948237419E-002;-2.125311875715852E-003;2.653314266353846E-003;
2.407333333333334E+009;1.949768215417862E-001;3.898016735911369E-002;-1.982136396691203E-003;2.723281038925052E-003;
2.407500000000000E+009;1.949949860572815E-001;3.872463107109070E-002;-1.809718436561525E-003;2.678580814972520E-003;
2.407666666666667E+009;1.949895769357681E-001;3.864014893770218E-002;-1.606690813787282E-003;2.791481092572212E-003;
2.407833333333334E+009;1.945539712905884E-001;3.828538209199905E-002;-1.549580134451389E-003;2.805551514029503E-003;
2.408000000000000E+009;1.946078687906265E-001;3.798502311110497E-002;-1.476331846788526E-003;2.912445692345500E-003;
2.408166666666667E+009;1.940037161111832E-001;3.750172629952431E-002;-1.302205724641681E-003;3.002528101205826E-003;
2.408333333333334E+009;1.937025636434555E-001;3.690946847200394E-002;-1.111547113396227E-003;2.945457585155964E-003;
2.408500000000000E+009;1.931055933237076E-001;3.640848770737648E-002;-1.032475731335580E-003;3.092527622357011E-003;
2.408666666666667E+009;1.926429420709610E-001;3.596635535359383E-002;-9.138298337347806E-004;3.136386396363378E-003;
2.408833333333334E+009;1.921244114637375E-001;3.497653454542160E-002;-9.076309506781399E-004;3.203983651474118E-003;
2.409000000000000E+009;1.913366168737412E-001;3.392827883362770E-002;-6.918109138496220E-004;3.187287366017699E-003;
2.409166666666667E+009;1.906946450471878E-001;3.304750099778175E-002;-6.742691621184349E-004;3.154093865305185E-003;
2.409333333333334E+009;1.900346577167511E-001;3.197972849011421E-002;-3.489328082650900E-004;3.092821221798658E-003;
2.409500000000000E+009;1.890675723552704E-001;3.064566291868687E-002;-9.855257667368278E-005;2.987010870128870E-003;
2.409666666666667E+009;1.883343160152435E-001;2.916136570274830E-002;-9.690378647064790E-005;2.868619281798601E-003;
2.409833333333334E+009;1.875614076852799E-001;2.748904004693031E-002;4.003983485745266E-005;2.987677231431007E-003;
2.410000000000000E+009;1.866659820079804E-001;2.603311836719513E-002;1.216973978444003E-004;2.829350531101227E-003;
2.410166666666667E+009;1.860013157129288E-001;2.412382327020168E-002;3.730145981535316E-004;2.907113404944539E-003;
2.410333333333334E+009;1.850688159465790E-001;2.246914617717266E-002;4.585571878124028E-004;2.927766880020499E-003;
2.410500000000000E+009;1.843240112066269E-001;2.070810087025166E-002;6.123568164184690E-004;2.586461836472154E-003;
2.410666666666667E+009;1.837362945079804E-001;1.848305761814117E-002;4.901174688711762E-004;2.647148910909891E-003;
2.410833333333334E+009;1.833712607622147E-001;1.636980846524239E-002;7.225791923701763E-004;2.471018116921186E-003;
2.411000000000000E+009;1.826863884925842E-001;1.424777321517468E-002;7.394051062874496E-004;2.535910345613957E-003;
2.411166666666667E+009;1.822995245456696E-001;1.227823831140995E-002;8.278003078885377E-004;2.279368229210377E-003;
2.411333333333334E+009;1.819221228361130E-001;9.808101691305637E-003;7.883580983616412E-004;2.224579453468323E-003;
2.411500000000000E+009;1.815692931413651E-001;7.569068111479282E-003;9.777552913874388E-004;2.110558329150081E-003;
2.411666666666667E+009;1.817411631345749E-001;5.387185141444206E-003;1.037921058014035E-003;2.202657284215093E-003;
2.411833333333334E+009;1.813541203737259E-001;3.198230871930718E-003;9.606530657038093E-004;1.936824293807149E-003;
2.412000000000000E+009;1.815974265336990E-001;8.976954850368202E-004;9.796317899599671E-004;1.875604968518019E-003;
2.412166666666667E+009;1.816572248935700E-001;-1.442130072973669E-003;1.047399477101862E-003;1.754817669279873E-003;
2.412333333333334E+009;1.818973422050476E-001;-3.582830540835857E-003;9.324369020760059E-004;1.830919063650072E-003;
2.412500000000000E+009;1.823287159204483E-001;-6.045793648809195E-003;1.119260210543871E-003;1.622944255359471E-003;
2.412666666666667E+009;1.829583346843720E-001;-8.352233096957207E-003;9.776488877832890E-004;1.613843254745007E-003;
2.412833333333334E+009;1.836706399917603E-001;-1.053521782159805E-002;9.990019025281072E-004;1.437961822375655E-003;
2.413000000000000E+009;1.844107806682587E-001;-1.271156501024962E-002;1.020444906316698E-003;1.523616723716259E-003;
2.413166666666667E+009;1.849325895309448E-001;-1.486764382570982E-002;8.935084915719926E-004;1.268384628929198E-003;
2.413333333333334E+009;1.861084252595902E-001;-1.705189421772957E-002;9.411598439328373E-004;1.327438163571060E-003;
2.413500000000000E+009;1.866177022457123E-001;-1.921252720057964E-002;9.451194782741368E-004;1.242602709680796E-003;
2.413666666666667E+009;1.879225820302963E-001;-2.123336680233479E-002;8.425316773355007E-004;1.318604219704866E-003;
2.413833333333334E+009;1.889054626226425E-001;-2.313189022243023E-002;8.171627414412797E-004;1.332397456280887E-003;
2.414000000000000E+009;1.898103803396225E-001;-2.496593818068504E-002;8.950628689490259E-004;1.340387854725123E-003;
2.414166666666667E+009;1.908440142869949E-001;-2.652220055460930E-002;8.386039407923818E-004;1.230043126270175E-003;
2.414333333333334E+009;1.918593347072601E-001;-2.854218333959580E-002;8.480340475216508E-004;1.367905642837286E-003;
2.414500000000000E+009;1.929873675107956E-001;-3.004807792603970E-002;8.375655161216855E-004;1.239591510966420E-003;
2.414666666666667E+009;1.939873546361923E-001;-3.131913393735886E-002;6.898657302372158E-004;1.333914580754936E-003;
2.414833333333334E+009;1.950868219137192E-001;-3.289512917399406E-002;7.632479537278414E-004;1.347392797470093E-003;
2.415000000000000E+009;1.958273053169251E-001;-3.397930040955544E-002;6.211674772202969E-004;1.340971328318119E-003;
2.415166666666667E+009;1.970075815916061E-001;-3.507760539650917E-002;6.669746944680810E-004;1.321417745202780E-003;
2.415333333333334E+009;1.980933398008347E-001;-3.611800819635391E-002;6.136665469966829E-004;1.316312467679381E-003;
2.415500000000000E+009;1.988743692636490E-001;-3.685589507222176E-002;7.233109208755195E-004;1.393981394357979E-003;
2.415666666666667E+009;1.997775733470917E-001;-3.771175444126129E-002;6.583540816791356E-004;1.488804584369063E-003;
2.415833333333334E+009;2.004807740449905E-001;-3.838082402944565E-002;6.363929715007544E-004;1.615370274521411E-003;
2.416000000000000E+009;2.010346353054047E-001;-3.908491507172585E-002;7.620098185725510E-004;1.489469897933304E-003;
2.416166666666667E+009;2.015095204114914E-001;-3.985233604907990E-002;7.154154009185731E-004;1.609140192158520E-003;
2.416333333333334E+009;2.020522058010101E-001;-4.007302969694138E-002;8.933172794058919E-004;1.833488233387470E-003;
2.416500000000000E+009;2.022548913955689E-001;-4.047670215368271E-002;1.015216461382806E-003;1.875336514785886E-003;
2.416666666666667E+009;2.025426924228668E-001;-4.100587591528893E-002;1.087583950720727E-003;1.826430088840425E-003;
2.416833333333334E+009;2.026573270559311E-001;-4.106396436691284E-002;1.190911047160626E-003;1.869506435468793E-003;
2.417000000000000E+009;2.026221454143524E-001;-4.141469672322273E-002;1.460809842683375E-003;1.960041699931026E-003;
2.417166666666667E+009;2.022386044263840E-001;-4.147405922412872E-002;1.532964641228318E-003;1.738877734169364E-003;
2.417333333333334E+009;2.018775343894959E-001;-4.152870923280716E-002;1.699604094028473E-003;1.670860685408115E-003;
2.417500000000000E+009;2.015849798917770E-001;-4.165692254900932E-002;1.645738026127219E-003;1.740425708703697E-003;
2.417666666666667E+009;2.010169625282288E-001;-4.166971147060394E-002;1.887934166006744E-003;1.501925522461534E-003;
2.417833333333334E+009;2.006136924028397E-001;-4.161674156785011E-002;1.989699667319655E-003;1.502521452493966E-003;
2.418000000000000E+009;1.998664736747742E-001;-4.163930565118790E-002;1.956220017746091E-003;1.463253516703844E-003;
2.418166666666667E+009;1.991262286901474E-001;-4.167980328202248E-002;2.052837284281850E-003;1.312985434196889E-003;
2.418333333333334E+009;1.982550621032715E-001;-4.161433503031731E-002;1.821215380914509E-003;1.300493604503572E-003;
2.418500000000000E+009;1.971592903137207E-001;-4.193080216646195E-002;2.008873736485839E-003;1.436839345842600E-003;
2.418666666666667E+009;1.963155865669251E-001;-4.201159998774529E-002;1.999302534386516E-003;1.260416698642075E-003;
2.418833333333334E+009;1.950679719448090E-001;-4.234593361616135E-002;1.924524432979524E-003;1.289598760195077E-003;
2.419000000000000E+009;1.940032392740250E-001;-4.277277737855911E-002;2.140549710020423E-003;1.257015275768936E-003;
2.419166666666667E+009;1.927756220102310E-001;-4.309812188148499E-002;2.085740678012371E-003;1.197768957354128E-003;
2.419333333333334E+009;1.915011256933212E-001;-4.385085031390190E-002;2.263648435473442E-003;1.243982580490410E-003;
2.419500000000000E+009;1.900173872709274E-001;-4.429815337061882E-002;2.262986032292247E-003;1.083650160580874E-003;
2.419666666666667E+009;1.886049658060074E-001;-4.524774849414825E-002;2.456340007483959E-003;1.119464985094965E-003;
2.419833333333334E+009;1.870654076337814E-001;-4.593151435256004E-002;2.592335455119610E-003;1.015871530398727E-003;
2.420000000000000E+009;1.857221722602844E-001;-4.682654142379761E-002;2.713456982746720E-003;1.014886540360749E-003;
2.420166666666667E+009;1.843763291835785E-001;-4.784856364130974E-002;2.685558516532183E-003;9.584784856997430E-004;
2.420333333333334E+009;1.827884018421173E-001;-4.916358366608620E-002;2.733223838731647E-003;8.664213819429278E-004;
2.420500000000000E+009;1.812231242656708E-001;-5.042432993650436E-002;2.879258943721652E-003;7.598800002597272E-004;
2.420666666666667E+009;1.797619014978409E-001;-5.145088955760002E-002;3.072141902521253E-003;6.985618383623660E-004;
2.420833333333334E+009;1.783324629068375E-001;-5.295043438673019E-002;3.199024591594935E-003;3.672860912047327E-004;
2.421000000000000E+009;1.769333928823471E-001;-5.440048500895500E-002;3.137619700282812E-003;3.413346712477505E-004;
2.421166666666667E+009;1.757368594408035E-001;-5.613863095641136E-002;3.256955882534385E-003;9.505350317340344E-005;
2.421333333333334E+009;1.741583645343781E-001;-5.748031660914421E-002;3.263609018176794E-003;8.051321492530406E-005;
2.421500000000000E+009;1.728859841823578E-001;-5.944463610649109E-002;3.368438454344869E-003;-3.238248464185745E-004;
2.421666666666667E+009;1.718123555183411E-001;-6.122070923447609E-002;3.329904749989510E-003;-3.750912437681109E-004;
2.421833333333334E+009;1.708796322345734E-001;-6.294497847557068E-002;3.209640737622976E-003;-7.240196573548019E-004;
2.422000000000000E+009;1.698888242244721E-001;-6.468218564987183E-002;3.062377683818340E-003;-7.748287171125412E-004;
2.422166666666667E+009;1.690283119678497E-001;-6.671465188264847E-002;3.158353967592120E-003;-1.040127128362656E-003;
2.422333333333334E+009;1.680352240800858E-001;-6.856414675712585E-002;3.235764568671584E-003;-1.076474203728139E-003;
2.422500000000000E+009;1.673348397016525E-001;-7.042751461267471E-002;3.033367684110999E-003;-1.255602808669210E-003;
2.422666666666667E+009;1.667391657829285E-001;-7.217025011777878E-002;2.787561388686299E-003;-1.590071595273912E-003;
2.422833333333334E+009;1.662625074386597E-001;-7.402600347995758E-002;2.739275572821498E-003;-1.651488710194826E-003;
2.423000000000000E+009;1.658526062965393E-001;-7.611452788114548E-002;2.799755660817027E-003;-1.837435993365943E-003;
2.423166666666667E+009;1.653375774621964E-001;-7.794099301099777E-002;2.582432702183723E-003;-1.845324644818902E-003;
2.423333333333334E+009;1.651532053947449E-001;-7.967623323202133E-002;2.474134787917137E-003;-1.766703906469047E-003;
2.423500000000000E+009;1.650032997131348E-001;-8.139090985059738E-002;2.194363623857498E-003;-1.964233582839370E-003;
2.423666666666667E+009;1.651422828435898E-001;-8.320452272891998E-002;2.164920326322317E-003;-2.022954868152738E-003;
2.423833333333334E+009;1.648939251899719E-001;-8.463255316019058E-002;1.906921039335430E-003;-2.152359578758478E-003;
2.424000000000000E+009;1.649561971426010E-001;-8.656053245067596E-002;1.839981297962368E-003;-2.205001655966044E-003;
2.424166666666667E+009;1.649645715951920E-001;-8.797425776720047E-002;1.584499143064022E-003;-2.174780471250415E-003;
2.424333333333334E+009;1.651368588209152E-001;-8.940134197473526E-002;1.730620977468789E-003;-2.286179224029183E-003;
2.424500000000000E+009;1.654765754938126E-001;-9.103732556104660E-002;1.346530625596643E-003;-2.241287846118212E-003;
2.424666666666667E+009;1.656995117664337E-001;-9.230609238147736E-002;1.434293342754245E-003;-2.252633916214109E-003;
2.424833333333334E+009;1.660990417003632E-001;-9.364835172891617E-002;1.318927388638258E-003;-2.267184900119901E-003;
2.425000000000000E+009;1.663329899311066E-001;-9.471604973077774E-002;1.300225383602083E-003;-2.194954780861735E-003;
2.425166666666667E+009;1.665093302726746E-001;-9.581109136343002E-002;9.973312262445688E-004;-2.063069259747863E-003;
2.425333333333334E+009;1.668273061513901E-001;-9.675636887550354E-002;8.534516673535109E-004;-2.282213419675827E-003;
2.425500000000000E+009;1.671703606843948E-001;-9.767416864633560E-002;1.000065705738962E-003;-2.135878428816795E-003;
2.425666666666667E+009;1.674998253583908E-001;-9.840363264083862E-002;6.813553627580404E-004;-2.231116639450193E-003;
2.425833333333334E+009;1.675544679164887E-001;-9.923889487981796E-002;6.397205870598555E-004;-2.066093962639570E-003;
2.426000000000000E+009;1.679230630397797E-001;-9.973731637001038E-002;5.550035275518894E-004;-2.132862340658903E-003;
2.426166666666667E+009;1.682856678962708E-001;-1.003468260169029E-001;5.386907723732293E-004;-2.016316633671522E-003;
2.426333333333334E+009;1.683344244956970E-001;-1.008953079581261E-001;6.047026836313307E-004;-2.108229091390967E-003;
2.426500000000000E+009;1.685999482870102E-001;-1.011790633201599E-001;2.891616022679955E-004;-1.897892332635820E-003;
2.426666666666667E+009;1.687656491994858E-001;-1.016521081328392E-001;4.303716996219009E-004;-1.850297790952027E-003;
2.426833333333334E+009;1.689320057630539E-001;-1.019988358020783E-001;3.322692355141044E-004;-1.949186786077917E-003;
2.427000000000000E+009;1.688374280929565E-001;-1.023078188300133E-001;2.359089266974479E-004;-1.987441210076213E-003;
2.427166666666667E+009;1.688836812973023E-001;-1.024065092206001E-001;2.544082526583225E-004;-1.832006848417223E-003;
2.427333333333334E+009;1.687186658382416E-001;-1.029203385114670E-001;2.775116590783000E-004;-1.980022294446826E-003;
2.427500000000000E+009;1.685458719730377E-001;-1.032244116067886E-001;3.295226779300720E-004;-1.756954239681363E-003;
2.427666666666667E+009;1.682195216417313E-001;-1.033931374549866E-001;9.796028462005779E-005;-1.769687398336828E-003;
2.427833333333334E+009;1.678731143474579E-001;-1.035644635558128E-001;2.277378371218219E-004;-1.917139044962823E-003;
