# Version 1.00
#
freq[Hz];re:Trc1_S11;im:Trc1_S11;re:Trc2_S21;im:Trc2_S21;
2.400000000000000E+009;1.559923291206360E-001;1.057059094309807E-001;-1.164683490060270E-003;-1.144579611718655E-003;
2.400166666666667E+009;1.560261547565460E-001;1.033987030386925E-001;-1.326277386397123E-003;-1.398123218677938E-003;
2.400333333333334E+009;1.561658978462219E-001;1.010606735944748E-001;-1.291276654228568E-003;-1.313655753619969E-003;
2.400500000000000E+009;1.565018147230148E-001;9.848048537969589E-002;-1.556225703097880E-003;-1.380812027491629E-003;
2.400666666666667E+009;1.566161811351776E-001;9.614519029855728E-002;-1.704545808024705E-003;-1.391864847391844E-003;
2.400833333333334E+009;1.568500697612763E-001;9.327767044305801E-002;-1.942546106874943E-003;-1.364740775898099E-003;
2.401000000000000E+009;1.571348905563355E-001;9.086867421865463E-002;-1.877117436379194E-003;-1.275706687010825E-003;
2.401166666666667E+009;1.573105156421661E-001;8.809363096952438E-002;-2.213923027738929E-003;-1.176762394607067E-003;
2.401333333333334E+009;1.577800959348679E-001;8.546704053878784E-002;-2.212018938735127E-003;-1.102754729799926E-003;
2.401500000000000E+009;1.582352221012116E-001;8.275911957025528E-002;-2.334528835490346E-003;-9.668311686255038E-004;
2.401666666666667E+009;1.586778461933136E-001;8.023358136415482E-002;-2.574794692918658E-003;-1.037291600368917E-003;
2.401833333333334E+009;1.592031270265579E-001;7.768916338682175E-002;-2.293895231559873E-003;-8.495952934026718E-004;
2.402000000000000E+009;1.601941883563995E-001;7.507576048374176E-002;-2.538981148973107E-003;-7.311353110708296E-004;
2.402166666666667E+009;1.610182523727417E-001;7.293473184108734E-002;-2.515560481697321E-003;-6.393266958184540E-004;
2.402333333333334E+009;1.619414836168289E-001;7.026610523462296E-002;-2.455687616020441E-003;-3.636973560787737E-004;
2.402500000000000E+009;1.629416346549988E-001;6.790498644113541E-002;-2.526829252019525E-003;-6.115318392403424E-004;
2.402666666666667E+009;1.641830205917358E-001;6.584016978740692E-002;-2.655568765476346E-003;-3.901116142515093E-004;
2.402833333333334E+009;1.653037071228027E-001;6.354346871376038E-002;-2.654896816238761E-003;-3.890301159117371E-004;
2.403000000000000E+009;1.666474193334580E-001;6.114329025149345E-002;-2.685753395780921E-003;-3.948892990592867E-004;
2.403166666666667E+009;1.684537082910538E-001;5.919228494167328E-002;-2.637897385284305E-003;-1.747013011481613E-004;
2.403333333333334E+009;1.695739030838013E-001;5.735538899898529E-002;-2.548527205362916E-003;-1.797076256480068E-004;
2.403500000000000E+009;1.711221933364868E-001;5.544348433613777E-002;-2.648170804604888E-003;-8.069372415775433E-005;
2.403666666666667E+009;1.727736294269562E-001;5.360684171319008E-002;-2.641655737534165E-003;2.266022056574002E-004;
2.403833333333334E+009;1.743321418762207E-001;5.178465694189072E-002;-2.717677736654878E-003;2.250737306894735E-004;
2.404000000000000E+009;1.756889820098877E-001;5.011864379048348E-002;-2.740769181400538E-003;1.708088529994711E-004;
2.404166666666667E+009;1.773517876863480E-001;4.879239201545715E-002;-2.776587614789605E-003;3.764296416193247E-004;
2.404333333333334E+009;1.786779761314392E-001;4.715674370527268E-002;-2.857338171452284E-003;3.005467297043651E-004;
2.404500000000000E+009;1.801973134279251E-001;4.582192748785019E-002;-2.646747045218945E-003;3.742956032510847E-004;
2.404666666666667E+009;1.816088557243347E-001;4.475412517786026E-002;-2.772955223917961E-003;6.046426715329289E-004;
2.404833333333334E+009;1.830992847681046E-001;4.365438222885132E-002;-2.807707292959094E-003;8.050233009271324E-004;
2.405000000000000E+009;1.841976195573807E-001;4.299116507172585E-002;-2.828448778018355E-003;8.182704332284629E-004;
2.405166666666667E+009;1.855038255453110E-001;4.219270497560501E-002;-2.883252222090960E-003;8.973834919743240E-004;
2.405333333333334E+009;1.867045015096664E-001;4.171420261263847E-002;-2.965615363791585E-003;1.040282077156007E-003;
2.405500000000000E+009;1.879458129405975E-001;4.105383530259132E-002;-2.883258508518338E-003;1.163869979791343E-003;
2.405666666666667E+009;1.890313625335693E-001;4.064270853996277E-002;-2.833889098837972E-003;1.410757773555815E-003;
2.405833333333334E+009;1.900254040956497E-001;4.025878012180328E-002;-2.921605017036200E-003;1.389408484101296E-003;
2.406000000000000E+009;1.908811926841736E-001;4.002686962485313E-002;-2.999464282765985E-003;1.688969787210226E-003;
2.406166666666667E+009;1.918003708124161E-001;3.969563171267510E-002;-2.692620968446136E-003;1.727594994008541E-003;
2.406333333333334E+009;1.926078647375107E-001;3.944579884409905E-002;-2.771714935079217E-003;2.057396108284593E-003;
2.406500000000000E+009;1.931402385234833E-001;3.953209891915321E-002;-2.749488456174731E-003;2.057877602055669E-003;
2.406666666666667E+009;1.937413662672043E-001;3.947031497955322E-002;-2.519357483834028E-003;2.306791953742504E-003;
2.406833333333334E+009;1.941650211811066E-001;3.921481221914291E-002;-2.491149818524718E-003;2.306116512045264E-003;
2.407000000000000E+009;1.943838596343994E-001;3.934374079108238E-002;-2.278853673487902E-003;2.483576536178589E-003;
2.407166666666667E+009;1.947721838951111E-001;3.896497562527657E-002;-2.182079479098320E-003;2.581101143732667E-003;
2.407333333333334E+009;1.946996897459030E-001;3.892439231276512E-002;-2.068843226879835E-003;2.751598134636879E-003;
2.407500000000000E+009;1.947659999132156E-001;3.894377127289772E-002;-1.953702187165618E-003;2.717556897550821E-003;
2.407666666666667E+009;1.947752833366394E-001;3.881450369954109E-002;-1.674737199209631E-003;2.829878591001034E-003;
2.407833333333334E+009;1.942829042673111E-001;3.847286477684975E-002;-1.624724478460848E-003;2.850218210369349E-003;
2.408000000000000E+009;1.944157332181931E-001;3.817889839410782E-002;-1.440271036699414E-003;2.930234884843230E-003;
2.408166666666667E+009;1.938103288412094E-001;3.776142373681068E-002;-1.380751142278314E-003;2.953167771920562E-003;
2.408333333333334E+009;1.936982274055481E-001;3.712989762425423E-002;-1.341585768386722E-003;3.013937501236796E-003;
2.408500000000000E+009;1.930343061685562E-001;3.667340055108070E-002;-1.285962876863778E-003;3.029591171070933E-003;
2.408666666666667E+009;1.925444602966309E-001;3.615963086485863E-002;-9.971195831894875E-004;3.062827978283167E-003;
2.408833333333334E+009;1.920310556888580E-001;3.521953523159027E-002;-9.235879406332970E-004;3.328538732603192E-003;
2.409000000000000E+009;1.912640631198883E-001;3.419706970453262E-002;-6.676420453004539E-004;3.106484189629555E-003;
2.409166666666667E+009;1.904982328414917E-001;3.323054686188698E-002;-5.862194811925292E-004;3.180966479703784E-003;
2.409333333333334E+009;1.898623853921890E-001;3.198626637458801E-002;-3.996478917542845E-004;3.109580604359508E-003;
2.409500000000000E+009;1.890202611684799E-001;3.070783428847790E-002;-3.758200909942389E-004;3.098250599578023E-003;
2.409666666666667E+009;1.881506890058518E-001;2.931808680295944E-002;-1.064795069396496E-004;3.007155144587159E-003;
2.409833333333334E+009;1.871729940176010E-001;2.780959568917751E-002;-9.448356286156923E-005;3.057394409552217E-003;
2.410000000000000E+009;1.865398436784744E-001;2.619240991771221E-002;2.530448255129159E-004;3.080552676692605E-003;
2.410166666666667E+009;1.857903003692627E-001;2.437294088304043E-002;2.520802372600883E-004;2.851786790415645E-003;
2.410333333333334E+009;1.850266903638840E-001;2.266929112374783E-002;4.485277459025383E-004;2.848781878128648E-003;
2.410500000000000E+009;1.842059046030045E-001;2.087024226784706E-002;4.408451495692134E-004;2.785933203995228E-003;
2.410666666666667E+009;1.835692375898361E-001;1.872107014060020E-002;5.156440893188119E-004;2.650968031957746E-003;
2.410833333333334E+009;1.830246448516846E-001;1.647172868251801E-002;6.873196689411998E-004;2.486618934199214E-003;
2.411000000000000E+009;1.824898272752762E-001;1.451625302433968E-002;6.902356981299818E-004;2.467671642079949E-003;
2.411166666666667E+009;1.819899827241898E-001;1.229210570454598E-002;7.922364166006446E-004;2.429282292723656E-003;
2.411333333333334E+009;1.817766726016998E-001;9.918704628944397E-003;7.540468359366059E-004;2.332527423277497E-003;
2.411500000000000E+009;1.813880503177643E-001;7.888776250183582E-003;8.426390704698861E-004;2.168164821341634E-003;
2.411666666666667E+009;1.814131736755371E-001;5.580002907663584E-003;8.653824916109443E-004;2.190399216488004E-003;
2.411833333333334E+009;1.814232617616653E-001;3.366318996995688E-003;9.679832728579640E-004;2.042312873527408E-003;
2.412000000000000E+009;1.812152117490768E-001;7.982996758073568E-004;1.017447677440941E-003;1.930002355948091E-003;
2.412166666666667E+009;1.815568059682846E-001;-1.104615745134652E-003;9.543987689539790E-004;1.783522544428706E-003;
2.412333333333334E+009;1.817322671413422E-001;-3.527020569890738E-003;1.129114185459912E-003;1.703436370007694E-003;
2.412500000000000E+009;1.821557581424713E-001;-5.713875871151686E-003;1.141384476795793E-003;1.772558665834367E-003;
2.412666666666667E+009;1.826529949903488E-001;-8.006292395293713E-003;1.068566692993045E-003;1.631758408620954E-003;
2.412833333333334E+009;1.834169924259186E-001;-1.028499472886324E-002;1.067345496267080E-003;1.594167319126427E-003;
2.413000000000000E+009;1.841293126344681E-001;-1.250740699470043E-002;9.833071380853653E-004;1.470143906772137E-003;
2.413166666666667E+009;1.849715709686279E-001;-1.453209109604359E-002;1.058975583873689E-003;1.433625235222280E-003;
2.413333333333334E+009;1.858941614627838E-001;-1.680202037096024E-002;9.863186860457063E-004;1.378394779749215E-003;
2.413500000000000E+009;1.867360323667526E-001;-1.881091669201851E-002;8.661299943923950E-004;1.326328725554049E-003;
2.413666666666667E+009;1.878426820039749E-001;-2.095780149102211E-002;9.555249707773328E-004;1.329094055108726E-003;
2.413833333333334E+009;1.888164877891541E-001;-2.280604280531406E-002;8.410871960222721E-004;1.335654756985605E-003;
2.414000000000000E+009;1.896700412034988E-001;-2.460031397640705E-002;8.468032465316355E-004;1.408324926160276E-003;
2.414166666666667E+009;1.907554715871811E-001;-2.643597498536110E-002;6.617394392378628E-004;1.424440881237388E-003;
2.414333333333334E+009;1.917224079370499E-001;-2.828485704958439E-002;6.991670816205442E-004;1.364956260658801E-003;
2.414500000000000E+009;1.929168403148651E-001;-2.972815744578838E-002;7.225562003441155E-004;1.247889478690922E-003;
2.414666666666667E+009;1.938778012990952E-001;-3.109842352569103E-002;7.330898079089820E-004;1.288610859774053E-003;
2.414833333333334E+009;1.948406249284744E-001;-3.239244967699051E-002;6.202321965247393E-004;1.381853595376015E-003;
2.415000000000000E+009;1.957535147666931E-001;-3.376285359263420E-002;6.252030143514276E-004;1.352423569187522E-003;
2.415166666666667E+009;1.968708932399750E-001;-3.469597548246384E-002;7.184128626249731E-004;1.305457320995629E-003;
2.415333333333334E+009;1.979922652244568E-001;-3.577938303351402E-002;6.618867046199739E-004;1.382916467264295E-003;
2.415500000000000E+009;1.987954974174500E-001;-3.649252653121948E-002;5.553751834668219E-004;1.557581475935876E-003;
2.415666666666667E+009;1.997541040182114E-001;-3.745146840810776E-002;6.724386475980282E-004;1.475142431445420E-003;
2.415833333333334E+009;2.003934830427170E-001;-3.809980675578117E-002;5.797491176053882E-004;1.545979408547282E-003;
2.416000000000000E+009;2.010477334260941E-001;-3.878458216786385E-002;7.153083570301533E-004;1.627691555768251E-003;
2.416166666666667E+009;2.015392929315567E-001;-3.945070877671242E-002;9.364064317196608E-004;1.792463706806302E-003;
2.416333333333334E+009;2.020400315523148E-001;-3.977117314934731E-002;8.339380146935582E-004;1.668812357820571E-003;
2.416500000000000E+009;2.023811638355255E-001;-4.018066823482513E-002;9.698980138637126E-004;1.868339022621512E-003;
2.416666666666667E+009;2.025560140609741E-001;-4.074697941541672E-002;1.138222287409008E-003;1.976496307179332E-003;
2.416833333333334E+009;2.026104032993317E-001;-4.083108901977539E-002;1.307753263972700E-003;1.880177296698093E-003;
2.417000000000000E+009;2.027461677789688E-001;-4.116946086287499E-002;1.400093315169215E-003;1.930881291627884E-003;
2.417166666666667E+009;2.023601830005646E-001;-4.116186872124672E-002;1.449811272323132E-003;1.968253171071410E-003;
2.417333333333334E+009;2.019353806972504E-001;-4.118242114782333E-002;1.558683230541647E-003;1.830859342589974E-003;
2.417500000000000E+009;2.017634212970734E-001;-4.142747819423676E-002;1.865567639470100E-003;1.714975456707180E-003;
2.417666666666667E+009;2.011588364839554E-001;-4.140017181634903E-002;1.680986839346588E-003;1.692421734333038E-003;
2.417833333333334E+009;2.006753832101822E-001;-4.138997942209244E-002;1.837499556131661E-003;1.493234070949256E-003;
2.418000000000000E+009;2.000538110733032E-001;-4.120242595672607E-002;1.950039295479655E-003;1.649629557505250E-003;
2.418166666666667E+009;1.991946846246719E-001;-4.145220667123795E-002;1.982377609238029E-003;1.415584702044725E-003;
2.418333333333334E+009;1.983034908771515E-001;-4.141664505004883E-002;2.048188121989369E-003;1.381202950142324E-003;
2.418500000000000E+009;1.974351704120636E-001;-4.167154058814049E-002;2.097880467772484E-003;1.224623643793166E-003;
2.418666666666667E+009;1.966010183095932E-001;-4.170902073383331E-002;2.037963364273310E-003;1.154993777163327E-003;
2.418833333333334E+009;1.952915340662003E-001;-4.209785908460617E-002;2.136116614565253E-003;1.210711663588882E-003;
2.419000000000000E+009;1.942348480224609E-001;-4.238704591989517E-002;2.188236452639103E-003;1.275509363040328E-003;
2.419166666666667E+009;1.929249167442322E-001;-4.291874542832375E-002;2.265281509608030E-003;1.139267813414335E-003;
2.419333333333334E+009;1.916469931602478E-001;-4.356908425688744E-002;2.246216405183077E-003;1.242971746250987E-003;
2.419500000000000E+009;1.903372853994370E-001;-4.411420598626137E-002;2.278549131006002E-003;1.303423545323312E-003;
2.419666666666667E+009;1.888663172721863E-001;-4.492178931832314E-002;2.451978856697679E-003;1.343337818980217E-003;
2.419833333333334E+009;1.873854696750641E-001;-4.568042233586311E-002;2.539471024647355E-003;1.261290628463030E-003;
2.420000000000000E+009;1.860147267580032E-001;-4.654954373836517E-002;2.673728857189417E-003;1.103419926948845E-003;
2.420166666666667E+009;1.844760477542877E-001;-4.758868739008904E-002;2.747030695900321E-003;1.112697063945234E-003;
2.420333333333334E+009;1.830183416604996E-001;-4.877308011054993E-002;2.998509677127004E-003;9.449913050048053E-004;
2.420500000000000E+009;1.814706027507782E-001;-5.012754723429680E-002;2.912808209657669E-003;7.845725049264729E-004;
2.420666666666667E+009;1.800896227359772E-001;-5.131566897034645E-002;3.053460968658328E-003;6.307478179223836E-004;
2.420833333333334E+009;1.786021590232849E-001;-5.282432213425636E-002;3.209027228876948E-003;5.568976630456746E-004;
2.421000000000000E+009;1.772620528936386E-001;-5.430478602647781E-002;3.178711747750640E-003;4.000307235401124E-004;
2.421166666666667E+009;1.761011630296707E-001;-5.586021393537521E-002;3.345541190356016E-003;1.038178888848051E-004;
2.421333333333334E+009;1.744398921728134E-001;-5.747221782803536E-002;3.301048884168267E-003;-4.699060446000658E-005;
2.421500000000000E+009;1.733524352312088E-001;-5.926849693059921E-002;3.417138243094087E-003;-2.881942491512746E-004;
2.421666666666667E+009;1.721603125333786E-001;-6.098731979727745E-002;3.363278461620212E-003;-4.891686257906258E-004;
2.421833333333334E+009;1.712152510881424E-001;-6.274863332509995E-002;3.252042457461357E-003;-6.603238871321082E-004;
2.422000000000000E+009;1.702125072479248E-001;-6.453987210988998E-002;3.428140422329307E-003;-7.896830793470144E-004;
2.422166666666667E+009;1.693110018968582E-001;-6.658750772476196E-002;3.294562688097358E-003;-1.025054370984435E-003;
2.422333333333334E+009;1.684829890727997E-001;-6.849943846464157E-002;3.200786188244820E-003;-1.209506532177329E-003;
2.422500000000000E+009;1.676696091890335E-001;-7.011207938194275E-002;3.132256912067533E-003;-1.278623356483877E-003;
2.422666666666667E+009;1.669730544090271E-001;-7.205945998430252E-002;3.001632401719689E-003;-1.441792352125049E-003;
2.422833333333334E+009;1.666518002748489E-001;-7.405877113342285E-002;2.844518050551415E-003;-1.710281241685152E-003;
2.423000000000000E+009;1.661279052495956E-001;-7.585473358631134E-002;2.716631162911654E-003;-1.768211950547993E-003;
2.423166666666667E+009;1.657317727804184E-001;-7.773235440254211E-002;2.641606843098998E-003;-1.818932360038161E-003;
2.423333333333334E+009;1.654557585716248E-001;-7.965714484453201E-002;2.414080547168851E-003;-1.996178179979324E-003;
2.423500000000000E+009;1.654188483953476E-001;-8.117504417896271E-002;2.285610418766737E-003;-2.053792122751474E-003;
2.423666666666667E+009;1.654629707336426E-001;-8.308721333742142E-002;2.133326837792993E-003;-2.166461898013949E-003;
2.423833333333334E+009;1.653241515159607E-001;-8.475168794393539E-002;2.048482885584235E-003;-2.155410358682275E-003;
2.424000000000000E+009;1.654193401336670E-001;-8.632192015647888E-002;1.942654489539564E-003;-2.093638293445110E-003;
2.424166666666667E+009;1.654217690229416E-001;-8.790361881256104E-002;1.735295052640140E-003;-2.198940375819802E-003;
2.424333333333334E+009;1.656155437231064E-001;-8.930364996194840E-002;1.672889571636915E-003;-2.338766353204846E-003;
2.424500000000000E+009;1.657904684543610E-001;-9.105245769023895E-002;1.548269297927618E-003;-2.321899868547916E-003;
2.424666666666667E+009;1.659932136535645E-001;-9.228844940662384E-002;1.529583125375211E-003;-2.316267928108573E-003;
2.424833333333334E+009;1.663747578859329E-001;-9.364289045333862E-002;1.366738695651293E-003;-2.253374317660928E-003;
2.425000000000000E+009;1.666577160358429E-001;-9.478326886892319E-002;1.210888731293380E-003;-2.319943392649293E-003;
2.425166666666667E+009;1.668495535850525E-001;-9.582131356000900E-002;1.141410320997238E-003;-2.430574037134647E-003;
2.425333333333334E+009;1.671914607286453E-001;-9.670398384332657E-002;1.074611325748265E-003;-2.256550826132298E-003;
2.425500000000000E+009;1.674726754426956E-001;-9.772327542304993E-002;1.077072578482330E-003;-2.165164798498154E-003;
2.425666666666667E+009;1.677842736244202E-001;-9.848199784755707E-002;8.790554711595178E-004;-2.349313581362367E-003;
2.425833333333334E+009;1.679871678352356E-001;-9.941483289003372E-002;6.612932193093002E-004;-2.243704861029983E-003;
2.426000000000000E+009;1.683044135570526E-001;-9.986828267574310E-002;5.507833557203412E-004;-2.189007820561528E-003;
2.426166666666667E+009;1.685649901628494E-001;-1.005294099450111E-001;7.115238695405424E-004;-2.073400886729360E-003;
2.426333333333334E+009;1.685210913419724E-001;-1.011331677436829E-001;5.416646599769592E-004;-2.184373792260885E-003;
2.426500000000000E+009;1.688619107007980E-001;-1.013595387339592E-001;4.081482475157827E-004;-2.062314189970493E-003;
2.426666666666667E+009;1.690447330474854E-001;-1.018450185656548E-001;4.902747459709644E-004;-2.048123162239790E-003;
2.426833333333334E+009;1.691834032535553E-001;-1.021764427423477E-001;2.897403028327972E-004;-2.099829958751798E-003;
2.427000000000000E+009;1.691319495439529E-001;-1.025898307561874E-001;3.060190065298230E-004;-1.897180220112205E-003;
2.427166666666667E+009;1.691180467605591E-001;-1.028251126408577E-001;3.088856174144894E-004;-1.929645892232657E-003;
2.427333333333334E+009;1.689826846122742E-001;-1.030836328864098E-001;3.562421770766377E-004;-1.923026982694864E-003;
2.427500000000000E+009;1.687830090522766E-001;-1.034814938902855E-001;2.661297039594501E-004;-1.807986991479993E-003;
2.427666666666667E+009;1.684130728244782E-001;-1.036046147346497E-001;1.340931194135919E-004;-1.887482707388699E-003;
2.427833333333334E+009;1.680789738893509E-001;-1.039415672421455E-001;1.942157541634515E-004;-1.973004313185811E-003;
