# Version 1.00
#
freq[Hz];re:Trc1_S11;im:Trc1_S11;re:Trc2_S21;im:Trc2_S21;
2.400000000000000E+009;1.562223583459854E-001;1.057184338569641E-001;-1.226732041686773E-003;-1.087784185074270E-003;
2.400166666666667E+009;1.561449468135834E-001;1.034253835678101E-001;-1.514595933258534E-003;-1.253950409591198E-003;
2.400333333333334E+009;1.563182324171066E-001;1.010947749018669E-001;-1.463960274122655E-003;-1.150939846411347E-003;
2.400500000000000E+009;1.566939055919647E-001;9.856432676315308E-002;-1.469337963499129E-003;-1.248397282324731E-003;
2.400666666666667E+009;1.567539870738983E-001;9.618894010782242E-002;-1.747009344398975E-003;-1.353197731077671E-003;
2.400833333333334E+009;1.569859385490418E-001;9.330013394355774E-002;-1.996437553316355E-003;-1.323395990766585E-003;
2.401000000000000E+009;1.572040468454361E-001;9.084933251142502E-002;-1.981795299798250E-003;-1.281623728573322E-003;
2.401166666666667E+009;1.573670655488968E-001;8.817992359399796E-002;-2.137630013749003E-003;-1.341886003501713E-003;
2.401333333333334E+009;1.579138189554215E-001;8.559271693229675E-002;-2.304632449522615E-003;-1.161508494988084E-003;
2.401500000000000E+009;1.583870500326157E-001;8.270900696516037E-002;-2.352263778448105E-003;-1.060866168700159E-003;
2.401666666666667E+009;1.588571518659592E-001;8.020900189876556E-002;-2.370651112869382E-003;-8.449205197393894E-004;
2.401833333333334E+009;1.593418866395950E-001;7.779092341661453E-002;-2.558028558269143E-003;-9.396537207067013E-004;
2.402000000000000E+009;1.602342426776886E-001;7.510952651500702E-002;-2.569070318713784E-003;-7.956513436511159E-004;
2.402166666666667E+009;1.610181480646133E-001;7.276182621717453E-002;-2.649145433679223E-003;-7.564352708868682E-004;
2.402333333333334E+009;1.618474572896957E-001;7.032287120819092E-002;-2.569772303104401E-003;-5.520107806660235E-004;
2.402500000000000E+009;1.630079150199890E-001;6.805308163166046E-002;-2.637885278090835E-003;-3.535368887241930E-004;
2.402666666666667E+009;1.642053574323654E-001;6.585562229156494E-002;-2.600735751911998E-003;-3.665883850771934E-004;
2.402833333333334E+009;1.653072535991669E-001;6.352305412292481E-002;-2.569681499153376E-003;-3.374639200046659E-004;
2.403000000000000E+009;1.667975038290024E-001;6.138628348708153E-002;-2.671672496944666E-003;-3.348237660247833E-004;
2.403166666666667E+009;1.682192236185074E-001;5.943857133388519E-002;-2.601259388029575E-003;-1.813988928915933E-004;
2.403333333333334E+009;1.696504652500153E-001;5.735291913151741E-002;-2.739875111728907E-003;2.290107295266353E-005;
2.403500000000000E+009;1.710598617792130E-001;5.520393699407578E-002;-2.817108295857906E-003;1.759119477355853E-004;
2.403666666666667E+009;1.728225946426392E-001;5.352249741554260E-002;-2.713308203965426E-003;2.118555130437017E-004;
2.403833333333334E+009;1.743659675121307E-001;5.172321945428848E-002;-2.751322695985436E-003;1.515603507868946E-004;
2.404000000000000E+009;1.757700592279434E-001;5.014035850763321E-002;-2.829819219186902E-003;2.353275194764137E-004;
2.404166666666667E+009;1.771925836801529E-001;4.872227460145950E-002;-2.782521536573768E-003;3.134848375339061E-004;
2.404333333333334E+009;1.788352727890015E-001;4.715264216065407E-002;-2.600522246211767E-003;4.064326349180192E-004;
2.404500000000000E+009;1.801580339670181E-001;4.576564207673073E-002;-2.918738638982177E-003;4.164516867604107E-004;
2.404666666666667E+009;1.816338151693344E-001;4.478340223431587E-002;-2.825331641361117E-003;6.051349919289351E-004;
2.404833333333334E+009;1.831354796886444E-001;4.375004768371582E-002;-2.863937057554722E-003;7.157226209528744E-004;
2.405000000000000E+009;1.842455565929413E-001;4.300896450877190E-002;-2.821767237037420E-003;7.560399826616049E-004;
2.405166666666667E+009;1.855781376361847E-001;4.229392111301422E-002;-2.973740221932530E-003;9.982879273593426E-004;
2.405333333333334E+009;1.867205351591110E-001;4.174839332699776E-002;-3.002400975674391E-003;1.068197772838175E-003;
2.405500000000000E+009;1.879719644784927E-001;4.115168750286102E-002;-2.944868756458163E-003;1.070843660272658E-003;
2.405666666666667E+009;1.888811588287354E-001;4.064565524458885E-002;-3.005701117217541E-003;1.498141675256193E-003;
2.405833333333334E+009;1.900698691606522E-001;4.036808013916016E-002;-2.877402584999800E-003;1.481842249631882E-003;
2.406000000000000E+009;1.908944249153137E-001;3.999919816851616E-002;-2.940109930932522E-003;1.603000913746655E-003;
2.406166666666667E+009;1.917996704578400E-001;3.964743763208389E-002;-2.795676235109568E-003;1.611602841876447E-003;
2.406333333333334E+009;1.926243007183075E-001;3.973666578531265E-002;-2.749173436313868E-003;2.040902618318796E-003;
2.406500000000000E+009;1.932394653558731E-001;3.967456892132759E-002;-2.641010796651244E-003;2.079396741464734E-003;
2.406666666666667E+009;1.937353461980820E-001;3.943194448947907E-002;-2.613297430798411E-003;2.310371026396751E-003;
2.406833333333334E+009;1.942221224308014E-001;3.933009505271912E-002;-2.448488492518663E-003;2.464885357767344E-003;
2.407000000000000E+009;1.944196671247482E-001;3.944774717092514E-002;-2.420845441520214E-003;2.444218145683408E-003;
2.407166666666667E+009;1.947253942489624E-001;3.912212699651718E-002;-2.068141242489219E-003;2.629610709846020E-003;
2.407333333333334E+009;1.946620643138886E-001;3.910930082201958E-002;-2.118566771969199E-003;2.683829516172409E-003;
2.407500000000000E+009;1.946259588003159E-001;3.899791091680527E-002;-1.817965880036354E-003;2.706423634663224E-003;
2.407666666666667E+009;1.947976052761078E-001;3.872957080602646E-002;-1.703194342553616E-003;2.738835290074348E-003;
2.407833333333334E+009;1.943138539791107E-001;3.841408342123032E-002;-1.650140387937427E-003;2.802819712087512E-003;
2.408000000000000E+009;1.943731755018234E-001;3.814720362424851E-002;-1.507504493929446E-003;2.951167058199644E-003;
2.408166666666667E+009;1.938435584306717E-001;3.775829449295998E-002;-1.289894920773804E-003;3.058732487261295E-003;
2.408333333333334E+009;1.935199946165085E-001;3.705199807882309E-002;-1.330546918325126E-003;3.013986395671964E-003;
2.408500000000000E+009;1.930324733257294E-001;3.664849698543549E-002;-1.171352458186448E-003;2.888549352064729E-003;
2.408666666666667E+009;1.923772692680359E-001;3.597454354166985E-002;-9.495710837654769E-004;3.028906648978591E-003;
2.408833333333334E+009;1.919645667076111E-001;3.527562320232391E-002;-7.610087050125003E-004;3.062980715185404E-003;
2.409000000000000E+009;1.911936551332474E-001;3.423377871513367E-002;-6.861903821118176E-004;3.105289302766323E-003;
2.409166666666667E+009;1.904546171426773E-001;3.311412781476975E-002;-5.140065914019942E-004;3.036518348380923E-003;
2.409333333333334E+009;1.898501068353653E-001;3.213085979223251E-002;-4.504915559664369E-004;3.162668319419026E-003;
2.409500000000000E+009;1.889507025480270E-001;3.089052438735962E-002;-2.156936825485900E-004;3.123592818155885E-003;
2.409666666666667E+009;1.880894154310226E-001;2.931791916489601E-002;-1.364626659778878E-004;3.025402082130313E-003;
2.409833333333334E+009;1.871878057718277E-001;2.786038443446159E-002;9.981259790947661E-005;3.089989302679896E-003;
2.410000000000000E+009;1.865843832492828E-001;2.607807889580727E-002;2.383821556577459E-004;2.950262278318405E-003;
2.410166666666667E+009;1.857128143310547E-001;2.457214519381523E-002;3.576991730369628E-004;2.804235788062215E-003;
2.410333333333334E+009;1.849848181009293E-001;2.267301641404629E-002;4.247212491463870E-004;2.845549955964088E-003;
2.410500000000000E+009;1.842764765024185E-001;2.093194797635078E-002;5.205831839703023E-004;2.772929146885872E-003;
2.410666666666667E+009;1.835484504699707E-001;1.864480972290039E-002;5.227086949162185E-004;2.668007276952267E-003;
2.410833333333334E+009;1.830295026302338E-001;1.663171127438545E-002;7.325895712710917E-004;2.479823771864176E-003;
2.411000000000000E+009;1.825506389141083E-001;1.445696596056223E-002;6.551914848387241E-004;2.460734220221639E-003;
2.411166666666667E+009;1.821188926696777E-001;1.238957047462463E-002;7.402992923744023E-004;2.380436984822154E-003;
2.411333333333334E+009;1.817660331726074E-001;1.001610048115253E-002;8.794988971203566E-004;2.199989743530750E-003;
2.411500000000000E+009;1.814845502376556E-001;7.904009893536568E-003;9.418800473213196E-004;2.140738768503070E-003;
2.411666666666667E+009;1.814454197883606E-001;5.538297817111015E-003;9.676103945821524E-004;2.092412672936916E-003;
2.411833333333334E+009;1.811459660530090E-001;3.556658746674657E-003;9.763923007994890E-004;1.919939531944692E-003;
2.412000000000000E+009;1.814179122447968E-001;9.851291542872787E-004;1.100463559851050E-003;1.761923660524190E-003;
2.412166666666667E+009;1.815747618675232E-001;-1.140608685091138E-003;1.088999561034143E-003;1.896044705063105E-003;
2.412333333333334E+009;1.818524152040482E-001;-3.379009896889329E-003;1.153713907115161E-003;1.773621770553291E-003;
2.412500000000000E+009;1.822547912597656E-001;-5.749407224357128E-003;9.689305443316698E-004;1.746175927110016E-003;
2.412666666666667E+009;1.828169822692871E-001;-8.204716257750988E-003;1.115727354772389E-003;1.610696548596025E-003;
2.412833333333334E+009;1.835632026195526E-001;-1.038670074194670E-002;1.048575388267636E-003;1.437425846233964E-003;
2.413000000000000E+009;1.843740195035934E-001;-1.246555615216494E-002;1.000527059659362E-003;1.430111820809543E-003;
2.413166666666667E+009;1.849700957536697E-001;-1.458854135125876E-002;8.784602396190167E-004;1.429148949682713E-003;
2.413333333333334E+009;1.859596967697144E-001;-1.678547076880932E-002;8.636777638457716E-004;1.152972807176411E-003;
2.413500000000000E+009;1.866555958986282E-001;-1.894310116767883E-002;8.553944062441587E-004;1.320029608905315E-003;
2.413666666666667E+009;1.878619194030762E-001;-2.100052870810032E-002;7.524649845436215E-004;1.241258694790304E-003;
2.413833333333334E+009;1.888311058282852E-001;-2.287483587861061E-002;7.328881183639169E-004;1.306605059653521E-003;
2.414000000000000E+009;1.898434609174728E-001;-2.478192374110222E-002;8.645259658806026E-004;1.206054002977908E-003;
2.414166666666667E+009;1.909319013357163E-001;-2.650940231978893E-002;7.976496708579361E-004;1.254612347111106E-003;
2.414333333333334E+009;1.918472200632095E-001;-2.814798988401890E-002;6.357714300975204E-004;1.318294322118163E-003;
2.414500000000000E+009;1.928992718458176E-001;-2.973967604339123E-002;7.355183479376137E-004;1.330371596850455E-003;
2.414666666666667E+009;1.939075142145157E-001;-3.118664026260376E-002;7.130977464839816E-004;1.158153638243675E-003;
2.414833333333334E+009;1.950304508209229E-001;-3.251923993229866E-002;7.198172388598323E-004;1.359547255560756E-003;
2.415000000000000E+009;1.959497481584549E-001;-3.363266587257385E-002;7.125546107999980E-004;1.255394075997174E-003;
2.415166666666667E+009;1.970814764499664E-001;-3.470924496650696E-002;6.179668125696480E-004;1.355274580419064E-003;
2.415333333333334E+009;1.979659199714661E-001;-3.581028431653976E-002;7.150036399252713E-004;1.268098480068147E-003;
2.415500000000000E+009;1.988605409860611E-001;-3.635894134640694E-002;5.092580104246736E-004;1.403045607730746E-003;
2.415666666666667E+009;1.998049914836884E-001;-3.743797168135643E-002;6.449170177802444E-004;1.524762948974967E-003;
2.415833333333334E+009;2.004052847623825E-001;-3.802771493792534E-002;6.329652969725430E-004;1.577935530804098E-003;
2.416000000000000E+009;2.009596675634384E-001;-3.885511308908463E-002;7.711398648098111E-004;1.686241943389177E-003;
2.416166666666667E+009;2.016427963972092E-001;-3.947088867425919E-002;8.190459338948131E-004;1.702637993730605E-003;
2.416333333333334E+009;2.021975666284561E-001;-3.980518877506256E-002;7.894171285443008E-004;1.779187354259193E-003;
2.416500000000000E+009;2.023990154266357E-001;-4.019732773303986E-002;8.651884854771197E-004;1.944376388564706E-003;
2.416666666666667E+009;2.026928216218948E-001;-4.068744555115700E-002;1.001178869046271E-003;1.930001424625516E-003;
2.416833333333334E+009;2.027461975812912E-001;-4.087466374039650E-002;1.273823552764952E-003;2.016434678807855E-003;
2.417000000000000E+009;2.027719914913178E-001;-4.118470847606659E-002;1.384497852995992E-003;1.809104927815497E-003;
2.417166666666667E+009;2.023967504501343E-001;-4.122570529580116E-002;1.365284086205065E-003;1.829431275837123E-003;
2.417333333333334E+009;2.021332532167435E-001;-4.124449938535690E-002;1.832797657698393E-003;1.717849052511156E-003;
2.417500000000000E+009;2.017316371202469E-001;-4.157062247395515E-002;1.754418481141329E-003;1.700455439276993E-003;
2.417666666666667E+009;2.012970298528671E-001;-4.142314940690994E-002;1.799707068130374E-003;1.616569352336228E-003;
2.417833333333334E+009;2.006844878196716E-001;-4.141890630126000E-002;1.965494127944112E-003;1.561621436849237E-003;
2.418000000000000E+009;2.001251131296158E-001;-4.137540236115456E-002;1.907240832224488E-003;1.407764037139714E-003;
2.418166666666667E+009;1.992708295583725E-001;-4.146425798535347E-002;2.030552830547094E-003;1.346164382994175E-003;
2.418333333333334E+009;1.984044760465622E-001;-4.155471920967102E-002;1.833882764913142E-003;1.382304006256163E-003;
2.418500000000000E+009;1.974106580018997E-001;-4.187764227390289E-002;2.046049572527409E-003;1.400531968101859E-003;
2.418666666666667E+009;1.966049522161484E-001;-4.184401407837868E-002;2.071460010483861E-003;1.197054632939398E-003;
2.418833333333334E+009;1.954575479030609E-001;-4.232522845268250E-002;2.073832321912050E-003;1.239267294295132E-003;
2.419000000000000E+009;1.941131353378296E-001;-4.253750666975975E-002;2.036698395386338E-003;1.224015606567264E-003;
2.419166666666667E+009;1.929351985454559E-001;-4.286566749215126E-002;2.181748393923044E-003;1.288453815504909E-003;
2.419333333333334E+009;1.916438639163971E-001;-4.362570121884346E-002;2.279141684994102E-003;1.208587316796184E-003;
2.419500000000000E+009;1.903084516525269E-001;-4.411010444164276E-002;2.413364127278328E-003;1.308090402744710E-003;
2.419666666666667E+009;1.888835579156876E-001;-4.504170268774033E-002;2.451361157000065E-003;1.184592256322503E-003;
2.419833333333334E+009;1.875771731138229E-001;-4.589388146996498E-002;2.526241121813655E-003;1.191681483760476E-003;
2.420000000000000E+009;1.858931183815002E-001;-4.658967629075050E-002;2.660567173734307E-003;1.105401897802949E-003;
2.420166666666667E+009;1.845160722732544E-001;-4.769220203161240E-002;2.760197967290878E-003;9.759466629475355E-004;
2.420333333333334E+009;1.830251812934876E-001;-4.900460690259934E-002;2.789652207866311E-003;8.878295775502920E-004;
2.420500000000000E+009;1.814737468957901E-001;-5.033354088664055E-002;2.885546535253525E-003;8.024147246032953E-004;
2.420666666666667E+009;1.799816936254501E-001;-5.120688304305077E-002;3.059653798118234E-003;6.977595039643347E-004;
2.420833333333334E+009;1.785845309495926E-001;-5.299946293234825E-002;3.269526641815901E-003;5.070848856121302E-004;
2.421000000000000E+009;1.773761212825775E-001;-5.430740118026733E-002;3.223597537726164E-003;3.751795156858861E-004;
2.421166666666667E+009;1.759973913431168E-001;-5.619361251592636E-002;3.230951726436615E-003;2.640169404912740E-004;
2.421333333333334E+009;1.744963377714157E-001;-5.753852054476738E-002;3.278056858107448E-003;9.223300003213808E-005;
2.421500000000000E+009;1.732009053230286E-001;-5.955268815159798E-002;3.378656692802906E-003;-1.784227060852572E-004;
2.421666666666667E+009;1.721862554550171E-001;-6.106187403202057E-002;3.319487674161792E-003;-4.644278087653220E-004;
2.421833333333334E+009;1.711896657943726E-001;-6.295938789844513E-002;3.314891830086708E-003;-5.007178988307715E-004;
2.422000000000000E+009;1.700780838727951E-001;-6.473555415868759E-002;3.366256365552545E-003;-7.945346296764910E-004;
2.422166666666667E+009;1.693078130483627E-001;-6.666611880064011E-002;3.161786356940866E-003;-1.012487220577896E-003;
2.422333333333334E+009;1.684142500162125E-001;-6.859250366687775E-002;3.084102412685752E-003;-1.112365978769958E-003;
2.422500000000000E+009;1.676477640867233E-001;-7.039387524127960E-002;3.112703328952193E-003;-1.330906176008284E-003;
2.422666666666667E+009;1.669613867998123E-001;-7.227979600429535E-002;3.095795866101980E-003;-1.437244238331914E-003;
2.422833333333334E+009;1.665496975183487E-001;-7.418258488178253E-002;2.733405213803053E-003;-1.574729220010340E-003;
2.423000000000000E+009;1.661428362131119E-001;-7.608481496572495E-002;2.844752743840218E-003;-1.780029735527933E-003;
2.423166666666667E+009;1.656135022640228E-001;-7.780884206295013E-002;2.577286912128329E-003;-1.854556379839778E-003;
2.423333333333334E+009;1.653956770896912E-001;-7.964015007019043E-002;2.418247750028968E-003;-1.825540908612311E-003;
2.423500000000000E+009;1.653131991624832E-001;-8.123861998319626E-002;2.286262810230255E-003;-1.987855648621917E-003;
2.423666666666667E+009;1.653405278921127E-001;-8.331485092639923E-002;2.122021513059735E-003;-2.130389213562012E-003;
2.423833333333334E+009;1.651070863008499E-001;-8.479557931423187E-002;1.960477326065302E-003;-2.121857600286603E-003;
2.424000000000000E+009;1.653048247098923E-001;-8.662533015012741E-002;1.938240486197174E-003;-2.138644689694047E-003;
2.424166666666667E+009;1.652949005365372E-001;-8.806515485048294E-002;1.774346805177629E-003;-2.186396624892950E-003;
2.424333333333334E+009;1.654656529426575E-001;-8.950912952423096E-002;1.617703121155500E-003;-2.323619322851300E-003;
2.424500000000000E+009;1.657397598028183E-001;-9.115640819072723E-002;1.523941173218191E-003;-2.328406320884824E-003;
2.424666666666667E+009;1.660199910402298E-001;-9.243541210889816E-002;1.400817651301622E-003;-2.291430020704866E-003;
2.424833333333334E+009;1.663644164800644E-001;-9.364223480224609E-002;1.213388051837683E-003;-2.148813800886273E-003;
2.425000000000000E+009;1.666033267974854E-001;-9.475990384817123E-002;1.200424390845001E-003;-2.298687119036913E-003;
2.425166666666667E+009;1.668592840433121E-001;-9.580101072788239E-002;1.047257916070521E-003;-2.291844692081213E-003;
2.425333333333334E+009;1.671034544706345E-001;-9.690561890602112E-002;9.220063802786171E-004;-2.291484735906124E-003;
2.425500000000000E+009;1.673724800348282E-001;-9.791120886802673E-002;9.915156988427043E-004;-2.444003941491246E-003;
2.425666666666667E+009;1.678030937910080E-001;-9.856103360652924E-002;7.384389755316079E-004;-2.177766757085919E-003;
2.425833333333334E+009;1.678932160139084E-001;-9.942644834518433E-002;7.292968803085387E-004;-2.203481271862984E-003;
2.426000000000000E+009;1.681635975837708E-001;-9.994263947010040E-002;7.744875038042665E-004;-2.172820037230849E-003;
2.426166666666667E+009;1.684264540672302E-001;-1.004936695098877E-001;7.293800008483231E-004;-2.062282292172313E-003;
2.426333333333334E+009;1.685480475425720E-001;-1.011691540479660E-001;4.652164934668690E-004;-2.150338375940919E-003;
2.426500000000000E+009;1.687995493412018E-001;-1.013901382684708E-001;4.639812686946243E-004;-2.096391981467605E-003;
2.426666666666667E+009;1.689365357160568E-001;-1.018843576312065E-001;5.228825029917061E-004;-1.994491787627339E-003;
2.426833333333334E+009;1.691640019416809E-001;-1.022300422191620E-001;4.281015135347843E-004;-1.990490360185504E-003;
2.427000000000000E+009;1.690481603145599E-001;-1.025628447532654E-001;3.856593975797296E-004;-1.924646552652121E-003;
2.427166666666667E+009;1.691244840621948E-001;-1.027482524514198E-001;3.850456268992275E-004;-1.962362788617611E-003;
2.427333333333334E+009;1.689543724060059E-001;-1.031749397516251E-001;3.713365586008877E-004;-1.901609939523041E-003;
2.427500000000000E+009;1.685694158077240E-001;-1.034777760505676E-001;1.224423176608980E-004;-1.942484290339053E-003;
2.427666666666667E+009;1.683576554059982E-001;-1.035440266132355E-001;1.865370286395773E-004;-1.876381575129926E-003;
2.427833333333334E+009;1.679388880729675E-001;-1.038344576954842E-001;9.911668166751042E-005;-1.942234463058412E-003;
