# Version 1.00
#
freq[Hz];re:Trc1_S11;im:Trc1_S11;re:Trc2_S21;im:Trc2_S21;
2.400000000000000E+009;1.562497019767761E-001;1.058313176035881E-001;-1.194775104522705E-003;-1.146330148912966E-003;
2.400166666666667E+009;1.560612916946411E-001;1.034533530473709E-001;-1.397315179929137E-003;-1.328153535723686E-003;
2.400333333333334E+009;1.563628613948822E-001;1.012854948639870E-001;-1.322145224548876E-003;-1.454199431464076E-003;
2.400500000000000E+009;1.565756201744080E-001;9.854597598314285E-002;-1.639466616325080E-003;-1.353118917904794E-003;
2.400666666666667E+009;1.568142771720886E-001;9.625435620546341E-002;-1.754285185597837E-003;-1.486709690652788E-003;
2.400833333333334E+009;1.569025516510010E-001;9.358491748571396E-002;-1.778694917447865E-003;-1.448294264264405E-003;
2.401000000000000E+009;1.573609113693237E-001;9.107071161270142E-002;-2.048881025984883E-003;-1.283965655602515E-003;
2.401166666666667E+009;1.574924886226654E-001;8.814951777458191E-002;-2.122470410540700E-003;-1.198371173813939E-003;
2.401333333333334E+009;1.579066365957260E-001;8.570473641157150E-002;-2.226917073130608E-003;-1.207208260893822E-003;
2.401500000000000E+009;1.584433168172836E-001;8.298839628696442E-002;-2.368999877944589E-003;-1.112793455831707E-003;
2.401666666666667E+009;1.587935388088226E-001;8.029239624738693E-002;-2.394025679677725E-003;-9.475040715187788E-004;
2.401833333333334E+009;1.595067232847214E-001;7.780041545629501E-002;-2.396105322986841E-003;-8.374526514671743E-004;
2.402000000000000E+009;1.603147834539414E-001;7.524264603853226E-002;-2.494104439392686E-003;-6.567327654920518E-004;
2.402166666666667E+009;1.613406389951706E-001;7.295522838830948E-002;-2.526971045881510E-003;-6.873103557154536E-004;
2.402333333333334E+009;1.622061431407929E-001;7.040291279554367E-002;-2.646773355081677E-003;-4.863939830102027E-004;
2.402500000000000E+009;1.631589531898499E-001;6.804995983839035E-002;-2.553357044234872E-003;-5.345425452105701E-004;
2.402666666666667E+009;1.644130349159241E-001;6.584759801626205E-002;-2.677198266610503E-003;-2.822386159095913E-004;
2.402833333333334E+009;1.654195040464401E-001;6.356135010719299E-002;-2.613340038806200E-003;-4.358665901236236E-004;
2.403000000000000E+009;1.668810546398163E-001;6.148650869727135E-002;-2.664533210918307E-003;-1.387354313919786E-005;
2.403166666666667E+009;1.686382293701172E-001;5.938819795846939E-002;-2.653043717145920E-003;-1.323420292465016E-004;
2.403333333333334E+009;1.696877330541611E-001;5.742478743195534E-002;-2.681838814169169E-003;-1.131346143665724E-004;
2.403500000000000E+009;1.713355332612991E-001;5.537687242031097E-002;-2.742640674114227E-003;-1.220784470206127E-004;
2.403666666666667E+009;1.730147898197174E-001;5.373366177082062E-002;-2.710834145545960E-003;9.441147994948551E-006;
2.403833333333334E+009;1.744808554649353E-001;5.180801078677177E-002;-2.849339973181486E-003;4.621635525836609E-005;
2.404000000000000E+009;1.757818162441254E-001;5.012555420398712E-002;-2.667217981070280E-003;2.577180275693536E-004;
2.404166666666667E+009;1.775991916656494E-001;4.888933151960373E-002;-2.776047680526972E-003;3.998668398708105E-004;
2.404333333333334E+009;1.788900047540665E-001;4.727695137262344E-002;-2.762462012469769E-003;4.525505355559290E-004;
2.404500000000000E+009;1.802836954593658E-001;4.600933194160461E-002;-2.875578822568059E-003;4.761203599628061E-004;
2.404666666666667E+009;1.818620860576630E-001;4.485199227929115E-002;-2.843869617208839E-003;5.191990640014410E-004;
2.404833333333334E+009;1.831623315811157E-001;4.360382631421089E-002;-2.748472848907113E-003;7.508033304475248E-004;
2.405000000000000E+009;1.845223456621170E-001;4.302595928311348E-002;-2.902620937675238E-003;6.830249330960214E-004;
2.405166666666667E+009;1.856247484683991E-001;4.231322556734085E-002;-2.940018661320210E-003;8.509857580065727E-004;
2.405333333333334E+009;1.869397461414337E-001;4.187816008925438E-002;-2.867124974727631E-003;1.031613675877452E-003;
2.405500000000000E+009;1.881484985351563E-001;4.121835157275200E-002;-2.966841682791710E-003;1.260565244592726E-003;
2.405666666666667E+009;1.892104893922806E-001;4.067596420645714E-002;-2.817439381033182E-003;1.377741456963122E-003;
2.405833333333334E+009;1.902486681938171E-001;4.037057608366013E-002;-2.844254719093442E-003;1.405183458700776E-003;
2.406000000000000E+009;1.910129189491272E-001;3.998601064085960E-002;-2.895528450608254E-003;1.617294270545244E-003;
2.406166666666667E+009;1.919124424457550E-001;3.973720595240593E-002;-2.791369799524546E-003;1.638985588215292E-003;
2.406333333333334E+009;1.926927566528320E-001;3.976847231388092E-002;-2.683874452486634E-003;1.905002980493009E-003;
2.406500000000000E+009;1.933244168758392E-001;3.960442915558815E-002;-2.583292312920094E-003;2.160425530746579E-003;
2.406666666666667E+009;1.938977688550949E-001;3.949890285730362E-002;-2.627294743433595E-003;2.305215457454324E-003;
2.406833333333334E+009;1.943692564964294E-001;3.936668485403061E-002;-2.557940548285842E-003;2.469737082719803E-003;
2.407000000000000E+009;1.946817934513092E-001;3.944613412022591E-002;-2.348469570279121E-003;2.504587173461914E-003;
2.407166666666667E+009;1.949431598186493E-001;3.909321501851082E-002;-2.076031640172005E-003;2.667469438165426E-003;
2.407333333333334E+009;1.948678642511368E-001;3.908521682024002E-002;-2.046545967459679E-003;2.669006586074829E-003;
2.407500000000000E+009;1.948379874229431E-001;3.899341449141502E-002;-1.922049093991518E-003;2.785595599561930E-003;
2.407666666666667E+009;1.949708163738251E-001;3.868393227458000E-002;-1.854280475527048E-003;2.813105704262853E-003;
2.407833333333334E+009;1.944850385189056E-001;3.847366943955421E-002;-1.716554397717118E-003;2.948737470433116E-003;
2.408000000000000E+009;1.945284456014633E-001;3.819956257939339E-002;-1.440733904018998E-003;2.857044804841280E-003;
2.408166666666667E+009;1.940094232559204E-001;3.770051151514053E-002;-1.421218155883253E-003;2.964014885947108E-003;
2.408333333333334E+009;1.937590539455414E-001;3.710811212658882E-002;-1.389723387546837E-003;2.994485199451447E-003;
2.408500000000000E+009;1.931403428316116E-001;3.671658411622047E-002;-1.101140631362796E-003;3.081200178712606E-003;
2.408666666666667E+009;1.926522254943848E-001;3.597267717123032E-002;-1.038586022332311E-003;2.944652922451496E-003;
2.408833333333334E+009;1.922029852867127E-001;3.522591292858124E-002;-9.490706142969430E-004;3.170922398567200E-003;
2.409000000000000E+009;1.914450675249100E-001;3.407269716262817E-002;-8.023680420592427E-004;3.091528313234448E-003;
2.409166666666667E+009;1.906852424144745E-001;3.316355496644974E-002;-5.720214685425162E-004;3.199439961463213E-003;
2.409333333333334E+009;1.900326311588287E-001;3.195765614509583E-002;-2.865730493795127E-004;3.059952287003398E-003;
2.409500000000000E+009;1.891159862279892E-001;3.062698990106583E-002;-3.276836359873414E-004;3.122637514024973E-003;
2.409666666666667E+009;1.883559376001358E-001;2.930734492838383E-002;-1.942730341397692E-005;3.022236982360482E-003;
2.409833333333334E+009;1.875959932804108E-001;2.774234488606453E-002;1.345575874438509E-004;3.046290716156364E-003;
2.410000000000000E+009;1.866269707679749E-001;2.614259533584118E-002;3.677026834338903E-004;2.942253369837999E-003;
2.410166666666667E+009;1.859856992959976E-001;2.439131215214729E-002;3.154511214233935E-004;2.792624291032553E-003;
2.410333333333334E+009;1.851207315921783E-001;2.272928319871426E-002;5.572282243520021E-004;2.861872082576156E-003;
2.410500000000000E+009;1.844048798084259E-001;2.076075598597527E-002;6.161205819807947E-004;2.711156150326133E-003;
2.410666666666667E+009;1.837390065193176E-001;1.857736147940159E-002;7.581159588880837E-004;2.630464034155011E-003;
2.410833333333334E+009;1.833151131868362E-001;1.646865904331207E-002;7.104122778400779E-004;2.558794803917408E-003;
2.411000000000000E+009;1.826725751161575E-001;1.442966796457768E-002;6.828517070971429E-004;2.469436498358846E-003;
2.411166666666667E+009;1.821528673171997E-001;1.235851179808378E-002;7.204291759990156E-004;2.386816544458270E-003;
2.411333333333334E+009;1.818671375513077E-001;9.902869351208210E-003;9.025572799146175E-004;2.348436973989010E-003;
2.411500000000000E+009;1.815996617078781E-001;7.717986125499010E-003;9.743571863509715E-004;2.394830808043480E-003;
2.411666666666667E+009;1.815116256475449E-001;5.400594789534807E-003;1.141342567279935E-003;2.070709830150008E-003;
2.411833333333334E+009;1.812625676393509E-001;3.291420172899962E-003;9.143212228082120E-004;2.111293142661452E-003;
2.412000000000000E+009;1.818076223134995E-001;8.121210266835988E-004;1.172991818748415E-003;1.845538965426385E-003;
2.412166666666667E+009;1.816350519657135E-001;-1.355685526505113E-003;1.199861755594611E-003;1.822150428779423E-003;
2.412333333333334E+009;1.820076406002045E-001;-3.727569011971355E-003;8.660190505906940E-004;1.758733415044844E-003;
2.412500000000000E+009;1.823264956474304E-001;-5.925933830440044E-003;9.796740487217903E-004;1.704995054751635E-003;
2.412666666666667E+009;1.830086708068848E-001;-8.171630091965199E-003;1.114542945288122E-003;1.665889169089496E-003;
2.412833333333334E+009;1.837671846151352E-001;-1.053254399448633E-002;9.892089292407036E-004;1.428377931006253E-003;
2.413000000000000E+009;1.843948364257813E-001;-1.259962748736143E-002;8.730834815651178E-004;1.409653224982321E-003;
2.413166666666667E+009;1.850227564573288E-001;-1.470264606177807E-002;8.727021049708128E-004;1.349083962850273E-003;
2.413333333333334E+009;1.861158907413483E-001;-1.690484024584293E-002;1.000529387965798E-003;1.313049928285182E-003;
2.413500000000000E+009;1.868458837270737E-001;-1.908513903617859E-002;8.236065623350442E-004;1.275634393095970E-003;
2.413666666666667E+009;1.878160089254379E-001;-2.109416015446186E-002;7.962104282341898E-004;1.328602898865938E-003;
2.413833333333334E+009;1.888289749622345E-001;-2.296014316380024E-002;8.067398448474705E-004;1.099588698707521E-003;
2.414000000000000E+009;1.899975687265396E-001;-2.479650266468525E-002;7.835096330381930E-004;1.281148521229625E-003;
2.414166666666667E+009;1.910208463668823E-001;-2.652881294488907E-002;8.834378095343709E-004;1.453521312214434E-003;
2.414333333333334E+009;1.919784098863602E-001;-2.850458398461342E-002;8.463372359983623E-004;1.219807192683220E-003;
2.414500000000000E+009;1.930827498435974E-001;-2.989035844802856E-002;7.579838274978101E-004;1.367503195069730E-003;
2.414666666666667E+009;1.939855366945267E-001;-3.130483627319336E-002;6.737438379786909E-004;1.303766970522702E-003;
2.414833333333334E+009;1.951054483652115E-001;-3.263188898563385E-002;6.917416467331350E-004;1.197961508296430E-003;
2.415000000000000E+009;1.959718465805054E-001;-3.399433195590973E-002;7.113448227755725E-004;1.262682839296758E-003;
2.415166666666667E+009;1.971516013145447E-001;-3.504660353064537E-002;6.333974306471646E-004;1.393470796756446E-003;
2.415333333333334E+009;1.981746852397919E-001;-3.595251217484474E-002;7.331427768804133E-004;1.223016413860023E-003;
2.415500000000000E+009;1.989704668521881E-001;-3.686005249619484E-002;5.245918291620910E-004;1.332965912297368E-003;
2.415666666666667E+009;1.999143809080124E-001;-3.774322569370270E-002;6.492824177257717E-004;1.552183181047440E-003;
2.415833333333334E+009;2.005018740892410E-001;-3.840023279190064E-002;6.933207041583955E-004;1.605533296242356E-003;
2.416000000000000E+009;2.011274397373200E-001;-3.909307718276978E-002;7.866703090257943E-004;1.649963785894215E-003;
2.416166666666667E+009;2.016671597957611E-001;-3.972075507044792E-002;8.575347019359469E-004;1.734156394377351E-003;
2.416333333333334E+009;2.021325528621674E-001;-4.006351530551910E-002;9.453801321797073E-004;1.708012423478067E-003;
2.416500000000000E+009;2.025693953037262E-001;-4.054684191942215E-002;9.654088644310832E-004;1.832091948017478E-003;
2.416666666666667E+009;2.027225047349930E-001;-4.093069955706596E-002;1.035354332998395E-003;1.959521323442459E-003;
2.416833333333334E+009;2.026487439870834E-001;-4.095992818474770E-002;1.183580840006471E-003;1.950964913703501E-003;
2.417000000000000E+009;2.027205973863602E-001;-4.139102995395660E-002;1.501408522017300E-003;1.783373649232090E-003;
2.417166666666667E+009;2.022931128740311E-001;-4.148486256599426E-002;1.531592104583979E-003;1.899187918752432E-003;
2.417333333333334E+009;2.019984126091003E-001;-4.142098873853684E-002;1.694942242465913E-003;1.866924460045993E-003;
2.417500000000000E+009;2.017381936311722E-001;-4.170879349112511E-002;1.582359429448843E-003;1.696417923085392E-003;
2.417666666666667E+009;2.011907696723938E-001;-4.159481450915337E-002;1.843269099481404E-003;1.697660773061216E-003;
2.417833333333334E+009;2.006875723600388E-001;-4.154884815216065E-002;1.987092196941376E-003;1.574983354657888E-003;
2.418000000000000E+009;2.001170217990875E-001;-4.152010008692741E-002;1.924762269482017E-003;1.440007123164833E-003;
2.418166666666667E+009;1.992413699626923E-001;-4.163949564099312E-002;1.899369992315769E-003;1.391152967698872E-003;
2.418333333333334E+009;1.983567029237747E-001;-4.172322154045105E-002;2.012418350204825E-003;1.299977535381913E-003;
2.418500000000000E+009;1.973777860403061E-001;-4.187977313995361E-002;2.008292125537992E-003;1.180138206109405E-003;
2.418666666666667E+009;1.965104788541794E-001;-4.193553328514099E-002;1.933449297212064E-003;1.248595188371837E-003;
2.418833333333334E+009;1.953637748956680E-001;-4.236234724521637E-002;2.054814016446471E-003;1.232036389410496E-003;
2.419000000000000E+009;1.941006630659103E-001;-4.272695630788803E-002;2.171172061935067E-003;1.254587317816913E-003;
2.419166666666667E+009;1.928146183490753E-001;-4.310943931341171E-002;2.121029887348414E-003;1.132539240643382E-003;
2.419333333333334E+009;1.916441321372986E-001;-4.385371878743172E-002;2.213061787188053E-003;1.294831861741841E-003;
2.419500000000000E+009;1.902433037757874E-001;-4.443080350756645E-002;2.199764829128981E-003;1.210820511914790E-003;
2.419666666666667E+009;1.887851059436798E-001;-4.515225067734718E-002;2.394528361037374E-003;1.112731872126460E-003;
2.419833333333334E+009;1.874125599861145E-001;-4.596404358744621E-002;2.543041249737144E-003;1.099139917641878E-003;
2.420000000000000E+009;1.858412176370621E-001;-4.686062037944794E-002;2.713214838877320E-003;1.032396452501416E-003;
2.420166666666667E+009;1.843687891960144E-001;-4.788178950548172E-002;2.697284333407879E-003;1.052072504535317E-003;
2.420333333333334E+009;1.828520298004150E-001;-4.910036176443100E-002;2.926732413470745E-003;9.044260950759053E-004;
2.420500000000000E+009;1.813388615846634E-001;-5.038689449429512E-002;2.959911478683353E-003;7.930687861517072E-004;
2.420666666666667E+009;1.798288524150848E-001;-5.148407444357872E-002;2.974307630211115E-003;6.609295378439128E-004;
2.420833333333334E+009;1.784818917512894E-001;-5.304589867591858E-002;3.072432707995176E-003;5.400181398727000E-004;
2.421000000000000E+009;1.770737171173096E-001;-5.448929965496063E-002;3.216875484213233E-003;3.753189521376044E-004;
2.421166666666667E+009;1.757777482271195E-001;-5.613340809941292E-002;3.338834503665566E-003;2.140288997907192E-004;
2.421333333333334E+009;1.744658350944519E-001;-5.765419825911522E-002;3.266078187152743E-003;2.530766687414143E-005;
2.421500000000000E+009;1.732372790575028E-001;-5.947458371520042E-002;3.426617011427879E-003;-2.174387336708605E-004;
2.421666666666667E+009;1.719799041748047E-001;-6.112904474139214E-002;3.286015475168824E-003;-3.808880865108222E-004;
2.421833333333334E+009;1.710039228200913E-001;-6.297530978918076E-002;3.288519335910678E-003;-5.932563217356801E-004;
2.422000000000000E+009;1.698995083570480E-001;-6.465121358633041E-002;3.290331456810236E-003;-7.028271211311221E-004;
2.422166666666667E+009;1.690812706947327E-001;-6.678661704063416E-002;3.250357927754521E-003;-8.974958327598870E-004;
2.422333333333334E+009;1.682600975036621E-001;-6.868268549442291E-002;3.167006652802229E-003;-1.129372394643724E-003;
2.422500000000000E+009;1.675554215908051E-001;-7.036038488149643E-002;3.055107546970248E-003;-1.314938999712467E-003;
2.422666666666667E+009;1.667748838663101E-001;-7.232233136892319E-002;2.954324008896947E-003;-1.505917054601014E-003;
2.422833333333334E+009;1.665326207876205E-001;-7.419188320636749E-002;2.799831563606858E-003;-1.567012397572398E-003;
2.423000000000000E+009;1.657807230949402E-001;-7.607746124267578E-002;2.520612673833966E-003;-1.653180574066937E-003;
2.423166666666667E+009;1.654809713363648E-001;-7.789419591426849E-002;2.549857133999467E-003;-1.849321066401899E-003;
2.423333333333334E+009;1.653657853603363E-001;-7.998115569353104E-002;2.540829125791788E-003;-1.995095750316978E-003;
2.423500000000000E+009;1.651547700166702E-001;-8.149010688066483E-002;2.399424789473414E-003;-2.046152018010616E-003;
2.423666666666667E+009;1.652269214391708E-001;-8.317694067955017E-002;2.221087459474802E-003;-2.034759847447276E-003;
2.423833333333334E+009;1.651221513748169E-001;-8.490075170993805E-002;2.059119520708919E-003;-2.150799613445997E-003;
2.424000000000000E+009;1.651110053062439E-001;-8.656597137451172E-002;1.979166176170111E-003;-2.032900927588344E-003;
2.424166666666667E+009;1.650805175304413E-001;-8.808332681655884E-002;1.713363686576486E-003;-2.287477720528841E-003;
2.424333333333334E+009;1.652936190366745E-001;-8.952106535434723E-002;1.689767464995384E-003;-2.200277987867594E-003;
2.424500000000000E+009;1.655717641115189E-001;-9.114017337560654E-002;1.365362084470689E-003;-2.291141776368022E-003;
2.424666666666667E+009;1.657272130250931E-001;-9.239646047353745E-002;1.457100966945291E-003;-2.343608299270272E-003;
2.424833333333334E+009;1.661111712455750E-001;-9.383958578109741E-002;1.469208975322545E-003;-2.185417106375098E-003;
2.425000000000000E+009;1.664596945047379E-001;-9.492041170597076E-002;1.310456427745521E-003;-2.213736530393362E-003;
2.425166666666667E+009;1.666310727596283E-001;-9.601920843124390E-002;9.503221372142434E-004;-2.323260996490717E-003;
2.425333333333334E+009;1.668715626001358E-001;-9.687602519989014E-002;8.222789620049298E-004;-2.357373479753733E-003;
2.425500000000000E+009;1.673263609409332E-001;-9.782307595014572E-002;9.051482193171978E-004;-2.224775031208992E-003;
2.425666666666667E+009;1.674629598855972E-001;-9.857163578271866E-002;6.901050219312310E-004;-2.176881534978747E-003;
2.425833333333334E+009;1.677073538303375E-001;-9.946464002132416E-002;8.755328017286956E-004;-2.128727501258254E-003;
2.426000000000000E+009;1.680936962366104E-001;-9.986706823110580E-002;6.312184268608689E-004;-2.119041047990322E-003;
2.426166666666667E+009;1.682874709367752E-001;-1.004143431782723E-001;3.693828766699880E-004;-1.836983719840646E-003;
2.426333333333334E+009;1.683626472949982E-001;-1.009813770651817E-001;4.073650052305311E-004;-2.093074843287468E-003;
2.426500000000000E+009;1.685950756072998E-001;-1.014495268464088E-001;5.050481413491070E-004;-2.048002788797021E-003;
2.426666666666667E+009;1.687979102134705E-001;-1.017827317118645E-001;3.894632973242551E-004;-1.943866605870426E-003;
2.426833333333334E+009;1.690060645341873E-001;-1.021983325481415E-001;3.387219330761582E-004;-1.921806368045509E-003;
2.427000000000000E+009;1.689628660678864E-001;-1.024787947535515E-001;1.995701750274748E-004;-1.901779905892909E-003;
2.427166666666667E+009;1.688929200172424E-001;-1.027443408966065E-001;2.814725739881396E-004;-1.903684809803963E-003;
2.427333333333334E+009;1.688133478164673E-001;-1.030542403459549E-001;1.910558639792725E-004;-1.957789296284318E-003;
2.427500000000000E+009;1.684762090444565E-001;-1.033572033047676E-001;2.525554737076163E-004;-1.800064695999026E-003;
2.427666666666667E+009;1.681775897741318E-001;-1.036369726061821E-001;1.126063580159098E-004;-2.044170629233122E-003;
2.427833333333334E+009;1.678951829671860E-001;-1.038239598274231E-001;2.811362537613604E-005;-1.927233417518437E-003;
