# Version 1.00
#
freq[Hz];re:Trc1_S11;im:Trc1_S11;re:Trc2_S21;im:Trc2_S21;
2.400000000000000E+009;1.551763862371445E-001;1.070032417774200E-001;-2.276034356327727E-004;-6.183150224387646E-003;
2.400166666666667E+009;1.547685116529465E-001;1.047075912356377E-001;-3.950666286982596E-004;-5.976321175694466E-003;
2.400333333333334E+009;1.549606621265411E-001;1.024175733327866E-001;-4.283184534870088E-004;-5.763074848800898E-003;
2.400500000000000E+009;1.547994315624237E-001;9.967598319053650E-002;-3.628873382695019E-004;-5.515141412615776E-003;
2.400666666666667E+009;1.547374725341797E-001;9.722343832254410E-002;-6.062688771635294E-004;-5.547438282519579E-003;
2.400833333333334E+009;1.548424661159515E-001;9.428568929433823E-002;-5.312109715305269E-004;-5.247947759926319E-003;
2.401000000000000E+009;1.549390107393265E-001;9.144756197929382E-002;-5.114621017128229E-004;-5.200984887778759E-003;
2.401166666666667E+009;1.550227552652359E-001;8.866715431213379E-002;-6.646654801443219E-004;-5.219550337642431E-003;
2.401333333333334E+009;1.553296297788620E-001;8.586201071739197E-002;-5.188298528082669E-004;-5.216512829065323E-003;
2.401500000000000E+009;1.558394432067871E-001;8.300948888063431E-002;-5.049775936640799E-004;-5.165884736925364E-003;
2.401666666666667E+009;1.563700437545776E-001;8.012436330318451E-002;-5.242422921583056E-004;-5.311749409884214E-003;
2.401833333333334E+009;1.566476523876190E-001;7.742212712764740E-002;-5.626608617603779E-004;-5.257526878267527E-003;
2.402000000000000E+009;1.576204448938370E-001;7.445836812257767E-002;-6.804582662880421E-004;-5.478291306644678E-003;
2.402166666666667E+009;1.583637893199921E-001;7.208292931318283E-002;-5.785323446616530E-004;-5.471394397318363E-003;
2.402333333333334E+009;1.593216061592102E-001;6.931456178426743E-002;-8.402437670156360E-004;-5.604384001344442E-003;
2.402500000000000E+009;1.603433191776276E-001;6.675645709037781E-002;-9.480383014306426E-004;-5.693159066140652E-003;
2.402666666666667E+009;1.617856919765472E-001;6.434736400842667E-002;-1.171811833046377E-003;-5.758950486779213E-003;
2.402833333333334E+009;1.629639863967896E-001;6.179656833410263E-002;-1.327274483628571E-003;-5.735333543270826E-003;
2.403000000000000E+009;1.644672602415085E-001;5.950649082660675E-002;-1.575493137352169E-003;-5.834827665239573E-003;
2.403166666666667E+009;1.661987751722336E-001;5.728452280163765E-002;-1.881328644230962E-003;-6.012757308781147E-003;
2.403333333333334E+009;1.675466299057007E-001;5.499996244907379E-002;-2.076853532344103E-003;-5.679677706211805E-003;
2.403500000000000E+009;1.692173331975937E-001;5.305125564336777E-002;-2.387820510193706E-003;-5.800627171993256E-003;
2.403666666666667E+009;1.710860133171082E-001;5.106739699840546E-002;-2.472538268193603E-003;-5.539516918361187E-003;
2.403833333333334E+009;1.726875603199005E-001;4.914518073201180E-002;-2.830536104738712E-003;-5.437527317553759E-003;
2.404000000000000E+009;1.741576194763184E-001;4.746736213564873E-002;-2.897303318604827E-003;-5.403993185609579E-003;
2.404166666666667E+009;1.761510372161865E-001;4.591744765639305E-002;-3.114264225587249E-003;-5.132992751896381E-003;
2.404333333333334E+009;1.775988936424255E-001;4.436952993273735E-002;-3.344987984746695E-003;-5.185736808925867E-003;
2.404500000000000E+009;1.791639328002930E-001;4.302702471613884E-002;-3.461996093392372E-003;-4.806272219866514E-003;
2.404666666666667E+009;1.808806210756302E-001;4.191718995571137E-002;-3.512618830427527E-003;-4.993415437638760E-003;
2.404833333333334E+009;1.825466454029083E-001;4.070633277297020E-002;-3.565779887139797E-003;-5.020223092287779E-003;
2.405000000000000E+009;1.838471591472626E-001;4.021459072828293E-002;-3.683624323457480E-003;-4.730825778096914E-003;
2.405166666666667E+009;1.854828596115112E-001;3.950357064604759E-002;-3.946678712964058E-003;-4.703414626419544E-003;
2.405333333333334E+009;1.869733780622482E-001;3.883247822523117E-002;-4.171106033027172E-003;-4.682002589106560E-003;
2.405500000000000E+009;1.882926672697067E-001;3.844144567847252E-002;-4.192333668470383E-003;-4.334331955760717E-003;
2.405666666666667E+009;1.893998682498932E-001;3.805276378989220E-002;-4.375404678285122E-003;-4.196860827505589E-003;
2.405833333333334E+009;1.907949447631836E-001;3.773795068264008E-002;-4.592405632138252E-003;-4.182165488600731E-003;
2.406000000000000E+009;1.917316168546677E-001;3.760049864649773E-002;-4.675307311117649E-003;-4.115216899663210E-003;
2.406166666666667E+009;1.927511543035507E-001;3.751415014266968E-002;-4.945753142237663E-003;-3.732021898031235E-003;
2.406333333333334E+009;1.938623338937759E-001;3.740076720714569E-002;-4.818838089704514E-003;-3.691581776365638E-003;
2.406500000000000E+009;1.945625394582748E-001;3.757144138216972E-002;-4.980290308594704E-003;-3.393431426957250E-003;
2.406666666666667E+009;1.950974464416504E-001;3.750452026724815E-002;-5.351544823497534E-003;-3.235090058296919E-003;
2.406833333333334E+009;1.955344527959824E-001;3.757984563708305E-002;-5.286135710775852E-003;-2.902659587562084E-003;
2.407000000000000E+009;1.958575099706650E-001;3.774081170558929E-002;-5.447758827358484E-003;-2.730603097006679E-003;
2.407166666666667E+009;1.962758004665375E-001;3.763446584343910E-002;-5.466722883284092E-003;-2.640141872689128E-003;
2.407333333333334E+009;1.961907595396042E-001;3.784231469035149E-002;-5.473570432513952E-003;-2.462587552145124E-003;
2.407500000000000E+009;1.960773617029190E-001;3.799954429268837E-002;-5.532532930374146E-003;-2.253500511869788E-003;
2.407666666666667E+009;1.962421834468842E-001;3.798758983612061E-002;-5.482751410454512E-003;-2.153556561097503E-003;
2.407833333333334E+009;1.957342922687531E-001;3.794002532958984E-002;-5.669708363711834E-003;-1.833210350014269E-003;
2.408000000000000E+009;1.955610066652298E-001;3.778766840696335E-002;-5.476124119013548E-003;-1.633504405617714E-003;
2.408166666666667E+009;1.949515342712402E-001;3.750312328338623E-002;-5.464922636747360E-003;-1.478009042330086E-003;
2.408333333333334E+009;1.946186423301697E-001;3.718619421124458E-002;-5.434794817119837E-003;-1.351451152004302E-003;
2.408500000000000E+009;1.939491629600525E-001;3.676316514611244E-002;-5.332948639988899E-003;-1.221034908667207E-003;
2.408666666666667E+009;1.933518648147583E-001;3.625309839844704E-002;-5.293009802699089E-003;-1.122417859733105E-003;
2.408833333333334E+009;1.925645917654038E-001;3.554652631282806E-002;-5.207605194300413E-003;-8.566325996071100E-004;
2.409000000000000E+009;1.916080564260483E-001;3.464875742793083E-002;-5.168515723198652E-003;-7.881317869760096E-004;
2.409166666666667E+009;1.906160861253738E-001;3.379730880260468E-002;-5.127653479576111E-003;-5.723003996536136E-004;
2.409333333333334E+009;1.897626519203186E-001;3.282035887241364E-002;-5.109278950840235E-003;-6.116535514593124E-004;
2.409500000000000E+009;1.885930448770523E-001;3.143411129713059E-002;-5.035921465605497E-003;-3.694695769809187E-004;
2.409666666666667E+009;1.876731067895889E-001;3.007594496011734E-002;-4.938976373523474E-003;-1.700122811598703E-004;
2.409833333333334E+009;1.866493374109268E-001;2.859121188521385E-002;-5.046865902841091E-003;-9.816263627726585E-005;
2.410000000000000E+009;1.856943815946579E-001;2.692818455398083E-002;-5.060104653239250E-003;-3.684192415676080E-005;
2.410166666666667E+009;1.845192164182663E-001;2.510739490389824E-002;-4.820020869374275E-003;1.024117882479914E-004;
2.410333333333334E+009;1.835647970438004E-001;2.334282547235489E-002;-4.976801574230194E-003;2.822514506988227E-004;
2.410500000000000E+009;1.826613694429398E-001;2.132757939398289E-002;-4.806717857718468E-003;3.023365279659629E-004;
2.410666666666667E+009;1.815457195043564E-001;1.922154612839222E-002;-4.721683450043201E-003;4.587945004459471E-004;
2.410833333333334E+009;1.811178475618362E-001;1.702007651329041E-002;-4.662124440073967E-003;6.416799151338637E-004;
2.411000000000000E+009;1.804574131965637E-001;1.500531099736691E-002;-4.520216956734657E-003;6.886764313094318E-004;
2.411166666666667E+009;1.797230541706085E-001;1.272245496511459E-002;-4.437381401658058E-003;7.072612061165273E-004;
2.411333333333334E+009;1.791604310274124E-001;1.022014208137989E-002;-4.383245017379522E-003;6.878567510284483E-004;
2.411500000000000E+009;1.787417680025101E-001;7.891657762229443E-003;-4.223685245960951E-003;7.755744154565036E-004;
2.411666666666667E+009;1.787046939134598E-001;5.416733678430319E-003;-4.209176637232304E-003;7.448096293956041E-004;
2.411833333333334E+009;1.782538145780563E-001;2.936744363978505E-003;-4.119456745684147E-003;7.857171585783362E-004;
2.412000000000000E+009;1.784648895263672E-001;4.215566732455045E-004;-4.121891222894192E-003;7.332406821660698E-004;
2.412166666666667E+009;1.785178780555725E-001;-1.902651856653392E-003;-4.208104684948921E-003;6.775352521799505E-004;
2.412333333333334E+009;1.786965727806091E-001;-4.525130614638329E-003;-4.058216698467732E-003;6.490402738563716E-004;
2.412500000000000E+009;1.793461143970490E-001;-7.081266958266497E-003;-4.130437038838863E-003;7.361947791650891E-004;
2.412666666666667E+009;1.798679977655411E-001;-9.432109072804451E-003;-4.066537134349346E-003;7.760554435662925E-004;
2.412833333333334E+009;1.806066930294037E-001;-1.206904742866755E-002;-4.091144539415836E-003;7.066287798807025E-004;
2.413000000000000E+009;1.812649518251419E-001;-1.437531132251024E-002;-4.265049472451210E-003;7.338905124925077E-004;
2.413166666666667E+009;1.820639669895172E-001;-1.676507480442524E-002;-4.354400094598532E-003;8.361848304048181E-004;
2.413333333333334E+009;1.832047253847122E-001;-1.891371048986912E-002;-4.409077111631632E-003;9.385409066453576E-004;
2.413500000000000E+009;1.840618252754211E-001;-2.136507257819176E-002;-4.601465072482824E-003;9.612927678972483E-004;
2.413666666666667E+009;1.853301823139191E-001;-2.340958081185818E-002;-4.628600552678108E-003;9.976945584639907E-004;
2.413833333333334E+009;1.863068491220474E-001;-2.538982778787613E-002;-4.680100362747908E-003;1.140786567702889E-003;
2.414000000000000E+009;1.875410974025726E-001;-2.749878540635109E-002;-4.731452092528343E-003;1.339651760645211E-003;
2.414166666666667E+009;1.886880993843079E-001;-2.928659506142139E-002;-4.759481642395258E-003;1.690032659098506E-003;
2.414333333333334E+009;1.898115277290344E-001;-3.131477162241936E-002;-4.625104833394289E-003;1.783540123142302E-003;
2.414500000000000E+009;1.911385357379913E-001;-3.287998214364052E-002;-4.550109151750803E-003;2.066777553409338E-003;
2.414666666666667E+009;1.922177970409393E-001;-3.430466353893280E-002;-4.529735073447228E-003;2.196292392909527E-003;
2.414833333333334E+009;1.933767646551132E-001;-3.574948385357857E-002;-4.536496009677649E-003;2.359068719670177E-003;
2.415000000000000E+009;1.945146173238754E-001;-3.704374283552170E-002;-4.433473106473684E-003;2.531852340325713E-003;
2.415166666666667E+009;1.957760006189346E-001;-3.813674673438072E-002;-4.412650130689144E-003;2.434660680592060E-003;
2.415333333333334E+009;1.968204677104950E-001;-3.906651958823204E-002;-4.469036124646664E-003;2.598208375275135E-003;
2.415500000000000E+009;1.980755776166916E-001;-3.991048038005829E-002;-4.225666169077158E-003;2.897091442719102E-003;
2.415666666666667E+009;1.990428566932678E-001;-4.081596434116364E-002;-4.291516728699207E-003;2.902173902839422E-003;
2.415833333333334E+009;1.998178362846375E-001;-4.131417721509934E-002;-4.159484524279833E-003;2.980000805109739E-003;
2.416000000000000E+009;2.006472796201706E-001;-4.194441810250282E-002;-3.982475027441979E-003;3.223453648388386E-003;
2.416166666666667E+009;2.012683153152466E-001;-4.236460477113724E-002;-3.958810120820999E-003;3.355105407536030E-003;
2.416333333333334E+009;2.020060867071152E-001;-4.269983246922493E-002;-3.841850906610489E-003;3.552971174940467E-003;
2.416500000000000E+009;2.024384438991547E-001;-4.285400360822678E-002;-3.820987418293953E-003;3.606277285143733E-003;
2.416666666666667E+009;2.027150094509125E-001;-4.322940111160278E-002;-3.733875229954720E-003;3.630496095865965E-003;
2.416833333333334E+009;2.027505338191986E-001;-4.314405843615532E-002;-3.672884311527014E-003;3.744799643754959E-003;
2.417000000000000E+009;2.029826939105988E-001;-4.327267780900002E-002;-3.593119094148278E-003;3.911972511559725E-003;
2.417166666666667E+009;2.025654762983322E-001;-4.320432618260384E-002;-3.465695772320032E-003;3.915565554052591E-003;
2.417333333333334E+009;2.024016827344894E-001;-4.301043599843979E-002;-3.336466383188963E-003;4.277267958968878E-003;
2.417500000000000E+009;2.022378593683243E-001;-4.292131960391998E-002;-3.202995751053095E-003;4.382024984806776E-003;
2.417666666666667E+009;2.016510218381882E-001;-4.276214167475700E-002;-3.110212972387672E-003;4.453099798411131E-003;
2.417833333333334E+009;2.013484984636307E-001;-4.255319014191628E-002;-2.831178484484553E-003;4.487990401685238E-003;
2.418000000000000E+009;2.006726264953613E-001;-4.233388602733612E-002;-2.597525250166655E-003;4.733764566481113E-003;
2.418166666666667E+009;1.997489184141159E-001;-4.217068850994110E-002;-2.620111685246229E-003;4.813632927834988E-003;
2.418333333333334E+009;1.989098191261292E-001;-4.204148054122925E-002;-2.378278411924839E-003;4.730387590825558E-003;
2.418500000000000E+009;1.978650391101837E-001;-4.210228845477104E-002;-2.083551604300737E-003;4.885807633399963E-003;
2.418666666666667E+009;1.969868391752243E-001;-4.190744832158089E-002;-2.043377840891480E-003;4.908202216029167E-003;
2.418833333333334E+009;1.956792920827866E-001;-4.217980802059174E-002;-1.837873016484082E-003;4.877273458987474E-003;
2.419000000000000E+009;1.943539232015610E-001;-4.238387942314148E-002;-1.576955080963671E-003;4.761639516800642E-003;
2.419166666666667E+009;1.931453645229340E-001;-4.258232191205025E-002;-1.402440015226603E-003;4.670089110732079E-003;
2.419333333333334E+009;1.917282044887543E-001;-4.311526566743851E-002;-1.222117338329554E-003;4.573307931423187E-003;
2.419500000000000E+009;1.902312785387039E-001;-4.356615245342255E-002;-1.147935516200960E-003;4.535863175988197E-003;
2.419666666666667E+009;1.885289847850800E-001;-4.430688172578812E-002;-1.105080591514707E-003;4.398195538669825E-003;
2.419833333333334E+009;1.869708299636841E-001;-4.492205008864403E-002;-1.069284160621464E-003;4.417161922901869E-003;
2.420000000000000E+009;1.851488798856735E-001;-4.590271040797234E-002;-9.234094177372754E-004;4.329786635935307E-003;
2.420166666666667E+009;1.837348937988281E-001;-4.672620072960854E-002;-9.600703488104045E-004;4.213140811771154E-003;
2.420333333333334E+009;1.820198148488998E-001;-4.786505177617073E-002;-9.007890475913882E-004;4.184925928711891E-003;
2.420500000000000E+009;1.803125739097595E-001;-4.915968701243401E-002;-1.131725381128490E-003;4.242793191224337E-003;
2.420666666666667E+009;1.787114143371582E-001;-5.041917413473129E-002;-1.121267210692167E-003;4.164572805166245E-003;
2.420833333333334E+009;1.770768314599991E-001;-5.190661549568176E-002;-1.135274302214384E-003;4.323179833590984E-003;
2.421000000000000E+009;1.756712347269058E-001;-5.337596684694290E-002;-1.101133064366877E-003;4.358310718089342E-003;
2.421166666666667E+009;1.743767112493515E-001;-5.512978881597519E-002;-1.161499996669591E-003;4.561222624033690E-003;
2.421333333333334E+009;1.725594848394394E-001;-5.669305101037026E-002;-1.084441551938653E-003;4.522118717432022E-003;
2.421500000000000E+009;1.712413430213928E-001;-5.863196402788162E-002;-9.275986230932176E-004;4.726615268737078E-003;
2.421666666666667E+009;1.700745373964310E-001;-6.051643192768097E-002;-8.864432456903160E-004;4.872757475823164E-003;
2.421833333333334E+009;1.689761132001877E-001;-6.232494115829468E-002;-6.935341516509652E-004;4.901599604636431E-003;
2.422000000000000E+009;1.680171340703964E-001;-6.419016420841217E-002;-7.081759977154434E-004;4.942547064274550E-003;
2.422166666666667E+009;1.669889837503433E-001;-6.638254225254059E-002;-6.796160596422851E-004;4.993035458028317E-003;
2.422333333333334E+009;1.659898012876511E-001;-6.843625009059906E-002;-4.020626074634492E-004;5.136548075824976E-003;
2.422500000000000E+009;1.652216017246246E-001;-7.032128423452377E-002;-1.627387246116996E-004;5.197048187255859E-003;
2.422666666666667E+009;1.646853685379028E-001;-7.249683141708374E-002;-9.417725232196972E-005;5.282680504024029E-003;
2.422833333333334E+009;1.642035692930222E-001;-7.450591027736664E-002;-1.281964614463504E-005;5.275222007185221E-003;
2.423000000000000E+009;1.636956930160523E-001;-7.674068212509155E-002;2.456538495607674E-004;5.434561520814896E-003;
2.423166666666667E+009;1.632357686758041E-001;-7.865340262651444E-002;1.698809064691886E-004;5.618565715849400E-003;
2.423333333333334E+009;1.631518900394440E-001;-8.077225834131241E-002;4.806741198990494E-004;5.494954995810986E-003;
2.423500000000000E+009;1.629450768232346E-001;-8.249995857477188E-002;6.576374289579690E-004;5.522646009922028E-003;
2.423666666666667E+009;1.631784141063690E-001;-8.461146801710129E-002;7.062822114676237E-004;5.681976210325956E-003;
2.423833333333334E+009;1.628695726394653E-001;-8.624207973480225E-002;1.000140793621540E-003;5.681374575942755E-003;
2.424000000000000E+009;1.631330251693726E-001;-8.807884901762009E-002;1.259898766875267E-003;5.568709690123797E-003;
2.424166666666667E+009;1.632682979106903E-001;-8.976967632770538E-002;1.615838962607086E-003;5.837178789079189E-003;
2.424333333333334E+009;1.636424809694290E-001;-9.130267053842545E-002;1.565648824907839E-003;5.825380329042673E-003;
2.424500000000000E+009;1.637757122516632E-001;-9.314966201782227E-002;1.767130452208221E-003;5.640394520014525E-003;
2.424666666666667E+009;1.640324592590332E-001;-9.451628476381302E-002;1.921778544783592E-003;5.737472325563431E-003;
2.424833333333334E+009;1.647528558969498E-001;-9.595951437950134E-002;2.187077421694994E-003;5.468571558594704E-003;
2.425000000000000E+009;1.648878008127213E-001;-9.701555222272873E-002;2.473414177075028E-003;5.560003221035004E-003;
2.425166666666667E+009;1.653286367654800E-001;-9.822040051221848E-002;2.539037261158228E-003;5.604640115052462E-003;
2.425333333333334E+009;1.656329035758972E-001;-9.915889054536820E-002;3.026702208444476E-003;5.374798085540533E-003;
2.425500000000000E+009;1.661543250083923E-001;-1.001209840178490E-001;3.189801471307874E-003;5.338003393262625E-003;
2.425666666666667E+009;1.665619611740112E-001;-1.008458733558655E-001;3.510975046083331E-003;5.248927511274815E-003;
2.425833333333334E+009;1.667305678129196E-001;-1.017150431871414E-001;3.572733374312520E-003;5.063608288764954E-003;
2.426000000000000E+009;1.672625392675400E-001;-1.021021679043770E-001;3.743931185454130E-003;4.922040272504091E-003;
2.426166666666667E+009;1.676414906978607E-001;-1.026136279106140E-001;4.137613810598850E-003;4.717863164842129E-003;
2.426333333333334E+009;1.675851941108704E-001;-1.031551733613014E-001;4.115686286240816E-003;4.432656336575747E-003;
2.426500000000000E+009;1.680697947740555E-001;-1.034631878137589E-001;4.212870728224516E-003;4.370196722447872E-003;
2.426666666666667E+009;1.682675331830978E-001;-1.036199033260346E-001;4.286205861717463E-003;4.134963266551495E-003;
2.426833333333334E+009;1.683616489171982E-001;-1.039985790848732E-001;4.471829161047936E-003;3.931440878659487E-003;
2.427000000000000E+009;1.684332042932510E-001;-1.041380688548088E-001;4.639540333300829E-003;3.786745248362422E-003;
2.427166666666667E+009;1.685565710067749E-001;-1.041911467909813E-001;4.660214297473431E-003;3.623903263360262E-003;
2.427333333333334E+009;1.682251095771790E-001;-1.044853106141090E-001;4.789802711457014E-003;3.481573890894651E-003;
2.427500000000000E+009;1.679756045341492E-001;-1.045578718185425E-001;4.651865456253290E-003;3.127927891910076E-003;
2.427666666666667E+009;1.676191687583923E-001;-1.046020239591599E-001;4.810227081179619E-003;3.103824099525809E-003;
