# Version 1.00
#
freq[Hz];re:Trc1_S11;im:Trc1_S11;re:Trc2_S21;im:Trc2_S21;
2.400000000000000E+009;1.608578264713287E-001;5.648794397711754E-002;-7.089097052812576E-004;3.024087054654956E-003;
2.400166666666667E+009;1.609618961811066E-001;5.504697561264038E-002;-6.903434405103326E-004;3.146299393847585E-003;
2.400333333333334E+009;1.609346568584442E-001;5.314695835113525E-002;-6.012912490405142E-004;3.256562864407897E-003;
2.400500000000000E+009;1.611781418323517E-001;5.140708386898041E-002;-4.756166308652610E-004;3.343452466651797E-003;
2.400666666666667E+009;1.612018942832947E-001;4.953365772962570E-002;-3.242478414904326E-004;3.275972092524171E-003;
2.400833333333334E+009;1.614713817834854E-001;4.784129932522774E-002;-1.489988499088213E-004;3.267824184149504E-003;
2.401000000000000E+009;1.616594940423966E-001;4.585683718323708E-002;1.422755940438947E-005;3.414789913222194E-003;
2.401166666666667E+009;1.618379801511765E-001;4.399994388222694E-002;3.100778558291495E-004;3.534199204295874E-003;
2.401333333333334E+009;1.620764583349228E-001;4.217463359236717E-002;3.302422119304538E-004;3.394177183508873E-003;
2.401500000000000E+009;1.625883132219315E-001;4.036660492420197E-002;5.208127549849451E-004;3.660217160359025E-003;
2.401666666666667E+009;1.627798974514008E-001;3.871038556098938E-002;7.046215469017625E-004;3.573152236640453E-003;
2.401833333333334E+009;1.631105840206146E-001;3.651323169469833E-002;9.139389148913324E-004;3.626955905929208E-003;
2.402000000000000E+009;1.635670959949493E-001;3.494640439748764E-002;1.145029673352838E-003;3.427836811169982E-003;
2.402166666666667E+009;1.639346480369568E-001;3.312741965055466E-002;1.252541202120483E-003;3.537194570526481E-003;
2.402333333333334E+009;1.643791198730469E-001;3.143973276019096E-002;1.367857796140015E-003;3.512270515784621E-003;
2.402500000000000E+009;1.651622205972672E-001;3.010399639606476E-002;1.492185052484274E-003;3.400516230612993E-003;
2.402666666666667E+009;1.656944602727890E-001;2.850650437176228E-002;1.749222632497549E-003;3.267671912908554E-003;
2.402833333333334E+009;1.662072539329529E-001;2.703409083187580E-002;2.000118140131235E-003;3.342345589771867E-003;
2.403000000000000E+009;1.669181138277054E-001;2.565347403287888E-002;2.132167574018240E-003;3.108592471107841E-003;
2.403166666666667E+009;1.676558852195740E-001;2.434109337627888E-002;2.325240988284349E-003;2.994847483932972E-003;
2.403333333333334E+009;1.682184785604477E-001;2.290963754057884E-002;2.248598961159587E-003;2.839726395905018E-003;
2.403500000000000E+009;1.690266281366348E-001;2.173459902405739E-002;2.467239974066615E-003;2.752868458628655E-003;
2.403666666666667E+009;1.696424782276154E-001;2.059935964643955E-002;2.462900709360838E-003;2.529885154217482E-003;
2.403833333333334E+009;1.705194413661957E-001;1.932531781494618E-002;2.610080409795046E-003;2.607244998216629E-003;
2.404000000000000E+009;1.712123155593872E-001;1.830461248755455E-002;2.577231964096427E-003;2.475282642990351E-003;
2.404166666666667E+009;1.718758195638657E-001;1.734187267720699E-002;2.694777678698301E-003;2.174526685848832E-003;
2.404333333333334E+009;1.725466847419739E-001;1.631348021328449E-002;2.766060410067439E-003;2.200747141614556E-003;
2.404500000000000E+009;1.732524633407593E-001;1.535712648183107E-002;2.875135047361255E-003;1.999081810936332E-003;
2.404666666666667E+009;1.737499535083771E-001;1.466215215623379E-002;2.740970812737942E-003;1.818257384002209E-003;
2.404833333333334E+009;1.745487749576569E-001;1.386587880551815E-002;2.850021701306105E-003;1.788632594980300E-003;
2.405000000000000E+009;1.751490682363510E-001;1.333188451826572E-002;3.070046426728368E-003;1.594200031831861E-003;
2.405166666666667E+009;1.757437437772751E-001;1.263577211648226E-002;2.958821598440409E-003;1.594712492078543E-003;
2.405333333333334E+009;1.762523949146271E-001;1.193686481565237E-002;2.744587138295174E-003;1.474995980970562E-003;
2.405500000000000E+009;1.766499578952789E-001;1.159372646361589E-002;2.861554734408855E-003;1.306405523791909E-003;
2.405666666666667E+009;1.771512329578400E-001;1.109037641435862E-002;2.835338003933430E-003;1.386847812682390E-003;
2.405833333333334E+009;1.773294806480408E-001;1.068811118602753E-002;3.014622721821070E-003;1.283145043998957E-003;
2.406000000000000E+009;1.777383238077164E-001;1.007771492004395E-002;2.948764245957136E-003;1.137406914494932E-003;
2.406166666666667E+009;1.780157685279846E-001;9.745711460709572E-003;3.043857635930181E-003;1.102698035538197E-003;
2.406333333333334E+009;1.783089488744736E-001;9.429274126887322E-003;2.974176546558738E-003;1.216756179928780E-003;
2.406500000000000E+009;1.783485859632492E-001;8.902179077267647E-003;3.099886234849691E-003;9.812125936150551E-004;
2.406666666666667E+009;1.782052218914032E-001;8.555252104997635E-003;2.934167860075831E-003;1.060338225215673E-003;
2.406833333333334E+009;1.783544123172760E-001;8.104140870273113E-003;2.996882656589150E-003;9.277916396968067E-004;
2.407000000000000E+009;1.784122735261917E-001;7.475529797375202E-003;3.138068132102490E-003;8.774780435487628E-004;
2.407166666666667E+009;1.783105134963989E-001;7.170709781348705E-003;3.071121405810118E-003;6.227144622243941E-004;
2.407333333333334E+009;1.779916137456894E-001;6.557420361787081E-003;3.181701526045799E-003;5.543423467315733E-004;
2.407500000000000E+009;1.779335141181946E-001;5.985788069665432E-003;2.953967079520226E-003;4.316756385378540E-004;
2.407666666666667E+009;1.775908768177033E-001;5.357988644391298E-003;3.200077218934894E-003;4.491049912758172E-004;
2.407833333333334E+009;1.771796494722366E-001;4.541944712400436E-003;3.131067380309105E-003;2.992059162352234E-004;
2.408000000000000E+009;1.769073009490967E-001;3.825636813417077E-003;3.248033579438925E-003;9.790145122678950E-005;
2.408166666666667E+009;1.763481944799423E-001;3.192136529833078E-003;3.211205126717687E-003;2.063485735561699E-004;
2.408333333333334E+009;1.761189848184586E-001;2.243243623524904E-003;3.294834401458502E-003;-1.622236450202763E-004;
2.408500000000000E+009;1.755692362785339E-001;1.268702442757785E-003;3.234777133911848E-003;-3.082698458456434E-005;
2.408666666666667E+009;1.750706434249878E-001;2.674427523743361E-004;3.180345054715872E-003;-8.147498738253489E-005;
2.408833333333334E+009;1.744168251752853E-001;-8.349603158421814E-004;3.153023077175021E-003;-1.817821903387085E-004;
2.409000000000000E+009;1.738335043191910E-001;-1.949338475242257E-003;3.193023148924112E-003;-3.384463489055634E-004;
2.409166666666667E+009;1.733353435993195E-001;-3.305557416751981E-003;3.269467270001769E-003;-4.104498366359621E-004;
2.409333333333334E+009;1.728760451078415E-001;-4.600703250616789E-003;3.210097318515182E-003;-3.342113341204822E-004;
2.409500000000000E+009;1.720901578664780E-001;-6.025795824825764E-003;3.155440790578723E-003;-4.474615270737559E-004;
2.409666666666667E+009;1.716323643922806E-001;-7.434431463479996E-003;3.088143188506365E-003;-6.192075088620186E-004;
2.409833333333334E+009;1.710163801908493E-001;-8.766197599470615E-003;3.123124130070210E-003;-7.119917427189648E-004;
2.410000000000000E+009;1.706687957048416E-001;-1.037752442061901E-002;3.161685774102807E-003;-6.639655912294984E-004;
2.410166666666667E+009;1.701394021511078E-001;-1.194802019745112E-002;3.032018430531025E-003;-9.133617859333754E-004;
2.410333333333334E+009;1.696426868438721E-001;-1.381206326186657E-002;2.982052275910974E-003;-8.364289533346891E-004;
2.410500000000000E+009;1.694296151399612E-001;-1.534565724432468E-002;3.056017681956291E-003;-9.090665844269097E-004;
2.410666666666667E+009;1.690112054347992E-001;-1.729268766939640E-002;3.022760385647416E-003;-1.008221996016800E-003;
2.410833333333334E+009;1.687007248401642E-001;-1.886594668030739E-002;3.012294881045818E-003;-1.033249543979764E-003;
2.411000000000000E+009;1.685060262680054E-001;-2.073229476809502E-002;3.027206286787987E-003;-1.129882992245257E-003;
2.411166666666667E+009;1.683173179626465E-001;-2.266470342874527E-002;3.171036718413234E-003;-1.315880217589438E-003;
2.411333333333334E+009;1.682985424995422E-001;-2.430710382759571E-002;3.073262982070446E-003;-1.242405269294977E-003;
2.411500000000000E+009;1.681051999330521E-001;-2.638678811490536E-002;3.020238596946001E-003;-1.602265401743352E-003;
2.411666666666667E+009;1.681699901819229E-001;-2.820776402950287E-002;2.934884978458285E-003;-1.501629711128771E-003;
2.411833333333334E+009;1.683050990104675E-001;-3.004020079970360E-002;3.148263087496162E-003;-1.672542188316584E-003;
2.412000000000000E+009;1.684537529945374E-001;-3.194588422775269E-002;3.020408563315868E-003;-1.901280949823558E-003;
2.412166666666667E+009;1.684358417987824E-001;-3.379759937524796E-002;2.953500486910343E-003;-1.940962509252131E-003;
2.412333333333334E+009;1.690125465393066E-001;-3.551102802157402E-002;3.006353275850415E-003;-2.017479622736573E-003;
2.412500000000000E+009;1.691586822271347E-001;-3.737957403063774E-002;3.083455841988325E-003;-2.021185588091612E-003;
2.412666666666667E+009;1.693183183670044E-001;-3.935310244560242E-002;2.949672983959317E-003;-2.256434643641114E-003;
2.412833333333334E+009;1.696816831827164E-001;-4.101952537894249E-002;2.614208729937673E-003;-2.509454730898142E-003;
2.413000000000000E+009;1.701223105192184E-001;-4.263052344322205E-002;2.602473134174943E-003;-2.461145864799619E-003;
2.413166666666667E+009;1.705168783664703E-001;-4.432248324155808E-002;2.667864551767707E-003;-2.683841856196523E-003;
2.413333333333334E+009;1.708675622940064E-001;-4.579017311334610E-002;2.588059986010194E-003;-2.809420228004456E-003;
2.413500000000000E+009;1.714505404233933E-001;-4.736206680536270E-002;2.316426951438189E-003;-3.092984203249216E-003;
2.413666666666667E+009;1.720366030931473E-001;-4.886282980442047E-002;2.177205868065357E-003;-3.209456801414490E-003;
2.413833333333334E+009;1.723086237907410E-001;-4.999937862157822E-002;2.112183719873428E-003;-3.190722316503525E-003;
2.414000000000000E+009;1.727425754070282E-001;-5.149869993329048E-002;1.839885255321860E-003;-3.174327779561281E-003;
2.414166666666667E+009;1.732167452573776E-001;-5.244698375463486E-002;1.647792989388108E-003;-3.252572612836957E-003;
2.414333333333334E+009;1.736438423395157E-001;-5.362176895141602E-002;1.663093455135822E-003;-3.602409735321999E-003;
2.414500000000000E+009;1.744582653045654E-001;-5.459575355052948E-002;1.498853554949164E-003;-3.440633881837130E-003;
2.414666666666667E+009;1.747519820928574E-001;-5.555306747555733E-002;1.269040978513658E-003;-3.557690884917975E-003;
2.414833333333334E+009;1.750944852828980E-001;-5.665170028805733E-002;1.092414953745902E-003;-3.465010551735759E-003;
2.415000000000000E+009;1.753530353307724E-001;-5.724579095840454E-002;1.050358521752060E-003;-3.400105983018875E-003;
2.415166666666667E+009;1.758322715759277E-001;-5.795340240001679E-002;8.052262710407376E-004;-3.496010554954410E-003;
2.415333333333334E+009;1.761010140180588E-001;-5.866054445505142E-002;5.785303073935211E-004;-3.447134280577302E-003;
2.415500000000000E+009;1.763390004634857E-001;-5.929921194911003E-002;3.957366279792041E-004;-3.403082955628634E-003;
2.415666666666667E+009;1.763570755720139E-001;-5.961384996771812E-002;3.111491678282619E-004;-3.384235315024853E-003;
2.415833333333334E+009;1.766934543848038E-001;-6.022242456674576E-002;3.368431644048542E-004;-3.358373884111643E-003;
2.416000000000000E+009;1.764854639768601E-001;-6.063025817275047E-002;1.803979830583558E-004;-3.470313036814332E-003;
2.416166666666667E+009;1.766687333583832E-001;-6.090059503912926E-002;-5.807567140436731E-005;-3.467241069301963E-003;
2.416333333333334E+009;1.764359474182129E-001;-6.119196116924286E-002;-1.142695400631055E-004;-3.222431521862745E-003;
2.416500000000000E+009;1.761862039566040E-001;-6.156191602349281E-002;-2.825284900609404E-004;-3.153645200654864E-003;
2.416666666666667E+009;1.759090572595596E-001;-6.180078536272049E-002;-4.376114811748266E-004;-3.211263334378600E-003;
2.416833333333334E+009;1.756594777107239E-001;-6.211776286363602E-002;-4.918960621580482E-004;-3.006733721122146E-003;
2.417000000000000E+009;1.749754250049591E-001;-6.235517561435700E-002;-4.958124482072890E-004;-2.994543174281716E-003;
2.417166666666667E+009;1.745434105396271E-001;-6.235806643962860E-002;-4.844706854782999E-004;-2.945980289950967E-003;
2.417333333333334E+009;1.739758551120758E-001;-6.263187527656555E-002;-6.931208190508187E-004;-2.792691811919212E-003;
2.417500000000000E+009;1.732014715671539E-001;-6.314425915479660E-002;-7.095371838659048E-004;-2.822862705215812E-003;
2.417666666666667E+009;1.725502163171768E-001;-6.320515275001526E-002;-6.716339848935604E-004;-2.622880041599274E-003;
2.417833333333334E+009;1.716397404670715E-001;-6.335360556840897E-002;-7.715410320088267E-004;-2.571994438767433E-003;
2.418000000000000E+009;1.707076728343964E-001;-6.395807862281799E-002;-9.209775598719716E-004;-2.546584699302912E-003;
2.418166666666667E+009;1.698011308908463E-001;-6.413401663303375E-002;-9.332730551250279E-004;-2.493100473657250E-003;
2.418333333333334E+009;1.689213663339615E-001;-6.456292420625687E-002;-8.252089028246701E-004;-2.335819648578763E-003;
2.418500000000000E+009;1.677416712045670E-001;-6.511417031288147E-002;-1.057303277775645E-003;-2.411808120086789E-003;
2.418666666666667E+009;1.667138785123825E-001;-6.550586223602295E-002;-8.762030629441142E-004;-2.366717671975493E-003;
2.418833333333334E+009;1.654138267040253E-001;-6.602791696786881E-002;-1.032392960041761E-003;-2.271062694489956E-003;
2.419000000000000E+009;1.642149090766907E-001;-6.667660176753998E-002;-1.032852916978300E-003;-2.223390387371182E-003;
2.419166666666667E+009;1.630409508943558E-001;-6.746283173561096E-002;-9.646115358918905E-004;-2.098026685416699E-003;
2.419333333333334E+009;1.618256568908691E-001;-6.793022900819778E-002;-1.136958831921220E-003;-2.053198404610157E-003;
2.419500000000000E+009;1.608327329158783E-001;-6.884053349494934E-002;-1.140476088039577E-003;-2.012109151110053E-003;
2.419666666666667E+009;1.595707833766937E-001;-6.995743513107300E-002;-1.279904390685260E-003;-1.841982826590538E-003;
2.419833333333334E+009;1.582549363374710E-001;-7.079609483480454E-002;-1.140451175160706E-003;-1.939644920639694E-003;
2.420000000000000E+009;1.573821455240250E-001;-7.180359959602356E-002;-1.166652655228972E-003;-1.987841213122010E-003;
2.420166666666667E+009;1.561170220375061E-001;-7.293798029422760E-002;-1.049309619702399E-003;-1.876636990346015E-003;
2.420333333333334E+009;1.551327854394913E-001;-7.415203750133514E-002;-1.274332753382623E-003;-1.812365488149226E-003;
2.420500000000000E+009;1.542262881994247E-001;-7.523829489946365E-002;-1.259420416317880E-003;-1.608541468158364E-003;
2.420666666666667E+009;1.531956791877747E-001;-7.659402489662170E-002;-1.158714061602950E-003;-1.709398580715060E-003;
2.420833333333334E+009;1.522047817707062E-001;-7.791379094123840E-002;-1.179423183202744E-003;-1.697664731182158E-003;
2.421000000000000E+009;1.512243598699570E-001;-7.938274741172791E-002;-1.339325099252164E-003;-1.590545871295035E-003;
2.421166666666667E+009;1.506111472845078E-001;-8.096552640199661E-002;-1.469179987907410E-003;-1.617777743376792E-003;
2.421333333333334E+009;1.498362869024277E-001;-8.245959877967835E-002;-1.282759942114353E-003;-1.501243095844984E-003;
2.421500000000000E+009;1.491892039775848E-001;-8.399593085050583E-002;-1.382607501000166E-003;-1.574605586938560E-003;
2.421666666666667E+009;1.487116515636444E-001;-8.565486222505570E-002;-1.281665870919824E-003;-1.387550146318972E-003;
2.421833333333334E+009;1.482561081647873E-001;-8.733983337879181E-002;-1.084694289602339E-003;-1.583552220836282E-003;
2.422000000000000E+009;1.477101594209671E-001;-8.900053054094315E-002;-1.311865518800914E-003;-1.429317635484040E-003;
2.422166666666667E+009;1.474548131227493E-001;-9.078754484653473E-002;-1.206967863254249E-003;-1.376821892336011E-003;
2.422333333333334E+009;1.470941752195358E-001;-9.231971204280853E-002;-1.262419042177498E-003;-1.293889130465686E-003;
2.422500000000000E+009;1.469641327857971E-001;-9.408093243837357E-002;-1.183094223961234E-003;-1.494477619417012E-003;
2.422666666666667E+009;1.467160135507584E-001;-9.586700052022934E-002;-9.865295141935349E-004;-1.302851596847177E-003;
2.422833333333334E+009;1.467122733592987E-001;-9.750240296125412E-002;-1.084734103642404E-003;-1.530241104774177E-003;
2.423000000000000E+009;1.467720121145248E-001;-9.908736497163773E-002;-9.494547266513109E-004;-1.434040837921202E-003;
2.423166666666667E+009;1.469385921955109E-001;-1.008223220705986E-001;-1.126881339587271E-003;-1.451523043215275E-003;
2.423333333333334E+009;1.471117734909058E-001;-1.021051555871964E-001;-1.097655738703907E-003;-1.365797477774322E-003;
2.423500000000000E+009;1.471681296825409E-001;-1.037763580679894E-001;-1.196682103909552E-003;-1.502233091741800E-003;
2.423666666666667E+009;1.473840624094009E-001;-1.053924635052681E-001;-1.293162000365555E-003;-1.660385285504162E-003;
2.423833333333334E+009;1.477533727884293E-001;-1.069284975528717E-001;-1.296317204833031E-003;-1.398409134708345E-003;
2.424000000000000E+009;1.481200456619263E-001;-1.080894470214844E-001;-1.110694953240454E-003;-1.601217198185623E-003;
2.424166666666667E+009;1.483367681503296E-001;-1.093875318765640E-001;-1.347813406027854E-003;-1.644104020670056E-003;
2.424333333333334E+009;1.487946063280106E-001;-1.105063930153847E-001;-1.368076773360372E-003;-1.493857591412962E-003;
2.424500000000000E+009;1.490682363510132E-001;-1.117715910077095E-001;-1.439324114471674E-003;-1.591821666806936E-003;
2.424666666666667E+009;1.495721638202667E-001;-1.126121431589127E-001;-1.510164933279157E-003;-1.694431412033737E-003;
2.424833333333334E+009;1.497803479433060E-001;-1.139320135116577E-001;-1.560265081934631E-003;-1.759187784045935E-003;
2.425000000000000E+009;1.501535624265671E-001;-1.148466169834137E-001;-1.816916163079441E-003;-1.728028873912990E-003;
2.425166666666667E+009;1.504364460706711E-001;-1.156232953071594E-001;-1.630449551157653E-003;-1.612026710063219E-003;
2.425333333333334E+009;1.507789194583893E-001;-1.164149791002274E-001;-1.729491516016424E-003;-1.633282518014312E-003;
2.425500000000000E+009;1.511452198028565E-001;-1.171890571713448E-001;-1.979539170861244E-003;-1.439667190425098E-003;
2.425666666666667E+009;1.512135118246079E-001;-1.178642734885216E-001;-1.905155018903315E-003;-1.653341110795736E-003;
2.425833333333334E+009;1.514705568552017E-001;-1.184241920709610E-001;-1.999417552724481E-003;-1.436654827557504E-003;
2.426000000000000E+009;1.515534669160843E-001;-1.189546957612038E-001;-2.017706632614136E-003;-1.465786481276155E-003;
2.426166666666667E+009;1.517872065305710E-001;-1.193061918020248E-001;-2.131726127117872E-003;-1.444930210709572E-003;
2.426333333333334E+009;1.517447978258133E-001;-1.197234913706780E-001;-2.200722694396973E-003;-1.388594973832369E-003;
2.426500000000000E+009;1.517927795648575E-001;-1.200152039527893E-001;-2.165380865335465E-003;-1.352162566035986E-003;
2.426666666666667E+009;1.517113000154495E-001;-1.202457100152969E-001;-2.348259789869189E-003;-1.118138898164034E-003;
2.426833333333334E+009;1.515190899372101E-001;-1.205530837178230E-001;-2.392231952399015E-003;-1.136713661253452E-003;
2.427000000000000E+009;1.511724889278412E-001;-1.208082139492035E-001;-2.456986811012030E-003;-1.081947586499155E-003;
2.427166666666667E+009;1.508371531963348E-001;-1.208424270153046E-001;-2.571627032011747E-003;-9.218306513503194E-004;
2.427333333333334E+009;1.502708345651627E-001;-1.211417764425278E-001;-2.554582897573710E-003;-9.225108660757542E-004;
2.427500000000000E+009;1.499247848987579E-001;-1.211201548576355E-001;-2.499457215890288E-003;-8.616942213848233E-004;
2.427666666666667E+009;1.492119580507278E-001;-1.213029772043228E-001;-2.686642110347748E-003;-8.154925890266895E-004;
