# Version 1.00
#
freq[Hz];re:Trc1_S11;im:Trc1_S11;re:Trc2_S21;im:Trc2_S21;
2.400000000000000E+009;1.607550531625748E-001;5.672294273972511E-002;-7.662728894501925E-004;2.928053960204125E-003;
2.400166666666667E+009;1.609626412391663E-001;5.520956218242645E-002;-5.763460649177432E-004;3.146708477288485E-003;
2.400333333333334E+009;1.609357297420502E-001;5.317069590091705E-002;-5.198400467634201E-004;3.268670989200473E-003;
2.400500000000000E+009;1.611108630895615E-001;5.152785778045654E-002;-3.872716333717108E-004;3.261156147345901E-003;
2.400666666666667E+009;1.611442267894745E-001;4.953642562031746E-002;-2.967276668641716E-004;3.267418593168259E-003;
2.400833333333334E+009;1.615064442157745E-001;4.796083644032478E-002;-1.642675342736766E-004;3.549945307895541E-003;
2.401000000000000E+009;1.615936607122421E-001;4.609975218772888E-002;5.078680260339752E-005;3.554539289325476E-003;
2.401166666666667E+009;1.618387252092362E-001;4.404689744114876E-002;1.832253619795665E-004;3.709533950313926E-003;
2.401333333333334E+009;1.619804799556732E-001;4.211958497762680E-002;2.075693191727623E-004;3.655885579064488E-003;
2.401500000000000E+009;1.624307930469513E-001;4.030867293477058E-002;4.693374503403902E-004;3.606079379096627E-003;
2.401666666666667E+009;1.627874672412872E-001;3.858856856822968E-002;6.995693547651172E-004;3.715797327458859E-003;
2.401833333333334E+009;1.631476134061813E-001;3.655321523547173E-002;6.936426507309079E-004;3.559459000825882E-003;
2.402000000000000E+009;1.634500175714493E-001;3.513499721884728E-002;1.015615067444742E-003;3.680173540487886E-003;
2.402166666666667E+009;1.639638692140579E-001;3.324231132864952E-002;1.111882855184376E-003;3.537042066454887E-003;
2.402333333333334E+009;1.642841845750809E-001;3.169701620936394E-002;1.286174869164825E-003;3.473497694358230E-003;
2.402500000000000E+009;1.650654673576355E-001;3.005705960094929E-002;1.538172131404281E-003;3.522976068779826E-003;
2.402666666666667E+009;1.657246351242065E-001;2.860841900110245E-002;1.591601292602718E-003;3.540013451129198E-003;
2.402833333333334E+009;1.661664098501205E-001;2.697358839213848E-002;1.742048189043999E-003;3.358770161867142E-003;
2.403000000000000E+009;1.667752712965012E-001;2.548542805016041E-002;2.067741705104709E-003;3.399987239390612E-003;
2.403166666666667E+009;1.676333993673325E-001;2.424655482172966E-002;2.002661814913154E-003;3.091006306931377E-003;
2.403333333333334E+009;1.684091538190842E-001;2.284902706742287E-002;2.094305120408535E-003;3.176900558173657E-003;
2.403500000000000E+009;1.690030992031097E-001;2.164484374225140E-002;2.340849023312330E-003;3.013949375599623E-003;
2.403666666666667E+009;1.697766780853272E-001;2.040125802159309E-002;2.379784593358636E-003;2.819492714479566E-003;
2.403833333333334E+009;1.706013828516007E-001;1.925582624971867E-002;2.527215285226703E-003;2.759202849119902E-003;
2.404000000000000E+009;1.712997704744339E-001;1.814478449523449E-002;2.716138027608395E-003;2.517885528504849E-003;
2.404166666666667E+009;1.719044744968414E-001;1.722043193876743E-002;2.786465687677264E-003;2.447305014356971E-003;
2.404333333333334E+009;1.725931763648987E-001;1.632973365485668E-002;2.943706000223756E-003;2.436137991026044E-003;
2.404500000000000E+009;1.731715202331543E-001;1.538331620395184E-002;2.855469472706318E-003;2.255562460049987E-003;
2.404666666666667E+009;1.738697886466980E-001;1.466474961489439E-002;2.807691227644682E-003;2.149641280993819E-003;
2.404833333333334E+009;1.745219975709915E-001;1.383602526038885E-002;2.848305972293019E-003;1.779090962372720E-003;
2.405000000000000E+009;1.751728802919388E-001;1.322335749864578E-002;2.922330284491181E-003;2.063499065116048E-003;
2.405166666666667E+009;1.755729764699936E-001;1.256799604743719E-002;3.083078190684319E-003;1.943380804732442E-003;
2.405333333333334E+009;1.762027442455292E-001;1.204181555658579E-002;3.062516218051314E-003;1.723675522953272E-003;
2.405500000000000E+009;1.766653209924698E-001;1.149713713675737E-002;3.044764045625925E-003;1.487880479544401E-003;
2.405666666666667E+009;1.770648807287216E-001;1.096076238900423E-002;3.023736644536257E-003;1.521213329397142E-003;
2.405833333333334E+009;1.773580908775330E-001;1.055358164012432E-002;3.094929736107588E-003;1.418238738551736E-003;
2.406000000000000E+009;1.778340786695480E-001;1.009834092110395E-002;3.043778473511338E-003;1.334260916337371E-003;
2.406166666666667E+009;1.779242157936096E-001;9.775565005838871E-003;2.914345124736428E-003;1.224720384925604E-003;
2.406333333333334E+009;1.782759428024292E-001;9.305652230978012E-003;3.172237426042557E-003;1.202621613629162E-003;
2.406500000000000E+009;1.783307045698166E-001;8.742308244109154E-003;2.986268606036902E-003;1.109056524001062E-003;
2.406666666666667E+009;1.782149374485016E-001;8.468449115753174E-003;3.250992391258478E-003;1.033606939017773E-003;
2.406833333333334E+009;1.784093827009201E-001;8.049640804529190E-003;3.212749958038330E-003;1.032862928695977E-003;
2.407000000000000E+009;1.782818883657455E-001;7.599590346217156E-003;3.088024677708745E-003;9.739790693856776E-004;
2.407166666666667E+009;1.782661527395248E-001;7.273476570844650E-003;3.346025710925460E-003;6.714836345054209E-004;
2.407333333333334E+009;1.779307872056961E-001;6.516895722597837E-003;3.296141279861331E-003;6.840692949481309E-004;
2.407500000000000E+009;1.777900308370590E-001;6.001959554851055E-003;3.360729198902845E-003;5.335608148016036E-004;
2.407666666666667E+009;1.775956302881241E-001;5.475830752402544E-003;3.431837540119886E-003;6.404407322406769E-004;
2.407833333333334E+009;1.771044135093689E-001;4.531561397016048E-003;3.585761878639460E-003;4.279798304196447E-004;
2.408000000000000E+009;1.766526252031326E-001;3.853379981592298E-003;3.456842387095094E-003;3.802627907134593E-004;
2.408166666666667E+009;1.763901412487030E-001;3.146674949675798E-003;3.459198633208871E-003;2.061015256913379E-004;
2.408333333333334E+009;1.761307120323181E-001;2.278173342347145E-003;3.363925497978926E-003;1.403870992362499E-004;
2.408500000000000E+009;1.755091696977615E-001;1.203967723995447E-003;3.445192938670516E-003;8.836362394504249E-005;
2.408666666666667E+009;1.750303506851196E-001;2.539233537390828E-004;3.229234134778380E-003;5.570675784838386E-005;
2.408833333333334E+009;1.743112355470657E-001;-7.861280464567244E-004;3.312028478831053E-003;-1.791923277778551E-004;
2.409000000000000E+009;1.736997514963150E-001;-2.097633900120854E-003;3.356838133186102E-003;-2.283563953824341E-004;
2.409166666666667E+009;1.731853485107422E-001;-3.203317755833268E-003;3.397101070731878E-003;-3.971626283600926E-004;
2.409333333333334E+009;1.727234572172165E-001;-4.402388352900744E-003;3.418796695768833E-003;-3.572780115064234E-004;
2.409500000000000E+009;1.722344607114792E-001;-6.131024099886417E-003;3.301656804978848E-003;-4.762657335959375E-004;
2.409666666666667E+009;1.715467423200607E-001;-7.387314457446337E-003;3.316248301416636E-003;-5.852009635418654E-004;
2.409833333333334E+009;1.710378378629684E-001;-8.885917253792286E-003;3.258258337154985E-003;-6.324204150587320E-004;
2.410000000000000E+009;1.707048416137695E-001;-1.038500107824802E-002;3.254809882491827E-003;-6.922949687577784E-004;
2.410166666666667E+009;1.701009422540665E-001;-1.187148783355951E-002;3.237358992919326E-003;-7.348117069341242E-004;
2.410333333333334E+009;1.696420609951019E-001;-1.362384017556906E-002;3.344251075759530E-003;-8.387239067815244E-004;
2.410500000000000E+009;1.693941652774811E-001;-1.536596100777388E-002;3.229204798117280E-003;-8.634735131636262E-004;
2.410666666666667E+009;1.688177585601807E-001;-1.730172894895077E-002;3.226701170206070E-003;-1.031299238093197E-003;
2.410833333333334E+009;1.686203032732010E-001;-1.893684826791287E-002;3.299305913969874E-003;-1.140975626185536E-003;
2.411000000000000E+009;1.685716807842255E-001;-2.083081007003784E-002;3.402269212529063E-003;-1.222740625962615E-003;
2.411166666666667E+009;1.682916581630707E-001;-2.276609092950821E-002;3.267354331910610E-003;-1.267972518689930E-003;
2.411333333333334E+009;1.680999398231506E-001;-2.449983358383179E-002;3.360390663146973E-003;-1.259938930161297E-003;
2.411500000000000E+009;1.678620874881744E-001;-2.646779268980026E-002;3.111811354756355E-003;-1.492731622420251E-003;
2.411666666666667E+009;1.682427078485489E-001;-2.824843861162663E-002;3.388597397133708E-003;-1.469929935410619E-003;
2.411833333333334E+009;1.680915504693985E-001;-2.992358617484570E-002;3.275645663961768E-003;-1.765625784173608E-003;
2.412000000000000E+009;1.683351248502731E-001;-3.202733024954796E-002;3.217362798750401E-003;-1.859386917203665E-003;
2.412166666666667E+009;1.682550758123398E-001;-3.380290418863297E-002;3.305840073153377E-003;-1.979613443836570E-003;
2.412333333333334E+009;1.687852591276169E-001;-3.566139563918114E-002;3.091678954660893E-003;-2.258136402815580E-003;
2.412500000000000E+009;1.688365936279297E-001;-3.738665953278542E-002;3.000348107889295E-003;-2.366865519434214E-003;
2.412666666666667E+009;1.693385243415833E-001;-3.924022614955902E-002;2.991210902109742E-003;-2.455445006489754E-003;
2.412833333333334E+009;1.697439551353455E-001;-4.081480205059052E-002;2.896230202168226E-003;-2.490678103640676E-003;
2.413000000000000E+009;1.699938178062439E-001;-4.257065802812576E-002;2.811056096106768E-003;-2.740553347393870E-003;
2.413166666666667E+009;1.703373938798904E-001;-4.428001120686531E-002;2.695681760087609E-003;-2.750665415078402E-003;
2.413333333333334E+009;1.708366423845291E-001;-4.577429965138435E-002;2.745401812717319E-003;-2.874959260225296E-003;
2.413500000000000E+009;1.712905615568161E-001;-4.729857295751572E-002;2.481764182448387E-003;-3.050808794796467E-003;
2.413666666666667E+009;1.719052493572235E-001;-4.880843311548233E-002;2.312890952453017E-003;-3.132663434371352E-003;
2.413833333333334E+009;1.722483783960342E-001;-5.015329644083977E-002;2.172689419239759E-003;-3.196394070982933E-003;
2.414000000000000E+009;1.726924628019333E-001;-5.141254514455795E-002;2.063320484012365E-003;-3.331562504172325E-003;
2.414166666666667E+009;1.733665317296982E-001;-5.238566175103188E-002;1.931750099174678E-003;-3.570114495232701E-003;
2.414333333333334E+009;1.737374812364578E-001;-5.368677526712418E-002;1.785936183296144E-003;-3.590111620724201E-003;
2.414500000000000E+009;1.742394417524338E-001;-5.471944063901901E-002;1.469330280087888E-003;-3.507828339934349E-003;
2.414666666666667E+009;1.745526641607285E-001;-5.559204891324043E-002;1.286176615394652E-003;-3.558769123628736E-003;
2.414833333333334E+009;1.749515533447266E-001;-5.648300051689148E-002;1.132520497776568E-003;-3.551308531314135E-003;
2.415000000000000E+009;1.755183637142181E-001;-5.729104578495026E-002;9.407632751390338E-004;-3.545532701537013E-003;
2.415166666666667E+009;1.756364256143570E-001;-5.804460123181343E-002;7.624224526807666E-004;-3.665680298581719E-003;
2.415333333333334E+009;1.759850531816483E-001;-5.857015401124954E-002;7.761521264910698E-004;-3.821928286924958E-003;
2.415500000000000E+009;1.762338727712631E-001;-5.919395759701729E-002;5.408517899923027E-004;-3.680550726130605E-003;
2.415666666666667E+009;1.764151751995087E-001;-5.968961492180824E-002;4.152085166424513E-004;-3.564664628356695E-003;
2.415833333333334E+009;1.764441281557083E-001;-6.011938303709030E-002;2.751171996351332E-004;-3.599091200158000E-003;
2.416000000000000E+009;1.764317750930786E-001;-6.055033206939697E-002;1.104287584894337E-004;-3.529104636982083E-003;
2.416166666666667E+009;1.765591949224472E-001;-6.082744523882866E-002;1.877512258943170E-004;-3.527866676449776E-003;
2.416333333333334E+009;1.763991117477417E-001;-6.115407869219780E-002;-8.943337888922542E-005;-3.410113509744406E-003;
2.416500000000000E+009;1.761892437934876E-001;-6.137802079319954E-002;-1.400945766363293E-004;-3.273633075878024E-003;
2.416666666666667E+009;1.758718192577362E-001;-6.166131049394608E-002;-3.221614460926503E-004;-3.212866606190801E-003;
2.416833333333334E+009;1.757002025842667E-001;-6.208469718694687E-002;-4.156344220973551E-004;-3.164752852171660E-003;
2.417000000000000E+009;1.750080138444901E-001;-6.221533566713333E-002;-5.902919801883400E-004;-3.142775036394596E-003;
2.417166666666667E+009;1.744762063026428E-001;-6.233710795640945E-002;-5.905115394853056E-004;-2.997183939442039E-003;
2.417333333333334E+009;1.739621907472611E-001;-6.263826042413712E-002;-7.518579950556159E-004;-3.013538895174861E-003;
2.417500000000000E+009;1.732228994369507E-001;-6.300656497478485E-002;-7.313215755857527E-004;-2.960507292300463E-003;
2.417666666666667E+009;1.725724190473557E-001;-6.314109265804291E-002;-6.957988371141255E-004;-2.911467105150223E-003;
2.417833333333334E+009;1.716989725828171E-001;-6.342376023530960E-002;-8.517443202435970E-004;-2.743329154327512E-003;
2.418000000000000E+009;1.707051694393158E-001;-6.384591013193131E-002;-1.046218792907894E-003;-2.656304975971580E-003;
2.418166666666667E+009;1.698862463235855E-001;-6.401277333498001E-002;-7.762133027426899E-004;-2.629240043461323E-003;
2.418333333333334E+009;1.689797341823578E-001;-6.456702202558518E-002;-1.077834866009653E-003;-2.557440893724561E-003;
2.418500000000000E+009;1.677856445312500E-001;-6.508728116750717E-002;-1.045844051986933E-003;-2.539073582738638E-003;
2.418666666666667E+009;1.667754948139191E-001;-6.557504832744598E-002;-1.072652870789170E-003;-2.458426402881742E-003;
2.418833333333334E+009;1.655006259679794E-001;-6.612499803304672E-002;-1.078312052413821E-003;-2.439406933262944E-003;
2.419000000000000E+009;1.642631888389587E-001;-6.664700806140900E-002;-1.176139921881259E-003;-2.436005976051092E-003;
2.419166666666667E+009;1.630832403898239E-001;-6.731116771697998E-002;-1.148052513599396E-003;-2.272596582770348E-003;
2.419333333333334E+009;1.618968844413757E-001;-6.789705902338028E-002;-1.054266933351755E-003;-2.284622751176357E-003;
2.419500000000000E+009;1.607161760330200E-001;-6.892693042755127E-002;-1.276045572012663E-003;-2.322549000382423E-003;
2.419666666666667E+009;1.596119254827499E-001;-6.986183673143387E-002;-1.155390636995435E-003;-2.097348682582378E-003;
2.419833333333334E+009;1.582787334918976E-001;-7.077070325613022E-002;-1.309858751483262E-003;-2.107769483700395E-003;
2.420000000000000E+009;1.572405993938446E-001;-7.183648645877838E-002;-1.295540947467089E-003;-2.128368942067027E-003;
2.420166666666667E+009;1.560533642768860E-001;-7.297565042972565E-002;-1.282137469388545E-003;-2.057886682450771E-003;
2.420333333333334E+009;1.551883965730667E-001;-7.413271069526672E-002;-1.452004420571029E-003;-1.953734783455730E-003;
2.420500000000000E+009;1.541110575199127E-001;-7.526686042547226E-002;-1.432942226529121E-003;-1.847101026214659E-003;
2.420666666666667E+009;1.530674397945404E-001;-7.654888927936554E-002;-1.564623787999153E-003;-1.798942801542580E-003;
2.420833333333334E+009;1.521440744400024E-001;-7.808253169059753E-002;-1.362825045362115E-003;-1.900884555652738E-003;
2.421000000000000E+009;1.511839032173157E-001;-7.958548516035080E-002;-1.403824426233769E-003;-1.650374964810908E-003;
2.421166666666667E+009;1.504944413900375E-001;-8.096376061439514E-002;-1.477516023442149E-003;-1.651035388931632E-003;
2.421333333333334E+009;1.498130708932877E-001;-8.249741047620773E-002;-1.379983499646187E-003;-1.578317023813725E-003;
2.421500000000000E+009;1.492067426443100E-001;-8.406622707843781E-002;-1.342375297099352E-003;-1.493732794187963E-003;
2.421666666666667E+009;1.485352218151093E-001;-8.580006659030914E-002;-1.319774775765836E-003;-1.536351395770907E-003;
2.421833333333334E+009;1.481543630361557E-001;-8.732079714536667E-002;-1.259403652511537E-003;-1.453705597668886E-003;
2.422000000000000E+009;1.475760191679001E-001;-8.914111554622650E-002;-1.336176996119320E-003;-1.536476192995906E-003;
2.422166666666667E+009;1.472263634204865E-001;-9.069024026393890E-002;-1.265531289391220E-003;-1.429826486855745E-003;
2.422333333333334E+009;1.472008824348450E-001;-9.237837046384811E-002;-1.363671501167119E-003;-1.428712741471827E-003;
2.422500000000000E+009;1.468173265457153E-001;-9.394180774688721E-002;-1.348992460407317E-003;-1.480985665693879E-003;
2.422666666666667E+009;1.466405540704727E-001;-9.567975997924805E-002;-1.413634046912193E-003;-1.342581235803664E-003;
2.422833333333334E+009;1.466198563575745E-001;-9.747079759836197E-002;-1.147252623923123E-003;-1.524351420812309E-003;
2.423000000000000E+009;1.465540826320648E-001;-9.910603612661362E-002;-1.253202441148460E-003;-1.424806308932602E-003;
2.423166666666667E+009;1.467757523059845E-001;-1.007192805409432E-001;-1.162661355920136E-003;-1.463725580833852E-003;
2.423333333333334E+009;1.472003012895584E-001;-1.020442619919777E-001;-1.388225005939603E-003;-1.606037723831832E-003;
2.423500000000000E+009;1.473128050565720E-001;-1.037667840719223E-001;-1.263677724637091E-003;-1.440842752344906E-003;
2.423666666666667E+009;1.473420113325119E-001;-1.052661165595055E-001;-1.413204357959330E-003;-1.454746816307306E-003;
2.423833333333334E+009;1.477756649255753E-001;-1.068023741245270E-001;-1.384900184348226E-003;-1.657841028645635E-003;
2.424000000000000E+009;1.479405164718628E-001;-1.079268380999565E-001;-1.517754513770342E-003;-1.584273297339678E-003;
2.424166666666667E+009;1.482645124197006E-001;-1.094028428196907E-001;-1.619634800590575E-003;-1.587989740073681E-003;
2.424333333333334E+009;1.487596780061722E-001;-1.104544922709465E-001;-1.514894538559020E-003;-1.547780353575945E-003;
2.424500000000000E+009;1.491145044565201E-001;-1.117694899439812E-001;-1.566178398206830E-003;-1.467991736717522E-003;
2.424666666666667E+009;1.495486497879028E-001;-1.127457991242409E-001;-1.639637164771557E-003;-1.672595622949302E-003;
2.424833333333334E+009;1.499614566564560E-001;-1.138326302170754E-001;-1.689441502094269E-003;-1.574433641508222E-003;
2.425000000000000E+009;1.501854658126831E-001;-1.147437244653702E-001;-1.707006595097482E-003;-1.518512261100113E-003;
2.425166666666667E+009;1.503907591104507E-001;-1.155831515789032E-001;-1.941540976986289E-003;-1.621174043975771E-003;
2.425333333333334E+009;1.508732289075851E-001;-1.164148747920990E-001;-1.985508017241955E-003;-1.618978683836758E-003;
2.425500000000000E+009;1.510573625564575E-001;-1.172247901558876E-001;-1.960857072845101E-003;-1.466606161557138E-003;
2.425666666666667E+009;1.512838006019592E-001;-1.178110688924789E-001;-2.024931134656072E-003;-1.442281296476722E-003;
2.425833333333334E+009;1.514352858066559E-001;-1.183906495571137E-001;-2.076765056699514E-003;-1.440306892618537E-003;
2.426000000000000E+009;1.516467481851578E-001;-1.190632432699204E-001;-2.290083095431328E-003;-1.389667857438326E-003;
2.426166666666667E+009;1.518441289663315E-001;-1.194540709257126E-001;-2.156122354790568E-003;-1.193475560285151E-003;
2.426333333333334E+009;1.517561227083206E-001;-1.198194473981857E-001;-2.393800998106599E-003;-1.249105669558048E-003;
2.426500000000000E+009;1.517728716135025E-001;-1.200934350490570E-001;-2.272462705150247E-003;-1.183748245239258E-003;
2.426666666666667E+009;1.517934650182724E-001;-1.202881932258606E-001;-2.405212726444006E-003;-1.083878451026976E-003;
2.426833333333334E+009;1.514396816492081E-001;-1.206338480114937E-001;-2.380644204095006E-003;-1.040457049384713E-003;
2.427000000000000E+009;1.512509733438492E-001;-1.209293752908707E-001;-2.461129799485207E-003;-1.020751078613102E-003;
2.427166666666667E+009;1.508225202560425E-001;-1.208395883440971E-001;-2.652495168149471E-003;-1.069905702024698E-003;
2.427333333333334E+009;1.502754986286163E-001;-1.211249008774757E-001;-2.595976926386356E-003;-8.970652706921101E-004;
2.427500000000000E+009;1.498256027698517E-001;-1.213251352310181E-001;-2.659404650330544E-003;-9.591644047759473E-004;
2.427666666666667E+009;1.491379290819168E-001;-1.215026304125786E-001;-2.494523767381907E-003;-7.898596231825650E-004;
