# Version 1.00
#
freq[Hz];re:Trc1_S11;im:Trc1_S11;re:Trc2_S21;im:Trc2_S21;
2.400000000000000E+009;1.609183251857758E-001;5.652170255780220E-002;-6.158128962852061E-004;3.184529254212976E-003;
2.400166666666667E+009;1.608697474002838E-001;5.499632656574249E-002;-3.475270059425384E-004;3.114152699708939E-003;
2.400333333333334E+009;1.607669144868851E-001;5.314022675156593E-002;-2.068460744339973E-004;3.224836196750403E-003;
2.400500000000000E+009;1.609866619110107E-001;5.152648314833641E-002;-2.006764698307961E-004;3.441168460994959E-003;
2.400666666666667E+009;1.611054241657257E-001;4.944822937250137E-002;-1.304359466303140E-004;3.374595893546939E-003;
2.400833333333334E+009;1.612928360700607E-001;4.797398298978806E-002;2.028232411248609E-004;3.462153719738126E-003;
2.401000000000000E+009;1.614654660224915E-001;4.605276137590408E-002;2.124611346516758E-004;3.561146557331085E-003;
2.401166666666667E+009;1.616791188716888E-001;4.402153193950653E-002;3.959719033446163E-004;3.457176266238093E-003;
2.401333333333334E+009;1.618166416883469E-001;4.209229722619057E-002;5.320290219970048E-004;3.612555097788572E-003;
2.401500000000000E+009;1.624244451522827E-001;4.037099331617355E-002;7.873204885981977E-004;3.621459240093827E-003;
2.401666666666667E+009;1.626975536346436E-001;3.847407922148705E-002;1.017766539007425E-003;3.571560606360436E-003;
2.401833333333334E+009;1.630681604146957E-001;3.675436601042748E-002;1.312217791564763E-003;3.630537772551179E-003;
2.402000000000000E+009;1.633691489696503E-001;3.505561873316765E-002;1.303683617152274E-003;3.582599107176065E-003;
2.402166666666667E+009;1.638816595077515E-001;3.315453976392746E-002;1.508763059973717E-003;3.764454508200288E-003;
2.402333333333334E+009;1.643658131361008E-001;3.152535855770111E-002;1.544532366096973E-003;3.471561474725604E-003;
2.402500000000000E+009;1.650326848030090E-001;3.000118769705296E-002;1.829309854656458E-003;3.606559708714485E-003;
2.402666666666667E+009;1.654653549194336E-001;2.848429605364800E-002;1.919501461088657E-003;3.284698817878962E-003;
2.402833333333334E+009;1.660493463277817E-001;2.705824747681618E-002;2.037732396274805E-003;3.264693077653647E-003;
2.403000000000000E+009;1.667068302631378E-001;2.562347985804081E-002;2.233388368040323E-003;3.214267548173666E-003;
2.403166666666667E+009;1.675073802471161E-001;2.421970106661320E-002;2.348206238821149E-003;3.187238937243819E-003;
2.403333333333334E+009;1.683368235826492E-001;2.279890514910221E-002;2.597208134829998E-003;2.995391376316547E-003;
2.403500000000000E+009;1.688211560249329E-001;2.157062105834484E-002;2.673633396625519E-003;2.750619780272245E-003;
2.403666666666667E+009;1.696020066738129E-001;2.032522112131119E-002;2.685953397303820E-003;2.735119080170989E-003;
2.403833333333334E+009;1.705067455768585E-001;1.927885971963406E-002;2.785339020192623E-003;2.485036384314299E-003;
2.404000000000000E+009;1.711605787277222E-001;1.824116334319115E-002;2.744269324466586E-003;2.605873160064220E-003;
2.404166666666667E+009;1.718769222497940E-001;1.728762499988079E-002;3.121961141005158E-003;2.239135792478919E-003;
2.404333333333334E+009;1.725261360406876E-001;1.634054630994797E-002;3.182860091328621E-003;2.143909689038992E-003;
2.404500000000000E+009;1.731006354093552E-001;1.539923530071974E-002;2.918789628893137E-003;2.113920636475086E-003;
2.404666666666667E+009;1.737826615571976E-001;1.472000870853663E-002;3.244395134970546E-003;1.993766520172358E-003;
2.404833333333334E+009;1.744284629821777E-001;1.385975629091263E-002;3.258922602981329E-003;1.811770489439368E-003;
2.405000000000000E+009;1.749794036149979E-001;1.328630093485117E-002;3.096371190622449E-003;1.807913649827242E-003;
2.405166666666667E+009;1.756993979215622E-001;1.263222005218267E-002;3.233305178582668E-003;1.417287392541766E-003;
2.405333333333334E+009;1.762403845787048E-001;1.205428875982761E-002;3.328235587105155E-003;1.456388970836997E-003;
2.405500000000000E+009;1.766323894262314E-001;1.147255487740040E-002;3.201728453859687E-003;1.325623015873134E-003;
2.405666666666667E+009;1.772341877222061E-001;1.095894630998373E-002;3.098975401371718E-003;1.146712107583880E-003;
2.405833333333334E+009;1.773424446582794E-001;1.069094147533178E-002;3.225843887776136E-003;1.189723028801382E-003;
2.406000000000000E+009;1.777419596910477E-001;1.002500765025616E-002;3.310840344056487E-003;9.271400631405413E-004;
2.406166666666667E+009;1.777998954057694E-001;9.805285371840000E-003;3.072694176808000E-003;8.761289063841105E-004;
2.406333333333334E+009;1.782940179109573E-001;9.427125565707684E-003;3.195061814039946E-003;9.993864223361015E-004;
2.406500000000000E+009;1.782900393009186E-001;8.952573873102665E-003;3.154422389343381E-003;7.577934884466231E-004;
2.406666666666667E+009;1.781335175037384E-001;8.578468114137650E-003;3.266345011070371E-003;8.207760984078050E-004;
2.406833333333334E+009;1.783485710620880E-001;8.043646812438965E-003;3.363412572070956E-003;6.750699831172824E-004;
2.407000000000000E+009;1.784554421901703E-001;7.628321647644043E-003;3.227860666811466E-003;7.043501827865839E-004;
2.407166666666667E+009;1.783627420663834E-001;7.250102702528238E-003;3.245882689952850E-003;5.836596246808767E-004;
2.407333333333334E+009;1.779808849096298E-001;6.514973007142544E-003;3.299960866570473E-003;4.398615274112672E-004;
2.407500000000000E+009;1.777742058038712E-001;6.071019917726517E-003;3.403960261493921E-003;2.722998615354300E-004;
2.407666666666667E+009;1.775972247123718E-001;5.444393493235111E-003;3.434304613620043E-003;9.405948367202655E-005;
2.407833333333334E+009;1.770396083593369E-001;4.658982157707214E-003;3.429201431572437E-003;3.653439343906939E-004;
2.408000000000000E+009;1.767753064632416E-001;3.992772661149502E-003;3.396095708012581E-003;1.407214440405369E-004;
2.408166666666667E+009;1.764005571603775E-001;3.183928318321705E-003;3.264131722971797E-003;-6.730014774802839E-006;
2.408333333333334E+009;1.760640144348145E-001;2.358745317906141E-003;3.354701679199934E-003;-6.358420796459541E-005;
2.408500000000000E+009;1.755624860525131E-001;1.317029120400548E-003;3.436111612245441E-003;-1.898626942420378E-004;
2.408666666666667E+009;1.751025766134262E-001;2.126294857589528E-004;3.381504677236080E-003;-2.698214375413954E-004;
2.408833333333334E+009;1.743077337741852E-001;-7.377106812782586E-004;3.365749027580023E-003;-4.877879691775888E-004;
2.409000000000000E+009;1.738402992486954E-001;-1.851830515079200E-003;3.260304220020771E-003;-5.227918736636639E-004;
2.409166666666667E+009;1.731903403997421E-001;-3.169072791934013E-003;3.255559364333749E-003;-4.699396376963705E-004;
2.409333333333334E+009;1.728668063879013E-001;-4.538079723715782E-003;3.262551967054606E-003;-6.866760668344796E-004;
2.409500000000000E+009;1.722354143857956E-001;-5.989289376884699E-003;3.246961161494255E-003;-5.999162676744163E-004;
2.409666666666667E+009;1.716413199901581E-001;-7.502342108637095E-003;3.125747665762901E-003;-8.017779910005629E-004;
2.409833333333334E+009;1.711354404687882E-001;-8.800503797829151E-003;3.208914538845420E-003;-8.473803172819316E-004;
2.410000000000000E+009;1.705925166606903E-001;-1.031617261469364E-002;3.063124371692538E-003;-1.025459496304393E-003;
2.410166666666667E+009;1.703261137008667E-001;-1.181699335575104E-002;3.041751449927688E-003;-1.058819587342441E-003;
2.410333333333334E+009;1.695563495159149E-001;-1.364954188466072E-002;3.127388190478087E-003;-9.309264132753015E-004;
2.410500000000000E+009;1.693697422742844E-001;-1.540139690041542E-002;3.090298734605312E-003;-1.114705461077392E-003;
2.410666666666667E+009;1.690130084753037E-001;-1.725599542260170E-002;3.259998979046941E-003;-1.094930921681225E-003;
2.410833333333334E+009;1.686809062957764E-001;-1.882854849100113E-002;3.106709336861968E-003;-1.329094520770013E-003;
2.411000000000000E+009;1.684101521968842E-001;-2.074436657130718E-002;3.154559992253780E-003;-1.395427971147001E-003;
2.411166666666667E+009;1.682824641466141E-001;-2.255046926438808E-002;3.028569044545293E-003;-1.387306838296354E-003;
2.411333333333334E+009;1.680519133806229E-001;-2.446321211755276E-002;3.092302242293954E-003;-1.486752764321864E-003;
2.411500000000000E+009;1.681898087263107E-001;-2.657657116651535E-002;3.094119718298316E-003;-1.511055743321776E-003;
2.411666666666667E+009;1.680628955364227E-001;-2.829995565116406E-002;3.147325478494167E-003;-1.766784815117717E-003;
2.411833333333334E+009;1.682752966880798E-001;-3.004066087305546E-002;3.263321937993169E-003;-1.805209089070559E-003;
2.412000000000000E+009;1.683955639600754E-001;-3.209916502237320E-002;3.170950571075082E-003;-1.977383857592940E-003;
2.412166666666667E+009;1.684338748455048E-001;-3.382847458124161E-002;3.005351405590773E-003;-1.940385554917157E-003;
2.412333333333334E+009;1.689362376928330E-001;-3.565298020839691E-002;3.056843997910619E-003;-2.314000390470028E-003;
2.412500000000000E+009;1.689811348915100E-001;-3.737102821469307E-002;2.936559030786157E-003;-2.357334131374955E-003;
2.412666666666667E+009;1.695027649402618E-001;-3.924008458852768E-002;2.906520385295153E-003;-2.382118720561266E-003;
2.412833333333334E+009;1.697602123022080E-001;-4.093644022941589E-002;2.741283969953656E-003;-2.635587705299258E-003;
2.413000000000000E+009;1.700971871614456E-001;-4.255424067378044E-002;2.624373184517026E-003;-2.748541301116347E-003;
2.413166666666667E+009;1.704508662223816E-001;-4.417580738663673E-002;2.614579861983657E-003;-2.783295232802630E-003;
2.413333333333334E+009;1.709290593862534E-001;-4.589419811964035E-002;2.536827232688665E-003;-3.061037743464112E-003;
2.413500000000000E+009;1.713634133338928E-001;-4.732356593012810E-002;2.321729669347405E-003;-3.162814304232597E-003;
2.413666666666667E+009;1.718720346689224E-001;-4.897944629192352E-002;2.284538466483355E-003;-3.169656265527010E-003;
2.413833333333334E+009;1.721892207860947E-001;-5.017545074224472E-002;1.979546621441841E-003;-3.222551196813583E-003;
2.414000000000000E+009;1.727599799633026E-001;-5.137613788247109E-002;1.877175178378820E-003;-3.426948562264442E-003;
2.414166666666667E+009;1.733296662569046E-001;-5.268387869000435E-002;1.609714236110449E-003;-3.555634291842580E-003;
2.414333333333334E+009;1.736804991960526E-001;-5.375329032540321E-002;1.623474177904427E-003;-3.622832475230098E-003;
2.414500000000000E+009;1.744240522384644E-001;-5.472156777977943E-002;1.474920194596052E-003;-3.518801648169756E-003;
2.414666666666667E+009;1.746179759502411E-001;-5.566664412617683E-002;1.248670858331025E-003;-3.664536168798804E-003;
2.414833333333334E+009;1.750828027725220E-001;-5.648980662226677E-002;1.069079618901014E-003;-3.463212633505464E-003;
2.415000000000000E+009;1.753090471029282E-001;-5.724561214447022E-002;8.587471093051136E-004;-3.673521568998694E-003;
2.415166666666667E+009;1.756493151187897E-001;-5.806383863091469E-002;5.974364466965199E-004;-3.499542130157352E-003;
2.415333333333334E+009;1.760710775852203E-001;-5.865861102938652E-002;6.672119488939643E-004;-3.687718883156776E-003;
2.415500000000000E+009;1.762517094612122E-001;-5.915746092796326E-002;4.881643690168858E-004;-3.634193912148476E-003;
2.415666666666667E+009;1.763173490762711E-001;-5.957327783107758E-002;4.678469558712095E-004;-3.573018126189709E-003;
2.415833333333334E+009;1.764357239007950E-001;-6.021042168140411E-002;1.721593580441549E-004;-3.542943624779582E-003;
2.416000000000000E+009;1.763945519924164E-001;-6.059762090444565E-002;9.574267460266128E-005;-3.552864771336317E-003;
2.416166666666667E+009;1.765885353088379E-001;-6.089088693261147E-002;-3.968480814364739E-005;-3.551298286765814E-003;
2.416333333333334E+009;1.764290481805801E-001;-6.104080751538277E-002;-1.855108130257577E-004;-3.570234170183539E-003;
2.416500000000000E+009;1.762231588363648E-001;-6.141700968146324E-002;-2.876713697332889E-004;-3.349418751895428E-003;
2.416666666666667E+009;1.759458631277084E-001;-6.171833723783493E-002;-4.007052630186081E-004;-3.177866572514176E-003;
2.416833333333334E+009;1.755799204111099E-001;-6.200883910059929E-002;-5.922506679780781E-004;-3.150954842567444E-003;
2.417000000000000E+009;1.749960780143738E-001;-6.217263638973236E-002;-5.512828356586397E-004;-3.188089933246374E-003;
2.417166666666667E+009;1.744909584522247E-001;-6.237601116299629E-002;-5.662304465658963E-004;-3.029004437848926E-003;
2.417333333333334E+009;1.739160865545273E-001;-6.258282065391541E-002;-6.928328075446188E-004;-2.940132748335600E-003;
2.417500000000000E+009;1.731731444597244E-001;-6.301733106374741E-002;-9.508574148640037E-004;-2.964379731565714E-003;
2.417666666666667E+009;1.725450456142426E-001;-6.302712112665176E-002;-8.081378764472902E-004;-2.811570884659886E-003;
2.417833333333334E+009;1.716651469469070E-001;-6.336291134357452E-002;-9.337714291177690E-004;-2.680517267435789E-003;
2.418000000000000E+009;1.707148402929306E-001;-6.379420310258865E-002;-9.535960271023214E-004;-2.736503956839442E-003;
2.418166666666667E+009;1.698927134275436E-001;-6.396987289190292E-002;-1.113674952648580E-003;-2.576582133769989E-003;
2.418333333333334E+009;1.690184175968170E-001;-6.448622792959213E-002;-1.007953425869346E-003;-2.458316041156650E-003;
2.418500000000000E+009;1.677897274494171E-001;-6.494930386543274E-002;-1.035687746480107E-003;-2.671816619113088E-003;
2.418666666666667E+009;1.668102145195007E-001;-6.542973220348358E-002;-1.168851391412318E-003;-2.443994395434856E-003;
2.418833333333334E+009;1.653766781091690E-001;-6.596717238426209E-002;-1.066500903107226E-003;-2.522168448194861E-003;
2.419000000000000E+009;1.642494350671768E-001;-6.660453230142593E-002;-1.116686267778277E-003;-2.233996521681547E-003;
2.419166666666667E+009;1.631463021039963E-001;-6.742735952138901E-002;-1.187005778774619E-003;-2.264565089717507E-003;
2.419333333333334E+009;1.617617160081863E-001;-6.787758320569992E-002;-1.225566142238677E-003;-2.231696154922247E-003;
2.419500000000000E+009;1.605823189020157E-001;-6.896569579839706E-002;-1.268629217520356E-003;-2.109900349751115E-003;
2.419666666666667E+009;1.596956998109818E-001;-6.989810615777969E-002;-1.281665987335146E-003;-2.077602082863450E-003;
2.419833333333334E+009;1.583655923604965E-001;-7.070301473140717E-002;-1.375830615870655E-003;-2.149640815332532E-003;
2.420000000000000E+009;1.573372930288315E-001;-7.180283963680267E-002;-1.340472139418125E-003;-2.087284578010440E-003;
2.420166666666667E+009;1.560851931571960E-001;-7.299442589282990E-002;-1.379144610837102E-003;-1.943186623975635E-003;
2.420333333333334E+009;1.550753861665726E-001;-7.416006922721863E-002;-1.483563100919128E-003;-1.934042666107416E-003;
2.420500000000000E+009;1.541081368923187E-001;-7.532965391874313E-002;-1.443330897018313E-003;-1.789490226656199E-003;
2.420666666666667E+009;1.530945897102356E-001;-7.666750252246857E-002;-1.372050144709647E-003;-1.751186326146126E-003;
2.420833333333334E+009;1.521610021591187E-001;-7.793962955474854E-002;-1.530330977402628E-003;-1.793434959836304E-003;
2.421000000000000E+009;1.511751264333725E-001;-7.954471558332443E-002;-1.526985783129931E-003;-1.698320498690009E-003;
2.421166666666667E+009;1.504837274551392E-001;-8.095469325780869E-002;-1.430691219866276E-003;-1.707478892058134E-003;
2.421333333333334E+009;1.499952524900436E-001;-8.252445608377457E-002;-1.494337688200176E-003;-1.641718088649213E-003;
2.421500000000000E+009;1.491774767637253E-001;-8.420204371213913E-002;-1.487973262555897E-003;-1.561628305353224E-003;
2.421666666666667E+009;1.485735028982163E-001;-8.568343520164490E-002;-1.436631893739104E-003;-1.403576578013599E-003;
2.421833333333334E+009;1.480811238288879E-001;-8.728706091642380E-002;-1.476453617215157E-003;-1.405692193657160E-003;
2.422000000000000E+009;1.477031111717224E-001;-8.892522752285004E-002;-1.343995449133217E-003;-1.373096369206905E-003;
2.422166666666667E+009;1.473538875579834E-001;-9.090899676084518E-002;-1.395417493768036E-003;-1.358497771434486E-003;
2.422333333333334E+009;1.471813172101975E-001;-9.224284440279007E-002;-1.388643984682858E-003;-1.319424598477781E-003;
2.422500000000000E+009;1.468521654605866E-001;-9.399846196174622E-002;-1.333159161731601E-003;-1.354726613499224E-003;
2.422666666666667E+009;1.467096656560898E-001;-9.561939537525177E-002;-1.425610738806427E-003;-1.430579810403287E-003;
2.422833333333334E+009;1.466283053159714E-001;-9.751490503549576E-002;-1.379617489874363E-003;-1.406908151693642E-003;
2.423000000000000E+009;1.467642039060593E-001;-9.891297668218613E-002;-1.300097210332751E-003;-1.272946246899664E-003;
2.423166666666667E+009;1.467554718255997E-001;-1.006368398666382E-001;-1.255654613487423E-003;-1.504207961261272E-003;
2.423333333333334E+009;1.472192406654358E-001;-1.021678000688553E-001;-1.346489996649325E-003;-1.540073659271002E-003;
2.423500000000000E+009;1.473608016967773E-001;-1.037160009145737E-001;-1.351076876744628E-003;-1.469879993237555E-003;
2.423666666666667E+009;1.473783850669861E-001;-1.052312329411507E-001;-1.438286970369518E-003;-1.409073127433658E-003;
2.423833333333334E+009;1.478529125452042E-001;-1.068021580576897E-001;-1.515358220785856E-003;-1.488816458731890E-003;
2.424000000000000E+009;1.480383127927780E-001;-1.078959926962853E-001;-1.299837371334434E-003;-1.573402900248766E-003;
2.424166666666667E+009;1.482475847005844E-001;-1.094112321734428E-001;-1.575459260493517E-003;-1.615655026398599E-003;
2.424333333333334E+009;1.487344354391098E-001;-1.104633286595345E-001;-1.685123424977064E-003;-1.559947733767331E-003;
2.424500000000000E+009;1.491606235504150E-001;-1.118009090423584E-001;-1.639519701711834E-003;-1.513671712018549E-003;
2.424666666666667E+009;1.496381312608719E-001;-1.127738803625107E-001;-1.612854772247374E-003;-1.470887800678611E-003;
2.424833333333334E+009;1.498990654945374E-001;-1.137093529105187E-001;-1.721767941489816E-003;-1.449697767384350E-003;
2.425000000000000E+009;1.501995027065277E-001;-1.148217916488648E-001;-1.801902777515352E-003;-1.514547155238688E-003;
2.425166666666667E+009;1.504096388816834E-001;-1.156395375728607E-001;-1.838519703596830E-003;-1.333240070380271E-003;
2.425333333333334E+009;1.507724821567535E-001;-1.163640990853310E-001;-1.994354184716940E-003;-1.349377911537886E-003;
2.425500000000000E+009;1.510878205299377E-001;-1.172175481915474E-001;-2.211480867117643E-003;-1.302895951084793E-003;
2.425666666666667E+009;1.511721611022949E-001;-1.178184375166893E-001;-2.125954255461693E-003;-1.356410328298807E-003;
2.425833333333334E+009;1.515123695135117E-001;-1.183282658457756E-001;-2.090933499857783E-003;-1.298887771554291E-003;
2.426000000000000E+009;1.515665203332901E-001;-1.189977079629898E-001;-2.262741094455123E-003;-1.256300834938884E-003;
2.426166666666667E+009;1.518896669149399E-001;-1.195278838276863E-001;-2.253361977636814E-003;-1.070734579116106E-003;
2.426333333333334E+009;1.516817361116409E-001;-1.198545843362808E-001;-2.172835869714618E-003;-1.097532920539379E-003;
2.426500000000000E+009;1.518678814172745E-001;-1.201207563281059E-001;-2.433341694995761E-003;-9.747282601892948E-004;
2.426666666666667E+009;1.517715901136398E-001;-1.202878803014755E-001;-2.359068021178246E-003;-1.019344781525433E-003;
2.426833333333334E+009;1.514734923839569E-001;-1.205909252166748E-001;-2.383108949288726E-003;-8.572631049901247E-004;
2.427000000000000E+009;1.511625051498413E-001;-1.209202110767365E-001;-2.420694101601839E-003;-7.781359017826617E-004;
2.427166666666667E+009;1.507957577705383E-001;-1.208598837256432E-001;-2.563729183748364E-003;-7.344554760493338E-004;
2.427333333333334E+009;1.503090560436249E-001;-1.211184188723564E-001;-2.519445260986686E-003;-6.582698551937938E-004;
2.427500000000000E+009;1.498830765485764E-001;-1.212075650691986E-001;-2.548026619479060E-003;-5.452341865748167E-004;
2.427666666666667E+009;1.492774337530136E-001;-1.213806718587875E-001;-2.622263273224235E-003;-6.807190366089344E-004;
