# Version 1.00
#
freq[Hz];re:Trc1_S11;im:Trc1_S11;re:Trc2_S21;im:Trc2_S21;
2.400000000000000E+009;1.578906029462814E-001;6.268032640218735E-002;3.165816189721227E-003;4.823040217161179E-005;
2.400166666666667E+009;1.579310297966003E-001;6.100670248270035E-002;3.169189207255840E-003;1.759034494170919E-004;
2.400333333333334E+009;1.576777547597885E-001;5.900044366717339E-002;3.057201625779271E-003;1.235840463778004E-004;
2.400500000000000E+009;1.576407104730606E-001;5.717339739203453E-002;3.096199594438076E-003;-4.166430153418332E-005;
2.400666666666667E+009;1.575598567724228E-001;5.524469166994095E-002;3.085403004661202E-003;-2.197470021201298E-004;
2.400833333333334E+009;1.576671302318573E-001;5.329257622361183E-002;2.851157682016492E-003;-1.845255465013906E-004;
2.401000000000000E+009;1.578005105257034E-001;5.106443911790848E-002;2.867179457098246E-003;-2.356291370233521E-004;
2.401166666666667E+009;1.578244864940643E-001;4.902729392051697E-002;2.901622327044606E-003;-3.831464564427733E-004;
2.401333333333334E+009;1.578375548124313E-001;4.677931964397430E-002;2.948043169453740E-003;-3.496335702948272E-004;
2.401500000000000E+009;1.582431793212891E-001;4.500819742679596E-002;2.750754356384277E-003;-4.274266830179840E-004;
2.401666666666667E+009;1.585987657308579E-001;4.287416487932205E-002;2.893521916121244E-003;-5.921477568335831E-004;
2.401833333333334E+009;1.590591818094254E-001;4.081155732274056E-002;2.595158061012626E-003;-5.931595223955810E-004;
2.402000000000000E+009;1.591271162033081E-001;3.884559497237206E-002;2.467193407937884E-003;-5.741024506278336E-004;
2.402166666666667E+009;1.598757356405258E-001;3.681968525052071E-002;2.616253215819597E-003;-4.698902193922550E-004;
2.402333333333334E+009;1.603690385818481E-001;3.507830575108528E-002;2.588970353826881E-003;-7.414345745928586E-004;
2.402500000000000E+009;1.612149477005005E-001;3.320585563778877E-002;2.502497285604477E-003;-7.306438637897372E-004;
2.402666666666667E+009;1.618543714284897E-001;3.149111941456795E-002;2.574828919023275E-003;-5.639118608087301E-004;
2.402833333333334E+009;1.624566614627838E-001;2.971426025032997E-002;2.400756813585758E-003;-6.645467947237194E-004;
2.403000000000000E+009;1.633278429508209E-001;2.787798829376698E-002;2.309485105797648E-003;-5.052772467024624E-004;
2.403166666666667E+009;1.641968041658402E-001;2.634111605584621E-002;2.235851017758250E-003;-6.845609168522060E-004;
2.403333333333334E+009;1.651270538568497E-001;2.496374025940895E-002;2.335391938686371E-003;-8.544915472157300E-004;
2.403500000000000E+009;1.659742444753647E-001;2.339919470250607E-002;2.454492263495922E-003;-8.980326238088310E-004;
2.403666666666667E+009;1.669832915067673E-001;2.205455489456654E-002;2.383545273914933E-003;-8.093373617157340E-004;
2.403833333333334E+009;1.680455356836319E-001;2.082652598619461E-002;2.300510648638010E-003;-8.479540701955557E-004;
2.404000000000000E+009;1.689100563526154E-001;1.961100473999977E-002;2.297009807080030E-003;-8.562522707507014E-004;
2.404166666666667E+009;1.699602603912354E-001;1.841678842902184E-002;2.370910719037056E-003;-8.315941668115556E-004;
2.404333333333334E+009;1.708784103393555E-001;1.750661432743073E-002;2.295710612088442E-003;-9.883919265121222E-004;
2.404500000000000E+009;1.719070971012116E-001;1.641950570046902E-002;2.247514203190804E-003;-8.803539094515145E-004;
2.404666666666667E+009;1.729081720113754E-001;1.561697386205196E-002;2.277587074786425E-003;-1.212547533214092E-003;
2.404833333333334E+009;1.736914217472076E-001;1.486868970096111E-002;2.122578676789999E-003;-1.025187317281961E-003;
2.405000000000000E+009;1.747202873229981E-001;1.427360717207193E-002;2.245181705802679E-003;-1.091334153898060E-003;
2.405166666666667E+009;1.757127195596695E-001;1.342815160751343E-002;2.309120725840330E-003;-9.830186609178782E-004;
2.405333333333334E+009;1.763803660869598E-001;1.281174924224615E-002;2.130860462784767E-003;-1.005228958092630E-003;
2.405500000000000E+009;1.771743595600128E-001;1.246545370668173E-002;2.253382932394743E-003;-1.058894093148410E-003;
2.405666666666667E+009;1.778868585824966E-001;1.208566129207611E-002;2.174271503463388E-003;-1.233492861501873E-003;
2.405833333333334E+009;1.785635650157929E-001;1.175904832780361E-002;2.067936118692160E-003;-1.097705913707614E-003;
2.406000000000000E+009;1.791397333145142E-001;1.119407545775175E-002;2.185494638979435E-003;-1.238209544681013E-003;
2.406166666666667E+009;1.795118302106857E-001;1.106895785778761E-002;2.209453377872706E-003;-1.231898902915418E-003;
2.406333333333334E+009;1.800713986158371E-001;1.067994069308043E-002;2.185078104957938E-003;-1.424601650796831E-003;
2.406500000000000E+009;1.803010255098343E-001;1.026654336601496E-002;2.280510030686855E-003;-1.522730104625225E-003;
2.406666666666667E+009;1.804926097393036E-001;1.011795364320278E-002;2.376022981479764E-003;-1.449428498744965E-003;
2.406833333333334E+009;1.807665377855301E-001;9.742247872054577E-003;2.158099552616477E-003;-1.383928931318224E-003;
2.407000000000000E+009;1.810516864061356E-001;9.459984488785267E-003;2.149277832359076E-003;-1.518503879196942E-003;
2.407166666666667E+009;1.810814142227173E-001;9.259666316211224E-003;2.175154164433479E-003;-1.501070335507393E-003;
2.407333333333334E+009;1.808797419071198E-001;8.788349106907845E-003;2.250882331281900E-003;-1.600189018063247E-003;
2.407500000000000E+009;1.807922273874283E-001;8.455844596028328E-003;2.085643121972680E-003;-1.761946361511946E-003;
2.407666666666667E+009;1.806294322013855E-001;8.010670542716980E-003;2.160792006179690E-003;-1.665058196522296E-003;
2.407833333333334E+009;1.802464127540588E-001;7.412291131913662E-003;2.129987347871065E-003;-1.746905734762549E-003;
2.408000000000000E+009;1.798551529645920E-001;6.707415916025639E-003;2.151979599148035E-003;-1.821055193431675E-003;
2.408166666666667E+009;1.795275360345841E-001;6.308840122073889E-003;2.052856609225273E-003;-1.940252608619630E-003;
2.408333333333334E+009;1.791622489690781E-001;5.525195971131325E-003;2.147455001249909E-003;-1.861260971054435E-003;
2.408500000000000E+009;1.785102188587189E-001;4.581398796290159E-003;1.988731557503343E-003;-1.946070347912610E-003;
2.408666666666667E+009;1.778470277786255E-001;3.657094435766339E-003;2.163080265745521E-003;-2.137565519660711E-003;
2.408833333333334E+009;1.771909445524216E-001;2.886003581807017E-003;2.172669395804405E-003;-2.107874024659395E-003;
2.409000000000000E+009;1.766522675752640E-001;1.713900594040752E-003;2.060818253085017E-003;-2.125157974660397E-003;
2.409166666666667E+009;1.759176999330521E-001;7.208550814539194E-004;1.996386563405395E-003;-2.226125216111541E-003;
2.409333333333334E+009;1.753070056438446E-001;-5.363078671507537E-004;2.048970898613334E-003;-2.360815182328224E-003;
2.409500000000000E+009;1.745862364768982E-001;-2.057652221992612E-003;2.046865411102772E-003;-2.430280437693000E-003;
2.409666666666667E+009;1.737460643053055E-001;-3.293981775641441E-003;2.082388149574399E-003;-2.489318838343024E-003;
2.409833333333334E+009;1.729670763015747E-001;-4.684908781200647E-003;1.822743448428810E-003;-2.436023438349366E-003;
2.410000000000000E+009;1.724530905485153E-001;-6.142635364085436E-003;2.090302994474769E-003;-2.740358700975776E-003;
2.410166666666667E+009;1.717527210712433E-001;-7.684479467570782E-003;1.853947876952589E-003;-2.636598655954003E-003;
2.410333333333334E+009;1.710751801729202E-001;-9.476820006966591E-003;1.937983906827867E-003;-2.699454547837377E-003;
2.410500000000000E+009;1.703946292400360E-001;-1.120737940073013E-002;1.717783161439002E-003;-3.015716094523668E-003;
2.410666666666667E+009;1.699194461107254E-001;-1.306873466819525E-002;1.755781588144600E-003;-2.970382804051042E-003;
2.410833333333334E+009;1.696166247129440E-001;-1.473232172429562E-002;1.849959953688085E-003;-3.135256236419082E-003;
2.411000000000000E+009;1.691657751798630E-001;-1.657053455710411E-002;1.626885845325887E-003;-3.315493464469910E-003;
2.411166666666667E+009;1.687735170125961E-001;-1.862623356282711E-002;1.569459331221879E-003;-3.323442069813609E-003;
2.411333333333334E+009;1.684605032205582E-001;-2.041386999189854E-002;1.664656447246671E-003;-3.573994617909193E-003;
2.411500000000000E+009;1.682106554508209E-001;-2.252814359962940E-002;1.492847455665469E-003;-3.611526452004910E-003;
2.411666666666667E+009;1.682244539260864E-001;-2.437745220959187E-002;1.394828432239592E-003;-3.732155077159405E-003;
2.411833333333334E+009;1.680499911308289E-001;-2.639989741146565E-002;1.237735617905855E-003;-3.792722476646304E-003;
2.412000000000000E+009;1.680877357721329E-001;-2.849056944251061E-002;1.004813704639673E-003;-3.959102556109428E-003;
2.412166666666667E+009;1.681619286537170E-001;-3.035223484039307E-002;8.197983843274415E-004;-3.935990389436483E-003;
2.412333333333334E+009;1.683600097894669E-001;-3.205422312021256E-002;6.323553388938308E-004;-3.905210411176086E-003;
2.412500000000000E+009;1.683282256126404E-001;-3.400938957929611E-002;7.279954152181745E-004;-3.925423603504896E-003;
2.412666666666667E+009;1.688088625669479E-001;-3.614522144198418E-002;5.485620931722224E-004;-4.181244876235724E-003;
2.412833333333334E+009;1.691797226667404E-001;-3.802435100078583E-002;3.824362065643072E-004;-4.200547467917204E-003;
2.413000000000000E+009;1.693903654813767E-001;-3.972002863883972E-002;9.219169442076236E-006;-4.395644180476666E-003;
2.413166666666667E+009;1.698534190654755E-001;-4.151892662048340E-002;7.369629202003125E-006;-4.325333051383495E-003;
2.413333333333334E+009;1.702467650175095E-001;-4.320390895009041E-002;-1.884257362689823E-004;-4.402463790029287E-003;
2.413500000000000E+009;1.707368344068527E-001;-4.498863220214844E-002;-3.047583741135895E-004;-4.372334107756615E-003;
2.413666666666667E+009;1.714811623096466E-001;-4.642857611179352E-002;-4.673433140851557E-004;-4.283383488655090E-003;
2.413833333333334E+009;1.718838512897492E-001;-4.802165552973747E-002;-4.781395837198943E-004;-4.328502342104912E-003;
2.414000000000000E+009;1.721778810024262E-001;-4.948204755783081E-002;-7.726794574409723E-004;-4.365164786577225E-003;
2.414166666666667E+009;1.731523275375366E-001;-5.070864781737328E-002;-9.525023633614183E-004;-4.324834793806076E-003;
2.414333333333334E+009;1.734336912631989E-001;-5.190407112240791E-002;-1.156420097686350E-003;-4.363007377833128E-003;
2.414500000000000E+009;1.741298288106918E-001;-5.319492518901825E-002;-1.175283570773900E-003;-4.212552215903997E-003;
2.414666666666667E+009;1.747052520513535E-001;-5.407025292515755E-002;-1.499459031037986E-003;-4.192765802145004E-003;
2.414833333333334E+009;1.750038117170334E-001;-5.521340668201447E-002;-1.679597655311227E-003;-4.304452799260616E-003;
2.415000000000000E+009;1.755245923995972E-001;-5.599251762032509E-002;-1.883261487819254E-003;-4.286707844585180E-003;
2.415166666666667E+009;1.760368347167969E-001;-5.670348927378655E-002;-1.952569116838276E-003;-4.112171940505505E-003;
2.415333333333334E+009;1.763897240161896E-001;-5.748061463236809E-002;-2.208335092291236E-003;-4.099432379007340E-003;
2.415500000000000E+009;1.768306940793991E-001;-5.813350528478622E-002;-2.339419908821583E-003;-3.930844366550446E-003;
2.415666666666667E+009;1.770677119493485E-001;-5.853018537163734E-002;-2.454933710396290E-003;-3.877253271639347E-003;
2.415833333333334E+009;1.772636473178864E-001;-5.906787514686585E-002;-2.569358563050628E-003;-3.648552112281323E-003;
2.416000000000000E+009;1.772639304399490E-001;-5.957607552409172E-002;-2.667270135134459E-003;-3.554999828338623E-003;
2.416166666666667E+009;1.775336712598801E-001;-5.990594252943993E-002;-2.760405652225018E-003;-3.696619998663664E-003;
2.416333333333334E+009;1.775869131088257E-001;-6.026616692543030E-002;-2.931069117039442E-003;-3.518180456012487E-003;
2.416500000000000E+009;1.775010079145432E-001;-6.051154807209969E-002;-2.956555224955082E-003;-3.329723607748747E-003;
2.416666666666667E+009;1.772592961788178E-001;-6.065665557980537E-002;-3.173979930579662E-003;-3.275926690548658E-003;
2.416833333333334E+009;1.770656406879425E-001;-6.098077073693276E-002;-3.092027502134442E-003;-3.039298346266151E-003;
2.417000000000000E+009;1.765987277030945E-001;-6.134637817740440E-002;-3.421567147597671E-003;-3.021768759936094E-003;
2.417166666666667E+009;1.760677993297577E-001;-6.132360920310020E-002;-3.485323162749410E-003;-2.956275595352054E-003;
2.417333333333334E+009;1.755737364292145E-001;-6.143089383840561E-002;-3.428454510867596E-003;-2.780245151370764E-003;
2.417500000000000E+009;1.749122142791748E-001;-6.191778182983398E-002;-3.542548045516014E-003;-2.667460124939680E-003;
2.417666666666667E+009;1.743797361850739E-001;-6.196718290448189E-002;-3.781223203986883E-003;-2.606928348541260E-003;
2.417833333333334E+009;1.735608428716660E-001;-6.220705062150955E-002;-3.774138865992427E-003;-2.539218170568347E-003;
2.418000000000000E+009;1.727144271135330E-001;-6.252379715442658E-002;-3.835703246295452E-003;-2.422464312985539E-003;
2.418166666666667E+009;1.717551201581955E-001;-6.268141418695450E-002;-3.815731266513467E-003;-2.248337026685476E-003;
2.418333333333334E+009;1.710562258958817E-001;-6.312434375286102E-002;-3.883050521835685E-003;-2.006884664297104E-003;
2.418500000000000E+009;1.697394698858261E-001;-6.357174366712570E-002;-4.024568013846874E-003;-2.059280173853040E-003;
2.418666666666667E+009;1.689122170209885E-001;-6.401194632053375E-002;-4.112296737730503E-003;-1.845657592639327E-003;
2.418833333333334E+009;1.675590425729752E-001;-6.450197845697403E-002;-4.235178232192993E-003;-1.794196898117662E-003;
2.419000000000000E+009;1.663261801004410E-001;-6.506749242544174E-002;-4.136300645768642E-003;-1.811056863516569E-003;
2.419166666666667E+009;1.652930378913879E-001;-6.578044593334198E-002;-4.217579495161772E-003;-1.701348810456693E-003;
2.419333333333334E+009;1.639013737440109E-001;-6.635555624961853E-002;-4.249304067343473E-003;-1.607617479749024E-003;
2.419500000000000E+009;1.627641469240189E-001;-6.736313551664352E-002;-4.263845738023520E-003;-1.493622316047549E-003;
2.419666666666667E+009;1.616762578487396E-001;-6.818052381277084E-002;-4.427832085639238E-003;-1.200869912281632E-003;
2.419833333333334E+009;1.602877378463745E-001;-6.901079416275024E-002;-4.388072062283754E-003;-1.201734179630876E-003;
2.420000000000000E+009;1.593393683433533E-001;-7.009511440992355E-002;-4.557608626782894E-003;-1.025610254146159E-003;
2.420166666666667E+009;1.581555455923080E-001;-7.112743705511093E-002;-4.559688735753298E-003;-9.310781606473029E-004;
2.420333333333334E+009;1.569996923208237E-001;-7.244732230901718E-002;-4.598165862262249E-003;-9.563999483361840E-004;
2.420500000000000E+009;1.561067253351212E-001;-7.363152503967285E-002;-4.778554197400808E-003;-6.223353557288647E-004;
2.420666666666667E+009;1.551676839590073E-001;-7.487754523754120E-002;-4.840884357690811E-003;-5.952169303782284E-004;
2.420833333333334E+009;1.541296839714050E-001;-7.622778415679932E-002;-4.679455887526274E-003;-5.457878578454256E-004;
2.421000000000000E+009;1.532845795154572E-001;-7.771859318017960E-002;-4.951652605086565E-003;-3.229244321119040E-004;
2.421166666666667E+009;1.524609327316284E-001;-7.917419075965881E-002;-5.007532425224781E-003;-1.745344634400681E-004;
2.421333333333334E+009;1.519128531217575E-001;-8.094235509634018E-002;-5.108060315251350E-003;2.294558180437889E-005;
2.421500000000000E+009;1.511646807193756E-001;-8.235298097133637E-002;-5.037355236709118E-003;2.492876956239343E-004;
2.421666666666667E+009;1.506268531084061E-001;-8.394297212362289E-002;-5.162199959158897E-003;4.227846220601350E-004;
2.421833333333334E+009;1.503092497587204E-001;-8.571121096611023E-002;-5.055352114140987E-003;5.376839544624090E-004;
2.422000000000000E+009;1.499145179986954E-001;-8.739072829484940E-002;-5.095683038234711E-003;7.747014169581235E-004;
2.422166666666667E+009;1.496263295412064E-001;-8.923061192035675E-002;-5.290892440825701E-003;8.787334663793445E-004;
2.422333333333334E+009;1.494223475456238E-001;-9.075734019279480E-002;-5.239550955593586E-003;1.199426711536944E-003;
2.422500000000000E+009;1.492661833763123E-001;-9.248170256614685E-002;-5.258345976471901E-003;1.410040422342718E-003;
2.422666666666667E+009;1.490692645311356E-001;-9.428038448095322E-002;-5.093047861009836E-003;1.705325208604336E-003;
2.422833333333334E+009;1.493641287088394E-001;-9.597043693065643E-002;-5.160027183592320E-003;1.895320136100054E-003;
2.423000000000000E+009;1.495108902454376E-001;-9.761113673448563E-002;-5.105972755700350E-003;2.128764986991882E-003;
2.423166666666667E+009;1.497782617807388E-001;-9.918922930955887E-002;-5.141075234860182E-003;2.490815240889788E-003;
2.423333333333334E+009;1.499391049146652E-001;-1.007382497191429E-001;-4.892015364021063E-003;2.749430248513818E-003;
2.423500000000000E+009;1.504219174385071E-001;-1.024171411991119E-001;-4.804515745490789E-003;2.971999580040574E-003;
2.423666666666667E+009;1.505100727081299E-001;-1.040472760796547E-001;-4.619588609784842E-003;3.227167995646596E-003;
2.423833333333334E+009;1.510452032089233E-001;-1.054242774844170E-001;-4.506928846240044E-003;3.393909428268671E-003;
2.424000000000000E+009;1.514647603034973E-001;-1.065195426344872E-001;-4.377619363367558E-003;3.574427450075746E-003;
2.424166666666667E+009;1.520007103681564E-001;-1.080064848065376E-001;-4.207166377454996E-003;3.720130538567901E-003;
2.424333333333334E+009;1.524044871330261E-001;-1.091936826705933E-001;-4.151349887251854E-003;4.011717159301043E-003;
2.424500000000000E+009;1.529189646244049E-001;-1.103741452097893E-001;-3.903755685314536E-003;4.194302484393120E-003;
2.424666666666667E+009;1.535994261503220E-001;-1.113918647170067E-001;-3.640419105067849E-003;4.389476031064987E-003;
2.424833333333334E+009;1.539173573255539E-001;-1.123667210340500E-001;-3.308763029053807E-003;4.486944060772657E-003;
2.425000000000000E+009;1.543745696544647E-001;-1.135187968611717E-001;-3.064590506255627E-003;4.663646221160889E-003;
2.425166666666667E+009;1.547144204378128E-001;-1.143315508961678E-001;-2.882091095671058E-003;4.664165433496237E-003;
2.425333333333334E+009;1.551326215267181E-001;-1.150701418519020E-001;-2.682655816897750E-003;4.768414422869682E-003;
2.425500000000000E+009;1.557013839483261E-001;-1.157580614089966E-001;-2.414766466245055E-003;4.842589143663645E-003;
2.425666666666667E+009;1.558355093002319E-001;-1.163808256387711E-001;-2.032602438703179E-003;4.949252586811781E-003;
2.425833333333334E+009;1.561582684516907E-001;-1.169449165463448E-001;-1.890484825707972E-003;4.968613851815462E-003;
2.426000000000000E+009;1.563774347305298E-001;-1.175134479999542E-001;-1.708509400486946E-003;5.039137322455645E-003;
2.426166666666667E+009;1.566394418478012E-001;-1.178373023867607E-001;-1.263454440049827E-003;4.943512380123138E-003;
2.426333333333334E+009;1.566328853368759E-001;-1.182154938578606E-001;-1.272995374165475E-003;5.072360392659903E-003;
2.426500000000000E+009;1.566987186670303E-001;-1.183882802724838E-001;-9.561494807712734E-004;4.962576553225517E-003;
2.426666666666667E+009;1.567258089780808E-001;-1.186084896326065E-001;-8.662460022605956E-004;4.875440150499344E-003;
2.426833333333334E+009;1.563683599233627E-001;-1.188875362277031E-001;-6.082613253965974E-004;4.791895393282175E-003;
2.427000000000000E+009;1.560247242450714E-001;-1.190676167607307E-001;-3.001317672897130E-004;4.873450379818678E-003;
2.427166666666667E+009;1.556803286075592E-001;-1.190560758113861E-001;-1.761915627866983E-004;4.751120228320360E-003;
2.427333333333334E+009;1.552017331123352E-001;-1.191629022359848E-001;5.918164242757484E-005;4.742706660181284E-003;
2.427500000000000E+009;1.547481119632721E-001;-1.193041726946831E-001;1.284347818000242E-004;4.702694248408079E-003;
2.427666666666667E+009;1.540502458810806E-001;-1.193189173936844E-001;5.110538913868368E-004;4.641273990273476E-003;
