# Version 1.00
#
freq[Hz];re:Trc1_S11;im:Trc1_S11;re:Trc2_S21;im:Trc2_S21;
2.400000000000000E+009;1.580109447240830E-001;6.266298890113831E-002;3.143676323816180E-003;2.100738784065470E-004;
2.400166666666667E+009;1.579486578702927E-001;6.105212494730949E-002;2.983958460390568E-003;1.279855205211788E-004;
2.400333333333334E+009;1.577173471450806E-001;5.916168168187141E-002;3.199665574356914E-003;9.511601092526689E-006;
2.400500000000000E+009;1.577850133180618E-001;5.716869607567787E-002;3.095355117693543E-003;-3.808276233030483E-005;
2.400666666666667E+009;1.575848460197449E-001;5.517517775297165E-002;3.071211278438568E-003;-2.422740217298269E-004;
2.400833333333334E+009;1.577202826738358E-001;5.321462824940682E-002;2.987373620271683E-003;-2.282400528201833E-004;
2.401000000000000E+009;1.575923413038254E-001;5.114762857556343E-002;2.957497257739306E-003;-1.635540393181145E-004;
2.401166666666667E+009;1.579274535179138E-001;4.919652640819550E-002;2.906133420765400E-003;-3.322048869449645E-004;
2.401333333333334E+009;1.578548997640610E-001;4.711109772324562E-002;2.749550854787231E-003;-3.451397642493248E-004;
2.401500000000000E+009;1.583999693393707E-001;4.481398314237595E-002;2.835756633430719E-003;-5.493924836628139E-004;
2.401666666666667E+009;1.587060689926148E-001;4.297337308526039E-002;2.871553180739284E-003;-5.954151856712997E-004;
2.401833333333334E+009;1.590688824653626E-001;4.097321629524231E-002;2.796628279611468E-003;-5.346087273210287E-004;
2.402000000000000E+009;1.593797802925110E-001;3.884380310773850E-002;2.594803925603628E-003;-6.871965015307069E-004;
2.402166666666667E+009;1.596540510654450E-001;3.685994446277618E-002;2.670421265065670E-003;-6.513215485028923E-004;
2.402333333333334E+009;1.602814942598343E-001;3.482057899236679E-002;2.636384684592485E-003;-5.647942307405174E-004;
2.402500000000000E+009;1.611018925905228E-001;3.305682912468910E-002;2.374788979068399E-003;-7.369341328740120E-004;
2.402666666666667E+009;1.617625653743744E-001;3.115360625088215E-002;2.479025861248374E-003;-6.507055368274450E-004;
2.402833333333334E+009;1.625219434499741E-001;2.979528345167637E-002;2.498648362234235E-003;-8.017987129278481E-004;
2.403000000000000E+009;1.632681339979172E-001;2.794262766838074E-002;2.234434941783547E-003;-7.658902904950082E-004;
2.403166666666667E+009;1.643829196691513E-001;2.632275037467480E-002;2.413834678009152E-003;-9.013628005050123E-004;
2.403333333333334E+009;1.650791466236115E-001;2.502090297639370E-002;2.426496241241694E-003;-7.137588108889759E-004;
2.403500000000000E+009;1.661584228277206E-001;2.352387644350529E-002;2.345410408452153E-003;-9.865971514955163E-004;
2.403666666666667E+009;1.671387404203415E-001;2.229190245270729E-002;2.310326788574457E-003;-7.814991404302418E-004;
2.403833333333334E+009;1.679978519678116E-001;2.092296443879604E-002;2.037504455074668E-003;-9.051670203916729E-004;
2.404000000000000E+009;1.690411269664764E-001;1.973259449005127E-002;2.304589841514826E-003;-9.375831577926874E-004;
2.404166666666667E+009;1.699921935796738E-001;1.841236278414726E-002;2.172054257243872E-003;-9.717170032672584E-004;
2.404333333333334E+009;1.710271090269089E-001;1.762629486620426E-002;2.144589554518461E-003;-1.017018221318722E-003;
2.404500000000000E+009;1.718160063028336E-001;1.653393171727657E-002;2.354792319238186E-003;-8.786539547145367E-004;
2.404666666666667E+009;1.730501353740692E-001;1.566019468009472E-002;2.279001986607909E-003;-1.058642636053264E-003;
2.404833333333334E+009;1.738664507865906E-001;1.489325426518917E-002;2.147151390090585E-003;-9.531042887829244E-004;
2.405000000000000E+009;1.748032718896866E-001;1.414467766880989E-002;2.156248316168785E-003;-1.049979240633547E-003;
2.405166666666667E+009;1.755635142326355E-001;1.334991026669741E-002;2.201224444434047E-003;-9.262678213417530E-004;
2.405333333333334E+009;1.766513288021088E-001;1.278343703597784E-002;2.247677650302649E-003;-1.102989888750017E-003;
2.405500000000000E+009;1.772619932889938E-001;1.244416180998087E-002;2.142197918146849E-003;-1.119794440455735E-003;
2.405666666666667E+009;1.779201030731201E-001;1.198653504252434E-002;2.245131647214294E-003;-1.087660901248455E-003;
2.405833333333334E+009;1.785408109426498E-001;1.180896628648043E-002;2.326696645468473E-003;-1.233952934853733E-003;
2.406000000000000E+009;1.791918128728867E-001;1.112546026706696E-002;2.119432669132948E-003;-1.359516638331115E-003;
2.406166666666667E+009;1.795916110277176E-001;1.102442108094692E-002;2.217571251094341E-003;-1.257430529221892E-003;
2.406333333333334E+009;1.801108121871948E-001;1.069528888911009E-002;2.043694024905562E-003;-1.296740258112550E-003;
2.406500000000000E+009;1.805707365274429E-001;1.040044799447060E-002;2.214581705629826E-003;-1.305366284213960E-003;
2.406666666666667E+009;1.806683838367462E-001;9.959155693650246E-003;2.207836369052529E-003;-1.405067974701524E-003;
2.406833333333334E+009;1.809252202510834E-001;9.713969193398953E-003;2.210527658462524E-003;-1.368679455481470E-003;
2.407000000000000E+009;1.810259073972702E-001;9.386426769196987E-003;2.121252939105034E-003;-1.617019763216376E-003;
2.407166666666667E+009;1.812386214733124E-001;9.219374507665634E-003;2.223688410595059E-003;-1.535834046080709E-003;
2.407333333333334E+009;1.808813512325287E-001;8.666456677019596E-003;2.107330830767751E-003;-1.684776507318020E-003;
2.407500000000000E+009;1.809203922748566E-001;8.242857642471790E-003;2.218388719484210E-003;-1.643254538066685E-003;
2.407666666666667E+009;1.806229352951050E-001;7.903750054538250E-003;2.142545999959111E-003;-1.812080387026072E-003;
2.407833333333334E+009;1.803385764360428E-001;7.199893239885569E-003;2.085166750475764E-003;-1.778619596734643E-003;
2.408000000000000E+009;1.799746453762054E-001;6.607177201658487E-003;2.081432379782200E-003;-1.758995233103633E-003;
2.408166666666667E+009;1.794488579034805E-001;6.098669487982988E-003;2.100074663758278E-003;-1.875904621556401E-003;
2.408333333333334E+009;1.791415214538574E-001;5.302386824041605E-003;2.145057776942849E-003;-1.917682820931077E-003;
2.408500000000000E+009;1.786086112260819E-001;4.594840109348297E-003;1.947190845385194E-003;-2.015832811594009E-003;
2.408666666666667E+009;1.780136823654175E-001;3.598162671551108E-003;2.008366398513317E-003;-2.077508717775345E-003;
2.408833333333334E+009;1.772774159908295E-001;2.660993020981550E-003;2.085172571241856E-003;-2.131926361471415E-003;
2.409000000000000E+009;1.764949113130570E-001;1.674770028330386E-003;2.003796165809035E-003;-2.069264883175492E-003;
2.409166666666667E+009;1.761044859886169E-001;5.252543487586081E-004;2.009078161790967E-003;-2.268714364618063E-003;
2.409333333333334E+009;1.753619462251663E-001;-6.912365206517279E-004;1.906990655697882E-003;-2.271943259984255E-003;
2.409500000000000E+009;1.746382117271423E-001;-2.113793278113008E-003;1.913750777021051E-003;-2.371990587562323E-003;
2.409666666666667E+009;1.737942099571228E-001;-3.398586530238390E-003;2.043600892648101E-003;-2.527836710214615E-003;
2.409833333333334E+009;1.731225848197937E-001;-4.598903935402632E-003;1.987379044294357E-003;-2.578155836090446E-003;
2.410000000000000E+009;1.725913882255554E-001;-6.209373474121094E-003;1.867658458650112E-003;-2.650815062224865E-003;
2.410166666666667E+009;1.718434542417526E-001;-7.883147336542606E-003;1.969602890312672E-003;-2.748417668044567E-003;
2.410333333333334E+009;1.711027920246124E-001;-9.555114433169365E-003;1.865331898443401E-003;-2.859831787645817E-003;
2.410500000000000E+009;1.705475896596909E-001;-1.128341071307659E-002;1.919624046422541E-003;-2.937062177807093E-003;
2.410666666666667E+009;1.699523031711578E-001;-1.311160996556282E-002;1.843134057708085E-003;-3.015628317371011E-003;
2.410833333333334E+009;1.696222871541977E-001;-1.485956925898790E-002;1.706366892904043E-003;-3.126334631815553E-003;
2.411000000000000E+009;1.691290289163590E-001;-1.667508296668530E-002;1.662769238464534E-003;-3.239065175876021E-003;
2.411166666666667E+009;1.687956452369690E-001;-1.863615401089191E-002;1.502154045738280E-003;-3.359323367476463E-003;
2.411333333333334E+009;1.685593426227570E-001;-2.054472267627716E-002;1.404452370479703E-003;-3.565304912626743E-003;
2.411500000000000E+009;1.681195646524429E-001;-2.262266725301743E-002;1.324883778579533E-003;-3.594369860365987E-003;
2.411666666666667E+009;1.682057827711105E-001;-2.447124011814594E-002;1.133775222115219E-003;-3.774187061935663E-003;
2.411833333333334E+009;1.681953370571137E-001;-2.652667276561260E-002;1.178925973363221E-003;-3.747593844309449E-003;
2.412000000000000E+009;1.683009415864945E-001;-2.818094752728939E-002;1.142167137004435E-003;-3.920698072761297E-003;
2.412166666666667E+009;1.682689040899277E-001;-3.032185323536396E-002;7.375740096904337E-004;-3.861656878143549E-003;
2.412333333333334E+009;1.685207188129425E-001;-3.231366351246834E-002;9.183454094454646E-004;-4.074808675795794E-003;
2.412500000000000E+009;1.685957163572311E-001;-3.444842249155045E-002;5.572173977270722E-004;-4.087488632649183E-003;
2.412666666666667E+009;1.688878536224365E-001;-3.635169565677643E-002;5.110383499413729E-004;-4.136180970817804E-003;
2.412833333333334E+009;1.692070066928864E-001;-3.795730322599411E-002;4.914547898806632E-004;-4.234638065099716E-003;
2.413000000000000E+009;1.694325357675552E-001;-3.976810351014137E-002;1.749504444887862E-004;-4.329931456595659E-003;
2.413166666666667E+009;1.698939651250839E-001;-4.171058535575867E-002;-8.688143134349957E-005;-4.199567716568708E-003;
2.413333333333334E+009;1.703365296125412E-001;-4.326409101486206E-002;-1.408447424182668E-004;-4.506544210016727E-003;
2.413500000000000E+009;1.708678305149078E-001;-4.504847526550293E-002;-2.856405917555094E-004;-4.294142592698336E-003;
2.413666666666667E+009;1.715083867311478E-001;-4.661774635314941E-002;-5.000714445486665E-004;-4.366122186183929E-003;
2.413833333333334E+009;1.719392836093903E-001;-4.815881699323654E-002;-8.333448204211891E-004;-4.308835137635469E-003;
2.414000000000000E+009;1.724471151828766E-001;-4.960183426737785E-002;-7.857407326810062E-004;-4.437835421413183E-003;
2.414166666666667E+009;1.730751693248749E-001;-5.076750740408897E-002;-1.021049334667623E-003;-4.187307786196470E-003;
2.414333333333334E+009;1.736487597227097E-001;-5.203769356012344E-002;-1.189777278341353E-003;-4.208678379654884E-003;
2.414500000000000E+009;1.741409748792648E-001;-5.313783511519432E-002;-1.486608409322798E-003;-4.249104764312506E-003;
2.414666666666667E+009;1.747746318578720E-001;-5.422582104802132E-002;-1.406583236530423E-003;-4.184201359748840E-003;
2.414833333333334E+009;1.751763522624970E-001;-5.520902574062347E-002;-1.551908906549215E-003;-4.218545276671648E-003;
2.415000000000000E+009;1.756560951471329E-001;-5.604065582156181E-002;-1.881289528682828E-003;-4.072964657098055E-003;
2.415166666666667E+009;1.760531365871429E-001;-5.690156295895577E-002;-2.159270690754056E-003;-4.071040544658899E-003;
2.415333333333334E+009;1.764119416475296E-001;-5.762146785855293E-002;-2.111383480951190E-003;-4.120697733014822E-003;
2.415500000000000E+009;1.767524331808090E-001;-5.811247602105141E-002;-2.155841328203678E-003;-3.931835759431124E-003;
2.415666666666667E+009;1.770798265933991E-001;-5.872905999422073E-002;-2.374636242166162E-003;-3.782705171033740E-003;
2.415833333333334E+009;1.774305105209351E-001;-5.912971124053001E-002;-2.641603583469987E-003;-3.663141978904605E-003;
2.416000000000000E+009;1.771993488073349E-001;-5.965358391404152E-002;-2.592537784948945E-003;-3.702149726450443E-003;
2.416166666666667E+009;1.776071786880493E-001;-5.988767743110657E-002;-2.799931913614273E-003;-3.655579872429371E-003;
2.416333333333334E+009;1.774922311306000E-001;-6.023794785141945E-002;-2.912575844675303E-003;-3.394768340513110E-003;
2.416500000000000E+009;1.774345785379410E-001;-6.053556129336357E-002;-2.875104546546936E-003;-3.536354750394821E-003;
2.416666666666667E+009;1.771298646926880E-001;-6.066302955150604E-002;-3.134415019303560E-003;-3.249692497774959E-003;
2.416833333333334E+009;1.770726591348648E-001;-6.103218346834183E-002;-3.237642347812653E-003;-3.112860955297947E-003;
2.417000000000000E+009;1.765170693397522E-001;-6.129308417439461E-002;-3.304515033960342E-003;-2.998388372361660E-003;
2.417166666666667E+009;1.761669516563416E-001;-6.133721768856049E-002;-3.440973348915577E-003;-2.873837715014815E-003;
2.417333333333334E+009;1.756418794393539E-001;-6.156751886010170E-002;-3.629330312833190E-003;-2.856307895854116E-003;
2.417500000000000E+009;1.749840825796127E-001;-6.184189766645432E-002;-3.621776122599840E-003;-2.721688710153103E-003;
2.417666666666667E+009;1.743676364421845E-001;-6.203282624483109E-002;-3.720349399372935E-003;-2.711568493396044E-003;
2.417833333333334E+009;1.735941767692566E-001;-6.216535344719887E-002;-3.724448150023818E-003;-2.529147546738386E-003;
2.418000000000000E+009;1.725914031267166E-001;-6.257747113704681E-002;-3.802749095484614E-003;-2.428231295198202E-003;
2.418166666666667E+009;1.716540455818176E-001;-6.272206455469132E-002;-3.884078701958060E-003;-2.144374651834369E-003;
2.418333333333334E+009;1.710064113140106E-001;-6.322947889566422E-002;-4.027415998280048E-003;-2.052553230896592E-003;
2.418500000000000E+009;1.698148846626282E-001;-6.351586431264877E-002;-4.009127616882324E-003;-2.073572017252445E-003;
2.418666666666667E+009;1.688035428524017E-001;-6.402947753667831E-002;-3.974146675318480E-003;-1.959784189239144E-003;
2.418833333333334E+009;1.676678061485291E-001;-6.454645097255707E-002;-4.183316603302956E-003;-1.883922726847231E-003;
2.419000000000000E+009;1.662791073322296E-001;-6.514730304479599E-002;-4.120504949241877E-003;-1.838969998061657E-003;
2.419166666666667E+009;1.652628779411316E-001;-6.573694199323654E-002;-4.246327094733715E-003;-1.775980228558183E-003;
2.419333333333334E+009;1.638813912868500E-001;-6.628421694040299E-002;-4.267614334821701E-003;-1.442884560674429E-003;
2.419500000000000E+009;1.628218293190002E-001;-6.732098758220673E-002;-4.460629075765610E-003;-1.427042880095542E-003;
2.419666666666667E+009;1.615852266550064E-001;-6.812480092048645E-002;-4.394237417727709E-003;-1.327070873230696E-003;
2.419833333333334E+009;1.602469682693481E-001;-6.896206736564636E-002;-4.451603163033724E-003;-1.265072030946612E-003;
2.420000000000000E+009;1.593215912580490E-001;-7.009963691234589E-002;-4.527681507170200E-003;-1.011984772048891E-003;
2.420166666666667E+009;1.581253856420517E-001;-7.110307365655899E-002;-4.631538409739733E-003;-1.055378350429237E-003;
2.420333333333334E+009;1.571344584226608E-001;-7.248156517744064E-002;-4.618902225047350E-003;-8.131921640597284E-004;
2.420500000000000E+009;1.562133580446243E-001;-7.350437343120575E-002;-4.611009266227484E-003;-4.610729229170829E-004;
2.420666666666667E+009;1.551736146211624E-001;-7.478537410497665E-002;-4.640312865376473E-003;-5.259461468085647E-004;
2.420833333333334E+009;1.542068868875504E-001;-7.617466896772385E-002;-4.784894175827503E-003;-3.739874518942088E-004;
2.421000000000000E+009;1.532610356807709E-001;-7.779584825038910E-002;-4.816811531782150E-003;-3.143887151964009E-004;
2.421166666666667E+009;1.526048928499222E-001;-7.922801375389099E-002;-4.930468741804361E-003;-2.412514586467296E-004;
2.421333333333334E+009;1.519639641046524E-001;-8.082458376884460E-002;-4.999345168471336E-003;-3.418208143557422E-005;
2.421500000000000E+009;1.512573510408402E-001;-8.221220970153809E-002;-5.069354083389044E-003;1.731609227135778E-004;
2.421666666666667E+009;1.506376266479492E-001;-8.389883488416672E-002;-5.078609567135572E-003;4.075593315064907E-004;
2.421833333333334E+009;1.503532528877258E-001;-8.561284095048904E-002;-5.319464486092329E-003;5.142970476299524E-004;
2.422000000000000E+009;1.499823778867722E-001;-8.736678957939148E-002;-5.224021151661873E-003;6.037887651473284E-004;
2.422166666666667E+009;1.495775580406189E-001;-8.916019648313522E-002;-5.215761717408896E-003;9.923588950186968E-004;
2.422333333333334E+009;1.494459360837936E-001;-9.073027968406677E-002;-5.234863609075546E-003;1.079257228411734E-003;
2.422500000000000E+009;1.493423283100128E-001;-9.242588281631470E-002;-5.280768964439631E-003;1.351369428448379E-003;
2.422666666666667E+009;1.492183655500412E-001;-9.417082369327545E-002;-5.219952203333378E-003;1.802246435545385E-003;
2.422833333333334E+009;1.494441330432892E-001;-9.606381505727768E-002;-5.255992058664560E-003;1.995427301153541E-003;
2.423000000000000E+009;1.494279801845551E-001;-9.772565960884094E-002;-5.145438946783543E-003;2.219000831246376E-003;
2.423166666666667E+009;1.497994214296341E-001;-9.934397041797638E-002;-4.915165249258280E-003;2.426785649731755E-003;
2.423333333333334E+009;1.500838994979858E-001;-1.007799580693245E-001;-4.973847884684801E-003;2.895033685490489E-003;
2.423500000000000E+009;1.503306329250336E-001;-1.025080457329750E-001;-4.786172881722450E-003;3.005108097568154E-003;
2.423666666666667E+009;1.504346281290054E-001;-1.041072085499764E-001;-4.750696942210197E-003;3.097867360338569E-003;
2.423833333333334E+009;1.510988324880600E-001;-1.054997518658638E-001;-4.645166452974081E-003;3.422928741201758E-003;
2.424000000000000E+009;1.514081358909607E-001;-1.067371070384979E-001;-4.523661453276873E-003;3.525910899043083E-003;
2.424166666666667E+009;1.518788635730743E-001;-1.082239001989365E-001;-4.283845890313387E-003;3.887502709403634E-003;
2.424333333333334E+009;1.525581628084183E-001;-1.092821285128593E-001;-4.071158822625876E-003;3.920596092939377E-003;
2.424500000000000E+009;1.529567837715149E-001;-1.105832681059837E-001;-3.822420956566930E-003;4.382138606160879E-003;
2.424666666666667E+009;1.535356044769287E-001;-1.114768013358116E-001;-3.502867883071303E-003;4.443619865924120E-003;
2.424833333333334E+009;1.538703590631485E-001;-1.124978736042976E-001;-3.363308263942599E-003;4.560785833746195E-003;
2.425000000000000E+009;1.543512940406799E-001;-1.134735122323036E-001;-3.192875068634749E-003;4.561014939099550E-003;
2.425166666666667E+009;1.547152996063232E-001;-1.143003255128861E-001;-2.923764288425446E-003;4.626506008207798E-003;
2.425333333333334E+009;1.552548408508301E-001;-1.150395870208740E-001;-2.727110171690583E-003;4.748185165226460E-003;
2.425500000000000E+009;1.556123644113541E-001;-1.158630251884460E-001;-2.380148507654667E-003;4.873329773545265E-003;
2.425666666666667E+009;1.557856798171997E-001;-1.163320913910866E-001;-2.157975221052766E-003;4.958453588187695E-003;
2.425833333333334E+009;1.561586260795593E-001;-1.169755607843399E-001;-1.946578500792384E-003;4.963299259543419E-003;
2.426000000000000E+009;1.562217622995377E-001;-1.174522042274475E-001;-1.592922722920775E-003;5.019139032810926E-003;
2.426166666666667E+009;1.565693467855454E-001;-1.179653331637383E-001;-1.347689540125430E-003;5.031732376664877E-003;
2.426333333333334E+009;1.566789597272873E-001;-1.181445717811585E-001;-1.188278896734119E-003;4.888349212706089E-003;
2.426500000000000E+009;1.567451804876328E-001;-1.185719817876816E-001;-1.055051456205547E-003;4.795865621417761E-003;
2.426666666666667E+009;1.566570848226547E-001;-1.184518262743950E-001;-7.085839752107859E-004;4.918254911899567E-003;
2.426833333333334E+009;1.564986556768417E-001;-1.187561377882958E-001;-5.776673206128180E-004;4.936951678246260E-003;
2.427000000000000E+009;1.560927629470825E-001;-1.190059408545494E-001;-4.708157794084400E-004;4.882210399955511E-003;
2.427166666666667E+009;1.557213217020035E-001;-1.189737915992737E-001;-1.410718250554055E-004;4.727613646537066E-003;
2.427333333333334E+009;1.552789509296417E-001;-1.190884634852409E-001;4.789181548403576E-005;4.767599515616894E-003;
2.427500000000000E+009;1.547765880823135E-001;-1.191756725311279E-001;2.788712154142559E-004;4.671137314289808E-003;
2.427666666666667E+009;1.539849340915680E-001;-1.193252280354500E-001;3.346043231431395E-004;4.541216883808374E-003;
