# Version 1.00
#
freq[Hz];re:Trc1_S11;im:Trc1_S11;re:Trc2_S21;im:Trc2_S21;
2.400000000000000E+009;1.580254584550858E-001;6.265638768672943E-002;3.103307681158185E-003;1.550623419461772E-004;
2.400166666666667E+009;1.578878164291382E-001;6.106062605977058E-002;3.098781686276197E-003;1.296263508265838E-004;
2.400333333333334E+009;1.577987670898438E-001;5.914534628391266E-002;3.009802661836147E-003;2.510417834855616E-005;
2.400500000000000E+009;1.575635522603989E-001;5.703556910157204E-002;2.954806201159954E-003;-5.268777749733999E-005;
2.400666666666667E+009;1.575337201356888E-001;5.525606125593185E-002;3.048779908567667E-003;-1.155562640633434E-004;
2.400833333333334E+009;1.576423943042755E-001;5.329145491123200E-002;2.974612405523658E-003;-2.829414734151214E-004;
2.401000000000000E+009;1.576762944459915E-001;5.118289962410927E-002;2.906753215938807E-003;-2.756169997155666E-004;
2.401166666666667E+009;1.578256338834763E-001;4.893365874886513E-002;2.832407131791115E-003;-2.942841965705156E-004;
2.401333333333334E+009;1.578144878149033E-001;4.702862724661827E-002;2.772591542452574E-003;-4.412184352986515E-004;
2.401500000000000E+009;1.582633852958679E-001;4.493296146392822E-002;2.891673473641276E-003;-2.963196311611682E-004;
2.401666666666667E+009;1.585505604743958E-001;4.311199858784676E-002;2.728399587795138E-003;-5.025774007663131E-004;
2.401833333333334E+009;1.590013951063156E-001;4.093458130955696E-002;2.620403189212084E-003;-5.456224898807704E-004;
2.402000000000000E+009;1.593148112297058E-001;3.914928436279297E-002;2.697277581319213E-003;-4.943419480696321E-004;
2.402166666666667E+009;1.599094569683075E-001;3.692672401666641E-002;2.579893684014678E-003;-6.397000397555530E-004;
2.402333333333334E+009;1.603385955095291E-001;3.508762270212174E-002;2.666425192728639E-003;-7.330843945965171E-004;
2.402500000000000E+009;1.611891537904739E-001;3.314344957470894E-002;2.589598996564746E-003;-5.685847718268633E-004;
2.402666666666667E+009;1.617521345615387E-001;3.143355995416641E-002;2.422866411507130E-003;-8.418073994107544E-004;
2.402833333333334E+009;1.624973118305206E-001;2.971501462161541E-002;2.482116455212236E-003;-7.017815369181335E-004;
2.403000000000000E+009;1.635353863239288E-001;2.814714051783085E-002;2.459459938108921E-003;-7.606580038554966E-004;
2.403166666666667E+009;1.643365770578384E-001;2.664159052073956E-002;2.243738155812025E-003;-5.777764599770308E-004;
2.403333333333334E+009;1.651019901037216E-001;2.488894760608673E-002;2.371971728280187E-003;-8.447079453617334E-004;
2.403500000000000E+009;1.660837084054947E-001;2.363476157188416E-002;2.377127530053258E-003;-8.253666455857456E-004;
2.403666666666667E+009;1.670716553926468E-001;2.209635823965073E-002;2.222539857029915E-003;-8.249301463365555E-004;
2.403833333333334E+009;1.680990308523178E-001;2.079083584249020E-002;2.292702673003078E-003;-8.147683111019433E-004;
2.404000000000000E+009;1.690516173839569E-001;1.970390602946281E-002;2.204010495916009E-003;-9.495964040979743E-004;
2.404166666666667E+009;1.699005067348480E-001;1.858492940664291E-002;2.264025155454874E-003;-9.907566709443927E-004;
2.404333333333334E+009;1.709960848093033E-001;1.754162088036537E-002;2.163779223337770E-003;-8.864388801157475E-004;
2.404500000000000E+009;1.718091517686844E-001;1.640447229146957E-002;2.180340932682157E-003;-1.001662458293140E-003;
2.404666666666667E+009;1.729303300380707E-001;1.587790064513683E-002;2.264021662995219E-003;-1.058242982253432E-003;
2.404833333333334E+009;1.737802326679230E-001;1.493616867810488E-002;2.231244929134846E-003;-1.062622526660562E-003;
2.405000000000000E+009;1.748596131801605E-001;1.414643973112106E-002;2.111473586410284E-003;-1.044210628606379E-003;
2.405166666666667E+009;1.755964010953903E-001;1.355733256787062E-002;2.275209873914719E-003;-1.083570648916066E-003;
2.405333333333334E+009;1.766362339258194E-001;1.289104763418436E-002;2.105243038386107E-003;-9.272836614400148E-004;
2.405500000000000E+009;1.773066818714142E-001;1.255296170711517E-002;2.206738805398345E-003;-1.182015519589186E-003;
2.405666666666667E+009;1.779818385839462E-001;1.202812511473894E-002;2.124158665537834E-003;-1.107620773836970E-003;
2.405833333333334E+009;1.784789711236954E-001;1.172986160963774E-002;2.198856789618731E-003;-1.235614297911525E-003;
2.406000000000000E+009;1.790768355131149E-001;1.128390897065401E-002;2.181973075494170E-003;-1.221274957060814E-003;
2.406166666666667E+009;1.796190887689591E-001;1.105313561856747E-002;2.280764980241656E-003;-1.235936069861054E-003;
2.406333333333334E+009;1.800401061773300E-001;1.071243826299906E-002;2.296370454132557E-003;-1.392478588968515E-003;
2.406500000000000E+009;1.804333329200745E-001;1.037649903446436E-002;2.183653181418777E-003;-1.423085690476000E-003;
2.406666666666667E+009;1.805498301982880E-001;1.009071897715330E-002;2.231624210253358E-003;-1.389971235767007E-003;
2.406833333333334E+009;1.808864176273346E-001;9.936792775988579E-003;2.016893355175853E-003;-1.382926478981972E-003;
2.407000000000000E+009;1.810029000043869E-001;9.537624195218086E-003;2.196568064391613E-003;-1.615477958694100E-003;
2.407166666666667E+009;1.811373680830002E-001;9.215352125465870E-003;2.176825888454914E-003;-1.534751267172396E-003;
2.407333333333334E+009;1.809002757072449E-001;8.730491623282433E-003;2.130966400727630E-003;-1.639443100430071E-003;
2.407500000000000E+009;1.809219717979431E-001;8.371456526219845E-003;2.113784197717905E-003;-1.619535498321056E-003;
2.407666666666667E+009;1.805621087551117E-001;7.959409616887569E-003;2.144949277862907E-003;-1.772727118805051E-003;
2.407833333333334E+009;1.801635622978210E-001;7.355882786214352E-003;2.087875735014677E-003;-1.823307946324348E-003;
2.408000000000000E+009;1.799424141645432E-001;6.803875323385000E-003;2.042365726083517E-003;-1.951273647136986E-003;
2.408166666666667E+009;1.793679744005203E-001;6.310072261840105E-003;2.160084899514914E-003;-1.917015761137009E-003;
2.408333333333334E+009;1.792211681604385E-001;5.416607018560171E-003;1.999014755710959E-003;-1.955829327926040E-003;
2.408500000000000E+009;1.784155070781708E-001;4.641746170818806E-003;2.034759614616633E-003;-2.061864826828241E-003;
2.408666666666667E+009;1.779331415891647E-001;3.773417090997100E-003;2.002441557124257E-003;-2.041643019765616E-003;
2.408833333333334E+009;1.771597713232040E-001;2.755636814981699E-003;2.072986681014299E-003;-2.052066614851356E-003;
2.409000000000000E+009;1.765586882829666E-001;1.745269633829594E-003;1.956456340849400E-003;-2.184558659791946E-003;
2.409166666666667E+009;1.759950220584869E-001;6.880526780150831E-004;2.009765245020390E-003;-2.288051182404161E-003;
2.409333333333334E+009;1.752891242504120E-001;-5.809965659864247E-004;2.154569607228041E-003;-2.345483284443617E-003;
2.409500000000000E+009;1.745391190052033E-001;-1.856134389527142E-003;1.995779108256102E-003;-2.408194355666637E-003;
2.409666666666667E+009;1.736558228731155E-001;-3.195621306076646E-003;1.972085330635309E-003;-2.547881565988064E-003;
2.409833333333334E+009;1.730294674634934E-001;-4.843305796384811E-003;1.941941911354661E-003;-2.612670185044408E-003;
2.410000000000000E+009;1.724968403577805E-001;-6.197855807840824E-003;1.790988375432789E-003;-2.547422889620066E-003;
2.410166666666667E+009;1.718607246875763E-001;-7.652061991393566E-003;1.881325617432594E-003;-2.728455001488328E-003;
2.410333333333334E+009;1.712349355220795E-001;-9.371706284582615E-003;1.799323363229632E-003;-2.858002670109272E-003;
2.410500000000000E+009;1.706040501594544E-001;-1.111232209950686E-002;1.817936077713966E-003;-2.981437835842371E-003;
2.410666666666667E+009;1.700268536806107E-001;-1.310877036303282E-002;1.707357354462147E-003;-3.054062137380242E-003;
2.410833333333334E+009;1.696123480796814E-001;-1.481960620731115E-002;1.914838445372880E-003;-3.099309280514717E-003;
2.411000000000000E+009;1.690631508827210E-001;-1.660096831619740E-002;1.563423778861761E-003;-3.341029630973935E-003;
2.411166666666667E+009;1.686678379774094E-001;-1.870501600205898E-002;1.389272511005402E-003;-3.280174452811480E-003;
2.411333333333334E+009;1.684937924146652E-001;-2.049291692674160E-002;1.561364857479930E-003;-3.495797514915466E-003;
2.411500000000000E+009;1.682266443967819E-001;-2.248644270002842E-002;1.378353219479322E-003;-3.596989437937737E-003;
2.411666666666667E+009;1.681350469589233E-001;-2.444810606539249E-002;1.294823945499957E-003;-3.572606481611729E-003;
2.411833333333334E+009;1.682242304086685E-001;-2.622535638511181E-002;1.329376245848835E-003;-3.830094123259187E-003;
2.412000000000000E+009;1.681143492460251E-001;-2.839702926576138E-002;8.657879661768675E-004;-3.876355243846774E-003;
2.412166666666667E+009;1.680838316679001E-001;-3.029733709990978E-002;9.477214189246297E-004;-4.000999499112368E-003;
2.412333333333334E+009;1.684623062610626E-001;-3.224704414606094E-002;8.045167196542025E-004;-3.890822874382138E-003;
2.412500000000000E+009;1.686600148677826E-001;-3.417093306779862E-002;6.436581606976688E-004;-3.994242288172245E-003;
2.412666666666667E+009;1.687808185815811E-001;-3.605752810835838E-002;4.596623766701669E-004;-4.071853589266539E-003;
2.412833333333334E+009;1.692422479391098E-001;-3.813673928380013E-002;4.275917017366737E-004;-4.280618857592344E-003;
2.413000000000000E+009;1.696083247661591E-001;-3.983175382018089E-002;1.434397127013654E-004;-4.358812235295773E-003;
2.413166666666667E+009;1.698453873395920E-001;-4.161112383008003E-002;-5.599336509476416E-005;-4.423615522682667E-003;
2.413333333333334E+009;1.704547852277756E-001;-4.325659573078156E-002;-1.636960369069129E-004;-4.368132911622524E-003;
2.413500000000000E+009;1.708977073431015E-001;-4.502612724900246E-002;-3.158109029754996E-004;-4.360622260719538E-003;
2.413666666666667E+009;1.715421825647354E-001;-4.653633758425713E-002;-5.400280351750553E-004;-4.456412047147751E-003;
2.413833333333334E+009;1.720084846019745E-001;-4.788909479975700E-002;-7.591602625325322E-004;-4.312725737690926E-003;
2.414000000000000E+009;1.722342371940613E-001;-4.935305565595627E-002;-8.684165077283979E-004;-4.311696626245976E-003;
2.414166666666667E+009;1.729988157749176E-001;-5.074641481041908E-002;-1.046478515490890E-003;-4.356367513537407E-003;
2.414333333333334E+009;1.734590679407120E-001;-5.200856178998947E-002;-1.055548782460392E-003;-4.386321641504765E-003;
2.414500000000000E+009;1.742319017648697E-001;-5.317278206348419E-002;-1.193923293612897E-003;-4.276115447282791E-003;
2.414666666666667E+009;1.746703535318375E-001;-5.402807518839836E-002;-1.442652312107384E-003;-4.163246601819992E-003;
2.414833333333334E+009;1.750856339931488E-001;-5.514194071292877E-002;-1.706882962025702E-003;-4.096772521734238E-003;
2.415000000000000E+009;1.754692941904068E-001;-5.596711486577988E-002;-1.924174954183400E-003;-4.054325167089701E-003;
2.415166666666667E+009;1.760464012622833E-001;-5.684427917003632E-002;-2.050787210464478E-003;-4.056842066347599E-003;
2.415333333333334E+009;1.764565408229828E-001;-5.760896578431130E-002;-2.089408459141851E-003;-3.988139331340790E-003;
2.415500000000000E+009;1.767622828483582E-001;-5.814386904239655E-002;-2.160851145163178E-003;-3.925196360796690E-003;
2.415666666666667E+009;1.771223396062851E-001;-5.862653255462647E-002;-2.344846958294511E-003;-3.884805832058191E-003;
2.415833333333334E+009;1.773776859045029E-001;-5.910132080316544E-002;-2.523677889257669E-003;-3.715564031153917E-003;
2.416000000000000E+009;1.772750169038773E-001;-5.945335328578949E-002;-2.601650077849627E-003;-3.634930588304997E-003;
2.416166666666667E+009;1.775222718715668E-001;-5.992178618907929E-002;-2.708834828808904E-003;-3.596881171688438E-003;
2.416333333333334E+009;1.775123775005341E-001;-6.017197296023369E-002;-2.940984442830086E-003;-3.502679988741875E-003;
2.416500000000000E+009;1.772975176572800E-001;-6.045656651258469E-002;-3.047576174139977E-003;-3.352776402607560E-003;
2.416666666666667E+009;1.773596256971359E-001;-6.061306223273277E-002;-3.048631129786372E-003;-3.309607505798340E-003;
2.416833333333334E+009;1.770076155662537E-001;-6.096642836928368E-002;-3.196137025952339E-003;-3.210189752280712E-003;
2.417000000000000E+009;1.765744686126709E-001;-6.109685823321343E-002;-3.244234248995781E-003;-3.039854578673840E-003;
2.417166666666667E+009;1.761453449726105E-001;-6.137849017977715E-002;-3.501650877296925E-003;-3.018748713657260E-003;
2.417333333333334E+009;1.755510568618774E-001;-6.152499839663506E-002;-3.557982156053186E-003;-2.896272577345371E-003;
2.417500000000000E+009;1.750081777572632E-001;-6.187826395034790E-002;-3.551601432263851E-003;-2.791430568322539E-003;
2.417666666666667E+009;1.743918061256409E-001;-6.190563738346100E-002;-3.718703053891659E-003;-2.661423990502954E-003;
2.417833333333334E+009;1.737458705902100E-001;-6.214587762951851E-002;-3.690581303089857E-003;-2.352330135181546E-003;
2.418000000000000E+009;1.727120578289032E-001;-6.254909932613373E-002;-3.797070123255253E-003;-2.447531791403890E-003;
2.418166666666667E+009;1.717429310083389E-001;-6.266628950834274E-002;-3.878199029713869E-003;-2.259620698168874E-003;
2.418333333333334E+009;1.709380000829697E-001;-6.311547011137009E-002;-3.984000068157911E-003;-2.175004454329610E-003;
2.418500000000000E+009;1.698561757802963E-001;-6.349029392004013E-002;-3.902508644387126E-003;-1.936688669957221E-003;
2.418666666666667E+009;1.688832789659500E-001;-6.397441774606705E-002;-3.966960590332747E-003;-1.939078676514328E-003;
2.418833333333334E+009;1.675985306501389E-001;-6.446342915296555E-002;-4.081484396010637E-003;-1.854403410106897E-003;
2.419000000000000E+009;1.664852499961853E-001;-6.499718874692917E-002;-4.152341745793819E-003;-1.737491111271083E-003;
2.419166666666667E+009;1.652437895536423E-001;-6.576406955718994E-002;-4.249918740242720E-003;-1.547222374938428E-003;
2.419333333333334E+009;1.640235185623169E-001;-6.627938151359558E-002;-4.248521756380796E-003;-1.489322865381837E-003;
2.419500000000000E+009;1.628212630748749E-001;-6.723325699567795E-002;-4.257094115018845E-003;-1.413999823853374E-003;
2.419666666666667E+009;1.617108434438705E-001;-6.832033395767212E-002;-4.511144477874041E-003;-1.164315501227975E-003;
2.419833333333334E+009;1.604226082563400E-001;-6.898026168346405E-002;-4.442943260073662E-003;-1.160400686785579E-003;
2.420000000000000E+009;1.593390852212906E-001;-7.011853903532028E-002;-4.392842762172222E-003;-1.126606832258403E-003;
2.420166666666667E+009;1.581089347600937E-001;-7.110828161239624E-002;-4.487575963139534E-003;-1.064825919456780E-003;
2.420333333333334E+009;1.571495682001114E-001;-7.233071327209473E-002;-4.681636579334736E-003;-8.983301813714206E-004;
2.420500000000000E+009;1.562188714742661E-001;-7.357618212699890E-002;-4.675189964473248E-003;-6.835362873971462E-004;
2.420666666666667E+009;1.550064086914063E-001;-7.485862076282501E-002;-4.703789483755827E-003;-5.408979486674070E-004;
2.420833333333334E+009;1.543159037828445E-001;-7.618770003318787E-002;-4.770396277308464E-003;-5.092727369628847E-004;
2.421000000000000E+009;1.533129960298538E-001;-7.762580364942551E-002;-4.844053648412228E-003;-2.049354370683432E-004;
2.421166666666667E+009;1.525626927614212E-001;-7.916058599948883E-002;-4.964875523000956E-003;-2.097346805385314E-005;
2.421333333333334E+009;1.518018096685410E-001;-8.079603314399719E-002;-4.966122098267078E-003;-6.279293302213773E-005;
2.421500000000000E+009;1.512102782726288E-001;-8.224739879369736E-002;-5.267564207315445E-003;1.555736962473020E-004;
2.421666666666667E+009;1.507306247949600E-001;-8.398104459047318E-002;-5.079574882984161E-003;4.511621955316514E-004;
2.421833333333334E+009;1.504095494747162E-001;-8.561282604932785E-002;-5.138691980391741E-003;6.110431277193129E-004;
2.422000000000000E+009;1.498044133186340E-001;-8.726884424686432E-002;-5.234462209045887E-003;6.417647819034755E-004;
2.422166666666667E+009;1.495076566934586E-001;-8.927806466817856E-002;-5.142035428434610E-003;8.562365546822548E-004;
2.422333333333334E+009;1.494725793600082E-001;-9.083539247512817E-002;-5.229262635111809E-003;1.257280819118023E-003;
2.422500000000000E+009;1.493043303489685E-001;-9.240762144327164E-002;-5.217585712671280E-003;1.327653764747083E-003;
2.422666666666667E+009;1.491270214319229E-001;-9.424711763858795E-002;-5.181489512324333E-003;1.846678089350462E-003;
2.422833333333334E+009;1.493029594421387E-001;-9.578955918550491E-002;-5.044816061854363E-003;1.927893492393196E-003;
2.423000000000000E+009;1.492996513843536E-001;-9.767317026853561E-002;-5.075468216091394E-003;2.180262468755245E-003;
2.423166666666667E+009;1.497177332639694E-001;-9.915503114461899E-002;-4.954495001584292E-003;2.528577111661434E-003;
2.423333333333334E+009;1.499678790569305E-001;-1.007676795125008E-001;-4.845194518566132E-003;2.652948023751378E-003;
2.423500000000000E+009;1.504005193710327E-001;-1.023817360401154E-001;-4.881685599684715E-003;2.934110118076205E-003;
2.423666666666667E+009;1.505349874496460E-001;-1.040374040603638E-001;-4.657045006752014E-003;3.173595527186990E-003;
2.423833333333334E+009;1.510825753211975E-001;-1.054051145911217E-001;-4.712159279733896E-003;3.426219569519162E-003;
2.424000000000000E+009;1.515602618455887E-001;-1.066663563251495E-001;-4.344690591096878E-003;3.620776580646634E-003;
2.424166666666667E+009;1.518936753273010E-001;-1.081383004784584E-001;-3.950678277760744E-003;3.762907581403852E-003;
2.424333333333334E+009;1.524103879928589E-001;-1.093412563204765E-001;-4.054801072925329E-003;3.887220984324813E-003;
2.424500000000000E+009;1.529755443334580E-001;-1.105232313275337E-001;-3.838126314803958E-003;4.140054341405630E-003;
2.424666666666667E+009;1.535903662443161E-001;-1.113479435443878E-001;-3.682391950860620E-003;4.298563115298748E-003;
2.424833333333334E+009;1.538792550563812E-001;-1.124642938375473E-001;-3.365224227309227E-003;4.426314029842615E-003;
2.425000000000000E+009;1.544251590967178E-001;-1.134301200509071E-001;-3.145801834762096E-003;4.687528125941753E-003;
2.425166666666667E+009;1.547523736953735E-001;-1.142477542161942E-001;-2.780548296868801E-003;4.841688089072704E-003;
2.425333333333334E+009;1.552423238754273E-001;-1.149881780147553E-001;-2.450910629704595E-003;4.849795717746019E-003;
2.425500000000000E+009;1.555972397327423E-001;-1.156944632530212E-001;-2.160119591280818E-003;4.994950257241726E-003;
2.425666666666667E+009;1.558082848787308E-001;-1.164363548159599E-001;-2.112194197252393E-003;4.885352682322264E-003;
2.425833333333334E+009;1.561863720417023E-001;-1.168608292937279E-001;-1.942556118592620E-003;4.997530020773411E-003;
2.426000000000000E+009;1.563448160886765E-001;-1.174277886748314E-001;-1.682103378698230E-003;4.913473967462778E-003;
2.426166666666667E+009;1.567076146602631E-001;-1.178023442626000E-001;-1.278254203498364E-003;5.039448384195566E-003;
2.426333333333334E+009;1.565174162387848E-001;-1.181336641311646E-001;-1.275102607905865E-003;4.974110051989555E-003;
2.426500000000000E+009;1.567317992448807E-001;-1.183551102876663E-001;-9.231869480572641E-004;5.111325997859240E-003;
2.426666666666667E+009;1.566132009029388E-001;-1.184484139084816E-001;-8.615911938250065E-004;5.042372271418572E-003;
2.426833333333334E+009;1.563991159200668E-001;-1.187095791101456E-001;-4.893548320978880E-004;4.837849177420139E-003;
2.427000000000000E+009;1.561024934053421E-001;-1.189416423439980E-001;-2.520905691199005E-004;4.761485382914543E-003;
2.427166666666667E+009;1.557867527008057E-001;-1.189655363559723E-001;-1.516006595920771E-004;4.663402680307627E-003;
2.427333333333334E+009;1.551046222448349E-001;-1.191456019878388E-001;1.140680833486840E-004;4.805400036275387E-003;
2.427500000000000E+009;1.547656655311585E-001;-1.191998124122620E-001;2.965425301226787E-005;4.723947960883379E-003;
2.427666666666667E+009;1.540916413068771E-001;-1.193288788199425E-001;4.124148108530790E-004;4.541249945759773E-003;
