# Version 1.00
#
freq[Hz];re:Trc1_S11;im:Trc1_S11;re:Trc2_S21;im:Trc2_S21;
2.400000000000000E+009;1.577723473310471E-001;1.118683442473412E-001;5.695832660421729E-004;-3.760218387469649E-003;
2.400166666666667E+009;1.574207097291946E-001;1.098291873931885E-001;4.871462006121874E-004;-3.914753906428814E-003;
2.400333333333334E+009;1.571259498596191E-001;1.076345592737198E-001;4.903785302303731E-004;-4.074517637491226E-003;
2.400500000000000E+009;1.567490249872208E-001;1.050161942839623E-001;2.688924723770469E-004;-4.126211628317833E-003;
2.400666666666667E+009;1.565078198909760E-001;1.025982946157455E-001;1.247161853825674E-004;-4.158281255513430E-003;
2.400833333333334E+009;1.561292558908463E-001;9.970214217901230E-002;4.010852717328817E-005;-4.301224369555712E-003;
2.401000000000000E+009;1.559343785047531E-001;9.685979783535004E-002;-6.152797141112387E-005;-4.224518314003944E-003;
2.401166666666667E+009;1.555968672037125E-001;9.405674785375595E-002;-1.431440759915859E-004;-4.285621922463179E-003;
2.401333333333334E+009;1.555649489164352E-001;9.104522317647934E-002;-2.946020977105945E-004;-4.395842086523771E-003;
2.401500000000000E+009;1.555759757757187E-001;8.807300031185150E-002;-3.359623660799116E-004;-4.231529310345650E-003;
2.401666666666667E+009;1.555794924497604E-001;8.499094098806381E-002;-4.888428957201541E-004;-4.367528017610312E-003;
2.401833333333334E+009;1.558275818824768E-001;8.209870755672455E-002;-4.521352238953114E-004;-4.367416258901358E-003;
2.402000000000000E+009;1.564031988382340E-001;7.920528948307037E-002;-5.958019755780697E-004;-4.521668888628483E-003;
2.402166666666667E+009;1.566736549139023E-001;7.639905065298080E-002;-6.939190207049251E-004;-4.478606395423412E-003;
2.402333333333334E+009;1.573903709650040E-001;7.332059741020203E-002;-7.928686682134867E-004;-4.525636322796345E-003;
2.402500000000000E+009;1.583408415317535E-001;7.070014625787735E-002;-8.498525130562484E-004;-4.667884204536676E-003;
2.402666666666667E+009;1.591331958770752E-001;6.781527400016785E-002;-1.088229357264936E-003;-4.810012411326170E-003;
2.402833333333334E+009;1.604935228824616E-001;6.505049020051956E-002;-1.315496745519340E-003;-4.924262873828411E-003;
2.403000000000000E+009;1.617059558629990E-001;6.219007074832916E-002;-1.297292415983975E-003;-5.063528195023537E-003;
2.403166666666667E+009;1.634005308151245E-001;5.988573655486107E-002;-1.649693935178220E-003;-5.091160535812378E-003;
2.403333333333334E+009;1.646572500467300E-001;5.720837786793709E-002;-1.756198937073350E-003;-5.234415642917156E-003;
2.403500000000000E+009;1.666078716516495E-001;5.486875027418137E-002;-1.902097719721496E-003;-5.298021249473095E-003;
2.403666666666667E+009;1.680524051189423E-001;5.240498855710030E-002;-2.271199831739068E-003;-5.471109412610531E-003;
2.403833333333334E+009;1.698173135519028E-001;5.029397830367088E-002;-2.814156236127019E-003;-5.302984733134508E-003;
2.404000000000000E+009;1.714447587728500E-001;4.796145111322403E-002;-3.243077779188752E-003;-5.354712717235088E-003;
2.404166666666667E+009;1.731419861316681E-001;4.604573547840118E-002;-3.383374307304621E-003;-5.230134818702936E-003;
2.404333333333334E+009;1.749956756830216E-001;4.415655136108398E-002;-3.790352260693908E-003;-4.960115998983383E-003;
2.404500000000000E+009;1.767357289791107E-001;4.251004755496979E-002;-4.134961403906345E-003;-4.961963742971420E-003;
2.404666666666667E+009;1.784736812114716E-001;4.109128937125206E-002;-4.483340308070183E-003;-4.635530058294535E-003;
2.404833333333334E+009;1.804366707801819E-001;3.963318467140198E-002;-4.757521208375692E-003;-4.424127284437418E-003;
2.405000000000000E+009;1.819422692060471E-001;3.872394934296608E-002;-4.918506368994713E-003;-4.078248050063849E-003;
2.405166666666667E+009;1.836921125650406E-001;3.764815628528595E-002;-5.247146822512150E-003;-3.792684525251389E-003;
2.405333333333334E+009;1.853810548782349E-001;3.698517754673958E-002;-5.519885569810867E-003;-3.628410166129470E-003;
2.405500000000000E+009;1.870729774236679E-001;3.650757670402527E-002;-5.512651056051254E-003;-3.269113134592772E-003;
2.405666666666667E+009;1.885515600442886E-001;3.590979799628258E-002;-5.700396839529276E-003;-3.040158655494452E-003;
2.405833333333334E+009;1.902181059122086E-001;3.549762815237045E-002;-5.719034932553768E-003;-2.776350593194366E-003;
2.406000000000000E+009;1.913307607173920E-001;3.531629592180252E-002;-5.777528509497643E-003;-2.541325986385346E-003;
2.406166666666667E+009;1.928240060806274E-001;3.505577519536018E-002;-5.969059187918901E-003;-2.170563675463200E-003;
2.406333333333334E+009;1.940910816192627E-001;3.513818234205246E-002;-5.988653283566237E-003;-1.899170340038836E-003;
2.406500000000000E+009;1.951656192541122E-001;3.528156876564026E-002;-6.130607798695564E-003;-1.654842984862626E-003;
2.406666666666667E+009;1.961939483880997E-001;3.549814596772194E-002;-6.150203756988049E-003;-1.220703357830644E-003;
2.406833333333334E+009;1.970958709716797E-001;3.550077602267265E-002;-6.194029469043016E-003;-1.022848649881780E-003;
2.407000000000000E+009;1.980767995119095E-001;3.587588295340538E-002;-6.174582522362471E-003;-6.743186386302114E-004;
2.407166666666667E+009;1.983393579721451E-001;3.609189391136169E-002;-6.117962766438723E-003;-5.029952735640109E-004;
2.407333333333334E+009;1.986649185419083E-001;3.646699711680412E-002;-6.112808361649513E-003;-8.387963316636160E-005;
2.407500000000000E+009;1.988658159971237E-001;3.669521212577820E-002;-6.110305432230234E-003;8.168129716068506E-005;
2.407666666666667E+009;1.992677301168442E-001;3.655741736292839E-002;-6.154168397188187E-003;6.356753292493522E-004;
2.407833333333334E+009;1.987850964069367E-001;3.726470842957497E-002;-5.527609959244728E-003;4.640959086827934E-004;
2.408000000000000E+009;1.995307803153992E-001;3.735853359103203E-002;-6.345063913613558E-003;6.938219885341823E-004;
2.408166666666667E+009;1.983852088451386E-001;3.712043538689613E-002;-5.342527758330107E-003;1.859970507211983E-003;
2.408333333333334E+009;1.987503916025162E-001;3.696875274181366E-002;-6.221104413270950E-003;1.992266392335296E-003;
2.408500000000000E+009;1.979321837425232E-001;3.731807693839073E-002;-5.672298837453127E-003;1.754552940838039E-003;
2.408666666666667E+009;1.973050087690353E-001;3.729011863470078E-002;-5.273915361613035E-003;1.887440332211554E-003;
2.408833333333334E+009;1.967425346374512E-001;3.686619549989700E-002;-5.164945498108864E-003;2.125996630638838E-003;
2.409000000000000E+009;1.957721710205078E-001;3.647181391716003E-002;-4.894440993666649E-003;2.241963753476739E-003;
2.409166666666667E+009;1.947234272956848E-001;3.591571375727654E-002;-4.569339565932751E-003;2.464932156726718E-003;
2.409333333333334E+009;1.937767118215561E-001;3.539101406931877E-002;-4.332547541707754E-003;2.514373976737261E-003;
2.409500000000000E+009;1.925781518220902E-001;3.446459770202637E-002;-4.266130737960339E-003;2.463009674102068E-003;
2.409666666666667E+009;1.915167123079300E-001;3.320631384849548E-002;-3.954467829316855E-003;2.531858161091805E-003;
2.409833333333334E+009;1.902307122945786E-001;3.221517428755760E-002;-3.845822066068649E-003;2.420767443254590E-003;
2.410000000000000E+009;1.890295892953873E-001;3.097129240632057E-002;-3.584825666621327E-003;2.490709070116282E-003;
2.410166666666667E+009;1.877233833074570E-001;2.953593246638775E-002;-3.648223588243127E-003;2.460153074935079E-003;
2.410333333333334E+009;1.866804361343384E-001;2.801784314215183E-002;-3.470674622803927E-003;2.438595518469811E-003;
2.410500000000000E+009;1.853840649127960E-001;2.640383690595627E-002;-3.408627817407250E-003;2.484214259311557E-003;
2.410666666666667E+009;1.841107010841370E-001;2.433728985488415E-002;-3.358766669407487E-003;2.494859974831343E-003;
2.410833333333334E+009;1.832234114408493E-001;2.232546918094158E-002;-3.105688840150833E-003;2.380240242928267E-003;
2.411000000000000E+009;1.822009533643723E-001;2.038230188190937E-002;-3.247124142944813E-003;2.435398288071156E-003;
2.411166666666667E+009;1.811910271644592E-001;1.837183535099030E-002;-3.175508463755250E-003;2.579097170382738E-003;
2.411333333333334E+009;1.803425699472427E-001;1.588815823197365E-002;-3.147540614008904E-003;2.742448821663857E-003;
2.411500000000000E+009;1.793722808361054E-001;1.343142520636320E-002;-2.985079539939761E-003;2.483899239450693E-003;
2.411666666666667E+009;1.788696646690369E-001;1.114654354751110E-002;-2.891147276386619E-003;2.854426391422749E-003;
2.411833333333334E+009;1.783393323421478E-001;8.680419996380806E-003;-2.879321575164795E-003;2.741619944572449E-003;
2.412000000000000E+009;1.782610267400742E-001;6.039928644895554E-003;-2.985173370689154E-003;2.853072481229901E-003;
2.412166666666667E+009;1.779470741748810E-001;3.808091860264540E-003;-2.632175572216511E-003;2.867033472284675E-003;
2.412333333333334E+009;1.778113245964050E-001;8.867617580108345E-004;-2.551418961957097E-003;2.863646484911442E-003;
2.412500000000000E+009;1.780467778444290E-001;-1.601139898411930E-003;-2.501200884580612E-003;2.904786961153150E-003;
2.412666666666667E+009;1.781778037548065E-001;-4.409272689372301E-003;-2.350088441744447E-003;2.995308954268694E-003;
2.412833333333334E+009;1.787368506193161E-001;-7.062175311148167E-003;-2.221648581326008E-003;2.919901162385941E-003;
2.413000000000000E+009;1.793366670608521E-001;-9.695264510810375E-003;-2.168717794120312E-003;2.778328955173492E-003;
2.413166666666667E+009;1.797927170991898E-001;-1.208088733255863E-002;-2.133149886503816E-003;2.775439992547035E-003;
2.413333333333334E+009;1.808438748121262E-001;-1.481375563889742E-002;-2.167649799957871E-003;2.809611149132252E-003;
2.413500000000000E+009;1.815684288740158E-001;-1.725752279162407E-002;-2.055574674159288E-003;2.875839360058308E-003;
2.413666666666667E+009;1.826980561017990E-001;-1.983528956770897E-002;-2.129447646439076E-003;2.848610281944275E-003;
2.413833333333334E+009;1.838151961565018E-001;-2.217128314077854E-002;-2.231678459793329E-003;2.881476422771812E-003;
2.414000000000000E+009;1.848665922880173E-001;-2.455882169306278E-002;-2.045803004875779E-003;2.871471922844648E-003;
2.414166666666667E+009;1.861508190631867E-001;-2.642454765737057E-002;-2.071873052045703E-003;2.833002246916294E-003;
2.414333333333334E+009;1.872182190418243E-001;-2.883501723408699E-002;-2.194054191932082E-003;2.959553850814700E-003;
2.414500000000000E+009;1.887407451868057E-001;-3.067680075764656E-002;-2.095769625157118E-003;3.221164224669337E-003;
2.414666666666667E+009;1.898157000541687E-001;-3.255080059170723E-002;-2.036455785855651E-003;3.393581602722406E-003;
2.414833333333334E+009;1.911895871162415E-001;-3.425054997205734E-002;-2.139969030395150E-003;3.384861396625638E-003;
2.415000000000000E+009;1.925476044416428E-001;-3.582448884844780E-002;-2.042142674326897E-003;3.569008316844702E-003;
2.415166666666667E+009;1.939902454614639E-001;-3.721108660101891E-002;-1.809931243769825E-003;3.606578800827265E-003;
2.415333333333334E+009;1.953005343675613E-001;-3.831320255994797E-002;-1.697297208011150E-003;3.922033123672009E-003;
2.415500000000000E+009;1.966265290975571E-001;-3.925144672393799E-002;-1.594563364051282E-003;3.873586421832442E-003;
2.415666666666667E+009;1.979501992464066E-001;-4.037584364414215E-002;-1.524529536254704E-003;3.994362894445658E-003;
2.415833333333334E+009;1.991759091615677E-001;-4.112943261861801E-002;-1.453835517168045E-003;3.951279446482658E-003;
2.416000000000000E+009;2.001444846391678E-001;-4.184625670313835E-002;-1.137103536166251E-003;4.042166750878096E-003;
2.416166666666667E+009;2.012880444526672E-001;-4.253908246755600E-002;-1.071770675480366E-003;4.136880859732628E-003;
2.416333333333334E+009;2.022313326597214E-001;-4.295726120471954E-002;-8.884298731572926E-004;4.217447247356176E-003;
2.416500000000000E+009;2.030126005411148E-001;-4.334995150566101E-002;-9.207850089296699E-004;4.155794624239206E-003;
2.416666666666667E+009;2.036412060260773E-001;-4.368153586983681E-002;-6.512136897072196E-004;4.315606318414211E-003;
2.416833333333334E+009;2.041862905025482E-001;-4.369664564728737E-002;-4.730855871457607E-004;4.276231862604618E-003;
2.417000000000000E+009;2.046223729848862E-001;-4.381745681166649E-002;-4.955120966769755E-004;4.328808281570673E-003;
2.417166666666667E+009;2.047827094793320E-001;-4.372699931263924E-002;-1.571541943121702E-004;4.402141086757183E-003;
2.417333333333334E+009;2.049113810062408E-001;-4.330397769808769E-002;-2.264649519929662E-004;4.273460712283850E-003;
2.417500000000000E+009;2.049539834260941E-001;-4.324533417820931E-002;-6.017178293404868E-007;4.350395407527685E-003;
2.417666666666667E+009;2.046306729316711E-001;-4.285417497158051E-002;4.440623524715193E-005;4.240660928189755E-003;
2.417833333333334E+009;2.045773863792419E-001;-4.253217950463295E-002;9.531499381409958E-005;4.318189341574907E-003;
2.418000000000000E+009;2.042023390531540E-001;-4.205685108900070E-002;3.933442349079996E-004;4.172940272837877E-003;
2.418166666666667E+009;2.035983800888062E-001;-4.182526469230652E-002;2.848724252544344E-004;4.305936861783266E-003;
2.418333333333334E+009;2.028718292713165E-001;-4.136636108160019E-002;3.593285218812525E-004;4.253976978361607E-003;
2.418500000000000E+009;2.020325064659119E-001;-4.114685580134392E-002;5.099713453091681E-004;4.480720963329077E-003;
2.418666666666667E+009;2.013289630413055E-001;-4.088959470391274E-002;4.864620568696410E-004;4.319835454225540E-003;
2.418833333333334E+009;2.002258896827698E-001;-4.069735482335091E-002;6.966783548705280E-004;4.461023025214672E-003;
2.419000000000000E+009;1.990115642547607E-001;-4.074846580624580E-002;8.785559912212193E-004;4.466793034225702E-003;
2.419166666666667E+009;1.978406906127930E-001;-4.063773155212402E-002;8.838303037919104E-004;4.612585064023733E-003;
2.419333333333334E+009;1.965361684560776E-001;-4.083888977766037E-002;1.124642556533217E-003;4.544668365269899E-003;
2.419500000000000E+009;1.948972940444946E-001;-4.106485471129417E-002;1.405682647600770E-003;4.667121451348066E-003;
2.419666666666667E+009;1.932308822870255E-001;-4.158172011375427E-002;1.494928845204413E-003;4.759586416184902E-003;
2.419833333333334E+009;1.916536837816238E-001;-4.191408306360245E-002;1.797816832549870E-003;4.748198203742504E-003;
2.420000000000000E+009;1.898807138204575E-001;-4.248750954866409E-002;1.880074734799564E-003;4.650399554520845E-003;
2.420166666666667E+009;1.880719214677811E-001;-4.313092678785324E-002;2.178032184019685E-003;4.694764968007803E-003;
2.420333333333334E+009;1.862496137619019E-001;-4.409767314791679E-002;2.532645361497998E-003;4.581979010254145E-003;
2.420500000000000E+009;1.844276189804077E-001;-4.500226676464081E-002;2.596794161945581E-003;4.317540209740400E-003;
2.420666666666667E+009;1.825408041477203E-001;-4.600241035223007E-002;2.747924765571952E-003;4.289737436920404E-003;
2.420833333333334E+009;1.806735843420029E-001;-4.740723967552185E-002;2.962732454761863E-003;4.198956303298473E-003;
2.421000000000000E+009;1.788926273584366E-001;-4.882477968931198E-002;2.999728545546532E-003;4.070530179888010E-003;
2.421166666666667E+009;1.772266179323196E-001;-5.035953968763351E-002;3.238888457417488E-003;3.979942295700312E-003;
2.421333333333334E+009;1.752834469079971E-001;-5.171645805239677E-002;3.202660474926233E-003;3.683305811136961E-003;
2.421500000000000E+009;1.735636889934540E-001;-5.363537371158600E-002;3.365182783454657E-003;3.628901438787580E-003;
2.421666666666667E+009;1.720588505268097E-001;-5.545148998498917E-002;3.374435240402818E-003;3.655155654996634E-003;
2.421833333333334E+009;1.705927848815918E-001;-5.723439157009125E-002;3.558779135346413E-003;3.425030037760735E-003;
2.422000000000000E+009;1.692241281270981E-001;-5.906978622078896E-002;3.541831159964204E-003;3.342192387208343E-003;
2.422166666666667E+009;1.679995805025101E-001;-6.133238226175308E-002;3.730257041752338E-003;3.204609034582973E-003;
2.422333333333334E+009;1.668094247579575E-001;-6.339295208454132E-002;3.749265102669597E-003;3.248023567721248E-003;
2.422500000000000E+009;1.656357049942017E-001;-6.538120657205582E-002;3.930526319891214E-003;3.061135997995734E-003;
2.422666666666667E+009;1.647745370864868E-001;-6.769246608018875E-002;4.189269151538611E-003;3.144825575873256E-003;
2.422833333333334E+009;1.641526222229004E-001;-7.005168497562408E-002;4.230997525155544E-003;2.858429215848446E-003;
2.423000000000000E+009;1.631737351417542E-001;-7.229580730199814E-002;4.205779172480106E-003;2.869054442271590E-003;
2.423166666666667E+009;1.627574414014816E-001;-7.450076192617416E-002;4.388419911265373E-003;2.797452732920647E-003;
2.423333333333334E+009;1.624334007501602E-001;-7.656518369913101E-002;4.875186830759049E-003;2.575376071035862E-003;
2.423500000000000E+009;1.619627922773361E-001;-7.870057225227356E-002;4.854903556406498E-003;2.431129803881049E-003;
2.423666666666667E+009;1.618740856647492E-001;-8.099611103534699E-002;4.869067575782538E-003;2.186199882999063E-003;
2.423833333333334E+009;1.616995483636856E-001;-8.295486867427826E-002;5.044884979724884E-003;2.008029958233237E-003;
2.424000000000000E+009;1.618576049804688E-001;-8.524926751852036E-002;5.185141693800688E-003;1.671556616201997E-003;
2.424166666666667E+009;1.619551330804825E-001;-8.698482066392899E-002;5.407855380326510E-003;1.472144736908376E-003;
2.424333333333334E+009;1.620980799198151E-001;-8.887596428394318E-002;5.405605770647526E-003;1.223297906108201E-003;
2.424500000000000E+009;1.625208556652069E-001;-9.090847522020340E-002;5.605732090771198E-003;8.952736970968545E-004;
2.424666666666667E+009;1.626501530408859E-001;-9.260145574808121E-002;5.498909857124090E-003;5.851098103448749E-004;
2.424833333333334E+009;1.636352390050888E-001;-9.416482597589493E-002;5.537168588489294E-003;3.383686416782439E-004;
2.425000000000000E+009;1.638218462467194E-001;-9.583380073308945E-002;5.601849406957626E-003;9.745086572365835E-005;
2.425166666666667E+009;1.644017994403839E-001;-9.716898947954178E-002;5.472028627991676E-003;-1.350657839793712E-004;
2.425333333333334E+009;1.648913025856018E-001;-9.841518104076386E-002;5.410429555922747E-003;-4.362735489849001E-004;
2.425500000000000E+009;1.655285954475403E-001;-9.969105571508408E-002;5.132564809173346E-003;-6.734363851137459E-004;
2.425666666666667E+009;1.661883890628815E-001;-1.006526052951813E-001;5.218059755861759E-003;-8.117084507830441E-004;
2.425833333333334E+009;1.667504906654358E-001;-1.017013266682625E-001;5.040743853896856E-003;-1.062457915395498E-003;
2.426000000000000E+009;1.673951297998428E-001;-1.023831740021706E-001;5.013612098991871E-003;-1.329183462075889E-003;
2.426166666666667E+009;1.680558323860169E-001;-1.030143797397614E-001;5.025175865739584E-003;-1.575377769768238E-003;
2.426333333333334E+009;1.685551106929779E-001;-1.037452146410942E-001;4.957496188580990E-003;-1.726374728605151E-003;
2.426500000000000E+009;1.692335009574890E-001;-1.040603816509247E-001;4.753975197672844E-003;-1.974829938262701E-003;
2.426666666666667E+009;1.697682142257690E-001;-1.046011447906494E-001;4.615501500666142E-003;-2.006614347919822E-003;
2.426833333333334E+009;1.703214943408966E-001;-1.047845557332039E-001;4.381079692393541E-003;-2.259745495393872E-003;
2.427000000000000E+009;1.706337779760361E-001;-1.051303744316101E-001;4.283481743186712E-003;-2.484035911038518E-003;
2.427166666666667E+009;1.710724532604218E-001;-1.052687615156174E-001;4.020954947918654E-003;-2.526118187233806E-003;
2.427333333333334E+009;1.713146865367889E-001;-1.054384857416153E-001;3.929831087589264E-003;-2.656581345945597E-003;
2.427500000000000E+009;1.714699417352676E-001;-1.055185496807098E-001;3.873390145599842E-003;-2.737115137279034E-003;
2.427666666666667E+009;1.713658124208450E-001;-1.055047065019608E-001;3.665004624053836E-003;-2.812235848978162E-003;
2.427833333333334E+009;1.713332980871201E-001;-1.056012064218521E-001;3.396671963855624E-003;-3.072973340749741E-003;
