# Version 1.00
#
freq[Hz];re:Trc1_S11;im:Trc1_S11;re:Trc2_S21;im:Trc2_S21;
2.400000000000000E+009;1.579710096120834E-001;1.119499802589417E-001;5.696169100701809E-004;-4.474908113479614E-003;
2.400166666666667E+009;1.573052406311035E-001;1.098625585436821E-001;4.773650725837797E-004;-4.430990200489759E-003;
2.400333333333334E+009;1.569401323795319E-001;1.074718162417412E-001;4.495066241361201E-004;-4.527782555669546E-003;
2.400500000000000E+009;1.567358672618866E-001;1.049637272953987E-001;2.194915578002110E-004;-4.645335488021374E-003;
2.400666666666667E+009;1.563579738140106E-001;1.025421991944313E-001;1.274620153708383E-004;-4.696486052125692E-003;
2.400833333333334E+009;1.561173945665360E-001;9.961595386266708E-002;-1.056333421729505E-004;-4.636120051145554E-003;
2.401000000000000E+009;1.557920277118683E-001;9.672696888446808E-002;-1.620665861992165E-004;-4.634365905076265E-003;
2.401166666666667E+009;1.555013507604599E-001;9.395658969879150E-002;-2.847694559022784E-004;-4.689978435635567E-003;
2.401333333333334E+009;1.555052697658539E-001;9.118601679801941E-002;-3.496422432363033E-004;-4.799720365554094E-003;
2.401500000000000E+009;1.555281579494476E-001;8.810196816921234E-002;-3.386343014426529E-004;-4.730205051600933E-003;
2.401666666666667E+009;1.555871963500977E-001;8.510337024927139E-002;-5.384047399275005E-004;-4.752694163471460E-003;
2.401833333333334E+009;1.557056158781052E-001;8.219988644123077E-002;-5.717557505704463E-004;-4.860122688114643E-003;
2.402000000000000E+009;1.561877727508545E-001;7.918937504291534E-002;-7.065376266837120E-004;-4.947645589709282E-003;
2.402166666666667E+009;1.566177308559418E-001;7.650216668844223E-002;-6.989732501097024E-004;-4.928414244204760E-003;
2.402333333333334E+009;1.573270708322525E-001;7.330695539712906E-002;-6.582047790288925E-004;-5.046149250119925E-003;
2.402500000000000E+009;1.583890765905380E-001;7.041835039854050E-002;-9.647940169088543E-004;-5.235746968537569E-003;
2.402666666666667E+009;1.593316197395325E-001;6.780537217855454E-002;-1.072762534022331E-003;-5.256882403045893E-003;
2.402833333333334E+009;1.604541242122650E-001;6.498912721872330E-002;-1.303202356211841E-003;-5.451022647321224E-003;
2.403000000000000E+009;1.615944951772690E-001;6.226668134331703E-002;-1.524070859886706E-003;-5.446316208690405E-003;
2.403166666666667E+009;1.633197218179703E-001;5.991731956601143E-002;-1.731073716655374E-003;-5.583705846220255E-003;
2.403333333333334E+009;1.646797806024551E-001;5.717276781797409E-002;-1.988243544474244E-003;-5.735416896641254E-003;
2.403500000000000E+009;1.663357615470886E-001;5.489636212587357E-002;-2.238487126305699E-003;-5.777013953775168E-003;
2.403666666666667E+009;1.682636886835098E-001;5.244866758584976E-002;-2.628617919981480E-003;-5.939957685768604E-003;
2.403833333333334E+009;1.697373837232590E-001;5.021989345550537E-002;-3.056105459108949E-003;-5.844966508448124E-003;
2.404000000000000E+009;1.713826358318329E-001;4.807288944721222E-002;-3.247629618272185E-003;-5.719352047890425E-003;
2.404166666666667E+009;1.732841134071350E-001;4.603800177574158E-002;-3.681195899844170E-003;-5.702581256628037E-003;
2.404333333333334E+009;1.749579161405563E-001;4.418795555830002E-002;-4.106861073523760E-003;-5.532384384423494E-003;
2.404500000000000E+009;1.768013685941696E-001;4.256562888622284E-002;-4.529499448835850E-003;-5.481101572513580E-003;
2.404666666666667E+009;1.784090250730515E-001;4.113673418760300E-002;-4.933918360620737E-003;-5.106680560857058E-003;
2.404833333333334E+009;1.802693456411362E-001;3.960261493921280E-002;-5.061118397861719E-003;-4.824148956686258E-003;
2.405000000000000E+009;1.819128990173340E-001;3.871338814496994E-002;-5.245963111519814E-003;-4.445417318493128E-003;
2.405166666666667E+009;1.837510764598846E-001;3.764978423714638E-002;-5.456540267914534E-003;-4.296450410038233E-003;
2.405333333333334E+009;1.854309737682343E-001;3.711474686861038E-002;-5.822512321174145E-003;-3.962448332458735E-003;
2.405500000000000E+009;1.870176792144775E-001;3.636355325579643E-002;-5.892708431929350E-003;-3.671627026051283E-003;
2.405666666666667E+009;1.885910332202911E-001;3.583335503935814E-002;-5.986737553030253E-003;-3.318518400192261E-003;
2.405833333333334E+009;1.901690959930420E-001;3.546271473169327E-002;-6.429373286664486E-003;-3.015562193468213E-003;
2.406000000000000E+009;1.914631724357605E-001;3.524899110198021E-002;-6.290913093835115E-003;-2.839615801349282E-003;
2.406166666666667E+009;1.928273588418961E-001;3.513605147600174E-002;-6.291539408266544E-003;-2.402242273092270E-003;
2.406333333333334E+009;1.940319538116455E-001;3.517685830593109E-002;-6.514943204820156E-003;-2.170884516090155E-003;
2.406500000000000E+009;1.952436864376068E-001;3.524317964911461E-002;-6.523615680634975E-003;-1.906599616631866E-003;
2.406666666666667E+009;1.961706131696701E-001;3.551704064011574E-002;-6.639251485466957E-003;-1.599350129254162E-003;
2.406833333333334E+009;1.970212161540985E-001;3.569560870528221E-002;-6.584124173969030E-003;-1.298453425988555E-003;
2.407000000000000E+009;1.977107226848602E-001;3.604267910122871E-002;-6.503856275230646E-003;-9.017691481858492E-004;
2.407166666666667E+009;1.984458565711975E-001;3.602481633424759E-002;-6.569857243448496E-003;-8.085496956482530E-004;
2.407333333333334E+009;1.987267285585403E-001;3.646754100918770E-002;-6.581507623195648E-003;-4.044716770295054E-004;
2.407500000000000E+009;1.989645659923554E-001;3.686964884400368E-002;-6.423604674637318E-003;-1.822645717766136E-004;
2.407666666666667E+009;1.992264240980148E-001;3.713357821106911E-002;-6.540243513882160E-003;1.892106811283156E-004;
2.407833333333334E+009;1.989990472793579E-001;3.733967617154121E-002;-6.541380658745766E-003;2.493063511792570E-004;
2.408000000000000E+009;1.992193162441254E-001;3.762094303965569E-002;-6.262690294533968E-003;5.877367802895606E-004;
2.408166666666667E+009;1.988575458526611E-001;3.767265006899834E-002;-6.320827640593052E-003;9.927997598424554E-004;
2.408333333333334E+009;1.985371410846710E-001;3.761270642280579E-002;-6.161953322589397E-003;1.180063467472792E-003;
2.408500000000000E+009;1.978940218687058E-001;3.752762451767921E-002;-5.984821356832981E-003;1.467791502363980E-003;
2.408666666666667E+009;1.974796503782272E-001;3.757423534989357E-002;-5.987366661429405E-003;1.670008990913630E-003;
2.408833333333334E+009;1.968219429254532E-001;3.710833564400673E-002;-5.645563825964928E-003;1.865374855697155E-003;
2.409000000000000E+009;1.959099322557449E-001;3.680559620261192E-002;-5.432931706309319E-003;2.075040247291327E-003;
2.409166666666667E+009;1.948497146368027E-001;3.611714392900467E-002;-5.222756881266832E-003;2.128612715750933E-003;
2.409333333333334E+009;1.939426511526108E-001;3.551616892218590E-002;-5.030639935284853E-003;2.171166473999620E-003;
2.409500000000000E+009;1.928139775991440E-001;3.465721756219864E-002;-4.963230341672897E-003;2.341337967664003E-003;
2.409666666666667E+009;1.915639638900757E-001;3.351004794239998E-002;-4.617531318217516E-003;2.403643447905779E-003;
2.409833333333334E+009;1.903969049453735E-001;3.239661082625389E-002;-4.405950196087360E-003;2.435724949464202E-003;
2.410000000000000E+009;1.893769949674606E-001;3.124130703508854E-002;-4.388562869280577E-003;2.416959032416344E-003;
2.410166666666667E+009;1.879066675901413E-001;2.967032790184021E-002;-4.244982264935970E-003;2.416103612631559E-003;
2.410333333333334E+009;1.868429034948349E-001;2.800660021603108E-002;-4.010148346424103E-003;2.405883977189660E-003;
2.410500000000000E+009;1.854742914438248E-001;2.647593431174755E-002;-4.199233837425709E-003;2.519001485779882E-003;
2.410666666666667E+009;1.843083202838898E-001;2.444350719451904E-002;-4.119874443858862E-003;2.568931085988879E-003;
2.410833333333334E+009;1.833632737398148E-001;2.232297882437706E-002;-3.938816022127867E-003;2.541134599596262E-003;
2.411000000000000E+009;1.823267489671707E-001;2.034723944962025E-002;-3.830785397440195E-003;2.652496797963977E-003;
2.411166666666667E+009;1.813115775585175E-001;1.837920583784580E-002;-3.776404308155179E-003;2.717264229431748E-003;
2.411333333333334E+009;1.805673241615295E-001;1.582582853734493E-002;-3.731768578290939E-003;2.680341014638543E-003;
2.411500000000000E+009;1.795667707920075E-001;1.358960662037134E-002;-3.694943618029356E-003;2.793775871396065E-003;
2.411666666666667E+009;1.793990135192871E-001;1.105881948024035E-002;-3.607754828408361E-003;3.036594716832042E-003;
2.411833333333334E+009;1.786101311445236E-001;8.702789433300495E-003;-3.486241446807981E-003;3.152747172862291E-003;
2.412000000000000E+009;1.784080862998962E-001;6.007174029946327E-003;-3.435044782236219E-003;3.235209267586470E-003;
2.412166666666667E+009;1.782451272010803E-001;3.421864472329617E-003;-3.345296252518892E-003;3.174685640260577E-003;
2.412333333333334E+009;1.781454086303711E-001;8.400938240811229E-004;-3.154353005811572E-003;3.212639596313238E-003;
2.412500000000000E+009;1.781961917877197E-001;-1.890720566734672E-003;-3.018320538103581E-003;3.220536746084690E-003;
2.412666666666667E+009;1.786651909351349E-001;-4.547072574496269E-003;-2.900209045037627E-003;3.434114158153534E-003;
2.412833333333334E+009;1.790438145399094E-001;-7.170898374170065E-003;-2.929562469944358E-003;3.324944525957108E-003;
2.413000000000000E+009;1.795767098665237E-001;-9.756399318575859E-003;-2.869849326089025E-003;3.258861135691404E-003;
2.413166666666667E+009;1.801385283470154E-001;-1.230018585920334E-002;-2.697408199310303E-003;3.283867612481117E-003;
2.413333333333334E+009;1.809487342834473E-001;-1.481749210506678E-002;-2.624762710183859E-003;3.385708434507251E-003;
2.413500000000000E+009;1.818278580904007E-001;-1.754825189709663E-002;-2.539530163630843E-003;3.322228090837598E-003;
2.413666666666667E+009;1.829534173011780E-001;-2.001398615539074E-002;-2.487198449671269E-003;3.345220116898418E-003;
2.413833333333334E+009;1.837800890207291E-001;-2.246457338333130E-002;-2.507289638742805E-003;3.374328836798668E-003;
2.414000000000000E+009;1.849270910024643E-001;-2.466082759201527E-002;-2.459305804222822E-003;3.443593392148614E-003;
2.414166666666667E+009;1.862222552299500E-001;-2.700083144009113E-002;-2.594697521999478E-003;3.555781673640013E-003;
2.414333333333334E+009;1.874538809061050E-001;-2.923203259706497E-002;-2.582564484328032E-003;3.677559085190296E-003;
2.414500000000000E+009;1.886369138956070E-001;-3.084082156419754E-002;-2.386484527960420E-003;3.766287351027131E-003;
2.414666666666667E+009;1.899438798427582E-001;-3.278721868991852E-002;-2.368165412917733E-003;3.956244792789221E-003;
2.414833333333334E+009;1.912197619676590E-001;-3.458290174603462E-002;-2.290040254592896E-003;4.010452888906002E-003;
2.415000000000000E+009;1.925863325595856E-001;-3.602183237671852E-002;-2.211166312918067E-003;4.053304903209209E-003;
2.415166666666667E+009;1.939345002174377E-001;-3.732506558299065E-002;-2.002196153625846E-003;4.252156708389521E-003;
2.415333333333334E+009;1.952321380376816E-001;-3.862228989601135E-002;-1.930006430484355E-003;4.427609965205193E-003;
2.415500000000000E+009;1.966543942689896E-001;-3.946059197187424E-002;-1.806414686143398E-003;4.476225469261408E-003;
2.415666666666667E+009;1.978164613246918E-001;-4.067403450608254E-002;-1.693157479166985E-003;4.369083326309919E-003;
2.415833333333334E+009;1.989868879318237E-001;-4.145919904112816E-002;-1.508385059423745E-003;4.627625457942486E-003;
2.416000000000000E+009;2.001306712627411E-001;-4.211350530385971E-002;-1.442232402041555E-003;4.650793503969908E-003;
2.416166666666667E+009;2.011137753725052E-001;-4.284401610493660E-002;-1.266048755496740E-003;4.684330895543098E-003;
2.416333333333334E+009;2.021423876285553E-001;-4.318515211343765E-002;-1.054562511853874E-003;4.641661420464516E-003;
2.416500000000000E+009;2.029746323823929E-001;-4.366920143365860E-002;-8.829921716824174E-004;4.867917392402887E-003;
2.416666666666667E+009;2.036264538764954E-001;-4.393738135695458E-002;-8.088736794888973E-004;4.845862742513418E-003;
2.416833333333334E+009;2.040750682353973E-001;-4.400661215186119E-002;-6.255625048652291E-004;4.752187989652157E-003;
2.417000000000000E+009;2.044888287782669E-001;-4.411078244447708E-002;-3.040841547772288E-004;4.748852457851172E-003;
2.417166666666667E+009;2.045645862817764E-001;-4.399915039539337E-002;-1.507455745013431E-004;4.710277076810598E-003;
2.417333333333334E+009;2.047094255685806E-001;-4.361919686198235E-002;-1.284125464735553E-004;4.831549245864153E-003;
2.417500000000000E+009;2.047132998704910E-001;-4.356218874454498E-002;-2.086259883071762E-005;4.817689768970013E-003;
2.417666666666667E+009;2.044744491577148E-001;-4.321867600083351E-002;1.291785065404838E-005;4.741860087960959E-003;
2.417833333333334E+009;2.043325752019882E-001;-4.278783500194550E-002;9.553790732752532E-005;4.892648663371801E-003;
2.418000000000000E+009;2.039611041545868E-001;-4.236227646470070E-002;1.639058609725907E-004;4.725079052150250E-003;
2.418166666666667E+009;2.034500390291214E-001;-4.202850162982941E-002;3.136495652142912E-004;4.684113431721926E-003;
2.418333333333334E+009;2.026361376047134E-001;-4.153594002127647E-002;3.285405109636486E-004;4.760842770338059E-003;
2.418500000000000E+009;2.019358575344086E-001;-4.141821339726448E-002;4.508568672463298E-004;4.743145778775215E-003;
2.418666666666667E+009;2.010056078433991E-001;-4.108618199825287E-002;6.204404053278267E-004;4.812578670680523E-003;
2.418833333333334E+009;1.999967694282532E-001;-4.095530882477760E-002;7.036589086055756E-004;5.046815145760775E-003;
2.419000000000000E+009;1.987413614988327E-001;-4.079179465770721E-002;6.993164424784482E-004;4.975548014044762E-003;
2.419166666666667E+009;1.975362598896027E-001;-4.080114886164665E-002;9.267530404031277E-004;4.927260801196098E-003;
2.419333333333334E+009;1.960430592298508E-001;-4.103015735745430E-002;1.000977586954832E-003;5.214883945882320E-003;
2.419500000000000E+009;1.945681273937225E-001;-4.117247834801674E-002;1.326025696471334E-003;5.286396015435457E-003;
2.419666666666667E+009;1.930333226919174E-001;-4.157064110040665E-002;1.545843086205423E-003;5.252233706414700E-003;
2.419833333333334E+009;1.912297904491425E-001;-4.203397408127785E-002;1.744072884321213E-003;5.292937625199556E-003;
2.420000000000000E+009;1.895275413990021E-001;-4.246119782328606E-002;2.026510890573263E-003;5.288937129080296E-003;
2.420166666666667E+009;1.877671033143997E-001;-4.310450330376625E-002;2.339940518140793E-003;5.185000132769346E-003;
2.420333333333334E+009;1.861374825239182E-001;-4.405773058533669E-002;2.535584848374128E-003;4.999322816729546E-003;
2.420500000000000E+009;1.839804202318192E-001;-4.517589136958122E-002;2.711180131882429E-003;5.001263692975044E-003;
2.420666666666667E+009;1.823810636997223E-001;-4.601860418915749E-002;2.903275191783905E-003;4.874770063906908E-003;
2.420833333333334E+009;1.803824603557587E-001;-4.735262691974640E-002;3.001825651153922E-003;4.757820162922144E-003;
2.421000000000000E+009;1.786674857139587E-001;-4.872424155473709E-002;3.216954413801432E-003;4.668410401791334E-003;
2.421166666666667E+009;1.769894510507584E-001;-5.015753209590912E-002;3.308082697913051E-003;4.597040824592114E-003;
2.421333333333334E+009;1.750000566244125E-001;-5.167822912335396E-002;3.468693234026432E-003;4.203326534479857E-003;
2.421500000000000E+009;1.735093444585800E-001;-5.342957377433777E-002;3.704771166667342E-003;4.219414666295052E-003;
2.421666666666667E+009;1.718885749578476E-001;-5.519308149814606E-002;3.593427129089832E-003;4.032800439745188E-003;
2.421833333333334E+009;1.705931276082993E-001;-5.710640922188759E-002;3.762308973819017E-003;4.031067714095116E-003;
2.422000000000000E+009;1.690807640552521E-001;-5.883466452360153E-002;3.741518361493945E-003;3.845682367682457E-003;
2.422166666666667E+009;1.678850948810577E-001;-6.120284646749497E-002;3.967329859733582E-003;3.785937326028943E-003;
2.422333333333334E+009;1.665478944778442E-001;-6.324687600135803E-002;4.033909644931555E-003;3.792232368141413E-003;
2.422500000000000E+009;1.654294878244400E-001;-6.539031118154526E-002;4.291520919650793E-003;3.783421590924263E-003;
2.422666666666667E+009;1.646618396043778E-001;-6.756708770990372E-002;4.354088567197323E-003;3.616489702835679E-003;
2.422833333333334E+009;1.638659536838532E-001;-6.977964937686920E-002;4.674879368394613E-003;3.462041728198528E-003;
2.423000000000000E+009;1.630217880010605E-001;-7.213226705789566E-002;4.779482260346413E-003;3.337032860144973E-003;
2.423166666666667E+009;1.626364737749100E-001;-7.415249198675156E-002;4.823973868042231E-003;3.245794912800193E-003;
2.423333333333334E+009;1.621842086315155E-001;-7.646304368972778E-002;5.060891155153513E-003;3.180151572450995E-003;
2.423500000000000E+009;1.619012504816055E-001;-7.855928689241409E-002;5.321566481143236E-003;2.717682160437107E-003;
2.423666666666667E+009;1.618151515722275E-001;-8.064071089029312E-002;5.487426649779081E-003;2.740292577072978E-003;
2.423833333333334E+009;1.616694778203964E-001;-8.278251439332962E-002;5.571943707764149E-003;2.440403914079070E-003;
2.424000000000000E+009;1.617820262908936E-001;-8.495103567838669E-002;5.747705698013306E-003;2.121483441442251E-003;
2.424166666666667E+009;1.618711948394775E-001;-8.679313957691193E-002;5.858450196683407E-003;1.966515555977821E-003;
2.424333333333334E+009;1.621594130992889E-001;-8.856955915689468E-002;5.830418784171343E-003;1.573388115502894E-003;
2.424500000000000E+009;1.625704914331436E-001;-9.077454358339310E-002;6.015921477228403E-003;1.410510158166289E-003;
2.424666666666667E+009;1.628227382898331E-001;-9.237776696681976E-002;6.102968472987413E-003;1.014963374473155E-003;
2.424833333333334E+009;1.635019481182098E-001;-9.392948448657990E-002;5.958619527518749E-003;7.433688151650131E-004;
2.425000000000000E+009;1.638861447572708E-001;-9.563398361206055E-002;6.060153245925903E-003;4.649628244806081E-004;
2.425166666666667E+009;1.643267869949341E-001;-9.689094871282578E-002;6.013801321387291E-003;2.852044126484543E-004;
2.425333333333334E+009;1.649117618799210E-001;-9.816845506429672E-002;5.992371123284102E-003;-4.427647218108177E-005;
2.425500000000000E+009;1.656912714242935E-001;-9.944858402013779E-002;5.918983835726976E-003;-3.881732409354299E-004;
2.425666666666667E+009;1.661764532327652E-001;-1.004510223865509E-001;5.814858246594667E-003;-5.819033249281347E-004;
2.425833333333334E+009;1.667101532220841E-001;-1.014684811234474E-001;5.773989483714104E-003;-8.705802611075342E-004;
2.426000000000000E+009;1.674808114767075E-001;-1.020533218979836E-001;5.605651065707207E-003;-1.037451205775142E-003;
2.426166666666667E+009;1.681294590234757E-001;-1.028026044368744E-001;5.421151872724295E-003;-1.369313569739461E-003;
2.426333333333334E+009;1.685926318168640E-001;-1.035453602671623E-001;5.486195441335440E-003;-1.456680358387530E-003;
2.426500000000000E+009;1.693670004606247E-001;-1.038756668567658E-001;5.277360789477825E-003;-1.708439900539815E-003;
2.426666666666667E+009;1.698609292507172E-001;-1.043146401643753E-001;5.289011169224978E-003;-1.813068636693060E-003;
2.426833333333334E+009;1.704544574022293E-001;-1.046910583972931E-001;5.004893522709608E-003;-2.066222252324224E-003;
2.427000000000000E+009;1.708788573741913E-001;-1.049722954630852E-001;4.934426397085190E-003;-2.241194248199463E-003;
2.427166666666667E+009;1.712144464254379E-001;-1.050585061311722E-001;4.842866677790880E-003;-2.464944263920188E-003;
2.427333333333334E+009;1.714801341295242E-001;-1.052826717495918E-001;4.758654162287712E-003;-2.689169486984611E-003;
2.427500000000000E+009;1.715470701456070E-001;-1.053753048181534E-001;4.489019047468901E-003;-2.789173973724246E-003;
2.427666666666667E+009;1.716410517692566E-001;-1.054504215717316E-001;4.070810042321682E-003;-3.011856228113174E-003;
2.427833333333334E+009;1.716309636831284E-001;-1.053610369563103E-001;4.259566310793161E-003;-3.000878030434251E-003;
