# Version 1.00
#
freq[Hz];re:Trc1_S11;im:Trc1_S11;re:Trc2_S21;im:Trc2_S21;
2.400000000000000E+009;1.578671336174011E-001;1.118507981300354E-001;8.732347050681710E-004;-3.818792989477515E-003;
2.400166666666667E+009;1.572173982858658E-001;1.097400486469269E-001;8.540887502022088E-004;-4.051019903272390E-003;
2.400333333333334E+009;1.571619808673859E-001;1.075845658779144E-001;5.952907376922667E-004;-4.214670974761248E-003;
2.400500000000000E+009;1.566888391971588E-001;1.047896519303322E-001;6.553697749041021E-004;-4.277978558093309E-003;
2.400666666666667E+009;1.562908291816711E-001;1.025290787220001E-001;5.700772744603455E-004;-4.246658179908991E-003;
2.400833333333334E+009;1.559139639139175E-001;9.957902133464813E-002;2.877837687265128E-004;-4.250299651175737E-003;
2.401000000000000E+009;1.557642072439194E-001;9.652121365070343E-002;2.210985403507948E-004;-4.296311642974615E-003;
2.401166666666667E+009;1.555162668228149E-001;9.395480901002884E-002;8.672006515553221E-005;-4.416439216583967E-003;
2.401333333333334E+009;1.555708944797516E-001;9.096127748489380E-002;8.416573837166652E-005;-4.427439533174038E-003;
2.401500000000000E+009;1.554673910140991E-001;8.802538365125656E-002;-5.872637484571897E-005;-4.349593073129654E-003;
2.401666666666667E+009;1.555170565843582E-001;8.507010340690613E-002;-1.357873843517155E-004;-4.332740325480700E-003;
2.401833333333334E+009;1.555640250444412E-001;8.202083408832550E-002;-1.620510884094983E-004;-4.555385094136000E-003;
2.402000000000000E+009;1.561921685934067E-001;7.917264103889465E-002;-3.248284920118749E-004;-4.743051715195179E-003;
2.402166666666667E+009;1.567413657903671E-001;7.626226544380188E-002;-3.177820472046733E-004;-4.866112489253283E-003;
2.402333333333334E+009;1.572808921337128E-001;7.329666614532471E-002;-4.587659204844385E-004;-4.980098921805620E-003;
2.402500000000000E+009;1.581994891166687E-001;7.053423672914505E-002;-4.499277565628290E-004;-5.037636496126652E-003;
2.402666666666667E+009;1.592864394187927E-001;6.784605979919434E-002;-5.430227611213923E-004;-4.905963782221079E-003;
2.402833333333334E+009;1.602237522602081E-001;6.508350372314453E-002;-7.628337480127811E-004;-5.146268289536238E-003;
2.403000000000000E+009;1.615954190492630E-001;6.235487386584282E-002;-9.316026116721332E-004;-5.295643117278814E-003;
2.403166666666667E+009;1.631398499011993E-001;6.001644581556320E-002;-1.255388488061726E-003;-5.653349217027426E-003;
2.403333333333334E+009;1.644546389579773E-001;5.711750313639641E-002;-1.502156374044716E-003;-5.644468124955893E-003;
2.403500000000000E+009;1.662404239177704E-001;5.477954447269440E-002;-1.660911715589464E-003;-5.610845517367125E-003;
2.403666666666667E+009;1.679009199142456E-001;5.245702341198921E-002;-2.047606278210878E-003;-5.698114167898893E-003;
2.403833333333334E+009;1.696504801511765E-001;5.026353150606155E-002;-2.639917656779289E-003;-5.784005392342806E-003;
2.404000000000000E+009;1.712146401405335E-001;4.806197434663773E-002;-2.827505813911557E-003;-5.694529041647911E-003;
2.404166666666667E+009;1.730033606290817E-001;4.618665203452110E-002;-3.319825511425734E-003;-5.497530102729797E-003;
2.404333333333334E+009;1.748327612876892E-001;4.415332898497582E-002;-3.699733642861247E-003;-5.546876695007086E-003;
2.404500000000000E+009;1.764652878046036E-001;4.251964762806892E-002;-3.982297610491514E-003;-5.307106301188469E-003;
2.404666666666667E+009;1.785147190093994E-001;4.105280339717865E-002;-4.224863369017839E-003;-5.154211074113846E-003;
2.404833333333334E+009;1.802421808242798E-001;3.970581293106079E-002;-4.594798665493727E-003;-4.905873443931341E-003;
2.405000000000000E+009;1.818933337926865E-001;3.885979577898979E-002;-4.707272630184889E-003;-4.673484247177839E-003;
2.405166666666667E+009;1.836093962192535E-001;3.787337988615036E-002;-5.155866965651512E-003;-4.187969025224447E-003;
2.405333333333334E+009;1.852149665355682E-001;3.713758289813995E-002;-5.228483118116856E-003;-4.044890403747559E-003;
2.405500000000000E+009;1.869067251682282E-001;3.653047606348991E-002;-5.353065207600594E-003;-3.796515753492713E-003;
2.405666666666667E+009;1.883952468633652E-001;3.601443395018578E-002;-5.560687277466059E-003;-3.479193197563291E-003;
2.405833333333334E+009;1.901244372129440E-001;3.575766086578369E-002;-5.630604922771454E-003;-3.313955618068576E-003;
2.406000000000000E+009;1.913364827632904E-001;3.559742867946625E-002;-5.826553329825401E-003;-2.839345019310713E-003;
2.406166666666667E+009;1.926834285259247E-001;3.525007888674736E-002;-6.094972603023052E-003;-2.765220822766423E-003;
2.406333333333334E+009;1.939715147018433E-001;3.538387268781662E-002;-6.032415200024843E-003;-2.504445845261216E-003;
2.406500000000000E+009;1.952277719974518E-001;3.543931245803833E-002;-6.027388386428356E-003;-2.099973382428289E-003;
2.406666666666667E+009;1.961251348257065E-001;3.552244976162911E-002;-6.162745412439108E-003;-1.653500250540674E-003;
2.406833333333334E+009;1.970070302486420E-001;3.580401465296745E-002;-6.354106590151787E-003;-1.586928497999907E-003;
2.407000000000000E+009;1.976682543754578E-001;3.619379550218582E-002;-6.372606847435236E-003;-1.189237227663398E-003;
2.407166666666667E+009;1.983801722526550E-001;3.616797551512718E-002;-6.345980800688267E-003;-8.755309972912073E-004;
2.407333333333334E+009;1.987257450819016E-001;3.663276880979538E-002;-6.248305086046457E-003;-5.509548936970532E-004;
2.407500000000000E+009;1.990520507097244E-001;3.694987297058106E-002;-6.120215635746718E-003;-3.756729129236192E-004;
2.407666666666667E+009;1.993386000394821E-001;3.716146200895309E-002;-6.168734747916460E-003;-1.740465668262914E-004;
2.407833333333334E+009;1.991719156503677E-001;3.752028197050095E-002;-6.071995012462139E-003;1.236375828739256E-004;
2.408000000000000E+009;1.991829574108124E-001;3.759250789880753E-002;-6.134031806141138E-003;3.892328822985292E-004;
2.408166666666667E+009;1.988393664360046E-001;3.777470439672470E-002;-6.047203205525875E-003;7.860916666686535E-004;
2.408333333333334E+009;1.986300498247147E-001;3.749664872884750E-002;-5.930319894105196E-003;1.011950429528952E-003;
2.408500000000000E+009;1.979754567146301E-001;3.760736808180809E-002;-5.827241577208042E-003;1.162445638328791E-003;
2.408666666666667E+009;1.974307596683502E-001;3.741926699876785E-002;-5.581688601523638E-003;1.538518234156072E-003;
2.408833333333334E+009;1.968811154365540E-001;3.712998330593109E-002;-5.427055526524782E-003;1.783324987627566E-003;
2.409000000000000E+009;1.959203630685806E-001;3.657676652073860E-002;-5.360825918614864E-003;1.901722629554570E-003;
2.409166666666667E+009;1.950623244047165E-001;3.610331937670708E-002;-5.140356719493866E-003;2.050329698249698E-003;
2.409333333333334E+009;1.940136998891830E-001;3.552715852856636E-002;-4.976745694875717E-003;2.309433184564114E-003;
2.409500000000000E+009;1.929571926593781E-001;3.461884334683418E-002;-4.680401645600796E-003;2.199992770329118E-003;
2.409666666666667E+009;1.917599737644196E-001;3.338560089468956E-002;-4.560632631182671E-003;2.365582389757037E-003;
2.409833333333334E+009;1.905349791049957E-001;3.248352184891701E-002;-4.215078894048929E-003;2.317155944183469E-003;
2.410000000000000E+009;1.892207115888596E-001;3.107097186148167E-002;-4.218545742332935E-003;2.319222781807184E-003;
2.410166666666667E+009;1.882215142250061E-001;2.958210930228233E-002;-4.112298600375652E-003;2.415528520941734E-003;
2.410333333333334E+009;1.871171891689301E-001;2.798868343234062E-002;-3.982698079198599E-003;2.401668345555663E-003;
2.410500000000000E+009;1.857165545225143E-001;2.656399644911289E-002;-3.754319157451391E-003;2.344105625525117E-003;
2.410666666666667E+009;1.845150142908096E-001;2.431637234985828E-002;-3.704570699483156E-003;2.395036397501826E-003;
2.410833333333334E+009;1.834375411272049E-001;2.252220176160336E-002;-3.753343597054482E-003;2.468432532623410E-003;
2.411000000000000E+009;1.824510097503662E-001;2.034379914402962E-002;-3.673274070024490E-003;2.322642132639885E-003;
2.411166666666667E+009;1.815541833639145E-001;1.816890202462673E-002;-3.557285992428660E-003;2.479898743331432E-003;
2.411333333333334E+009;1.807565838098526E-001;1.562128122895956E-002;-3.479286096990109E-003;2.689772751182318E-003;
2.411500000000000E+009;1.797861456871033E-001;1.330073457211256E-002;-3.334228415042162E-003;2.736749127507210E-003;
2.411666666666667E+009;1.794790029525757E-001;1.101534906774759E-002;-3.313744906336069E-003;2.724811434745789E-003;
2.411833333333334E+009;1.787120848894119E-001;8.399744518101215E-003;-3.133171238005161E-003;2.690122462809086E-003;
2.412000000000000E+009;1.783316731452942E-001;5.791969597339630E-003;-3.043417818844318E-003;2.787735080346465E-003;
2.412166666666667E+009;1.782231777906418E-001;3.347769146785140E-003;-3.033050335943699E-003;2.942977938801050E-003;
2.412333333333334E+009;1.780929863452911E-001;7.391358958557248E-004;-2.966781845316291E-003;2.871142933145165E-003;
2.412500000000000E+009;1.783229261636734E-001;-1.776976627297700E-003;-2.867080504074693E-003;2.964120358228684E-003;
2.412666666666667E+009;1.786545962095261E-001;-4.597857594490051E-003;-2.764569362625480E-003;2.851924160495400E-003;
2.412833333333334E+009;1.790229678153992E-001;-7.302512414753437E-003;-2.762232907116413E-003;2.948443870991468E-003;
2.413000000000000E+009;1.795361042022705E-001;-9.950984269380570E-003;-2.527172444388270E-003;2.963095437735319E-003;
2.413166666666667E+009;1.801235228776932E-001;-1.228247862309218E-002;-2.455725800246000E-003;2.881241496652365E-003;
2.413333333333334E+009;1.809625923633575E-001;-1.501304376870394E-002;-2.355224918574095E-003;2.889388008043170E-003;
2.413500000000000E+009;1.816543936729431E-001;-1.757835783064365E-002;-2.650104230269790E-003;2.962339203804731E-003;
2.413666666666667E+009;1.828911900520325E-001;-2.008732408285141E-002;-2.403897233307362E-003;2.929244423285127E-003;
2.413833333333334E+009;1.837429404258728E-001;-2.234221436083317E-002;-2.312770811840892E-003;2.993512898683548E-003;
2.414000000000000E+009;1.848101764917374E-001;-2.463934943079948E-002;-2.603247994557023E-003;3.091293852776289E-003;
2.414166666666667E+009;1.862902641296387E-001;-2.696401253342629E-002;-2.433305140584707E-003;3.171265823766589E-003;
2.414333333333334E+009;1.872951537370682E-001;-2.915630862116814E-002;-2.347905421629548E-003;3.143111942335963E-003;
2.414500000000000E+009;1.885780990123749E-001;-3.091007657349110E-002;-2.415802795439959E-003;3.246877575293183E-003;
2.414666666666667E+009;1.899481862783432E-001;-3.281852602958679E-002;-2.396214287728071E-003;3.342677140608430E-003;
2.414833333333334E+009;1.912077516317368E-001;-3.436783701181412E-002;-2.435436705127358E-003;3.608764149248600E-003;
2.415000000000000E+009;1.924254596233368E-001;-3.605466708540916E-002;-2.110173227265477E-003;3.736256854608655E-003;
2.415166666666667E+009;1.938648372888565E-001;-3.741075471043587E-002;-2.100733574479818E-003;3.929320257157087E-003;
2.415333333333334E+009;1.951755583286285E-001;-3.863951936364174E-002;-2.006384776905179E-003;3.899879520758987E-003;
2.415500000000000E+009;1.965797841548920E-001;-3.943185880780220E-002;-2.034009201452136E-003;4.009849857538939E-003;
2.415666666666667E+009;1.978821754455566E-001;-4.069570451974869E-002;-1.672059297561646E-003;4.243433941155672E-003;
2.415833333333334E+009;1.990375816822052E-001;-4.141407087445259E-002;-1.525071216747165E-003;4.261945839971304E-003;
2.416000000000000E+009;1.999912410974503E-001;-4.211010038852692E-002;-1.469111419282854E-003;4.231601953506470E-003;
2.416166666666667E+009;2.011014819145203E-001;-4.279818013310432E-002;-1.206594635732472E-003;4.297054372727871E-003;
2.416333333333334E+009;2.020848095417023E-001;-4.308194667100906E-002;-1.123585621826351E-003;4.415197763592005E-003;
2.416500000000000E+009;2.028239518404007E-001;-4.352102056145668E-002;-8.929909672588110E-004;4.538250621408224E-003;
2.416666666666667E+009;2.034620046615601E-001;-4.393219202756882E-002;-8.654533303342760E-004;4.395561292767525E-003;
2.416833333333334E+009;2.039386779069901E-001;-4.379616305232048E-002;-6.190658896230161E-004;4.597973078489304E-003;
2.417000000000000E+009;2.044715583324432E-001;-4.400230199098587E-002;-5.469321040436626E-004;4.581404849886894E-003;
2.417166666666667E+009;2.044888734817505E-001;-4.382398724555969E-002;-3.805313317570835E-004;4.460677038878202E-003;
2.417333333333334E+009;2.046449631452560E-001;-4.354041814804077E-002;-1.277862174902111E-004;4.516032524406910E-003;
2.417500000000000E+009;2.046349793672562E-001;-4.340577125549316E-002;2.059014877886511E-005;4.387131426483393E-003;
2.417666666666667E+009;2.044277042150497E-001;-4.311183094978333E-002;-2.734565350692719E-005;4.530182108283043E-003;
2.417833333333334E+009;2.043249607086182E-001;-4.266709461808205E-002;1.134976059802284E-006;4.420343320816755E-003;
2.418000000000000E+009;2.039445638656616E-001;-4.214613884687424E-002;1.931598089868203E-004;4.477051552385092E-003;
2.418166666666667E+009;2.032727301120758E-001;-4.198881983757019E-002;2.125372411683202E-004;4.454554058611393E-003;
2.418333333333334E+009;2.025557756423950E-001;-4.160922765731812E-002;1.731042430037633E-004;4.448886495083571E-003;
2.418500000000000E+009;2.017229944467545E-001;-4.129109159111977E-002;4.273632366675884E-004;4.637715872377157E-003;
2.418666666666667E+009;2.011193931102753E-001;-4.094338789582253E-002;4.221541748847812E-004;4.770033061504364E-003;
2.418833333333334E+009;2.000198364257813E-001;-4.075943678617477E-002;5.157252307981253E-004;4.816144239157438E-003;
2.419000000000000E+009;1.987960934638977E-001;-4.062233492732048E-002;5.959524423815310E-004;4.733754321932793E-003;
2.419166666666667E+009;1.976286172866821E-001;-4.056384414434433E-002;7.538452045992017E-004;4.772984888404608E-003;
2.419333333333334E+009;1.961021423339844E-001;-4.072000086307526E-002;8.688148227520287E-004;4.992475267499685E-003;
2.419500000000000E+009;1.947208642959595E-001;-4.091290384531021E-002;1.178828533738852E-003;5.044166930019856E-003;
2.419666666666667E+009;1.929414421319962E-001;-4.138074442744255E-002;1.420446787960827E-003;5.001450888812542E-003;
2.419833333333334E+009;1.912777572870255E-001;-4.178328439593315E-002;1.693809637799859E-003;4.987148102372885E-003;
2.420000000000000E+009;1.896556615829468E-001;-4.235471412539482E-002;1.786040724255145E-003;5.053496919572353E-003;
2.420166666666667E+009;1.878110617399216E-001;-4.306624457240105E-002;1.953527331352234E-003;4.835427273064852E-003;
2.420333333333334E+009;1.861875355243683E-001;-4.394780471920967E-002;2.422625198960304E-003;5.043432116508484E-003;
2.420500000000000E+009;1.841813772916794E-001;-4.494563117623329E-002;2.529507502913475E-003;4.822139628231525E-003;
2.420666666666667E+009;1.823685467243195E-001;-4.591574892401695E-002;2.796607790514827E-003;4.716653376817703E-003;
2.420833333333334E+009;1.805354356765747E-001;-4.720930755138397E-002;2.843972295522690E-003;4.645321052521467E-003;
2.421000000000000E+009;1.788237988948822E-001;-4.844757169485092E-002;3.010981483384967E-003;4.373482428491116E-003;
2.421166666666667E+009;1.771906763315201E-001;-5.015332996845245E-002;3.279876895248890E-003;4.289012402296066E-003;
2.421333333333334E+009;1.751702129840851E-001;-5.147505924105644E-002;3.204625798389316E-003;4.172668326646090E-003;
2.421500000000000E+009;1.736163794994354E-001;-5.343155935406685E-002;3.280811244621873E-003;4.056309815496206E-003;
2.421666666666667E+009;1.720670461654663E-001;-5.514789745211601E-002;3.397120395675302E-003;3.999083302915096E-003;
2.421833333333334E+009;1.705565601587296E-001;-5.701982229948044E-002;3.651585197076201E-003;3.834039438515902E-003;
2.422000000000000E+009;1.690747439861298E-001;-5.892327800393105E-002;3.713347716256976E-003;3.796558827161789E-003;
2.422166666666667E+009;1.680448949337006E-001;-6.110586225986481E-002;3.791489172726870E-003;3.649531863629818E-003;
2.422333333333334E+009;1.667192280292511E-001;-6.335268169641495E-002;4.076633602380753E-003;3.589962376281619E-003;
2.422500000000000E+009;1.656921058893204E-001;-6.534253060817719E-002;4.191548097878695E-003;3.456095233559609E-003;
2.422666666666667E+009;1.647440046072006E-001;-6.736069172620773E-002;4.173492081463337E-003;3.478463739156723E-003;
2.422833333333334E+009;1.641034632921219E-001;-6.977038085460663E-002;4.366384819149971E-003;3.386975033208728E-003;
2.423000000000000E+009;1.634419262409210E-001;-7.209938764572144E-002;4.663200117647648E-003;3.044909099116921E-003;
2.423166666666667E+009;1.626820862293243E-001;-7.422603666782379E-002;4.806080833077431E-003;3.013270907104015E-003;
2.423333333333334E+009;1.622108519077301E-001;-7.649860531091690E-002;4.954069387167692E-003;2.952946815639734E-003;
2.423500000000000E+009;1.620215773582459E-001;-7.847885787487030E-002;5.122556816786528E-003;2.700626617297530E-003;
2.423666666666667E+009;1.620056331157684E-001;-8.072265982627869E-002;5.405801814049482E-003;2.492180559784174E-003;
2.423833333333334E+009;1.618006676435471E-001;-8.289796113967896E-002;5.456448066979647E-003;2.144300378859043E-003;
2.424000000000000E+009;1.619267165660858E-001;-8.496835082769394E-002;5.679571069777012E-003;2.008288865908980E-003;
2.424166666666667E+009;1.619112640619278E-001;-8.665339648723602E-002;5.657011177390814E-003;1.620798138901591E-003;
2.424333333333334E+009;1.622938811779022E-001;-8.869653195142746E-002;5.795498378574848E-003;1.401653513312340E-003;
2.424500000000000E+009;1.626332253217697E-001;-9.078119695186615E-002;5.804479587823153E-003;1.021912670694292E-003;
2.424666666666667E+009;1.628998219966888E-001;-9.245656430721283E-002;5.694232415407896E-003;8.553456282243133E-004;
2.424833333333334E+009;1.636360138654709E-001;-9.410834312438965E-002;5.803129170089960E-003;6.280752713792026E-004;
2.425000000000000E+009;1.640741229057312E-001;-9.556567668914795E-002;5.910392384976149E-003;3.363507275935262E-004;
2.425166666666667E+009;1.645674556493759E-001;-9.698989242315292E-002;5.820364691317082E-003;-1.726881782815326E-005;
2.425333333333334E+009;1.651446670293808E-001;-9.834026545286179E-002;5.827846005558968E-003;-2.908745664171875E-004;
2.425500000000000E+009;1.656803041696549E-001;-9.948815405368805E-002;5.667832680046558E-003;-5.745259113609791E-004;
2.425666666666667E+009;1.663932204246521E-001;-1.004463285207748E-001;5.597302690148354E-003;-8.149525965563953E-004;
2.425833333333334E+009;1.669844388961792E-001;-1.015751659870148E-001;5.621167831122875E-003;-1.105593517422676E-003;
2.426000000000000E+009;1.675806194543839E-001;-1.021549776196480E-001;5.613347515463829E-003;-1.296954695135355E-003;
2.426166666666667E+009;1.683367192745209E-001;-1.028594598174095E-001;5.364919081330299E-003;-1.341434312053025E-003;
2.426333333333334E+009;1.688346862792969E-001;-1.035416051745415E-001;5.178118124604225E-003;-1.647193334065378E-003;
2.426500000000000E+009;1.694271564483643E-001;-1.040562540292740E-001;5.092466250061989E-003;-1.941549708135426E-003;
2.426666666666667E+009;1.700444519519806E-001;-1.045884788036346E-001;4.921363666653633E-003;-2.095347503200173E-003;
2.426833333333334E+009;1.706238985061646E-001;-1.048479378223419E-001;4.716861993074417E-003;-2.231212565675378E-003;
2.427000000000000E+009;1.709394454956055E-001;-1.051513105630875E-001;4.694058559834957E-003;-2.458425937220454E-003;
2.427166666666667E+009;1.713632792234421E-001;-1.051811352372170E-001;4.531400743871927E-003;-2.563203452154994E-003;
2.427333333333334E+009;1.716173589229584E-001;-1.054517477750778E-001;4.214399028569460E-003;-2.744646742939949E-003;
2.427500000000000E+009;1.716404557228088E-001;-1.056439951062203E-001;4.279907792806625E-003;-3.033404937013984E-003;
2.427666666666667E+009;1.717012077569962E-001;-1.056426092982292E-001;4.032352939248085E-003;-3.008740022778511E-003;
2.427833333333334E+009;1.716707199811935E-001;-1.056376397609711E-001;3.726666560396552E-003;-3.056023968383670E-003;
