# Version 1.00
#
freq[Hz];re:Trc1_S11;im:Trc1_S11;re:Trc2_S21;im:Trc2_S21;
2.400000000000000E+009;1.555148661136627E-001;1.113691329956055E-001;3.071899525821209E-003;4.090328235179186E-003;
2.400166666666667E+009;1.550700068473816E-001;1.090774238109589E-001;3.116175066679716E-003;3.937913104891777E-003;
2.400333333333334E+009;1.548634618520737E-001;1.068919524550438E-001;3.280953736975789E-003;3.979180939495564E-003;
2.400500000000000E+009;1.544816046953201E-001;1.042477712035179E-001;3.332314314320684E-003;3.550198627635837E-003;
2.400666666666667E+009;1.543276160955429E-001;1.017397269606590E-001;3.329830709844828E-003;3.602760611101985E-003;
2.400833333333334E+009;1.537973582744598E-001;9.892468154430389E-002;3.576573682948947E-003;3.542123828083277E-003;
2.401000000000000E+009;1.539340913295746E-001;9.594587981700897E-002;3.516530385240912E-003;3.322436241433024E-003;
2.401166666666667E+009;1.537502706050873E-001;9.321769326925278E-002;3.703466849401593E-003;3.230029484257102E-003;
2.401333333333334E+009;1.539567112922669E-001;9.040991216897965E-002;3.989930264651775E-003;3.026530379429460E-003;
2.401500000000000E+009;1.541937589645386E-001;8.725302666425705E-002;3.935512155294418E-003;2.875821897760034E-003;
2.401666666666667E+009;1.542101651430130E-001;8.429528027772903E-002;4.054676741361618E-003;2.756952075287700E-003;
2.401833333333334E+009;1.545390039682388E-001;8.148458600044251E-002;4.151287022978067E-003;2.772457664832473E-003;
2.402000000000000E+009;1.553028970956802E-001;7.835778594017029E-002;4.334485158324242E-003;2.668610308319330E-003;
2.402166666666667E+009;1.558906883001328E-001;7.565825432538986E-002;4.350057337433100E-003;2.503849100321531E-003;
2.402333333333334E+009;1.567029058933258E-001;7.263033092021942E-002;4.630679264664650E-003;2.255829749628902E-003;
2.402500000000000E+009;1.577250659465790E-001;6.985183805227280E-002;4.823290277272463E-003;1.984377624467015E-003;
2.402666666666667E+009;1.589126437902451E-001;6.733743846416473E-002;5.002586171030998E-003;1.823910744860768E-003;
2.402833333333334E+009;1.600330471992493E-001;6.445123255252838E-002;5.115777254104614E-003;1.664016279391944E-003;
2.403000000000000E+009;1.615378409624100E-001;6.180946901440620E-002;5.119709298014641E-003;1.338127767667174E-003;
2.403166666666667E+009;1.630784571170807E-001;5.950063839554787E-002;5.392273422330618E-003;9.661150397732854E-004;
2.403333333333334E+009;1.645808517932892E-001;5.698608979582787E-002;5.384427495300770E-003;5.577526171691716E-004;
2.403500000000000E+009;1.663630008697510E-001;5.472872778773308E-002;5.443224683403969E-003;3.382668655831367E-004;
2.403666666666667E+009;1.683787852525711E-001;5.262825265526772E-002;5.453404039144516E-003;1.161066757049412E-004;
2.403833333333334E+009;1.701522618532181E-001;5.048001930117607E-002;5.478141829371452E-003;-2.935635275207460E-004;
2.404000000000000E+009;1.716407835483551E-001;4.838914051651955E-002;5.547296721488237E-003;-7.616903749294579E-004;
2.404166666666667E+009;1.735922247171402E-001;4.669646546244621E-002;5.256714764982462E-003;-1.198456389829516E-003;
2.404333333333334E+009;1.752812266349793E-001;4.493102803826332E-002;4.991965368390083E-003;-1.534759765490890E-003;
2.404500000000000E+009;1.773021817207336E-001;4.351625964045525E-002;4.716497380286455E-003;-1.793037750758231E-003;
2.404666666666667E+009;1.791532933712006E-001;4.210406169295311E-002;4.524011630564928E-003;-2.055713674053550E-003;
2.404833333333334E+009;1.809470802545548E-001;4.087550193071365E-002;4.257536493241787E-003;-2.148116473108530E-003;
2.405000000000000E+009;1.826726496219635E-001;4.006937146186829E-002;3.801965154707432E-003;-2.430886495858431E-003;
2.405166666666667E+009;1.844199597835541E-001;3.910539299249649E-002;3.684857627376914E-003;-2.692081034183502E-003;
2.405333333333334E+009;1.860557645559311E-001;3.864465653896332E-002;3.580590710043907E-003;-2.473709173500538E-003;
2.405500000000000E+009;1.877665072679520E-001;3.800323605537415E-002;3.169906791299582E-003;-2.467907266691327E-003;
2.405666666666667E+009;1.892188638448715E-001;3.769385442137718E-002;3.101118840277195E-003;-2.547545591369271E-003;
2.405833333333334E+009;1.907373815774918E-001;3.727468103170395E-002;2.655877731740475E-003;-2.611537696793675E-003;
2.406000000000000E+009;1.920811682939529E-001;3.720002621412277E-002;2.665117383003235E-003;-2.707554958760738E-003;
2.406166666666667E+009;1.932515799999237E-001;3.696203976869583E-002;2.404224593192339E-003;-2.879802370443940E-003;
2.406333333333334E+009;1.944764554500580E-001;3.716798871755600E-002;2.236365107819438E-003;-2.865855349227786E-003;
2.406500000000000E+009;1.954311132431030E-001;3.729111701250076E-002;2.223577816039324E-003;-2.793233608826995E-003;
2.406666666666667E+009;1.963558644056320E-001;3.735980764031410E-002;1.839292468503118E-003;-3.066601231694222E-003;
2.406833333333334E+009;1.971203982830048E-001;3.768032416701317E-002;1.718800282105804E-003;-2.910240553319454E-003;
2.407000000000000E+009;1.977068036794663E-001;3.796819970011711E-002;1.515564857982099E-003;-2.942229621112347E-003;
2.407166666666667E+009;1.981959789991379E-001;3.812268748879433E-002;1.189389731734991E-003;-3.088435158133507E-003;
2.407333333333334E+009;1.983062475919724E-001;3.849773108959198E-002;9.560396429151297E-004;-2.866715891286731E-003;
2.407500000000000E+009;1.984444856643677E-001;3.875925019383431E-002;9.187567629851401E-004;-2.939012134447694E-003;
2.407666666666667E+009;1.986079514026642E-001;3.897771239280701E-002;6.925350753590465E-004;-2.630566712468863E-003;
2.407833333333334E+009;1.981759965419769E-001;3.927128762006760E-002;3.818432160187513E-004;-2.824023365974426E-003;
2.408000000000000E+009;1.983025372028351E-001;3.951119258999825E-002;3.408806805964559E-004;-2.481590723618865E-003;
2.408166666666667E+009;1.977318674325943E-001;3.944247588515282E-002;1.332406245637685E-004;-2.217150758951902E-003;
2.408333333333334E+009;1.971893459558487E-001;3.924678638577461E-002;1.849139516707510E-005;-2.153626643121243E-003;
2.408500000000000E+009;1.966265887022018E-001;3.932994976639748E-002;-1.305896730627865E-004;-2.176028676331043E-003;
2.408666666666667E+009;1.960344761610031E-001;3.903711214661598E-002;-2.636727876961231E-004;-1.803363091312349E-003;
2.408833333333334E+009;1.952274739742279E-001;3.871467709541321E-002;-3.348503087181598E-004;-1.515067764557898E-003;
2.409000000000000E+009;1.942604631185532E-001;3.808113560080528E-002;-2.176934358431026E-004;-1.345975324511528E-003;
2.409166666666667E+009;1.931607723236084E-001;3.752316161990166E-002;-1.728935603750870E-004;-1.329775783233345E-003;
2.409333333333334E+009;1.922281980514526E-001;3.673238307237625E-002;-2.121496072504669E-004;-9.175356244668365E-004;
2.409500000000000E+009;1.909624636173248E-001;3.569179400801659E-002;-9.636489994591102E-005;-8.354286546818912E-004;
2.409666666666667E+009;1.897859871387482E-001;3.465091064572334E-002;-8.496766531607136E-005;-5.723594222217798E-004;
2.409833333333334E+009;1.886218488216400E-001;3.352355957031250E-002;1.145831120084040E-004;-6.919745937921107E-004;
2.410000000000000E+009;1.872799247503281E-001;3.207567706704140E-002;1.490332942921668E-004;-6.031264201737940E-004;
2.410166666666667E+009;1.861209571361542E-001;3.026505187153816E-002;3.279981610830873E-004;-5.106540629640222E-004;
2.410333333333334E+009;1.849966347217560E-001;2.880570851266384E-002;4.842366615775973E-004;-4.797567089553922E-004;
2.410500000000000E+009;1.837956160306931E-001;2.711066976189613E-002;6.512752152048051E-004;-5.755882593803108E-004;
2.410666666666667E+009;1.826007068157196E-001;2.486079744994640E-002;5.529308691620827E-004;-4.587835574056953E-004;
2.410833333333334E+009;1.816897839307785E-001;2.270614542067051E-002;7.235112716443837E-004;-4.768239159602672E-004;
2.411000000000000E+009;1.806081831455231E-001;2.081021852791309E-002;7.361946627497673E-004;-4.890750278718770E-004;
2.411166666666667E+009;1.797789633274078E-001;1.858917437493801E-002;7.442237692885101E-004;-5.324331577867270E-004;
2.411333333333334E+009;1.790526062250137E-001;1.592824235558510E-002;9.342849953100085E-004;-5.069284234195948E-004;
2.411500000000000E+009;1.783595234155655E-001;1.366319693624973E-002;8.561957511119545E-004;-4.826952063012868E-004;
2.411666666666667E+009;1.780704408884049E-001;1.119291689246893E-002;9.084405610337853E-004;-4.265726602170616E-004;
2.411833333333334E+009;1.775126010179520E-001;8.790158666670322E-003;1.119419699534774E-003;-5.868523148819804E-004;
2.412000000000000E+009;1.773594617843628E-001;5.902143195271492E-003;1.079743960872293E-003;-7.529453141614795E-004;
2.412166666666667E+009;1.773154735565186E-001;3.565052989870310E-003;1.242446014657617E-003;-5.084659205749631E-004;
2.412333333333334E+009;1.773237138986588E-001;7.412884151563048E-004;1.328370999544859E-003;-3.375764063093811E-004;
2.412500000000000E+009;1.776277869939804E-001;-1.889133942313492E-003;1.325054676271975E-003;-4.517241613939405E-004;
2.412666666666667E+009;1.780287772417069E-001;-4.606161732226610E-003;1.526981475763023E-003;-5.736982566304505E-004;
2.412833333333334E+009;1.786715686321259E-001;-7.154496852308512E-003;1.594154164195061E-003;-7.200301042757928E-004;
2.413000000000000E+009;1.792579740285873E-001;-9.746000170707703E-003;1.833331072703004E-003;-8.188796928152442E-004;
2.413166666666667E+009;1.800727546215057E-001;-1.201029773801565E-002;1.989634474739432E-003;-8.922737324610353E-004;
2.413333333333334E+009;1.808822602033615E-001;-1.477061118930578E-002;2.043511485680938E-003;-1.027133432216942E-003;
2.413500000000000E+009;1.818571239709854E-001;-1.726339198648930E-002;2.138771582394838E-003;-1.322992844507098E-003;
2.413666666666667E+009;1.830462813377380E-001;-1.973806507885456E-002;2.272607991471887E-003;-1.630799728445709E-003;
2.413833333333334E+009;1.842583566904068E-001;-2.191485092043877E-002;2.405214356258512E-003;-1.800108700990677E-003;
2.414000000000000E+009;1.853073835372925E-001;-2.420732006430626E-002;2.255829051136971E-003;-1.927883364260197E-003;
2.414166666666667E+009;1.867493391036987E-001;-2.630728669464588E-002;2.223989460617304E-003;-2.336443867534399E-003;
2.414333333333334E+009;1.880207210779190E-001;-2.840868756175041E-002;2.093304181471467E-003;-2.667455933988094E-003;
2.414500000000000E+009;1.894381642341614E-001;-3.031289950013161E-002;1.966603333130479E-003;-2.899752231314778E-003;
2.414666666666667E+009;1.908237636089325E-001;-3.193684294819832E-002;1.874669687822461E-003;-3.072710009291768E-003;
2.414833333333334E+009;1.921773552894592E-001;-3.366168960928917E-002;1.589592779055238E-003;-3.408082062378526E-003;
2.415000000000000E+009;1.933778226375580E-001;-3.500841930508614E-002;1.258689328096807E-003;-3.554858500137925E-003;
2.415166666666667E+009;1.949475109577179E-001;-3.638375550508499E-002;1.132473698817194E-003;-3.560121869668365E-003;
2.415333333333334E+009;1.962992548942566E-001;-3.747544065117836E-002;8.439481607638300E-004;-3.727928735315800E-003;
2.415500000000000E+009;1.976510435342789E-001;-3.842023760080338E-002;5.077604437246919E-004;-3.777076257392764E-003;
2.415666666666667E+009;1.989271789789200E-001;-3.940493986010552E-002;3.611790307331830E-004;-3.755898214876652E-003;
2.415833333333334E+009;2.000985592603684E-001;-4.004386812448502E-002;1.206228334922344E-004;-3.730548080056906E-003;
2.416000000000000E+009;2.011714279651642E-001;-4.081741347908974E-002;-2.751973443082534E-005;-3.918857313692570E-003;
2.416166666666667E+009;2.021646052598953E-001;-4.149540141224861E-002;-2.308569964952767E-004;-3.977084066718817E-003;
2.416333333333334E+009;2.030206322669983E-001;-4.186132177710533E-002;-6.200393545441330E-004;-3.950435668230057E-003;
2.416500000000000E+009;2.037460356950760E-001;-4.200833290815353E-002;-8.267526864074171E-004;-3.907568752765656E-003;
2.416666666666667E+009;2.042366713285446E-001;-4.226836562156677E-002;-1.075808890163899E-003;-3.813808318227530E-003;
2.416833333333334E+009;2.047879546880722E-001;-4.235620051622391E-002;-1.352661638520658E-003;-3.738408675417304E-003;
2.417000000000000E+009;2.052680701017380E-001;-4.243386909365654E-002;-1.618162379600108E-003;-3.603133838623762E-003;
2.417166666666667E+009;2.051827460527420E-001;-4.227919131517410E-002;-1.813873415812850E-003;-3.552144393324852E-003;
2.417333333333334E+009;2.051581591367722E-001;-4.189932346343994E-002;-2.056772820651531E-003;-3.408085322007537E-003;
2.417500000000000E+009;2.050360590219498E-001;-4.181840643286705E-002;-2.193701686337590E-003;-3.261378966271877E-003;
2.417666666666667E+009;2.047743350267410E-001;-4.149629548192024E-002;-2.550314646214247E-003;-3.051627427339554E-003;
2.417833333333334E+009;2.045171409845352E-001;-4.116500169038773E-002;-2.633090130984783E-003;-2.884804736822844E-003;
2.418000000000000E+009;2.041077464818955E-001;-4.072391241788864E-002;-2.719545038416982E-003;-2.627153415232897E-003;
2.418166666666667E+009;2.034503221511841E-001;-4.041954129934311E-002;-2.914229640737176E-003;-2.488205209374428E-003;
2.418333333333334E+009;2.026243209838867E-001;-4.001352190971375E-002;-3.000117838382721E-003;-2.537252148613334E-003;
2.418500000000000E+009;2.017296850681305E-001;-3.985645622014999E-002;-3.033176995813847E-003;-2.137337578460574E-003;
2.418666666666667E+009;2.009198665618897E-001;-3.957453370094299E-002;-3.112514736130834E-003;-1.941772177815437E-003;
2.418833333333334E+009;1.996199041604996E-001;-3.940543904900551E-002;-3.183501306921244E-003;-1.552420668303967E-003;
2.419000000000000E+009;1.982687264680862E-001;-3.930056095123291E-002;-3.131830366328359E-003;-1.359606976620853E-003;
2.419166666666667E+009;1.970520615577698E-001;-3.944543004035950E-002;-3.177528036758304E-003;-1.031606225296855E-003;
2.419333333333334E+009;1.957291066646576E-001;-3.973518311977387E-002;-3.186220536008477E-003;-8.029321325011551E-004;
2.419500000000000E+009;1.940968781709671E-001;-3.998906537890434E-002;-3.213781397789717E-003;-6.498740985989571E-004;
2.419666666666667E+009;1.925034224987030E-001;-4.037533327937126E-002;-3.037046175450087E-003;-4.855392035096884E-004;
2.419833333333334E+009;1.908585876226425E-001;-4.091905429959297E-002;-2.941999584436417E-003;-3.518456069286913E-004;
2.420000000000000E+009;1.892019063234329E-001;-4.157407581806183E-002;-2.965655876323581E-003;-1.435192971257493E-004;
2.420166666666667E+009;1.874487698078156E-001;-4.231053218245506E-002;-2.799244364723563E-003;1.010354098980315E-004;
2.420333333333334E+009;1.857119947671890E-001;-4.339551925659180E-002;-2.569376956671476E-003;2.392200549365953E-004;
2.420500000000000E+009;1.838069558143616E-001;-4.444635659456253E-002;-2.539959270507097E-003;2.352978190174326E-004;
2.420666666666667E+009;1.821526736021042E-001;-4.545013979077339E-002;-2.413535490632057E-003;4.179362149443477E-004;
2.420833333333334E+009;1.803514063358307E-001;-4.674321413040161E-002;-2.145055914297700E-003;4.616846272256225E-004;
2.421000000000000E+009;1.787397116422653E-001;-4.840831458568573E-002;-2.124876948073506E-003;5.370580474846065E-004;
2.421166666666667E+009;1.770213246345520E-001;-5.014463886618614E-002;-1.860986230894923E-003;5.597231793217361E-004;
2.421333333333334E+009;1.751716434955597E-001;-5.163831636309624E-002;-1.730976975522935E-003;4.931064904667437E-004;
2.421500000000000E+009;1.736185699701309E-001;-5.346037447452545E-002;-1.743325963616371E-003;5.398139473982155E-004;
2.421666666666667E+009;1.721287518739700E-001;-5.545534938573837E-002;-1.604444812983275E-003;5.805039545521140E-004;
2.421833333333334E+009;1.707605570554733E-001;-5.738811567425728E-002;-1.296949456445873E-003;5.071277846582234E-004;
2.422000000000000E+009;1.695292294025421E-001;-5.929742380976677E-002;-1.338914153166115E-003;4.464537778403610E-004;
2.422166666666667E+009;1.684337854385376E-001;-6.157992407679558E-002;-1.325328717939556E-003;5.931261111982167E-004;
2.422333333333334E+009;1.671329289674759E-001;-6.385689973831177E-002;-1.111240126192570E-003;4.824863281100988E-004;
2.422500000000000E+009;1.661917716264725E-001;-6.571625173091888E-002;-1.079854089766741E-003;4.776141431648284E-004;
2.422666666666667E+009;1.654714643955231E-001;-6.806263327598572E-002;-9.270312730222940E-004;3.871899971272796E-004;
2.422833333333334E+009;1.648314148187637E-001;-7.039393484592438E-002;-9.828152833506465E-004;4.465281090233475E-004;
2.423000000000000E+009;1.641942709684372E-001;-7.273770123720169E-002;-7.828002562746406E-004;4.023699148092419E-004;
2.423166666666667E+009;1.634958386421204E-001;-7.483570277690888E-002;-8.378947968594730E-004;3.830386267509311E-004;
2.423333333333334E+009;1.634606420993805E-001;-7.692808657884598E-002;-8.562889415770769E-004;3.016630071215332E-004;
2.423500000000000E+009;1.631428003311157E-001;-7.905927300453186E-002;-6.149559048935771E-004;2.969799970742315E-004;
2.423666666666667E+009;1.632529050111771E-001;-8.130547404289246E-002;-5.812539602629840E-004;1.709274802124128E-004;
2.423833333333334E+009;1.629886329174042E-001;-8.326321840286255E-002;-5.117742693983018E-004;2.188630896853283E-004;
2.424000000000000E+009;1.632050275802612E-001;-8.522783219814301E-002;-6.082540494389832E-004;-1.212937568197958E-004;
2.424166666666667E+009;1.632819473743439E-001;-8.731788396835327E-002;-5.575775867328048E-004;-5.463639899971895E-005;
2.424333333333334E+009;1.635659039020538E-001;-8.899358659982681E-002;-4.130614979658276E-004;-1.712725206743926E-004;
2.424500000000000E+009;1.640140712261200E-001;-9.101054817438126E-002;-4.516953486017883E-004;-3.255666815675795E-004;
2.424666666666667E+009;1.643927544355393E-001;-9.261580556631088E-002;-3.995990846306086E-004;-4.293466336093843E-004;
2.424833333333334E+009;1.649733334779739E-001;-9.408288449048996E-002;-5.122791626490653E-004;-6.202742224559188E-004;
2.425000000000000E+009;1.655111014842987E-001;-9.556970745325089E-002;-5.644467310048640E-004;-6.128231761977077E-004;
2.425166666666667E+009;1.659675389528275E-001;-9.678997844457626E-002;-6.715142517350614E-004;-7.714700768701732E-004;
2.425333333333334E+009;1.664793491363525E-001;-9.796304255723953E-002;-8.712022681720555E-004;-1.009543077088893E-003;
2.425500000000000E+009;1.671931594610214E-001;-9.916358441114426E-002;-1.129667507484555E-003;-9.958066511899233E-004;
2.425666666666667E+009;1.677709221839905E-001;-9.985852241516113E-002;-1.423738431185484E-003;-1.105006900615990E-003;
2.425833333333334E+009;1.683131307363510E-001;-1.009381636977196E-001;-1.256221206858754E-003;-1.048129634000361E-003;
2.426000000000000E+009;1.690197139978409E-001;-1.015941128134728E-001;-1.546660903841257E-003;-9.965967619791627E-004;
2.426166666666667E+009;1.695619225502014E-001;-1.021090596914291E-001;-1.812575967051089E-003;-9.072931134141982E-004;
2.426333333333334E+009;1.698522269725800E-001;-1.026762723922730E-001;-1.861630356870592E-003;-8.271989063359797E-004;
2.426500000000000E+009;1.705354154109955E-001;-1.030452623963356E-001;-2.162963617593050E-003;-6.477685528807342E-004;
2.426666666666667E+009;1.711449474096298E-001;-1.034285575151444E-001;-1.927765319123864E-003;-6.520798779092729E-004;
2.426833333333334E+009;1.716223210096359E-001;-1.037445664405823E-001;-2.285777125507593E-003;-5.139582790434361E-004;
2.427000000000000E+009;1.717639267444611E-001;-1.038847714662552E-001;-2.196992281824350E-003;-3.751315234694630E-004;
2.427166666666667E+009;1.721916347742081E-001;-1.039119064807892E-001;-2.330388175323606E-003;-1.414393336744979E-004;
2.427333333333334E+009;1.722625195980072E-001;-1.041660681366921E-001;-2.244444563984871E-003;-2.734478330239654E-004;
2.427500000000000E+009;1.722450703382492E-001;-1.042797565460205E-001;-2.405456267297268E-003;-4.264255767338909E-005;
2.427666666666667E+009;1.722698807716370E-001;-1.041590571403503E-001;-2.358731348067522E-003;1.375049760099500E-004;
