# Version 1.00
#
freq[Hz];re:Trc1_S11;im:Trc1_S11;re:Trc2_S21;im:Trc2_S21;
2.400000000000000E+009;1.559336930513382E-001;1.115939691662788E-001;3.000479424372315E-003;4.112946800887585E-003;
2.400166666666667E+009;1.554568260908127E-001;1.093267127871513E-001;3.074972657486796E-003;4.099201876670122E-003;
2.400333333333334E+009;1.551750153303146E-001;1.071206182241440E-001;3.236349206417799E-003;3.900081850588322E-003;
2.400500000000000E+009;1.549547314643860E-001;1.043036654591560E-001;3.299622796475887E-003;3.822921076789498E-003;
2.400666666666667E+009;1.547006815671921E-001;1.020191982388496E-001;3.246217267587781E-003;3.644249169155955E-003;
2.400833333333334E+009;1.542783677577972E-001;9.908622503280640E-002;3.369212616235018E-003;3.517491742968559E-003;
2.401000000000000E+009;1.542972326278687E-001;9.612150490283966E-002;3.557294607162476E-003;3.283553523942828E-003;
2.401166666666667E+009;1.540761142969132E-001;9.327974915504456E-002;3.740984480828047E-003;3.359499853104353E-003;
2.401333333333334E+009;1.542956829071045E-001;9.019196033477783E-002;3.861996112391353E-003;3.174086799845099E-003;
2.401500000000000E+009;1.545061320066452E-001;8.732202649116516E-002;3.775448072701693E-003;2.927252789959312E-003;
2.401666666666667E+009;1.547029018402100E-001;8.440373092889786E-002;4.093518946319819E-003;2.971125766634941E-003;
2.401833333333334E+009;1.549871265888214E-001;8.138868957757950E-002;4.237503279000521E-003;2.677710726857185E-003;
2.402000000000000E+009;1.557079106569290E-001;7.836643606424332E-002;4.248810000717640E-003;2.700831508263946E-003;
2.402166666666667E+009;1.562491953372955E-001;7.556249201297760E-002;4.455299116671085E-003;2.394979353994131E-003;
2.402333333333334E+009;1.570644378662109E-001;7.262351363897324E-002;4.520792514085770E-003;2.234231913462281E-003;
2.402500000000000E+009;1.581766456365585E-001;6.981804966926575E-002;4.764714743942022E-003;2.149061765521765E-003;
2.402666666666667E+009;1.590405404567719E-001;6.747130304574966E-002;4.987950436770916E-003;2.028742805123329E-003;
2.402833333333334E+009;1.602772772312164E-001;6.447826325893402E-002;4.989083390682936E-003;1.776381861418486E-003;
2.403000000000000E+009;1.617123782634735E-001;6.207453832030296E-002;5.123186856508255E-003;1.252879854291678E-003;
2.403166666666667E+009;1.635649502277374E-001;5.957301333546639E-002;5.216406192630529E-003;1.136339502409101E-003;
2.403333333333334E+009;1.649985760450363E-001;5.698580294847488E-002;5.348368082195520E-003;6.946798530407250E-004;
2.403500000000000E+009;1.668829321861267E-001;5.475148931145668E-002;5.514379590749741E-003;4.427097737789154E-004;
2.403666666666667E+009;1.684693545103073E-001;5.251778662204742E-002;5.429859738796949E-003;1.572546025272459E-004;
2.403833333333334E+009;1.703098565340042E-001;5.037893354892731E-002;5.559309385716915E-003;-3.542722843121737E-004;
2.404000000000000E+009;1.718374192714691E-001;4.832283407449722E-002;5.375074688345194E-003;-7.798183942213655E-004;
2.404166666666667E+009;1.739287823438644E-001;4.653119668364525E-002;5.133470520377159E-003;-1.116349711082876E-003;
2.404333333333334E+009;1.755990236997604E-001;4.493648186326027E-002;5.050696898251772E-003;-1.433945959433913E-003;
2.404500000000000E+009;1.774670779705048E-001;4.329469427466393E-002;4.746728111058474E-003;-1.861458993516862E-003;
2.404666666666667E+009;1.793007850646973E-001;4.205307736992836E-002;4.545192234218121E-003;-2.013587160035968E-003;
2.404833333333334E+009;1.813008636236191E-001;4.080741479992867E-002;4.170295782387257E-003;-2.155131893232465E-003;
2.405000000000000E+009;1.827222853899002E-001;3.980470821261406E-002;3.859307151287794E-003;-2.451715758070350E-003;
2.405166666666667E+009;1.846245825290680E-001;3.916738554835320E-002;3.687026677653194E-003;-2.391070825979114E-003;
2.405333333333334E+009;1.862327456474304E-001;3.844117373228073E-002;3.452872857451439E-003;-2.533895429223776E-003;
2.405500000000000E+009;1.878785192966461E-001;3.810192272067070E-002;3.070284146815538E-003;-2.530772471800447E-003;
2.405666666666667E+009;1.893804967403412E-001;3.751356527209282E-002;2.850609831511974E-003;-2.583937719464302E-003;
2.405833333333334E+009;1.909858286380768E-001;3.723125159740448E-002;2.709024818614125E-003;-2.587747061625123E-003;
2.406000000000000E+009;1.923641860485077E-001;3.704550117254257E-002;2.545179799199104E-003;-2.625948982313275E-003;
2.406166666666667E+009;1.935327798128128E-001;3.702826052904129E-002;2.480491297319531E-003;-2.633097814396024E-003;
2.406333333333334E+009;1.947422027587891E-001;3.713196516036987E-002;2.214806620031595E-003;-2.630808157846332E-003;
2.406500000000000E+009;1.957223266363144E-001;3.715763241052628E-002;2.105594146996737E-003;-2.802998293191195E-003;
2.406666666666667E+009;1.965689659118652E-001;3.735541179776192E-002;1.903703436255455E-003;-2.792417071759701E-003;
2.406833333333334E+009;1.972546428442001E-001;3.745459392666817E-002;1.627784920856357E-003;-2.774964785203338E-003;
2.407000000000000E+009;1.978247761726379E-001;3.795597702264786E-002;1.552081899717450E-003;-2.841213485226035E-003;
2.407166666666667E+009;1.983936429023743E-001;3.780017048120499E-002;1.178545760922134E-003;-2.884765155613422E-003;
2.407333333333334E+009;1.984482407569885E-001;3.822944685816765E-002;1.093981205485761E-003;-2.782945055514574E-003;
2.407500000000000E+009;1.985822021961212E-001;3.873269259929657E-002;9.065592312254012E-004;-2.820996567606926E-003;
2.407666666666667E+009;1.986545622348785E-001;3.890040889382362E-002;7.067451952025294E-004;-2.707834821194410E-003;
2.407833333333334E+009;1.984073370695114E-001;3.905515372753143E-002;5.005824496038258E-004;-2.749132923781872E-003;
2.408000000000000E+009;1.984401196241379E-001;3.922383859753609E-002;2.687323722057045E-004;-2.605959540233016E-003;
2.408166666666667E+009;1.978215277194977E-001;3.921923413872719E-002;4.971223461325280E-005;-2.171068452298641E-003;
2.408333333333334E+009;1.974709331989288E-001;3.905075415968895E-002;-1.342388441116782E-005;-2.143423305824399E-003;
2.408500000000000E+009;1.967373043298721E-001;3.907774761319161E-002;-1.765982451615855E-004;-1.912427949719131E-003;
2.408666666666667E+009;1.961779296398163E-001;3.894947841763496E-002;-1.907717669382691E-004;-1.780204591341317E-003;
2.408833333333334E+009;1.954088211059570E-001;3.844060376286507E-002;-3.188656410202384E-004;-1.556296832859516E-003;
2.409000000000000E+009;1.943811178207398E-001;3.789871931076050E-002;-1.790991809684783E-004;-1.387993921525776E-003;
2.409166666666667E+009;1.933649331331253E-001;3.732583671808243E-002;-1.256421237485483E-004;-1.173742930404842E-003;
2.409333333333334E+009;1.922593712806702E-001;3.658975288271904E-002;-1.601528638275340E-004;-8.581635775044560E-004;
2.409500000000000E+009;1.910401433706284E-001;3.548931702971458E-002;-4.393910057842732E-005;-8.561490685679019E-004;
2.409666666666667E+009;1.898101568222046E-001;3.436595946550369E-002;3.745771391550079E-005;-7.438539760187268E-004;
2.409833333333334E+009;1.885656714439392E-001;3.330165147781372E-002;5.993937156745233E-005;-6.444212631322444E-004;
2.410000000000000E+009;1.875851303339005E-001;3.179396688938141E-002;2.596781996544451E-004;-5.557541153393686E-004;
2.410166666666667E+009;1.862384080886841E-001;3.024810738861561E-002;4.825040814466775E-004;-4.845531948376447E-004;
2.410333333333334E+009;1.851537525653839E-001;2.868253178894520E-002;4.824292263947427E-004;-4.793504776898772E-004;
2.410500000000000E+009;1.838649511337280E-001;2.683748863637447E-002;5.724334623664618E-004;-5.201448220759630E-004;
2.410666666666667E+009;1.826476901769638E-001;2.456427365541458E-002;6.909689400345087E-004;-5.241813487373292E-004;
2.410833333333334E+009;1.818234622478485E-001;2.257963269948959E-002;7.605313439853489E-004;-4.885573289357126E-004;
2.411000000000000E+009;1.807194948196411E-001;2.041867934167385E-002;7.405554642900825E-004;-5.230628885328770E-004;
2.411166666666667E+009;1.799036711454392E-001;1.827575638890266E-002;8.285495568998158E-004;-4.679826670326293E-004;
2.411333333333334E+009;1.791387051343918E-001;1.580652780830860E-002;8.950462215580046E-004;-5.035716458223760E-004;
2.411500000000000E+009;1.785111278295517E-001;1.337349135428667E-002;1.017417875118554E-003;-4.738805873785168E-004;
2.411666666666667E+009;1.779947876930237E-001;1.102750841528177E-002;1.143543515354395E-003;-6.330055184662342E-004;
2.411833333333334E+009;1.775914430618286E-001;8.310534060001373E-003;1.141710672527552E-003;-4.539245855994523E-004;
2.412000000000000E+009;1.774991303682327E-001;5.765276495367289E-003;1.159725012257695E-003;-4.445147933438420E-004;
2.412166666666667E+009;1.773498654365540E-001;3.286335850134492E-003;1.293420908041298E-003;-6.516285357065499E-004;
2.412333333333334E+009;1.772988885641098E-001;4.848415555898100E-004;1.388984150253236E-003;-5.794402095489204E-004;
2.412500000000000E+009;1.776821166276932E-001;-2.116851741448045E-003;1.455339835956693E-003;-4.739182477351278E-004;
2.412666666666667E+009;1.780642867088318E-001;-4.708824213594198E-003;1.481382874771953E-003;-5.938010872341692E-004;
2.412833333333334E+009;1.785813868045807E-001;-7.257292047142983E-003;1.760167186148465E-003;-7.160063250921667E-004;
2.413000000000000E+009;1.791794598102570E-001;-9.913485497236252E-003;1.928332261741161E-003;-7.900948985479772E-004;
2.413166666666667E+009;1.800762563943863E-001;-1.247340254485607E-002;1.876901835203171E-003;-9.048951324075460E-004;
2.413333333333334E+009;1.812107712030411E-001;-1.501245237886906E-002;2.108093118295074E-003;-1.070111175067723E-003;
2.413500000000000E+009;1.818678826093674E-001;-1.754189841449261E-002;2.194131724536419E-003;-1.317925052717328E-003;
2.413666666666667E+009;1.830193102359772E-001;-1.990932784974575E-002;2.390488283708692E-003;-1.523543032817543E-003;
2.413833333333334E+009;1.842674762010574E-001;-2.215420268476009E-002;2.282205037772656E-003;-1.838820055127144E-003;
2.414000000000000E+009;1.854983121156693E-001;-2.452421188354492E-002;2.315148944035173E-003;-2.297871513292193E-003;
2.414166666666667E+009;1.867451220750809E-001;-2.655107527971268E-002;2.119406592100859E-003;-2.440971089527011E-003;
2.414333333333334E+009;1.879955381155014E-001;-2.870795689523220E-002;2.240506233647466E-003;-2.696560695767403E-003;
2.414500000000000E+009;1.893630921840668E-001;-3.041541203856468E-002;1.932188402861357E-003;-2.923595951870084E-003;
2.414666666666667E+009;1.907902359962463E-001;-3.210171312093735E-002;1.853961963206530E-003;-3.215476404875517E-003;
2.414833333333334E+009;1.921039521694183E-001;-3.369569033384323E-002;1.680669724009931E-003;-3.461582353338599E-003;
2.415000000000000E+009;1.934214085340500E-001;-3.517306223511696E-002;1.313267857767642E-003;-3.371487604454160E-003;
2.415166666666667E+009;1.948759406805039E-001;-3.645453974604607E-002;1.059442176483572E-003;-3.709715791046619E-003;
2.415333333333334E+009;1.961555331945419E-001;-3.771869838237763E-002;7.864414365030825E-004;-3.614078974351287E-003;
2.415500000000000E+009;1.976117342710495E-001;-3.849586471915245E-002;4.773917607963085E-004;-3.711285302415490E-003;
2.415666666666667E+009;1.988527774810791E-001;-3.945048153400421E-002;3.960764734074473E-004;-3.750268369913101E-003;
2.415833333333334E+009;1.999564170837402E-001;-4.023758322000504E-002;-2.389294240856543E-005;-3.859237302094698E-003;
2.416000000000000E+009;2.009787708520889E-001;-4.084685072302818E-002;-7.888282561907545E-005;-3.904180135577917E-003;
2.416166666666667E+009;2.019525617361069E-001;-4.146044701337814E-002;-5.269888206385076E-004;-4.016834311187267E-003;
2.416333333333334E+009;2.029303312301636E-001;-4.182582721114159E-002;-6.017172127030790E-004;-3.945393953472376E-003;
2.416500000000000E+009;2.037474364042282E-001;-4.208761081099510E-002;-8.156626136042178E-004;-4.041125532239676E-003;
2.416666666666667E+009;2.043106853961945E-001;-4.245226085186005E-002;-1.039867987856269E-003;-3.821799531579018E-003;
2.416833333333334E+009;2.047020047903061E-001;-4.239617660641670E-002;-1.389828277751803E-003;-3.901370102539659E-003;
2.417000000000000E+009;2.050689905881882E-001;-4.256198927760124E-002;-1.503495383076370E-003;-3.664924064651132E-003;
2.417166666666667E+009;2.050668895244598E-001;-4.235121607780457E-002;-1.895444933325052E-003;-3.606916172429919E-003;
2.417333333333334E+009;2.049817144870758E-001;-4.207640141248703E-002;-2.076349919661880E-003;-3.344040131196380E-003;
2.417500000000000E+009;2.050813585519791E-001;-4.187406599521637E-002;-2.191060222685337E-003;-3.145197639241815E-003;
2.417666666666667E+009;2.046700865030289E-001;-4.148019105195999E-002;-2.465203870087862E-003;-3.136409213766456E-003;
2.417833333333334E+009;2.044586390256882E-001;-4.111644625663757E-002;-2.648003632202745E-003;-2.868125913664699E-003;
2.418000000000000E+009;2.039350867271423E-001;-4.067392647266388E-002;-2.742302836850286E-003;-2.667762804776430E-003;
2.418166666666667E+009;2.032844424247742E-001;-4.038989916443825E-002;-2.858962398022413E-003;-2.482536947354674E-003;
2.418333333333334E+009;2.024969160556793E-001;-4.003535583615303E-002;-2.955546369776130E-003;-2.279781270772219E-003;
2.418500000000000E+009;2.015884220600128E-001;-3.988231346011162E-002;-3.094408661127091E-003;-2.082086401060224E-003;
2.418666666666667E+009;2.007241249084473E-001;-3.955433890223503E-002;-3.101721871644259E-003;-1.873834757134318E-003;
2.418833333333334E+009;1.994993537664414E-001;-3.944385424256325E-002;-3.158370032906532E-003;-1.551872468553484E-003;
2.419000000000000E+009;1.981781423091888E-001;-3.940504416823387E-002;-3.308988874778152E-003;-1.477859099395573E-003;
2.419166666666667E+009;1.969217956066132E-001;-3.945812955498695E-002;-3.251913934946060E-003;-1.293460838496685E-003;
2.419333333333334E+009;1.956618130207062E-001;-3.971983492374420E-002;-3.283726051449776E-003;-9.239783394150436E-004;
2.419500000000000E+009;1.941562592983246E-001;-3.994542360305786E-002;-3.104506758973002E-003;-7.208360475488007E-004;
2.419666666666667E+009;1.923466026782990E-001;-4.039481654763222E-002;-3.059359733015299E-003;-4.923908854834735E-004;
2.419833333333334E+009;1.906750053167343E-001;-4.090280085802078E-002;-3.111569676548243E-003;-2.799229696393013E-004;
2.420000000000000E+009;1.889926493167877E-001;-4.158607497811317E-002;-2.880946034565568E-003;-1.756339624989778E-004;
2.420166666666667E+009;1.873202621936798E-001;-4.231622442603111E-002;-2.722831210121512E-003;7.641750562470406E-005;
2.420333333333334E+009;1.855322718620300E-001;-4.326198250055313E-002;-2.681007841601968E-003;1.271798682864755E-004;
2.420500000000000E+009;1.836487948894501E-001;-4.441091418266296E-002;-2.508090110495687E-003;2.279175532748923E-004;
2.420666666666667E+009;1.820615977048874E-001;-4.542851448059082E-002;-2.360081300139427E-003;4.606235888786614E-004;
2.420833333333334E+009;1.802384704351425E-001;-4.691344499588013E-002;-2.181219868361950E-003;4.460383497644216E-004;
2.421000000000000E+009;1.783863902091980E-001;-4.840052127838135E-002;-2.060334896668792E-003;4.090320144314319E-004;
2.421166666666667E+009;1.768459081649780E-001;-5.015136301517487E-002;-1.879846444353461E-003;5.924784345552325E-004;
2.421333333333334E+009;1.749279946088791E-001;-5.154720321297646E-002;-1.702659879811108E-003;5.110536585561931E-004;
2.421500000000000E+009;1.735448241233826E-001;-5.348022282123566E-002;-1.583657227456570E-003;6.039149593561888E-004;
2.421666666666667E+009;1.721494644880295E-001;-5.543441325426102E-002;-1.543907797895372E-003;6.586902891285718E-004;
2.421833333333334E+009;1.707227230072022E-001;-5.746709555387497E-002;-1.304905745200813E-003;6.038812571205199E-004;
2.422000000000000E+009;1.694969832897186E-001;-5.940254032611847E-002;-1.410389901138842E-003;5.731887067668140E-004;
2.422166666666667E+009;1.683635413646698E-001;-6.154784187674522E-002;-1.112749450840056E-003;5.938587710261345E-004;
2.422333333333334E+009;1.670329719781876E-001;-6.367575377225876E-002;-1.105454168282449E-003;3.729472227860242E-004;
2.422500000000000E+009;1.661289185285568E-001;-6.590947508811951E-002;-1.091239042580128E-003;3.962529590353370E-004;
2.422666666666667E+009;1.653493493795395E-001;-6.808422505855560E-002;-9.249620488844812E-004;3.606463433243334E-004;
2.422833333333334E+009;1.645916998386383E-001;-7.027486711740494E-002;-1.051412313245237E-003;3.767850575968623E-004;
2.423000000000000E+009;1.642750054597855E-001;-7.267516106367111E-002;-9.336863877251744E-004;3.360417322255671E-004;
2.423166666666667E+009;1.636478006839752E-001;-7.465746253728867E-002;-7.916121976450086E-004;1.629152829991654E-004;
2.423333333333334E+009;1.632891595363617E-001;-7.700812071561813E-002;-7.335900445468724E-004;2.989548956975341E-004;
2.423500000000000E+009;1.630272120237351E-001;-7.887034863233566E-002;-5.632397951558232E-004;1.933460443979129E-004;
2.423666666666667E+009;1.631601303815842E-001;-8.141180127859116E-002;-6.049210787750781E-004;3.513374831527472E-004;
2.423833333333334E+009;1.629378348588944E-001;-8.336531370878220E-002;-5.981283611617982E-004;3.514310446917079E-005;
2.424000000000000E+009;1.631848961114883E-001;-8.528620004653931E-002;-5.778077174909413E-004;-9.362969649373554E-006;
2.424166666666667E+009;1.631693243980408E-001;-8.702974021434784E-002;-3.568172687664628E-004;1.734600118652452E-005;
2.424333333333334E+009;1.634558886289597E-001;-8.890875428915024E-002;-2.676414151210338E-004;-2.311627176823095E-004;
2.424500000000000E+009;1.639706492424011E-001;-9.091724455356598E-002;-3.870989894494414E-004;-3.534284187480807E-004;
2.424666666666667E+009;1.642775833606720E-001;-9.244666248559952E-002;-4.179077513981611E-004;-4.872495774179697E-004;
2.424833333333334E+009;1.650072783231735E-001;-9.412959218025208E-002;-5.609156796708703E-004;-7.235006778500974E-004;
2.425000000000000E+009;1.655450165271759E-001;-9.540631622076035E-002;-7.712283986620605E-004;-7.087403209879994E-004;
2.425166666666667E+009;1.659572422504425E-001;-9.668213874101639E-002;-8.392308955080807E-004;-9.318158263340592E-004;
2.425333333333334E+009;1.664123684167862E-001;-9.793140739202499E-002;-1.154873520135880E-003;-1.033119624480605E-003;
2.425500000000000E+009;1.671912074089050E-001;-9.911240637302399E-002;-1.109903329052031E-003;-1.008071587421000E-003;
2.425666666666667E+009;1.677431762218475E-001;-9.990896284580231E-002;-1.180246123112738E-003;-1.177376136183739E-003;
2.425833333333334E+009;1.682290136814117E-001;-1.009718626737595E-001;-1.541252946481109E-003;-1.113055273890495E-003;
2.426000000000000E+009;1.689266711473465E-001;-1.014363095164299E-001;-1.691543380729854E-003;-8.087054593488574E-004;
2.426166666666667E+009;1.696774959564209E-001;-1.020482406020165E-001;-1.752101117745042E-003;-9.213290759362280E-004;
2.426333333333334E+009;1.699200272560120E-001;-1.026160567998886E-001;-1.895469264127314E-003;-9.376297239214182E-004;
2.426500000000000E+009;1.704878956079483E-001;-1.030233278870583E-001;-2.154260175302625E-003;-6.106242071837187E-004;
2.426666666666667E+009;1.711443513631821E-001;-1.033266186714172E-001;-2.250358927994967E-003;-6.176849128678441E-004;
2.426833333333334E+009;1.716021597385407E-001;-1.035275235772133E-001;-2.241353504359722E-003;-4.134769842494279E-004;
2.427000000000000E+009;1.718450635671616E-001;-1.038550958037376E-001;-2.324645174667239E-003;-3.728527517523617E-004;
2.427166666666667E+009;1.720588654279709E-001;-1.039400622248650E-001;-2.386767882853746E-003;-1.218093166244216E-004;
2.427333333333334E+009;1.723120957612991E-001;-1.041122302412987E-001;-2.325620502233505E-003;-8.784869714872912E-005;
2.427500000000000E+009;1.723590791225433E-001;-1.042349562048912E-001;-2.503301482647657E-003;-1.213993982673856E-005;
2.427666666666667E+009;1.721631586551666E-001;-1.042323186993599E-001;-2.385431202128530E-003;1.066060140146874E-004;
