# Version 1.00
#
freq[Hz];re:Trc1_S11;im:Trc1_S11;re:Trc2_S21;im:Trc2_S21;
2.400000000000000E+009;1.552187800407410E-001;1.069209277629852E-001;1.879236224340275E-004;-5.224511958658695E-003;
2.400166666666667E+009;1.547799706459045E-001;1.045557111501694E-001;9.899635188048706E-005;-5.570921115577221E-003;
2.400333333333334E+009;1.548607498407364E-001;1.022410243749619E-001;-1.929760328494012E-004;-5.544672254472971E-003;
2.400500000000000E+009;1.550285965204239E-001;9.951536357402802E-002;-2.348819980397821E-004;-5.693839397281408E-003;
2.400666666666667E+009;1.550123244524002E-001;9.687483310699463E-002;-3.784600994549692E-004;-5.968630313873291E-003;
2.400833333333334E+009;1.551416963338852E-001;9.401725232601166E-002;-8.362263906747103E-004;-6.147124338895083E-003;
2.401000000000000E+009;1.553903222084045E-001;9.124246984720230E-002;-1.026780693791807E-003;-6.210964173078537E-003;
2.401166666666667E+009;1.552796959877014E-001;8.847332000732422E-002;-1.175308716483414E-003;-6.312346551567316E-003;
2.401333333333334E+009;1.557652354240418E-001;8.569086343050003E-002;-1.438288018107414E-003;-6.278108339756727E-003;
2.401500000000000E+009;1.562934517860413E-001;8.267975598573685E-002;-1.869905972853303E-003;-6.058614701032639E-003;
2.401666666666667E+009;1.565970629453659E-001;7.976526021957398E-002;-2.207615645602346E-003;-6.364888977259398E-003;
2.401833333333334E+009;1.569536030292511E-001;7.710848748683929E-002;-2.453977474942803E-003;-6.225665099918842E-003;
2.402000000000000E+009;1.581317484378815E-001;7.435128092765808E-002;-2.658725017681718E-003;-6.127468310296536E-003;
2.402166666666667E+009;1.587765514850617E-001;7.187895476818085E-002;-2.996131312102079E-003;-6.034423597157002E-003;
2.402333333333334E+009;1.598343998193741E-001;6.909594684839249E-002;-3.362497547641397E-003;-5.849837791174650E-003;
2.402500000000000E+009;1.606666147708893E-001;6.665818393230438E-002;-3.500391496345401E-003;-5.798408295959234E-003;
2.402666666666667E+009;1.619589328765869E-001;6.426223367452622E-002;-3.764289664104581E-003;-5.599664989858866E-003;
2.402833333333334E+009;1.632802337408066E-001;6.205260008573532E-002;-4.085731692612171E-003;-5.444003269076347E-003;
2.403000000000000E+009;1.647711843252182E-001;5.956594273447990E-002;-4.228011239320040E-003;-5.248941946774721E-003;
2.403166666666667E+009;1.664632856845856E-001;5.739250406622887E-002;-4.415781702846289E-003;-5.258868448436260E-003;
2.403333333333334E+009;1.680039763450623E-001;5.520673841238022E-002;-4.642385989427567E-003;-5.102297756820917E-003;
2.403500000000000E+009;1.696965247392654E-001;5.313713103532791E-002;-4.885124508291483E-003;-4.698209930211306E-003;
2.403666666666667E+009;1.714894473552704E-001;5.116739496588707E-002;-4.991288296878338E-003;-4.515876527875662E-003;
2.403833333333334E+009;1.731468290090561E-001;4.951329529285431E-002;-5.251508671790361E-003;-4.555463325232267E-003;
2.404000000000000E+009;1.746460944414139E-001;4.761872813105583E-002;-5.309502128511667E-003;-4.251513164490461E-003;
2.404166666666667E+009;1.765110790729523E-001;4.617128893733025E-002;-5.527119152247906E-003;-4.080850165337324E-003;
2.404333333333334E+009;1.781352013349533E-001;4.465685412287712E-002;-5.716923624277115E-003;-3.977690823376179E-003;
2.404500000000000E+009;1.797380894422531E-001;4.320714995265007E-002;-5.891580134630203E-003;-3.596005262807012E-003;
2.404666666666667E+009;1.814799755811691E-001;4.230479896068573E-002;-5.926566198468208E-003;-3.660727757960558E-003;
2.404833333333334E+009;1.831069439649582E-001;4.101546853780747E-002;-6.154785864055157E-003;-3.296622540801764E-003;
2.405000000000000E+009;1.843257993459702E-001;4.036822915077210E-002;-6.252194754779339E-003;-3.223702078685165E-003;
2.405166666666667E+009;1.857166141271591E-001;3.961725905537605E-002;-6.468567065894604E-003;-2.834109822288156E-003;
2.405333333333334E+009;1.870672404766083E-001;3.930361941456795E-002;-6.527052260935307E-003;-2.783586503937841E-003;
2.405500000000000E+009;1.885113269090653E-001;3.877342119812965E-002;-6.649609189480543E-003;-2.372621791437268E-003;
2.405666666666667E+009;1.898290216922760E-001;3.831921890377998E-002;-6.843189708888531E-003;-2.027851995080710E-003;
2.405833333333334E+009;1.909918040037155E-001;3.814032301306725E-002;-6.896348670125008E-003;-1.806773128919303E-003;
2.406000000000000E+009;1.919606626033783E-001;3.791278600692749E-002;-6.859432905912399E-003;-1.254751230590046E-003;
2.406166666666667E+009;1.929307430982590E-001;3.771091997623444E-002;-6.961904466152191E-003;-1.146254013292491E-003;
2.406333333333334E+009;1.937787830829620E-001;3.787361457943916E-002;-6.868807133287191E-003;-7.154745399020612E-004;
2.406500000000000E+009;1.945752650499344E-001;3.776285052299500E-002;-6.938551552593708E-003;-4.922245861962438E-004;
2.406666666666667E+009;1.951386928558350E-001;3.792646527290344E-002;-6.902989465743303E-003;-2.529073972254992E-004;
2.406833333333334E+009;1.957871764898300E-001;3.787540271878243E-002;-6.818799767643213E-003;4.811946928384714E-005;
2.407000000000000E+009;1.959509104490280E-001;3.804475069046021E-002;-6.895168218761683E-003;2.521329151932150E-004;
2.407166666666667E+009;1.963215619325638E-001;3.794665262103081E-002;-6.645526736974716E-003;6.227551493793726E-004;
2.407333333333334E+009;1.963251382112503E-001;3.797862306237221E-002;-6.534873042255640E-003;7.531013689003885E-004;
2.407500000000000E+009;1.963094174861908E-001;3.804572671651840E-002;-6.323960144072771E-003;9.117927984334528E-004;
2.407666666666667E+009;1.963238269090653E-001;3.797988966107369E-002;-6.455956026911736E-003;1.146333641372621E-003;
2.407833333333334E+009;1.958663016557694E-001;3.785871714353561E-002;-6.244586780667305E-003;1.413490972481668E-003;
2.408000000000000E+009;1.957086920738220E-001;3.755489736795425E-002;-6.056517828255892E-003;1.632040017284453E-003;
2.408166666666667E+009;1.951583325862885E-001;3.729916363954544E-002;-5.903805140405893E-003;1.686084782704711E-003;
2.408333333333334E+009;1.946398019790649E-001;3.682734072208405E-002;-5.838771816343069E-003;2.001415239647031E-003;
2.408500000000000E+009;1.939999759197235E-001;3.658409044146538E-002;-5.790919531136751E-003;2.006300026550889E-003;
2.408666666666667E+009;1.933530718088150E-001;3.601398319005966E-002;-5.561648402363062E-003;2.020725514739752E-003;
2.408833333333334E+009;1.926541775465012E-001;3.515917807817459E-002;-5.348905455321074E-003;2.245904877781868E-003;
2.409000000000000E+009;1.917751431465149E-001;3.426244854927063E-002;-5.295371636748314E-003;2.401151461526752E-003;
2.409166666666667E+009;1.907939612865448E-001;3.327785059809685E-002;-5.052875261753798E-003;2.499491209164262E-003;
2.409333333333334E+009;1.898286789655685E-001;3.221899643540382E-002;-5.022849421948195E-003;2.626447705551982E-003;
2.409500000000000E+009;1.887345016002655E-001;3.092354349792004E-002;-4.779620096087456E-003;2.476173685863614E-003;
2.409666666666667E+009;1.876316964626312E-001;2.943817526102066E-002;-4.605321679264307E-003;2.697146730497479E-003;
2.409833333333334E+009;1.868012100458145E-001;2.809630706906319E-002;-4.640221130102873E-003;2.749247243627906E-003;
2.410000000000000E+009;1.856781095266342E-001;2.633544243872166E-002;-4.400707315653563E-003;2.865105634555221E-003;
2.410166666666667E+009;1.847143024206162E-001;2.458317950367928E-002;-4.316361155360937E-003;2.781604416668415E-003;
2.410333333333334E+009;1.837046593427658E-001;2.267986163496971E-002;-4.004447720944881E-003;2.908213064074516E-003;
2.410500000000000E+009;1.827399879693985E-001;2.066495455801487E-002;-3.986021969467402E-003;2.966098487377167E-003;
2.410666666666667E+009;1.818847954273224E-001;1.851143501698971E-002;-3.954104613512754E-003;2.890139818191528E-003;
2.410833333333334E+009;1.812532246112824E-001;1.634927466511726E-002;-3.875160822644830E-003;2.883775625377893E-003;
2.411000000000000E+009;1.805156767368317E-001;1.400893926620483E-002;-3.686707234010100E-003;2.943081781268120E-003;
2.411166666666667E+009;1.798624396324158E-001;1.190167944878340E-002;-3.598476294428110E-003;2.932834438979626E-003;
2.411333333333334E+009;1.794279813766480E-001;9.346614591777325E-003;-3.642241470515728E-003;3.100498579442501E-003;
2.411500000000000E+009;1.789525449275971E-001;7.041458506137133E-003;-3.470075782388449E-003;3.120582085102797E-003;
2.411666666666667E+009;1.787222474813461E-001;4.741118289530277E-003;-3.340356284752488E-003;3.040645737200975E-003;
2.411833333333334E+009;1.785204559564591E-001;2.298059174790978E-003;-3.221783088520169E-003;3.071116283535957E-003;
2.412000000000000E+009;1.786473393440247E-001;-4.839778994210064E-004;-3.102269722148776E-003;3.053216496482492E-003;
2.412166666666667E+009;1.786230504512787E-001;-2.626128029078245E-003;-3.147861221805215E-003;3.239191137254238E-003;
2.412333333333334E+009;1.789086014032364E-001;-5.206826608628035E-003;-3.021920332685113E-003;3.118869382888079E-003;
2.412500000000000E+009;1.793525964021683E-001;-7.606772705912590E-003;-3.097804030403495E-003;3.077172208577395E-003;
2.412666666666667E+009;1.798192560672760E-001;-1.011193078011274E-002;-3.049684222787619E-003;2.994001843035221E-003;
2.412833333333334E+009;1.804447472095490E-001;-1.236288808286190E-002;-3.013678360730410E-003;3.096898552030325E-003;
2.413000000000000E+009;1.811884194612503E-001;-1.476299762725830E-002;-3.096007974818349E-003;2.948358654975891E-003;
2.413166666666667E+009;1.819710880517960E-001;-1.704594865441322E-002;-3.071098122745752E-003;3.039150964468718E-003;
2.413333333333334E+009;1.830333471298218E-001;-1.942941173911095E-002;-3.108349163085222E-003;3.232436254620552E-003;
2.413500000000000E+009;1.838640272617340E-001;-2.152002230286598E-002;-3.027559025213122E-003;3.280905075371265E-003;
2.413666666666667E+009;1.850548535585403E-001;-2.357320114970207E-002;-2.973484108224511E-003;3.408962162211537E-003;
2.413833333333334E+009;1.860514730215073E-001;-2.566011622548103E-002;-3.078730311244726E-003;3.442707704380155E-003;
2.414000000000000E+009;1.872070133686066E-001;-2.768127433955669E-002;-2.926483983173966E-003;3.586236387491226E-003;
2.414166666666667E+009;1.884327679872513E-001;-2.939453721046448E-002;-2.906561596319079E-003;3.573454217985272E-003;
2.414333333333334E+009;1.893407702445984E-001;-3.140495344996452E-002;-2.884627552703023E-003;3.806145396083593E-003;
2.414500000000000E+009;1.907602846622467E-001;-3.267654404044151E-002;-2.827896969392896E-003;3.931241575628519E-003;
2.414666666666667E+009;1.918534934520721E-001;-3.426694497466087E-002;-2.823220100253820E-003;4.201891366392374E-003;
2.414833333333334E+009;1.929756104946137E-001;-3.577829524874687E-002;-2.675340743735433E-003;4.363109823316336E-003;
2.415000000000000E+009;1.941403746604919E-001;-3.685907647013664E-002;-2.584546338766813E-003;4.109642468392849E-003;
2.415166666666667E+009;1.952540427446365E-001;-3.784571588039398E-002;-2.752417232841253E-003;4.313963465392590E-003;
2.415333333333334E+009;1.963603496551514E-001;-3.881096094846726E-002;-2.607465023174882E-003;4.362003877758980E-003;
2.415500000000000E+009;1.975179314613342E-001;-3.952949494123459E-002;-2.643330488353968E-003;4.448072984814644E-003;
2.415666666666667E+009;1.984826177358627E-001;-4.021918401122093E-002;-2.376623917371035E-003;4.630685783922672E-003;
2.415833333333334E+009;1.994288116693497E-001;-4.088578745722771E-002;-2.347368746995926E-003;4.711108282208443E-003;
2.416000000000000E+009;2.001844346523285E-001;-4.140071943402290E-002;-2.365033840760589E-003;4.908125381916761E-003;
2.416166666666667E+009;2.007809281349182E-001;-4.196724295616150E-002;-2.165770623832941E-003;5.063120275735855E-003;
2.416333333333334E+009;2.015863806009293E-001;-4.220058396458626E-002;-2.152941888198257E-003;5.273761227726936E-003;
2.416500000000000E+009;2.020216286182404E-001;-4.239820688962936E-002;-1.937440130859613E-003;5.345667712390423E-003;
2.416666666666667E+009;2.022239863872528E-001;-4.264836758375168E-002;-1.844179001636803E-003;5.608945619314909E-003;
2.416833333333334E+009;2.023508846759796E-001;-4.274033382534981E-002;-1.608252408914268E-003;5.733059253543615E-003;
2.417000000000000E+009;2.025636136531830E-001;-4.284556582570076E-002;-1.614394015632570E-003;6.043571047484875E-003;
2.417166666666667E+009;2.022579014301300E-001;-4.277129843831062E-002;-1.140676089562476E-003;6.050033029168844E-003;
2.417333333333334E+009;2.020374238491058E-001;-4.252206161618233E-002;-1.050809514708817E-003;6.160670425742865E-003;
2.417500000000000E+009;2.017558664083481E-001;-4.268745705485344E-002;-6.250890437513590E-004;6.192976608872414E-003;
2.417666666666667E+009;2.012228816747665E-001;-4.242165014147759E-002;-5.136220133863390E-004;6.218246184289455E-003;
2.417833333333334E+009;2.007756382226944E-001;-4.228615015745163E-002;-2.614892728161067E-004;6.355186924338341E-003;
2.418000000000000E+009;1.999972462654114E-001;-4.200326278805733E-002;-9.307054278906435E-005;6.326033733785152E-003;
2.418166666666667E+009;1.992606669664383E-001;-4.194997623562813E-002;1.049325364874676E-004;6.202165503054857E-003;
2.418333333333334E+009;1.982938647270203E-001;-4.185503721237183E-002;3.476632409729064E-004;6.444590166211128E-003;
2.418500000000000E+009;1.973889321088791E-001;-4.195068404078484E-002;7.362867472693324E-004;6.451691035181284E-003;
2.418666666666667E+009;1.963698714971542E-001;-4.181712865829468E-002;8.213586406782270E-004;6.342216860502958E-003;
2.418833333333334E+009;1.951485574245453E-001;-4.196998476982117E-002;1.049305661581457E-003;6.208214908838272E-003;
2.419000000000000E+009;1.937368363142014E-001;-4.225931316614151E-002;1.232680864632130E-003;6.396113429218531E-003;
2.419166666666667E+009;1.924639940261841E-001;-4.251879826188088E-002;1.482032705098391E-003;6.399095524102449E-003;
2.419333333333334E+009;1.911509335041046E-001;-4.304910078644753E-002;1.768528716638684E-003;6.184433121234179E-003;
2.419500000000000E+009;1.896345168352127E-001;-4.355551674962044E-002;1.950452919118106E-003;6.134469527751207E-003;
2.419666666666667E+009;1.881525814533234E-001;-4.410373046994209E-002;2.101158490404487E-003;6.122062914073467E-003;
2.419833333333334E+009;1.863692700862885E-001;-4.491884261369705E-002;2.334085758775473E-003;6.156285759061575E-003;
2.420000000000000E+009;1.848611086606979E-001;-4.592948406934738E-002;2.648402471095324E-003;5.990393925458193E-003;
2.420166666666667E+009;1.833713501691818E-001;-4.680500179529190E-002;2.855530939996243E-003;6.075062789022923E-003;
2.420333333333334E+009;1.816915422677994E-001;-4.806277528405190E-002;3.121770918369293E-003;6.091047544032335E-003;
2.420500000000000E+009;1.800369769334793E-001;-4.938782006502152E-002;3.408625489100814E-003;5.873949266970158E-003;
2.420666666666667E+009;1.783149689435959E-001;-5.038795620203018E-002;3.746439702808857E-003;5.696329288184643E-003;
2.420833333333334E+009;1.766444891691208E-001;-5.198877304792404E-002;3.939405549317598E-003;5.648954305797815E-003;
2.421000000000000E+009;1.754440814256668E-001;-5.346996709704399E-002;4.244147799909115E-003;5.327845457941294E-003;
2.421166666666667E+009;1.740701645612717E-001;-5.518346652388573E-002;4.311224445700645E-003;5.169283133000135E-003;
2.421333333333334E+009;1.722897887229919E-001;-5.679794028401375E-002;4.488214384764433E-003;5.040656309574843E-003;
2.421500000000000E+009;1.709937751293182E-001;-5.861151963472366E-002;4.750125110149384E-003;4.818455781787634E-003;
2.421666666666667E+009;1.699695289134979E-001;-6.038027256727219E-002;4.960711579769850E-003;4.423607606440783E-003;
2.421833333333334E+009;1.687050461769104E-001;-6.234247609972954E-002;5.091204773634672E-003;4.271304234862328E-003;
2.422000000000000E+009;1.675902456045151E-001;-6.409230828285217E-002;5.132566206157208E-003;4.052545409649611E-003;
2.422166666666667E+009;1.668376773595810E-001;-6.636646389961243E-002;5.388444755226374E-003;3.859314601868391E-003;
2.422333333333334E+009;1.658798009157181E-001;-6.832656264305115E-002;5.393745843321085E-003;3.433642676100135E-003;
2.422500000000000E+009;1.649446636438370E-001;-7.036901265382767E-002;5.389752332121134E-003;3.174203215166926E-003;
2.422666666666667E+009;1.643750220537186E-001;-7.221201062202454E-002;5.547719076275826E-003;3.019633004441857E-003;
2.422833333333334E+009;1.638537049293518E-001;-7.438901811838150E-002;5.538920871913433E-003;2.656377619132400E-003;
2.423000000000000E+009;1.634223461151123E-001;-7.634247839450836E-002;5.446914583444595E-003;2.443718025460839E-003;
2.423166666666667E+009;1.631114482879639E-001;-7.826502621173859E-002;5.441417451947928E-003;2.402653452008963E-003;
2.423333333333334E+009;1.628311425447464E-001;-8.029598742723465E-002;5.467270035296679E-003;2.145196776837111E-003;
2.423500000000000E+009;1.628247648477554E-001;-8.200621604919434E-002;5.502962041646242E-003;1.911294646561146E-003;
2.423666666666667E+009;1.629419028759003E-001;-8.395205438137054E-002;5.442995578050613E-003;1.744438195601106E-003;
2.423833333333334E+009;1.626798957586289E-001;-8.569730073213577E-002;5.411049816757441E-003;1.601379364728928E-003;
2.424000000000000E+009;1.630845516920090E-001;-8.745555579662323E-002;5.295952782034874E-003;1.361344708129764E-003;
2.424166666666667E+009;1.629721373319626E-001;-8.901224285364151E-002;5.475101992487907E-003;1.244546845555306E-003;
2.424333333333334E+009;1.633038669824600E-001;-9.045188128948212E-002;5.421532317996025E-003;9.733727783896029E-004;
2.424500000000000E+009;1.636392474174500E-001;-9.222083538770676E-002;5.414033308625221E-003;7.845090003684163E-004;
2.424666666666667E+009;1.638581156730652E-001;-9.354355186223984E-002;5.452652927488089E-003;7.772593526169658E-004;
2.424833333333334E+009;1.642214655876160E-001;-9.483699500560761E-002;5.163708701729775E-003;5.055399960838258E-004;
2.425000000000000E+009;1.647762954235077E-001;-9.607712179422379E-002;5.269725341349840E-003;2.134379901690409E-004;
2.425166666666667E+009;1.649588495492935E-001;-9.704534709453583E-002;5.205445457249880E-003;-1.104847888200311E-005;
2.425333333333334E+009;1.654065847396851E-001;-9.797522425651550E-002;5.094473715871573E-003;-1.118525760830380E-004;
2.425500000000000E+009;1.657463759183884E-001;-9.892139583826065E-002;4.986657761037350E-003;-3.010816872119904E-004;
2.425666666666667E+009;1.663666516542435E-001;-9.960089623928070E-002;4.967730492353439E-003;-4.758949507959187E-004;
2.425833333333334E+009;1.666519045829773E-001;-1.004295200109482E-001;4.751913715153933E-003;-5.542275612242520E-004;
2.426000000000000E+009;1.669803410768509E-001;-1.008643507957459E-001;4.593736026436091E-003;-5.894797504879534E-004;
2.426166666666667E+009;1.674763411283493E-001;-1.013677567243576E-001;4.578028805553913E-003;-6.793910870328546E-004;
2.426333333333334E+009;1.674536168575287E-001;-1.018048748373985E-001;4.324289038777351E-003;-8.381198858842254E-004;
2.426500000000000E+009;1.679411977529526E-001;-1.021656170487404E-001;4.370854701846838E-003;-8.381273946724832E-004;
2.426666666666667E+009;1.681247204542160E-001;-1.024581864476204E-001;4.250789061188698E-003;-1.047749188728631E-003;
2.426833333333334E+009;1.683056354522705E-001;-1.027539595961571E-001;4.210580606013537E-003;-9.961409959942102E-004;
2.427000000000000E+009;1.682136952877045E-001;-1.029066890478134E-001;4.056035075336695E-003;-1.007947837933898E-003;
2.427166666666667E+009;1.683542877435684E-001;-1.030460819602013E-001;3.862861543893814E-003;-1.091392710804939E-003;
2.427333333333334E+009;1.681610643863678E-001;-1.032387465238571E-001;3.913886379450560E-003;-1.155284233391285E-003;
2.427500000000000E+009;1.680320948362351E-001;-1.034002378582954E-001;3.768801689147949E-003;-1.117478590458632E-003;
2.427666666666667E+009;1.676162183284760E-001;-1.034272611141205E-001;3.694213926792145E-003;-1.165486988611519E-003;
2.427833333333334E+009;1.672451794147492E-001;-1.035590618848801E-001;3.716244362294674E-003;-1.212438801303506E-003;
