# Version 1.00
#
freq[Hz];re:Trc1_S11;im:Trc1_S11;re:Trc2_S21;im:Trc2_S21;
2.400000000000000E+009;1.550710201263428E-001;1.069660186767578E-001;2.327772526768968E-004;-5.180725827813149E-003;
2.400166666666667E+009;1.548757702112198E-001;1.046093478798866E-001;7.782472675899044E-005;-5.492107011377811E-003;
2.400333333333334E+009;1.549176722764969E-001;1.022711247205734E-001;-1.077568958862685E-004;-5.609248299151659E-003;
2.400500000000000E+009;1.548704206943512E-001;9.956078231334686E-002;-2.770014689303935E-004;-5.824252497404814E-003;
2.400666666666667E+009;1.556549370288849E-001;9.728461503982544E-002;3.575485898181796E-004;-6.004721391946077E-003;
2.400833333333334E+009;1.554417759180069E-001;9.390796720981598E-002;-4.826379008591175E-004;-6.401933263987303E-003;
2.401000000000000E+009;1.549295037984848E-001;9.084538370370865E-002;-1.499899080954492E-003;-6.619218271225691E-003;
2.401166666666667E+009;1.552626043558121E-001;8.841087669134140E-002;-1.350777223706245E-003;-6.277495529502630E-003;
2.401333333333334E+009;1.555223464965820E-001;8.567818999290466E-002;-1.699437736533582E-003;-6.163118872791529E-003;
2.401500000000000E+009;1.560454517602921E-001;8.271509408950806E-002;-2.106989733874798E-003;-6.035045720636845E-003;
2.401666666666667E+009;1.565346270799637E-001;7.994272559881210E-002;-2.321979729458690E-003;-6.169737782329321E-003;
2.401833333333334E+009;1.568990200757980E-001;7.721472531557083E-002;-2.530684927478433E-003;-6.095057819038630E-003;
2.402000000000000E+009;1.576503217220306E-001;7.444179803133011E-002;-2.925002481788397E-003;-6.042106077075005E-003;
2.402166666666667E+009;1.585574895143509E-001;7.195130735635757E-002;-3.139665350317955E-003;-5.730670876801014E-003;
2.402333333333334E+009;1.594735980033875E-001;6.939803808927536E-002;-3.390277270227671E-003;-5.877807736396790E-003;
2.402500000000000E+009;1.615704596042633E-001;6.632884591817856E-002;-2.343252999708056E-003;-6.398031022399664E-003;
2.402666666666667E+009;1.622949391603470E-001;6.408173590898514E-002;-3.177179954946041E-003;-6.637896411120892E-003;
2.402833333333334E+009;1.629585325717926E-001;6.155837699770927E-002;-4.950392991304398E-003;-6.265039090067148E-003;
2.403000000000000E+009;1.648276597261429E-001;5.937646701931953E-002;-4.132798872888088E-003;-5.945547483861446E-003;
2.403166666666667E+009;1.664089560508728E-001;5.762461200356484E-002;-4.540157970041037E-003;-5.159812513738871E-003;
2.403333333333334E+009;1.679430902004242E-001;5.518776550889015E-002;-4.801213741302490E-003;-5.006414372473955E-003;
2.403500000000000E+009;1.696891039609909E-001;5.328851193189621E-002;-5.015878938138485E-003;-4.709714557975531E-003;
2.403666666666667E+009;1.714305132627487E-001;5.114733800292015E-002;-5.173594690859318E-003;-4.583109635859728E-003;
2.403833333333334E+009;1.730839461088181E-001;4.955793917179108E-002;-5.234029609709978E-003;-4.421778488904238E-003;
2.404000000000000E+009;1.744991838932037E-001;4.778057709336281E-002;-5.406733136624098E-003;-4.182341974228621E-003;
2.404166666666667E+009;1.763847768306732E-001;4.630427062511444E-002;-5.591939203441143E-003;-4.090590402483940E-003;
2.404333333333334E+009;1.780591160058975E-001;4.475309699773789E-002;-5.628169514238834E-003;-3.757208585739136E-003;
2.404500000000000E+009;1.796819269657135E-001;4.336906597018242E-002;-5.767071153968573E-003;-3.524964442476630E-003;
2.404666666666667E+009;1.813849657773972E-001;4.205692559480667E-002;-5.932483356446028E-003;-3.578814445063472E-003;
2.404833333333334E+009;1.829760521650314E-001;4.116989299654961E-002;-6.101531907916069E-003;-3.360773902386427E-003;
2.405000000000000E+009;1.842131167650223E-001;4.040656983852387E-002;-6.203160155564547E-003;-3.019357798621059E-003;
2.405166666666667E+009;1.857505887746811E-001;3.965289518237114E-002;-6.522412411868572E-003;-2.858373802155256E-003;
2.405333333333334E+009;1.870831996202469E-001;3.913993015885353E-002;-6.543780677020550E-003;-2.621836494654417E-003;
2.405500000000000E+009;1.886112391948700E-001;3.871254995465279E-002;-6.653152871876955E-003;-2.293044002726674E-003;
2.405666666666667E+009;1.896610110998154E-001;3.836439549922943E-002;-6.937148980796337E-003;-2.075404627248645E-003;
2.405833333333334E+009;1.910507977008820E-001;3.798883780837059E-002;-7.361045107245445E-003;-2.150715561583638E-003;
2.406000000000000E+009;1.921179890632629E-001;3.779507055878639E-002;-7.593843620270491E-003;-1.945527154020965E-003;
2.406166666666667E+009;1.930221766233444E-001;3.779857978224754E-002;-5.887151695787907E-003;-2.424877136945725E-003;
2.406333333333334E+009;1.937832683324814E-001;3.782135620713234E-002;-6.794886197894812E-003;-5.449510063044727E-004;
2.406500000000000E+009;1.946494132280350E-001;3.777924925088882E-002;-7.667005527764559E-003;-4.221198032610118E-004;
2.406666666666667E+009;1.953415423631668E-001;3.796797245740891E-002;-7.080615032464266E-003;-6.450209184549749E-004;
2.406833333333334E+009;1.958420276641846E-001;3.794014081358910E-002;-6.945330649614334E-003;-6.303241825662553E-004;
2.407000000000000E+009;1.961796432733536E-001;3.825001418590546E-002;-6.724707316607237E-003;-7.875773007981479E-004;
2.407166666666667E+009;1.964109390974045E-001;3.794812411069870E-002;-7.239946629852057E-003;6.911844830028713E-004;
2.407333333333334E+009;1.962655782699585E-001;3.818581625819206E-002;-6.367396097630262E-003;2.253667917102575E-004;
2.407500000000000E+009;1.961929649114609E-001;3.807539492845535E-002;-6.498516537249088E-003;1.105478964745998E-003;
2.407666666666667E+009;1.962947398424149E-001;3.806549683213234E-002;-6.357524544000626E-003;1.241419231519103E-003;
2.407833333333334E+009;1.958032101392746E-001;3.795103356242180E-002;-6.166535429656506E-003;1.454500597901642E-003;
2.408000000000000E+009;1.957106739282608E-001;3.779378533363342E-002;-6.041495595127344E-003;1.689781318418682E-003;
2.408166666666667E+009;1.952289640903473E-001;3.742438927292824E-002;-6.015936378389597E-003;1.830994850024581E-003;
2.408333333333334E+009;1.946600377559662E-001;3.694018349051476E-002;-5.714339204132557E-003;1.977394334971905E-003;
2.408500000000000E+009;1.938795000314713E-001;3.656564280390739E-002;-5.634787492454052E-003;2.059443853795528E-003;
2.408666666666667E+009;1.933356672525406E-001;3.611640259623528E-002;-5.568557418882847E-003;2.305044559761882E-003;
2.408833333333334E+009;1.926374435424805E-001;3.542431443929672E-002;-5.322079639881849E-003;2.210449660196900E-003;
2.409000000000000E+009;1.916560530662537E-001;3.434948623180389E-002;-5.126202013343573E-003;2.389793051406741E-003;
2.409166666666667E+009;1.907280087471008E-001;3.345437720417976E-002;-5.108641926199198E-003;2.694682683795691E-003;
2.409333333333334E+009;1.897835135459900E-001;3.244239836931229E-002;-4.884470254182816E-003;2.771070227026939E-003;
2.409500000000000E+009;1.887915134429932E-001;3.112089447677136E-002;-4.686354193836451E-003;2.555288374423981E-003;
2.409666666666667E+009;1.877262443304062E-001;2.974861674010754E-002;-4.535994958132505E-003;2.807496348395944E-003;
2.409833333333334E+009;1.866532862186432E-001;2.814011648297310E-002;-4.405654035508633E-003;2.884453395381570E-003;
2.410000000000000E+009;1.858038157224655E-001;2.649386599659920E-002;-4.463530611246824E-003;2.880960004404187E-003;
2.410166666666667E+009;1.847879588603973E-001;2.463121339678764E-002;-4.153528250753880E-003;2.919834572821856E-003;
2.410333333333334E+009;1.838748157024384E-001;2.274455316364765E-002;-4.007686860859394E-003;2.985558239743114E-003;
2.410500000000000E+009;1.828203201293945E-001;2.097252011299133E-002;-4.050878807902336E-003;2.976366551592946E-003;
2.410666666666667E+009;1.819830238819122E-001;1.868988573551178E-002;-3.916903398931027E-003;2.812456572428346E-003;
2.410833333333334E+009;1.813544481992722E-001;1.647524163126946E-002;-3.865724662318826E-003;3.108917269855738E-003;
2.411000000000000E+009;1.805359125137329E-001;1.422844082117081E-002;-3.653412451967597E-003;3.008226165547967E-003;
2.411166666666667E+009;1.799898296594620E-001;1.200124248862267E-002;-3.530507674440742E-003;3.146452130749822E-003;
2.411333333333334E+009;1.795276850461960E-001;9.542176499962807E-003;-3.504517255350947E-003;3.058955073356628E-003;
2.411500000000000E+009;1.789116859436035E-001;7.111920043826103E-003;-3.351968945935369E-003;3.165362402796745E-003;
2.411666666666667E+009;1.788868606090546E-001;4.653851035982370E-003;-3.316868795081973E-003;3.218633122742176E-003;
2.411833333333334E+009;1.785413920879364E-001;2.379959682002664E-003;-3.255173098295927E-003;3.190238261595368E-003;
2.412000000000000E+009;1.787008196115494E-001;-3.882947785314173E-004;-3.026371123269200E-003;3.114381339401007E-003;
2.412166666666667E+009;1.786548048257828E-001;-2.512118313461542E-003;-3.130034776404500E-003;3.086690092459321E-003;
2.412333333333334E+009;1.788671165704727E-001;-5.205065943300724E-003;-2.972583053633571E-003;3.219418926164508E-003;
2.412500000000000E+009;1.794705241918564E-001;-7.585226092487574E-003;-3.067987738177180E-003;3.081323346123099E-003;
2.412666666666667E+009;1.798005402088165E-001;-9.882142767310143E-003;-3.292041132226586E-003;2.950574504211545E-003;
2.412833333333334E+009;1.805402189493179E-001;-1.250123325735331E-002;-3.137717256322503E-003;3.154843812808394E-003;
2.413000000000000E+009;1.811793148517609E-001;-1.479411032050848E-002;-3.053772263228893E-003;3.026251448318362E-003;
2.413166666666667E+009;1.819658577442169E-001;-1.703343354165554E-002;-3.135310020297766E-003;3.211744595319033E-003;
2.413333333333334E+009;1.828556060791016E-001;-1.929636672139168E-002;-3.112197620794177E-003;3.213647287338972E-003;
2.413500000000000E+009;1.837207973003388E-001;-2.147775702178478E-002;-3.288033651188016E-003;3.285226412117481E-003;
2.413666666666667E+009;1.850308626890183E-001;-2.357666194438934E-002;-3.111962461844087E-003;3.352480009198189E-003;
2.413833333333334E+009;1.861430555582047E-001;-2.569991908967495E-002;-3.193138865754008E-003;3.659902606159449E-003;
2.414000000000000E+009;1.871405243873596E-001;-2.752308361232281E-002;-3.111806465312839E-003;3.705895505845547E-003;
2.414166666666667E+009;1.884952783584595E-001;-2.918176166713238E-002;-3.031819825991988E-003;3.779665566980839E-003;
2.414333333333334E+009;1.894905120134354E-001;-3.121390752494335E-002;-2.949736779555678E-003;3.911914303898811E-003;
2.414500000000000E+009;1.907192617654800E-001;-3.271170705556870E-002;-2.897675614804030E-003;4.007359500974417E-003;
2.414666666666667E+009;1.918870657682419E-001;-3.420210257172585E-002;-2.828087890520692E-003;4.077127669006586E-003;
2.414833333333334E+009;1.929431557655335E-001;-3.542085736989975E-002;-2.777222776785493E-003;4.219804890453816E-003;
2.415000000000000E+009;1.941005736589432E-001;-3.678030520677567E-002;-2.582893008366227E-003;4.164034500718117E-003;
2.415166666666667E+009;1.952958852052689E-001;-3.783506900072098E-002;-2.737361704930663E-003;4.428352229297161E-003;
2.415333333333334E+009;1.964011043310165E-001;-3.879686817526817E-002;-2.495843684300780E-003;4.436855204403400E-003;
2.415500000000000E+009;1.974717229604721E-001;-3.946613892912865E-002;-2.461707452312112E-003;4.485634155571461E-003;
2.415666666666667E+009;1.985553205013275E-001;-4.031784087419510E-002;-2.536913612857461E-003;4.604866262525320E-003;
2.415833333333334E+009;1.993913352489471E-001;-4.078143462538719E-002;-2.303748624399304E-003;4.864513408392668E-003;
2.416000000000000E+009;2.000654935836792E-001;-4.134374111890793E-002;-2.163497963920236E-003;4.880608059465885E-003;
2.416166666666667E+009;2.009195983409882E-001;-4.193262010812759E-002;-2.175903413444758E-003;5.234113894402981E-003;
2.416333333333334E+009;2.015071064233780E-001;-4.206816107034683E-002;-1.959540648385882E-003;5.271824076771736E-003;
2.416500000000000E+009;2.019319236278534E-001;-4.233249276876450E-002;-1.846195431426168E-003;5.552545189857483E-003;
2.416666666666667E+009;2.022777795791626E-001;-4.270965978503227E-002;-1.693637808784843E-003;5.591122433543205E-003;
2.416833333333334E+009;2.024127095937729E-001;-4.281115531921387E-002;-1.509329653345048E-003;5.747823044657707E-003;
2.417000000000000E+009;2.024861574172974E-001;-4.290365800261498E-002;-1.256589544937015E-003;5.970444995909929E-003;
2.417166666666667E+009;2.022691071033478E-001;-4.272360727190971E-002;-1.144409412518144E-003;5.935704335570335E-003;
2.417333333333334E+009;2.020365595817566E-001;-4.254760965704918E-002;-7.750518852844834E-004;5.989068187773228E-003;
2.417500000000000E+009;2.017529159784317E-001;-4.264884442090988E-002;-5.770681309513748E-004;6.126388441771269E-003;
2.417666666666667E+009;2.012276798486710E-001;-4.243151843547821E-002;-4.325949703343213E-004;6.237200461328030E-003;
2.417833333333334E+009;2.008168548345566E-001;-4.219844937324524E-002;-2.681824553292245E-004;6.215496920049191E-003;
2.418000000000000E+009;2.001757025718689E-001;-4.199258610606194E-002;9.606506500858814E-005;6.240081042051315E-003;
2.418166666666667E+009;1.993156224489212E-001;-4.190846532583237E-002;2.221438771812245E-004;6.239395122975111E-003;
2.418333333333334E+009;1.984448581933975E-001;-4.184849560260773E-002;4.219506517983973E-004;6.411544512957335E-003;
2.418500000000000E+009;1.972883939743042E-001;-4.188142716884613E-002;6.248984718695283E-004;6.508748047053814E-003;
2.418666666666667E+009;1.964334696531296E-001;-4.177811369299889E-002;8.234795532189310E-004;6.277110427618027E-003;
2.418833333333334E+009;1.952054351568222E-001;-4.189881682395935E-002;1.099102315492928E-003;6.350613199174404E-003;
2.419000000000000E+009;1.938626021146774E-001;-4.215929657220841E-002;1.430356060154736E-003;6.247297860682011E-003;
2.419166666666667E+009;1.927312314510346E-001;-4.251981526613236E-002;1.644336502067745E-003;6.402590312063694E-003;
2.419333333333334E+009;1.911607682704926E-001;-4.306714981794357E-002;1.747090718708932E-003;6.272088270634413E-003;
2.419500000000000E+009;1.896426975727081E-001;-4.337900131940842E-002;2.029848750680685E-003;6.270118057727814E-003;
2.419666666666667E+009;1.881405115127564E-001;-4.431524500250816E-002;2.250688150525093E-003;6.238077767193317E-003;
2.419833333333334E+009;1.865610033273697E-001;-4.487836733460426E-002;2.489240141585469E-003;6.135634146630764E-003;
2.420000000000000E+009;1.849646121263504E-001;-4.575228691101074E-002;2.618408761918545E-003;6.033996585756540E-003;
2.420166666666667E+009;1.832375079393387E-001;-4.682655632495880E-002;2.887170296162367E-003;6.093871314078569E-003;
2.420333333333334E+009;1.818450987339020E-001;-4.802679643034935E-002;3.128639888018370E-003;5.978783592581749E-003;
2.420500000000000E+009;1.800881475210190E-001;-4.937027767300606E-002;3.459733678027988E-003;5.938452202826738E-003;
2.420666666666667E+009;1.785766780376434E-001;-5.034930258989334E-002;3.590743523091078E-003;5.743870977312326E-003;
2.420833333333334E+009;1.767920702695847E-001;-5.191754922270775E-002;3.866934217512608E-003;5.682522431015968E-003;
2.421000000000000E+009;1.754169464111328E-001;-5.353784933686256E-002;4.140718840062618E-003;5.445858929306269E-003;
2.421166666666667E+009;1.739822626113892E-001;-5.522338300943375E-002;4.477264359593391E-003;5.312276072800160E-003;
2.421333333333334E+009;1.723696738481522E-001;-5.667192488908768E-002;4.629528149962425E-003;5.210184957832098E-003;
2.421500000000000E+009;1.711221039295197E-001;-5.873318389058113E-002;4.848451353609562E-003;4.839978646486998E-003;
2.421666666666667E+009;1.700749546289444E-001;-6.042125821113586E-002;5.070414859801531E-003;4.673937801271677E-003;
2.421833333333334E+009;1.688012778759003E-001;-6.234351918101311E-002;5.245522130280733E-003;4.421189893037081E-003;
2.422000000000000E+009;1.677278876304627E-001;-6.411297619342804E-002;5.150225013494492E-003;4.063745960593224E-003;
2.422166666666667E+009;1.669427454471588E-001;-6.627221405506134E-002;5.365144461393356E-003;3.757687285542488E-003;
2.422333333333334E+009;1.657671779394150E-001;-6.825602054595947E-002;5.341336596757174E-003;3.474556375294924E-003;
2.422500000000000E+009;1.651659458875656E-001;-7.019019871950150E-002;5.499818827956915E-003;3.262530779466033E-003;
2.422666666666667E+009;1.643458455801010E-001;-7.235482335090637E-002;5.487076472491026E-003;3.001449862495065E-003;
2.422833333333334E+009;1.639729589223862E-001;-7.438142597675324E-002;5.468568298965693E-003;2.809501020237804E-003;
2.423000000000000E+009;1.634877175092697E-001;-7.642169296741486E-002;5.550223402678967E-003;2.455116948112845E-003;
2.423166666666667E+009;1.631716340780258E-001;-7.829899340867996E-002;5.526752211153507E-003;2.284810878336430E-003;
2.423333333333334E+009;1.629270017147064E-001;-8.020667731761932E-002;5.562719423323870E-003;1.984544331207871E-003;
2.423500000000000E+009;1.628822237253189E-001;-8.196687698364258E-002;5.563523620367050E-003;1.970342127606273E-003;
2.423666666666667E+009;1.629872620105743E-001;-8.390398323535919E-002;5.445156246423721E-003;1.768131623975933E-003;
2.423833333333334E+009;1.629317700862885E-001;-8.583842962980270E-002;5.370920989662409E-003;1.489558839239180E-003;
2.424000000000000E+009;1.629164814949036E-001;-8.750099688768387E-002;5.463978275656700E-003;1.264231977984309E-003;
2.424166666666667E+009;1.630666851997376E-001;-8.901567757129669E-002;5.316126160323620E-003;1.170816365629435E-003;
2.424333333333334E+009;1.633321940898895E-001;-9.050100296735764E-002;5.436150357127190E-003;8.968962938524783E-004;
2.424500000000000E+009;1.636131554841995E-001;-9.225894510746002E-002;5.439945496618748E-003;8.017010404728353E-004;
2.424666666666667E+009;1.639594137668610E-001;-9.352379292249680E-002;5.470375064760447E-003;5.021137185394764E-004;
2.424833333333334E+009;1.645155847072601E-001;-9.479049593210220E-002;5.122913513332605E-003;6.444616592489183E-004;
2.425000000000000E+009;1.646736413240433E-001;-9.594537317752838E-002;5.286194384098053E-003;1.958882785402238E-004;
2.425166666666667E+009;1.652311831712723E-001;-9.709601849317551E-002;5.165976472198963E-003;-6.493488035630435E-005;
2.425333333333334E+009;1.654583066701889E-001;-9.808759391307831E-002;5.057326052337885E-003;-1.175793586298823E-004;
2.425500000000000E+009;1.658985614776611E-001;-9.898782521486282E-002;5.016318522393704E-003;-3.164910303894430E-004;
2.425666666666667E+009;1.662962138652802E-001;-9.961772710084915E-002;4.782116971910000E-003;-4.878733598161489E-004;
2.425833333333334E+009;1.666102856397629E-001;-1.003576517105103E-001;4.809517413377762E-003;-4.314355028327555E-004;
2.426000000000000E+009;1.670046597719193E-001;-1.008424907922745E-001;4.661101382225752E-003;-7.125622942112386E-004;
2.426166666666667E+009;1.674676984548569E-001;-1.014188677072525E-001;4.385838750749826E-003;-7.742126472294331E-004;
2.426333333333334E+009;1.675514578819275E-001;-1.018543243408203E-001;4.438453819602728E-003;-7.888362742960453E-004;
2.426500000000000E+009;1.679140776395798E-001;-1.021165996789932E-001;4.278770647943020E-003;-9.301975951530039E-004;
2.426666666666667E+009;1.681150943040848E-001;-1.024288907647133E-001;4.215010907500982E-003;-9.424008894711733E-004;
2.426833333333334E+009;1.684179157018662E-001;-1.026723682880402E-001;4.152914509177208E-003;-1.013442873954773E-003;
2.427000000000000E+009;1.683042943477631E-001;-1.029554978013039E-001;4.106440581381321E-003;-1.044768723659217E-003;
2.427166666666667E+009;1.682960093021393E-001;-1.029317677021027E-001;4.012729972600937E-003;-1.090104575268924E-003;
2.427333333333334E+009;1.682389527559280E-001;-1.033202558755875E-001;3.801039420068264E-003;-1.202399143949151E-003;
2.427500000000000E+009;1.679399013519287E-001;-1.034317612648010E-001;3.860868513584137E-003;-1.173963653855026E-003;
2.427666666666667E+009;1.676699817180634E-001;-1.034550964832306E-001;3.653790801763535E-003;-1.241361489519477E-003;
2.427833333333334E+009;1.673200279474258E-001;-1.036495193839073E-001;3.704695263877511E-003;-1.281228498555720E-003;
