# Version 1.00
#
freq[Hz];re:Trc1_S11;im:Trc1_S11;re:Trc2_S21;im:Trc2_S21;
2.400000000000000E+009;1.549757868051529E-001;1.069447770714760E-001;2.284908114233986E-004;-5.379349924623966E-003;
2.400166666666667E+009;1.548762619495392E-001;1.045804992318153E-001;2.390680674579926E-005;-5.337740760296583E-003;
2.400333333333334E+009;1.547302454710007E-001;1.022611260414124E-001;-6.219979695742950E-005;-5.527319852262735E-003;
2.400500000000000E+009;1.548701077699661E-001;9.942737221717835E-002;-3.442523884586990E-004;-5.758597049862146E-003;
2.400666666666667E+009;1.549549698829651E-001;9.689183533191681E-002;-5.230318638496101E-004;-5.899668671190739E-003;
2.400833333333334E+009;1.549397706985474E-001;9.400352090597153E-002;-8.228263468481600E-004;-6.020952947437763E-003;
2.401000000000000E+009;1.551392078399658E-001;9.125012904405594E-002;-1.164690125733614E-003;-6.224697921425104E-003;
2.401166666666667E+009;1.552174985408783E-001;8.831765502691269E-002;-1.402869937010109E-003;-6.146511062979698E-003;
2.401333333333334E+009;1.554671227931976E-001;8.570601046085358E-002;-1.639122259803116E-003;-6.365653127431870E-003;
2.401500000000000E+009;1.560656279325485E-001;8.264053612947464E-002;-1.978326356038451E-003;-6.213518325239420E-003;
2.401666666666667E+009;1.564453542232513E-001;7.987342774868012E-002;-2.238604938611388E-003;-6.294745951890945E-003;
2.401833333333334E+009;1.569396704435349E-001;7.715716212987900E-002;-2.529870020225644E-003;-6.141080055385828E-003;
2.402000000000000E+009;1.577578037977219E-001;7.415103912353516E-002;-2.680910518392921E-003;-6.163713987916708E-003;
2.402166666666667E+009;1.586840450763702E-001;7.183137536048889E-002;-3.024077508598566E-003;-6.094319745898247E-003;
2.402333333333334E+009;1.596012115478516E-001;6.899480521678925E-002;-3.281980287283659E-003;-5.988786462694407E-003;
2.402500000000000E+009;1.607894599437714E-001;6.667423248291016E-002;-3.589881584048271E-003;-5.843964871019125E-003;
2.402666666666667E+009;1.621991842985153E-001;6.421819329261780E-002;-3.755512880161405E-003;-5.751164630055428E-003;
2.402833333333334E+009;1.633395403623581E-001;6.193653121590614E-002;-3.935368265956640E-003;-5.512484349310398E-003;
2.403000000000000E+009;1.648209393024445E-001;5.962267890572548E-002;-4.242835100740194E-003;-5.459295585751534E-003;
2.403166666666667E+009;1.664502620697022E-001;5.753935873508453E-002;-4.452995955944061E-003;-5.184337031096220E-003;
2.403333333333334E+009;1.680404096841812E-001;5.527124553918839E-002;-4.684282932430506E-003;-4.983587190508843E-003;
2.403500000000000E+009;1.696312129497528E-001;5.321910232305527E-002;-4.905854817479849E-003;-4.817580804228783E-003;
2.403666666666667E+009;1.714323908090591E-001;5.138571560382843E-002;-5.099534057080746E-003;-4.770595580339432E-003;
2.403833333333334E+009;1.730043739080429E-001;4.940667003393173E-002;-5.174675956368446E-003;-4.362883511930704E-003;
2.404000000000000E+009;1.745120733976364E-001;4.776602610945702E-002;-5.327062215656042E-003;-4.313935991376638E-003;
2.404166666666667E+009;1.763688772916794E-001;4.627211764454842E-002;-5.443393252789974E-003;-4.140687640756369E-003;
2.404333333333334E+009;1.779693663120270E-001;4.479122534394264E-002;-5.610289052128792E-003;-3.845513565465808E-003;
2.404500000000000E+009;1.796614229679108E-001;4.334132000803947E-002;-5.707184784114361E-003;-3.614495974034071E-003;
2.404666666666667E+009;1.812292933464050E-001;4.227636754512787E-002;-6.010206416249275E-003;-3.404774935916066E-003;
2.404833333333334E+009;1.828669756650925E-001;4.112644121050835E-002;-6.146566476672888E-003;-3.386529162526131E-003;
2.405000000000000E+009;1.843149662017822E-001;4.050530120730400E-002;-6.143087986856699E-003;-2.969026332721114E-003;
2.405166666666667E+009;1.857380568981171E-001;3.975373134016991E-002;-6.377302110195160E-003;-2.985522616654635E-003;
2.405333333333334E+009;1.871063113212585E-001;3.926967084407806E-002;-6.477808579802513E-003;-2.596221165731549E-003;
2.405500000000000E+009;1.885368824005127E-001;3.879470378160477E-002;-6.693063769489527E-003;-2.225805772468448E-003;
2.405666666666667E+009;1.896695941686630E-001;3.835685923695564E-002;-6.735707167536020E-003;-2.050359034910798E-003;
2.405833333333334E+009;1.910379230976105E-001;3.815200924873352E-002;-6.915863137692213E-003;-1.639485824853182E-003;
2.406000000000000E+009;1.918829530477524E-001;3.798030689358711E-002;-6.907375995069742E-003;-1.356581342406571E-003;
2.406166666666667E+009;1.928994506597519E-001;3.774707019329071E-002;-6.964690051972866E-003;-1.182324951514602E-003;
2.406333333333334E+009;1.937793642282486E-001;3.790047764778137E-002;-7.011590525507927E-003;-8.083684951998293E-004;
2.406500000000000E+009;1.945514529943466E-001;3.793562203645706E-002;-6.929531693458557E-003;-4.345625930000097E-004;
2.406666666666667E+009;1.951801329851151E-001;3.792060911655426E-002;-6.930815055966377E-003;-1.573671615915373E-004;
2.406833333333334E+009;1.957801580429077E-001;3.800059854984283E-002;-6.828417535871267E-003;1.101632442441769E-004;
2.407000000000000E+009;1.959256529808044E-001;3.826550021767616E-002;-6.706555839627981E-003;3.443734603933990E-004;
2.407166666666667E+009;1.962491571903229E-001;3.805000334978104E-002;-6.683074869215488E-003;5.780585925094783E-004;
2.407333333333334E+009;1.962812989950180E-001;3.821496665477753E-002;-6.556459702551365E-003;8.981678984127939E-004;
2.407500000000000E+009;1.963179111480713E-001;3.821267187595367E-002;-6.536443252116442E-003;1.094720209948719E-003;
2.407666666666667E+009;1.963180154561997E-001;3.816575929522514E-002;-6.231678184121847E-003;1.259004930034280E-003;
2.407833333333334E+009;1.958353072404862E-001;3.794363886117935E-002;-6.323145702481270E-003;1.484421081840992E-003;
2.408000000000000E+009;1.957035511732101E-001;3.778439387679100E-002;-6.105714477598667E-003;1.489963033236563E-003;
2.408166666666667E+009;1.950922161340714E-001;3.745342418551445E-002;-6.058754865080118E-003;1.740255858749151E-003;
2.408333333333334E+009;1.946553438901901E-001;3.706752881407738E-002;-5.743538495153189E-003;2.029854105785489E-003;
2.408500000000000E+009;1.939579099416733E-001;3.680474311113358E-002;-5.624672397971153E-003;2.139699645340443E-003;
2.408666666666667E+009;1.933138370513916E-001;3.610077872872353E-002;-5.465195979923010E-003;2.146015409380198E-003;
2.408833333333334E+009;1.926133781671524E-001;3.529661893844605E-002;-5.530673544853926E-003;2.242231741547585E-003;
2.409000000000000E+009;1.916021406650543E-001;3.430424258112907E-002;-5.260171834379435E-003;2.436648821458221E-003;
2.409166666666667E+009;1.907624304294586E-001;3.322032094001770E-002;-4.979559686034918E-003;2.506852382794023E-003;
2.409333333333334E+009;1.898806542158127E-001;3.244668617844582E-002;-4.931953269988298E-003;2.546968869864941E-003;
2.409500000000000E+009;1.888508200645447E-001;3.107183799147606E-002;-4.808835219591856E-003;2.741192234680057E-003;
2.409666666666667E+009;1.877056509256363E-001;2.960116043686867E-002;-4.596867132931948E-003;2.850370481610298E-003;
2.409833333333334E+009;1.867066174745560E-001;2.818829938769341E-002;-4.466326907277107E-003;2.744400873780251E-003;
2.410000000000000E+009;1.856556832790375E-001;2.647124975919724E-002;-4.337789490818977E-003;2.852054545655847E-003;
2.410166666666667E+009;1.846618354320526E-001;2.457905560731888E-002;-4.196765366941690E-003;2.878949278965592E-003;
2.410333333333334E+009;1.836311072111130E-001;2.299202233552933E-002;-4.147721920162439E-003;2.886748872697353E-003;
2.410500000000000E+009;1.827324926853180E-001;2.086937986314297E-002;-4.160257056355476E-003;2.874953905120492E-003;
2.410666666666667E+009;1.818580776453018E-001;1.859864220023155E-002;-3.912980668246746E-003;2.872030483558774E-003;
2.410833333333334E+009;1.814029514789581E-001;1.622687838971615E-002;-3.805151442065835E-003;2.843360183760524E-003;
2.411000000000000E+009;1.804165840148926E-001;1.407438144087791E-002;-3.714595222845674E-003;2.992694731801748E-003;
2.411166666666667E+009;1.797256618738174E-001;1.209999155253172E-002;-3.612989326938987E-003;3.053903114050627E-003;
2.411333333333334E+009;1.793807446956635E-001;9.388737380504608E-003;-3.611221443861723E-003;3.139609005302191E-003;
2.411500000000000E+009;1.789183020591736E-001;6.950016133487225E-003;-3.424867521971464E-003;3.076317487284541E-003;
2.411666666666667E+009;1.787896156311035E-001;4.777945578098297E-003;-3.360334085300565E-003;3.063270123675466E-003;
2.411833333333334E+009;1.784144043922424E-001;2.425952116027474E-003;-3.113911719992757E-003;3.011722816154361E-003;
2.412000000000000E+009;1.786300241947174E-001;-2.450090833008289E-004;-3.205270739272237E-003;3.121674293652177E-003;
2.412166666666667E+009;1.786341816186905E-001;-2.634200965985656E-003;-3.201178275048733E-003;3.145749447867274E-003;
2.412333333333334E+009;1.789294034242630E-001;-5.119648762047291E-003;-3.159018000587821E-003;3.110008314251900E-003;
2.412500000000000E+009;1.792917847633362E-001;-7.454008795320988E-003;-2.993353875353932E-003;2.938395598903298E-003;
2.412666666666667E+009;1.798098087310791E-001;-1.003330200910568E-002;-3.188742091879249E-003;3.005415666848421E-003;
2.412833333333334E+009;1.804378330707550E-001;-1.250575017184019E-002;-3.056420246139169E-003;2.962464233860374E-003;
2.413000000000000E+009;1.811904013156891E-001;-1.471214182674885E-002;-3.014007583260536E-003;3.177745034918189E-003;
2.413166666666667E+009;1.819761097431183E-001;-1.693491078913212E-002;-2.971169073134661E-003;3.188716247677803E-003;
2.413333333333334E+009;1.829194873571396E-001;-1.933573558926582E-002;-2.895904239267111E-003;3.115124767646194E-003;
2.413500000000000E+009;1.839109808206558E-001;-2.153788506984711E-002;-3.052828833460808E-003;3.234755713492632E-003;
2.413666666666667E+009;1.849083900451660E-001;-2.355966717004776E-002;-3.141072811558843E-003;3.487212816253305E-003;
2.413833333333334E+009;1.860625296831131E-001;-2.567404322326183E-002;-3.055383451282978E-003;3.591867629438639E-003;
2.414000000000000E+009;1.872253119945526E-001;-2.757317014038563E-002;-3.042810130864382E-003;3.565653925761581E-003;
2.414166666666667E+009;1.883573085069656E-001;-2.938196435570717E-002;-3.079300513491035E-003;3.665400436148047E-003;
2.414333333333334E+009;1.895845979452133E-001;-3.125217184424400E-002;-2.898899139836431E-003;3.893614979460836E-003;
2.414500000000000E+009;1.907325834035873E-001;-3.274389728903770E-002;-2.846790244802833E-003;3.957978915423155E-003;
2.414666666666667E+009;1.918677389621735E-001;-3.417733311653137E-002;-2.758137416094542E-003;3.985837101936340E-003;
2.414833333333334E+009;1.929611414670944E-001;-3.557856753468514E-002;-2.672078087925911E-003;4.099990706890822E-003;
2.415000000000000E+009;1.940855681896210E-001;-3.672381117939949E-002;-2.585340291261673E-003;4.223883617669344E-003;
2.415166666666667E+009;1.952047348022461E-001;-3.788650035858154E-002;-2.416417002677918E-003;4.299904685467482E-003;
2.415333333333334E+009;1.965377926826477E-001;-3.868315368890762E-002;-2.407632302492857E-003;4.385952837765217E-003;
2.415500000000000E+009;1.975108087062836E-001;-3.940444812178612E-002;-2.576301805675030E-003;4.540817812085152E-003;
2.415666666666667E+009;1.985598504543304E-001;-4.020485654473305E-002;-2.297933679074049E-003;4.718913231045008E-003;
2.415833333333334E+009;1.994542777538300E-001;-4.082516208291054E-002;-2.404854632914066E-003;4.816175904124975E-003;
2.416000000000000E+009;2.001083195209503E-001;-4.134237393736839E-002;-2.205694327130914E-003;5.023763515055180E-003;
2.416166666666667E+009;2.008896470069885E-001;-4.193178564310074E-002;-2.210321370512247E-003;5.146000999957323E-003;
2.416333333333334E+009;2.014833837747574E-001;-4.211796075105667E-002;-1.902929041534662E-003;5.431347060948610E-003;
2.416500000000000E+009;2.020255625247955E-001;-4.230316355824471E-002;-1.915375236421824E-003;5.295584909617901E-003;
2.416666666666667E+009;2.023308128118515E-001;-4.273439571261406E-002;-1.832263893447816E-003;5.667716264724731E-003;
2.416833333333334E+009;2.024122476577759E-001;-4.274044930934906E-002;-1.518054283224046E-003;5.670388229191303E-003;
2.417000000000000E+009;2.024831473827362E-001;-4.282569885253906E-002;-1.386318355798721E-003;5.967015866190195E-003;
2.417166666666667E+009;2.022368609905243E-001;-4.274060577154160E-002;-1.071354025043547E-003;6.079194135963917E-003;
2.417333333333334E+009;2.019999027252197E-001;-4.248085990548134E-002;-1.089601777493954E-003;6.084725726395845E-003;
2.417500000000000E+009;2.018554210662842E-001;-4.263335466384888E-002;-8.237715228460729E-004;6.108989939093590E-003;
2.417666666666667E+009;2.012372016906738E-001;-4.234482720494270E-002;-4.515699693001807E-004;6.417028605937958E-003;
2.417833333333334E+009;2.008492201566696E-001;-4.209976270794869E-002;-3.272767062298954E-004;6.274019833654165E-003;
2.418000000000000E+009;2.000926584005356E-001;-4.197169467806816E-002;-1.024409575620666E-004;6.403590086847544E-003;
2.418166666666667E+009;1.993110626935959E-001;-4.194574058055878E-002;1.528166285424959E-005;6.315452512353659E-003;
2.418333333333334E+009;1.984489709138870E-001;-4.182741045951843E-002;2.905555593315512E-004;6.394655909389257E-003;
2.418500000000000E+009;1.974326521158218E-001;-4.178056865930557E-002;5.549470661208034E-004;6.429579574614763E-003;
2.418666666666667E+009;1.964798569679260E-001;-4.182219877839088E-002;8.887883741408587E-004;6.333861500024796E-003;
2.418833333333334E+009;1.950909644365311E-001;-4.190997034311295E-002;1.162931206636131E-003;6.470014806836844E-003;
2.419000000000000E+009;1.940038949251175E-001;-4.223608225584030E-002;1.296418253332377E-003;6.477123126387596E-003;
2.419166666666667E+009;1.925690025091171E-001;-4.257703945040703E-002;1.557697076350451E-003;6.303773261606693E-003;
2.419333333333334E+009;1.911450326442719E-001;-4.305802285671234E-002;1.743605709634721E-003;6.311688106507063E-003;
2.419500000000000E+009;1.898180395364761E-001;-4.340564459562302E-002;1.927626784890890E-003;6.297152023762465E-003;
2.419666666666667E+009;1.881194561719894E-001;-4.422533512115479E-002;2.125408966094255E-003;6.218157708644867E-003;
2.419833333333334E+009;1.864997893571854E-001;-4.488613083958626E-002;2.440827665850520E-003;6.281177978962660E-003;
2.420000000000000E+009;1.849943548440933E-001;-4.575324058532715E-002;2.593414857983589E-003;6.164679769426584E-003;
2.420166666666667E+009;1.833491325378418E-001;-4.690363630652428E-002;2.905866131186485E-003;6.087645888328552E-003;
2.420333333333334E+009;1.818906068801880E-001;-4.802122712135315E-002;3.100628964602947E-003;5.952295381575823E-003;
2.420500000000000E+009;1.800250262022018E-001;-4.937381297349930E-002;3.331732004880905E-003;6.027908530086279E-003;
2.420666666666667E+009;1.784577369689941E-001;-5.037091672420502E-002;3.636725479736924E-003;5.780857056379318E-003;
2.420833333333334E+009;1.769720762968063E-001;-5.189631134271622E-002;3.958025481551886E-003;5.713264457881451E-003;
2.421000000000000E+009;1.754603385925293E-001;-5.349614843726158E-002;4.267306067049503E-003;5.244613159447908E-003;
2.421166666666667E+009;1.740347892045975E-001;-5.518700554966927E-002;4.308481235057116E-003;5.114767700433731E-003;
2.421333333333334E+009;1.724623739719391E-001;-5.666559189558029E-002;4.528499674052000E-003;4.863201174885035E-003;
2.421500000000000E+009;1.711759716272354E-001;-5.861780047416687E-002;4.689865279942751E-003;4.851737525314093E-003;
2.421666666666667E+009;1.700184792280197E-001;-6.051427498459816E-002;4.977647680789232E-003;4.378092475235462E-003;
2.421833333333334E+009;1.688358038663864E-001;-6.225004047155380E-002;5.096593406051397E-003;4.345771856606007E-003;
2.422000000000000E+009;1.676851958036423E-001;-6.410782784223557E-002;5.144608207046986E-003;3.967049065977335E-003;
2.422166666666667E+009;1.667854189872742E-001;-6.629534065723419E-002;5.357278045266867E-003;3.631250467151403E-003;
2.422333333333334E+009;1.658386737108231E-001;-6.828122586011887E-002;5.454265512526035E-003;3.471632022410631E-003;
2.422500000000000E+009;1.650836765766144E-001;-7.018582522869110E-002;5.383500363677740E-003;3.199160099029541E-003;
2.422666666666667E+009;1.644115746021271E-001;-7.231134921312332E-002;5.442630965262651E-003;2.894884673878551E-003;
2.422833333333334E+009;1.640079319477081E-001;-7.427078485488892E-002;5.495726130902767E-003;2.832968952134252E-003;
2.423000000000000E+009;1.633975505828857E-001;-7.631780952215195E-002;5.577549804002047E-003;2.586531452834606E-003;
2.423166666666667E+009;1.631671786308289E-001;-7.813754677772522E-002;5.474363919347525E-003;2.052943222224712E-003;
2.423333333333334E+009;1.628623753786087E-001;-8.014452457427979E-002;5.469554569572210E-003;2.017285907641053E-003;
2.423500000000000E+009;1.627503931522369E-001;-8.203112334012985E-002;5.344780627638102E-003;1.916300388984382E-003;
2.423666666666667E+009;1.629432588815689E-001;-8.389385044574738E-002;5.475055892020464E-003;1.759080914780498E-003;
2.423833333333334E+009;1.627248674631119E-001;-8.572746813297272E-002;5.467420443892479E-003;1.609478727914393E-003;
2.424000000000000E+009;1.628700643777847E-001;-8.740936219692230E-002;5.341764539480209E-003;1.384545466862619E-003;
2.424166666666667E+009;1.629947721958160E-001;-8.910574764013290E-002;5.334419663995504E-003;1.219786587171257E-003;
2.424333333333334E+009;1.632113158702850E-001;-9.057005494832993E-002;5.413149017840624E-003;1.005902769975364E-003;
2.424500000000000E+009;1.636472791433334E-001;-9.222392737865448E-002;5.406598560512066E-003;7.845250074751675E-004;
2.424666666666667E+009;1.639216393232346E-001;-9.346875548362732E-002;5.265702027827501E-003;7.456624880433083E-004;
2.424833333333334E+009;1.645607203245163E-001;-9.480819106101990E-002;5.343158263713121E-003;5.501836421899498E-004;
2.425000000000000E+009;1.649027317762375E-001;-9.600456804037094E-002;5.316408351063728E-003;2.883509732782841E-004;
2.425166666666667E+009;1.650782525539398E-001;-9.706713259220123E-002;5.193510558456183E-003;7.241404091473669E-005;
2.425333333333334E+009;1.655036062002182E-001;-9.805534034967423E-002;5.081492941826582E-003;-5.450827666209079E-005;
2.425500000000000E+009;1.659276187419891E-001;-9.889610856771469E-002;5.029543768614531E-003;-2.677194133866578E-004;
2.425666666666667E+009;1.663255244493485E-001;-9.960731118917465E-002;4.992438945919275E-003;-5.120265414007008E-004;
2.425833333333334E+009;1.666103005409241E-001;-1.004111766815186E-001;4.802340175956488E-003;-4.381432954687625E-004;
2.426000000000000E+009;1.671135723590851E-001;-1.008978411555290E-001;4.697087220847607E-003;-6.726654828526080E-004;
2.426166666666667E+009;1.675022393465042E-001;-1.013768389821053E-001;4.674270283430815E-003;-7.947752019390464E-004;
2.426333333333334E+009;1.675858497619629E-001;-1.019425243139267E-001;4.485819023102522E-003;-8.194052497856319E-004;
2.426500000000000E+009;1.678884178400040E-001;-1.020649150013924E-001;4.379349760711193E-003;-9.320345707237721E-004;
2.426666666666667E+009;1.681860536336899E-001;-1.025183200836182E-001;4.373780917376280E-003;-8.912674966268241E-004;
2.426833333333334E+009;1.683201640844345E-001;-1.026875078678131E-001;4.120451863855124E-003;-8.666525245644152E-004;
2.427000000000000E+009;1.684406101703644E-001;-1.028757914900780E-001;3.981488291174173E-003;-1.019830349832773E-003;
2.427166666666667E+009;1.683721244335175E-001;-1.030572429299355E-001;4.059910308569670E-003;-1.102060312405229E-003;
2.427333333333334E+009;1.682210266590118E-001;-1.033178344368935E-001;4.026781301945448E-003;-1.104086055420339E-003;
2.427500000000000E+009;1.679561138153076E-001;-1.033933237195015E-001;3.774098586291075E-003;-1.171256764791906E-003;
2.427666666666667E+009;1.676000654697418E-001;-1.034885346889496E-001;3.943862859159708E-003;-1.259722863323987E-003;
2.427833333333334E+009;1.673093885183334E-001;-1.035306304693222E-001;3.697684966027737E-003;-1.326723373495042E-003;
