# Version 1.00
#
freq[Hz];re:Trc1_S11;im:Trc1_S11;re:Trc2_S21;im:Trc2_S21;
2.400000000000000E+009;1.553480774164200E-001;1.069724634289742E-001;2.586641057860106E-004;-5.521412473171949E-003;
2.400166666666667E+009;1.550055593252182E-001;1.045882180333138E-001;9.618706098990515E-005;-5.362086463719606E-003;
2.400333333333334E+009;1.552143096923828E-001;1.020595580339432E-001;-7.087703852448613E-005;-5.762150976806879E-003;
2.400500000000000E+009;1.551376730203629E-001;9.952440857887268E-002;-1.940676738740876E-004;-5.834054667502642E-003;
2.400666666666667E+009;1.553306579589844E-001;9.700900316238403E-002;-4.800472524948418E-004;-5.909589584916830E-003;
2.400833333333334E+009;1.552567034959793E-001;9.395167231559753E-002;-7.849938701838255E-004;-6.003892514854670E-003;
2.401000000000000E+009;1.553978919982910E-001;9.091503173112869E-002;-8.681383333168924E-004;-6.161254830658436E-003;
2.401166666666667E+009;1.555338054895401E-001;8.844568580389023E-002;-1.347687095403671E-003;-6.272735074162483E-003;
2.401333333333334E+009;1.561252027750015E-001;8.554012328386307E-002;-1.655548810958862E-003;-6.236010231077671E-003;
2.401500000000000E+009;1.563016474246979E-001;8.274453878402710E-002;-1.828859094530344E-003;-6.361565552651882E-003;
2.401666666666667E+009;1.565354466438294E-001;7.994540035724640E-002;-2.169385552406311E-003;-6.323592271655798E-003;
2.401833333333334E+009;1.573290079832077E-001;7.712522149085999E-002;-2.476900583133102E-003;-6.157491356134415E-003;
2.402000000000000E+009;1.582951545715332E-001;7.448276877403259E-002;-2.652065362781286E-003;-6.256172433495522E-003;
2.402166666666667E+009;1.588524430990219E-001;7.164355367422104E-002;-2.992123365402222E-003;-6.122544873505831E-003;
2.402333333333334E+009;1.599200516939163E-001;6.913434714078903E-002;-3.053273307159543E-003;-6.093913223594427E-003;
2.402500000000000E+009;1.610412299633026E-001;6.659244000911713E-002;-3.459318540990353E-003;-5.826325155794621E-003;
2.402666666666667E+009;1.622395962476730E-001;6.422208994626999E-002;-3.704776987433434E-003;-5.788528360426426E-003;
2.402833333333334E+009;1.635645478963852E-001;6.181678920984268E-002;-3.985629882663488E-003;-5.651998799294233E-003;
2.403000000000000E+009;1.650454699993134E-001;5.947685986757278E-002;-4.111324902623892E-003;-5.428795702755451E-003;
2.403166666666667E+009;1.666843593120575E-001;5.730990692973137E-002;-4.514883272349834E-003;-5.320280790328980E-003;
2.403333333333334E+009;1.682626456022263E-001;5.520433560013771E-002;-4.514365456998348E-003;-5.179939791560173E-003;
2.403500000000000E+009;1.699369102716446E-001;5.300423130393028E-002;-4.743177443742752E-003;-4.886845126748085E-003;
2.403666666666667E+009;1.716764867305756E-001;5.133643746376038E-002;-5.027390085160732E-003;-4.672346636652947E-003;
2.403833333333334E+009;1.733866184949875E-001;4.944526776671410E-002;-5.071091931313276E-003;-4.547547083348036E-003;
2.404000000000000E+009;1.750143021345139E-001;4.754747077822685E-002;-5.247235298156738E-003;-4.382411018013954E-003;
2.404166666666667E+009;1.765023767948151E-001;4.612307250499725E-002;-5.505168344825506E-003;-4.004722926765680E-003;
2.404333333333334E+009;1.782464683055878E-001;4.474145919084549E-002;-5.713796708732843E-003;-3.944073803722858E-003;
2.404500000000000E+009;1.799275130033493E-001;4.321143403649330E-002;-5.736795719712973E-003;-3.715361468493938E-003;
2.404666666666667E+009;1.815381050109863E-001;4.210846871137619E-002;-5.853891838341951E-003;-3.553738119080663E-003;
2.404833333333334E+009;1.832268238067627E-001;4.102575778961182E-002;-6.157196592539549E-003;-3.326390404254198E-003;
2.405000000000000E+009;1.844778656959534E-001;4.022400081157684E-002;-6.280950270593166E-003;-3.108557080850005E-003;
2.405166666666667E+009;1.858935654163361E-001;3.965827450156212E-002;-6.474095862358809E-003;-3.012123517692089E-003;
2.405333333333334E+009;1.872006803750992E-001;3.922209516167641E-002;-6.578602362424135E-003;-2.737125381827354E-003;
2.405500000000000E+009;1.887082606554031E-001;3.858501464128494E-002;-6.683288142085075E-003;-2.442046301439405E-003;
2.405666666666667E+009;1.899092942476273E-001;3.824631497263908E-002;-6.778317969292402E-003;-2.160225063562393E-003;
2.405833333333334E+009;1.911079585552216E-001;3.793564066290855E-002;-7.053494453430176E-003;-1.931744976900518E-003;
2.406000000000000E+009;1.922235935926437E-001;3.784779831767082E-002;-6.951123941689730E-003;-1.478448510169983E-003;
2.406166666666667E+009;1.933005601167679E-001;3.757580369710922E-002;-6.996105890721083E-003;-1.280836411751807E-003;
2.406333333333334E+009;1.940827816724777E-001;3.775331005454063E-002;-7.054203655570746E-003;-9.055422269739211E-004;
2.406500000000000E+009;1.948869675397873E-001;3.778927773237228E-002;-6.933039519935846E-003;-5.028648301959038E-004;
2.406666666666667E+009;1.953635811805725E-001;3.772056475281715E-002;-6.988355424255133E-003;-1.803264167392626E-004;
2.406833333333334E+009;1.958069801330566E-001;3.775445744395256E-002;-6.939214654266834E-003;-5.558703924180009E-005;
2.407000000000000E+009;1.961673051118851E-001;3.786354511976242E-002;-6.787859369069338E-003;3.122008347418159E-004;
2.407166666666667E+009;1.966295391321182E-001;3.784447535872459E-002;-6.732610985636711E-003;5.009324522688985E-004;
2.407333333333334E+009;1.964622437953949E-001;3.793362155556679E-002;-6.569398567080498E-003;8.232770487666130E-004;
2.407500000000000E+009;1.963467150926590E-001;3.787460178136826E-002;-6.648067384958267E-003;8.409234578721225E-004;
2.407666666666667E+009;1.964223533868790E-001;3.787093982100487E-002;-6.337429396808147E-003;1.231584581546485E-003;
2.407833333333334E+009;1.960792839527130E-001;3.774070739746094E-002;-6.148362997919321E-003;1.328019308857620E-003;
2.408000000000000E+009;1.958605796098709E-001;3.764580935239792E-002;-5.989154800772667E-003;1.585096237249672E-003;
2.408166666666667E+009;1.953336000442505E-001;3.726160526275635E-002;-5.976005923002958E-003;1.859584357589483E-003;
2.408333333333334E+009;1.948626637458801E-001;3.676194325089455E-002;-5.820206832140684E-003;1.938218134455383E-003;
2.408500000000000E+009;1.941418945789337E-001;3.643180057406426E-002;-5.788086447864771E-003;1.978986198082566E-003;
2.408666666666667E+009;1.935014724731445E-001;3.580214455723763E-002;-5.574290640652180E-003;2.091047819703817E-003;
2.408833333333334E+009;1.927782148122788E-001;3.493965789675713E-002;-5.330170039087534E-003;2.180207753553987E-003;
2.409000000000000E+009;1.918035447597504E-001;3.406090289354324E-002;-5.242490675300360E-003;2.401094418019056E-003;
2.409166666666667E+009;1.909874826669693E-001;3.300496935844421E-002;-5.236894357949495E-003;2.472310326993465E-003;
2.409333333333334E+009;1.900250017642975E-001;3.202113136649132E-002;-4.872285760939121E-003;2.689734334126115E-003;
2.409500000000000E+009;1.889183372259140E-001;3.067211247980595E-002;-4.766723141074181E-003;2.746780170127749E-003;
2.409666666666667E+009;1.879545748233795E-001;2.924978733062744E-002;-4.767944104969502E-003;2.712961286306381E-003;
2.409833333333334E+009;1.867958903312683E-001;2.780877612531185E-002;-4.607370588928461E-003;2.762811491265893E-003;
2.410000000000000E+009;1.858324706554413E-001;2.626782655715942E-002;-4.509938880801201E-003;2.795314416289330E-003;
2.410166666666667E+009;1.847653985023499E-001;2.431738004088402E-002;-4.257329739630222E-003;2.842055400833488E-003;
2.410333333333334E+009;1.837847530841827E-001;2.243224158883095E-002;-4.234231542795897E-003;2.863459521904588E-003;
2.410500000000000E+009;1.829217523336411E-001;2.029804140329361E-002;-4.033976234495640E-003;2.916936529800296E-003;
2.410666666666667E+009;1.819783300161362E-001;1.829253695905209E-002;-3.991616889834404E-003;3.104474861174822E-003;
2.410833333333334E+009;1.812673956155777E-001;1.623823679983616E-002;-3.917423076927662E-003;2.930738730356097E-003;
2.411000000000000E+009;1.805813610553742E-001;1.380585879087448E-002;-3.886568825691938E-003;3.099463647231460E-003;
2.411166666666667E+009;1.800779700279236E-001;1.151238940656185E-002;-3.842293052002788E-003;2.923463238403201E-003;
2.411333333333334E+009;1.792959719896317E-001;9.103490039706230E-003;-3.534914925694466E-003;3.056042362004519E-003;
2.411500000000000E+009;1.789199858903885E-001;6.729831919074059E-003;-3.505487926304340E-003;3.068003337830305E-003;
2.411666666666667E+009;1.787920147180557E-001;4.397631622850895E-003;-3.383948933333159E-003;3.156065009534359E-003;
2.411833333333334E+009;1.785256117582321E-001;2.056226599961519E-003;-3.375412663444877E-003;3.029593732208014E-003;
2.412000000000000E+009;1.787197887897492E-001;-6.369071779772639E-004;-3.166476497426629E-003;3.045773366466165E-003;
2.412166666666667E+009;1.786193698644638E-001;-2.938431920483708E-003;-3.117803949862719E-003;3.179038176313043E-003;
2.412333333333334E+009;1.788404136896133E-001;-5.411740392446518E-003;-3.021796932443976E-003;3.084112657234073E-003;
2.412500000000000E+009;1.792959123849869E-001;-7.914852350950241E-003;-3.162805689498782E-003;3.075836924836040E-003;
2.412666666666667E+009;1.796167790889740E-001;-1.031923014670610E-002;-3.091473365202546E-003;3.051480511203408E-003;
2.412833333333334E+009;1.804278790950775E-001;-1.275571528822184E-002;-3.086885903030634E-003;2.997691277414560E-003;
2.413000000000000E+009;1.811080425977707E-001;-1.510779745876789E-002;-3.120285691693425E-003;3.042087890207768E-003;
2.413166666666667E+009;1.820139288902283E-001;-1.719735376536846E-002;-3.128888783976436E-003;3.082904266193509E-003;
2.413333333333334E+009;1.829149425029755E-001;-1.945197954773903E-002;-3.055906854569912E-003;3.099520923569799E-003;
2.413500000000000E+009;1.836799830198288E-001;-2.190713956952095E-002;-3.047978505492210E-003;3.212944138795137E-003;
2.413666666666667E+009;1.848260164260864E-001;-2.390262112021446E-002;-3.167555434629321E-003;3.475386649370194E-003;
2.413833333333334E+009;1.859870404005051E-001;-2.600483410060406E-002;-2.970616566017270E-003;3.683787770569325E-003;
2.414000000000000E+009;1.870849281549454E-001;-2.794626727700234E-002;-3.076073946431279E-003;3.802210791036487E-003;
2.414166666666667E+009;1.884157657623291E-001;-2.974848635494709E-002;-2.947767497971654E-003;3.668709192425013E-003;
2.414333333333334E+009;1.894134581089020E-001;-3.146222978830338E-002;-2.969275461509824E-003;4.029252566397190E-003;
2.414500000000000E+009;1.905445456504822E-001;-3.300945460796356E-002;-2.844068687409163E-003;3.930076025426388E-003;
2.414666666666667E+009;1.917728036642075E-001;-3.454893454909325E-002;-2.782047027722001E-003;4.205965902656317E-003;
2.414833333333334E+009;1.927805989980698E-001;-3.580078482627869E-002;-2.667484804987907E-003;4.295390564948320E-003;
2.415000000000000E+009;1.939668655395508E-001;-3.707542270421982E-002;-2.666034968569875E-003;4.234362859278917E-003;
2.415166666666667E+009;1.951756775379181E-001;-3.812441974878311E-002;-2.450223313644528E-003;4.298768937587738E-003;
2.415333333333334E+009;1.962301582098007E-001;-3.905449062585831E-002;-2.525522606447339E-003;4.434420261532068E-003;
2.415500000000000E+009;1.973548531532288E-001;-3.973661363124847E-002;-2.505118492990732E-003;4.534500185400248E-003;
2.415666666666667E+009;1.983122527599335E-001;-4.049448668956757E-002;-2.448656130582094E-003;4.752990789711475E-003;
2.415833333333334E+009;1.991429775953293E-001;-4.104457795619965E-002;-2.436514943838120E-003;4.852588754147291E-003;
2.416000000000000E+009;1.998434513807297E-001;-4.153228551149368E-002;-2.331204246729612E-003;4.943071864545345E-003;
2.416166666666667E+009;2.006462216377258E-001;-4.208958894014359E-002;-2.143709221854806E-003;5.056343972682953E-003;
2.416333333333334E+009;2.012376189231873E-001;-4.231428727507591E-002;-2.046732231974602E-003;5.465738475322723E-003;
2.416500000000000E+009;2.017155885696411E-001;-4.251234978437424E-002;-2.006088383495808E-003;5.568729247897863E-003;
2.416666666666667E+009;2.019950151443481E-001;-4.288856312632561E-002;-1.845979597419500E-003;5.650992505252361E-003;
2.416833333333334E+009;2.021201699972153E-001;-4.285647347569466E-002;-1.461554318666458E-003;5.747938994318247E-003;
2.417000000000000E+009;2.022561579942703E-001;-4.297799244523048E-002;-1.393330981954932E-003;5.894785281270742E-003;
2.417166666666667E+009;2.020691037178040E-001;-4.289563372731209E-002;-1.245257561095059E-003;6.077812518924475E-003;
2.417333333333334E+009;2.018285095691681E-001;-4.271161183714867E-002;-1.001001102849841E-003;6.050044205039740E-003;
2.417500000000000E+009;2.015807777643204E-001;-4.277337715029717E-002;-7.895501330494881E-004;6.245586555451155E-003;
2.417666666666667E+009;2.010341435670853E-001;-4.243415221571922E-002;-5.335736204870045E-004;6.321220658719540E-003;
2.417833333333334E+009;2.005462944507599E-001;-4.229221865534782E-002;-3.567358944565058E-004;6.475022528320551E-003;
2.418000000000000E+009;1.999148577451706E-001;-4.209183529019356E-002;-1.657091779634357E-004;6.451420951634646E-003;
2.418166666666667E+009;1.991301476955414E-001;-4.202634096145630E-002;1.204927830258384E-004;6.446647457778454E-003;
2.418333333333334E+009;1.981352865695953E-001;-4.191805794835091E-002;4.324534384068102E-004;6.439999677240849E-003;
2.418500000000000E+009;1.971683651208878E-001;-4.192463308572769E-002;5.565791507251561E-004;6.465468090027571E-003;
2.418666666666667E+009;1.962704360485077E-001;-4.182719439268112E-002;6.918658036738634E-004;6.348035298287869E-003;
2.418833333333334E+009;1.949944943189621E-001;-4.201454669237137E-002;1.166372210718691E-003;6.497073452919722E-003;
2.419000000000000E+009;1.936613023281097E-001;-4.221219569444656E-002;1.261329976841807E-003;6.418826989829540E-003;
2.419166666666667E+009;1.922947168350220E-001;-4.250710457563400E-002;1.540501485578716E-003;6.430812645703554E-003;
2.419333333333334E+009;1.909334212541580E-001;-4.296385124325752E-002;1.683185691945255E-003;6.367372814565897E-003;
2.419500000000000E+009;1.895077675580978E-001;-4.347541928291321E-002;1.842966303229332E-003;6.344377994537354E-003;
2.419666666666667E+009;1.879007518291473E-001;-4.430328309535980E-002;2.256484702229500E-003;6.274213548749685E-003;
2.419833333333334E+009;1.863415986299515E-001;-4.490095376968384E-002;2.515564206987619E-003;6.259237881749868E-003;
2.420000000000000E+009;1.847438663244247E-001;-4.591304063796997E-002;2.634574426338077E-003;6.261413916945458E-003;
2.420166666666667E+009;1.831111609935761E-001;-4.686122760176659E-002;2.712962683290243E-003;6.215415894985199E-003;
2.420333333333334E+009;1.815318167209625E-001;-4.784859716892242E-002;3.139399457722902E-003;5.970544181764126E-003;
2.420500000000000E+009;1.798385232686997E-001;-4.925071820616722E-002;3.558019176125526E-003;6.023840513080359E-003;
2.420666666666667E+009;1.782852858304977E-001;-5.038332566618919E-002;3.690088400617242E-003;5.806430242955685E-003;
2.420833333333334E+009;1.766471117734909E-001;-5.191985890269280E-002;3.879157826304436E-003;5.625884048640728E-003;
2.421000000000000E+009;1.752260774374008E-001;-5.338688567280769E-002;4.254862666130066E-003;5.469186231493950E-003;
2.421166666666667E+009;1.737568527460098E-001;-5.514252558350563E-002;4.380449187010527E-003;5.354217253625393E-003;
2.421333333333334E+009;1.722955852746964E-001;-5.658221244812012E-002;4.687867593020201E-003;5.037608090788126E-003;
2.421500000000000E+009;1.710073798894882E-001;-5.858150869607925E-002;4.630912560969591E-003;4.801375791430473E-003;
2.421666666666667E+009;1.696341335773468E-001;-6.046238914132118E-002;4.891883116215468E-003;4.678790923207998E-003;
2.421833333333334E+009;1.687151640653610E-001;-6.214072182774544E-002;5.072514060884714E-003;4.367566667497158E-003;
2.422000000000000E+009;1.675482839345932E-001;-6.406363844871521E-002;5.202323663979769E-003;4.099573474377394E-003;
2.422166666666667E+009;1.667546927928925E-001;-6.611806899309158E-002;5.285713355988264E-003;3.916530404239893E-003;
2.422333333333334E+009;1.657312959432602E-001;-6.832341849803925E-002;5.415106192231178E-003;3.607340157032013E-003;
2.422500000000000E+009;1.649395823478699E-001;-7.014562934637070E-002;5.583895836025477E-003;3.295961767435074E-003;
2.422666666666667E+009;1.642275899648666E-001;-7.214956730604172E-002;5.528657231479883E-003;2.961964346468449E-003;
2.422833333333334E+009;1.638542711734772E-001;-7.432150095701218E-002;5.559201817959547E-003;2.694517141208053E-003;
2.423000000000000E+009;1.633928418159485E-001;-7.634285092353821E-002;5.407318938523531E-003;2.606601221486926E-003;
2.423166666666667E+009;1.629149019718170E-001;-7.821473479270935E-002;5.489835981279612E-003;2.181747229769826E-003;
2.423333333333334E+009;1.628719568252564E-001;-8.019551634788513E-002;5.523008294403553E-003;2.141091041266918E-003;
2.423500000000000E+009;1.627464890480042E-001;-8.193293213844299E-002;5.561538506299257E-003;1.911603962071240E-003;
2.423666666666667E+009;1.628207713365555E-001;-8.394785225391388E-002;5.477801896631718E-003;1.687622279860079E-003;
2.423833333333334E+009;1.626812815666199E-001;-8.571453392505646E-002;5.429804325103760E-003;1.397839514538646E-003;
2.424000000000000E+009;1.628007292747498E-001;-8.741901814937592E-002;5.451051052659750E-003;1.294724759645760E-003;
2.424166666666667E+009;1.628588140010834E-001;-8.898799866437912E-002;5.541082005947828E-003;1.342129777185619E-003;
2.424333333333334E+009;1.631096303462982E-001;-9.045497328042984E-002;5.503159947693348E-003;8.026764844544232E-004;
2.424500000000000E+009;1.635830104351044E-001;-9.217628091573715E-002;5.445262417197228E-003;9.028011700138450E-004;
2.424666666666667E+009;1.637771278619766E-001;-9.348984807729721E-002;5.337636917829514E-003;5.950309569016099E-004;
2.424833333333334E+009;1.644348204135895E-001;-9.470070898532867E-002;5.389805883169174E-003;5.130013450980187E-004;
2.425000000000000E+009;1.647502034902573E-001;-9.583815187215805E-002;5.270580761134625E-003;2.947252360172570E-004;
2.425166666666667E+009;1.649981439113617E-001;-9.697547554969788E-002;5.243939813226461E-003;1.144984053098597E-004;
2.425333333333334E+009;1.653891205787659E-001;-9.790987521409988E-002;5.247092805802822E-003;-1.197331803268753E-004;
2.425500000000000E+009;1.658209413290024E-001;-9.881576895713806E-002;5.046397447586060E-003;-2.467973972670734E-004;
2.425666666666667E+009;1.662690937519074E-001;-9.947235137224197E-002;5.007252097129822E-003;-2.605649351608008E-004;
2.425833333333334E+009;1.664641648530960E-001;-1.003259792923927E-001;4.718543961644173E-003;-4.962156526744366E-004;
2.426000000000000E+009;1.669911295175552E-001;-1.007649824023247E-001;4.783907905220985E-003;-6.102998740971088E-004;
2.426166666666667E+009;1.673297137022018E-001;-1.013296619057655E-001;4.619332030415535E-003;-8.065045694820583E-004;
2.426333333333334E+009;1.674248725175858E-001;-1.017543673515320E-001;4.561849404126406E-003;-8.482890552841127E-004;
2.426500000000000E+009;1.677997410297394E-001;-1.020729392766953E-001;4.478703252971172E-003;-1.036912901327014E-003;
2.426666666666667E+009;1.680200397968292E-001;-1.022625416517258E-001;4.443311132490635E-003;-9.858000557869673E-004;
2.426833333333334E+009;1.683090776205063E-001;-1.026269868016243E-001;4.348670598119497E-003;-9.503325563855469E-004;
2.427000000000000E+009;1.682736128568649E-001;-1.027748361229897E-001;4.234478808939457E-003;-1.149023533798754E-003;
2.427166666666667E+009;1.683784574270248E-001;-1.029042676091194E-001;4.032451193779707E-003;-1.105525647290051E-003;
2.427333333333334E+009;1.681696921586990E-001;-1.031332165002823E-001;4.019633866846561E-003;-1.124184578657150E-003;
2.427500000000000E+009;1.679219752550125E-001;-1.032517179846764E-001;3.960829693824053E-003;-1.145028392784298E-003;
2.427666666666667E+009;1.676688492298126E-001;-1.033845096826553E-001;3.836590331047773E-003;-1.261735567823052E-003;
2.427833333333334E+009;1.672786921262741E-001;-1.034984886646271E-001;3.743892302736640E-003;-1.407669042237103E-003;
