# Version 1.00
#
freq[Hz];re:Trc1_S11;im:Trc1_S11;re:Trc2_S21;im:Trc2_S21;
2.400000000000000E+009;1.619659811258316E-001;5.294574052095413E-002;-3.189592156559229E-003;-4.498356953263283E-003;
2.400166666666667E+009;1.617681682109833E-001;5.127776414155960E-002;-3.195668105036020E-003;-4.368046764284372E-003;
2.400333333333334E+009;1.616391837596893E-001;4.923574998974800E-002;-3.549190936610103E-003;-4.493966232985258E-003;
2.400500000000000E+009;1.615708470344544E-001;4.716667532920837E-002;-3.707293421030045E-003;-4.388760309666395E-003;
2.400666666666667E+009;1.615426540374756E-001;4.509292170405388E-002;-3.800454549491406E-003;-4.253767430782318E-003;
2.400833333333334E+009;1.616640090942383E-001;4.323639720678330E-002;-3.953189589083195E-003;-4.267714917659760E-003;
2.401000000000000E+009;1.616580486297607E-001;4.108573123812676E-002;-4.119241144508123E-003;-4.380520898848772E-003;
2.401166666666667E+009;1.617725938558579E-001;3.890062496066093E-002;-4.317049402743578E-003;-4.014965612441301E-003;
2.401333333333334E+009;1.618892997503281E-001;3.688462451100349E-002;-4.612664226442576E-003;-4.066932946443558E-003;
2.401500000000000E+009;1.623021513223648E-001;3.480314835906029E-002;-4.704030696302652E-003;-3.976398147642613E-003;
2.401666666666667E+009;1.624926924705505E-001;3.282549232244492E-002;-5.012990906834602E-003;-3.901551477611065E-003;
2.401833333333334E+009;1.629258841276169E-001;3.059015981853008E-002;-5.352584645152092E-003;-3.912009764462709E-003;
2.402000000000000E+009;1.631183773279190E-001;2.861509285867214E-002;-5.379077512770891E-003;-3.678462933748961E-003;
2.402166666666667E+009;1.636065542697907E-001;2.654066495597363E-002;-5.523962900042534E-003;-3.415982704609633E-003;
2.402333333333334E+009;1.642104387283325E-001;2.459480240941048E-002;-5.684105213731527E-003;-3.243695711717010E-003;
2.402500000000000E+009;1.650634855031967E-001;2.281504124403000E-002;-5.945137236267328E-003;-3.033918095752597E-003;
2.402666666666667E+009;1.654385477304459E-001;2.089370787143707E-002;-6.170372013002634E-003;-2.856662264093757E-003;
2.402833333333334E+009;1.660701632499695E-001;1.926819793879986E-002;-6.348861847072840E-003;-2.489210339263082E-003;
2.403000000000000E+009;1.668153554201126E-001;1.746029779314995E-002;-6.675847340375185E-003;-2.407935913652182E-003;
2.403166666666667E+009;1.676831394433975E-001;1.578912325203419E-002;-6.641821004450321E-003;-2.161047654226422E-003;
2.403333333333334E+009;1.685780435800552E-001;1.450914051383734E-002;-6.843253970146179E-003;-1.831821980886161E-003;
2.403500000000000E+009;1.692172139883041E-001;1.299593411386013E-002;-7.084520068019629E-003;-1.532017835415900E-003;
2.403666666666667E+009;1.700723320245743E-001;1.143992505967617E-002;-7.314576767385006E-003;-1.200634404085577E-003;
2.403833333333334E+009;1.711130738258362E-001;1.030956022441387E-002;-7.282129023224115E-003;-8.567617624066770E-004;
2.404000000000000E+009;1.719055026769638E-001;9.183989837765694E-003;-7.375809364020824E-003;-4.386181244626641E-004;
2.404166666666667E+009;1.727257668972015E-001;7.836750708520412E-003;-7.453454658389092E-003;-4.400174657348543E-005;
2.404333333333334E+009;1.735516339540482E-001;6.995827425271273E-003;-7.418172433972359E-003;3.319490060675889E-004;
2.404500000000000E+009;1.744183003902435E-001;5.946265999227762E-003;-7.478318177163601E-003;6.423452286981046E-004;
2.404666666666667E+009;1.752162724733353E-001;5.036268848925829E-003;-7.203250657767057E-003;1.074037281796336E-003;
2.404833333333334E+009;1.761065721511841E-001;4.358653910458088E-003;-7.314630318433046E-003;1.447377610020340E-003;
2.405000000000000E+009;1.767234802246094E-001;3.700295230373740E-003;-7.242767605930567E-003;1.748041831888259E-003;
2.405166666666667E+009;1.774895489215851E-001;3.051893785595894E-003;-7.126277312636375E-003;2.201399300247431E-003;
2.405333333333334E+009;1.782304495573044E-001;2.551538171246648E-003;-7.111222017556429E-003;2.653317060321569E-003;
2.405500000000000E+009;1.788828521966934E-001;2.225375501438975E-003;-6.842320319265127E-003;2.836676314473152E-003;
2.405666666666667E+009;1.794111430644989E-001;1.758644357323647E-003;-6.595290731638670E-003;3.134421538561583E-003;
2.405833333333334E+009;1.797293424606323E-001;1.425919239409268E-003;-6.647436413913965E-003;3.546237247064710E-003;
2.406000000000000E+009;1.803730428218842E-001;1.150662777945399E-003;-6.240602117031813E-003;3.824317827820778E-003;
2.406166666666667E+009;1.804673373699188E-001;9.375444496981800E-004;-6.008957978338003E-003;3.958537243306637E-003;
2.406333333333334E+009;1.810165643692017E-001;6.485391641035676E-004;-5.751079879701138E-003;4.302574321627617E-003;
2.406500000000000E+009;1.811273694038391E-001;4.022663633804768E-004;-5.697097629308701E-003;4.600706044584513E-003;
2.406666666666667E+009;1.811711490154266E-001;2.094106166623533E-004;-5.389686208218336E-003;4.754481371492147E-003;
2.406833333333334E+009;1.812961846590042E-001;6.041255255695432E-005;-5.262941122055054E-003;4.855021368712187E-003;
2.407000000000000E+009;1.812685728073120E-001;-2.535442181397229E-004;-4.937688820064068E-003;5.104431882500649E-003;
2.407166666666667E+009;1.812203824520111E-001;-3.639090573415160E-004;-4.696700256317854E-003;5.253760609775782E-003;
2.407333333333334E+009;1.809432804584503E-001;-7.734645623713732E-004;-4.387216642498970E-003;5.428901873528957E-003;
2.407500000000000E+009;1.806668043136597E-001;-1.130675897002220E-003;-4.120231606066227E-003;5.594051443040371E-003;
2.407666666666667E+009;1.804494559764862E-001;-1.485691638663411E-003;-3.902174299582839E-003;5.520891398191452E-003;
2.407833333333334E+009;1.797780394554138E-001;-1.916466047987342E-003;-3.522805171087384E-003;5.743242800235748E-003;
2.408000000000000E+009;1.791981309652329E-001;-2.408881904557347E-003;-3.280077129602432E-003;6.030184682458639E-003;
2.408166666666667E+009;1.786836683750153E-001;-2.747594844549894E-003;-3.054192522540689E-003;5.961171351373196E-003;
2.408333333333334E+009;1.783929914236069E-001;-3.590004052966833E-003;-2.850302960723639E-003;5.943102762103081E-003;
2.408500000000000E+009;1.774403303861618E-001;-4.192767199128866E-003;-2.544963499531150E-003;5.955205298960209E-003;
2.408666666666667E+009;1.767802387475967E-001;-5.166394170373678E-003;-2.213299507275224E-003;6.090158130973578E-003;
2.408833333333334E+009;1.759391874074936E-001;-5.854269955307245E-003;-1.926713506691158E-003;6.140580866485834E-003;
2.409000000000000E+009;1.750207394361496E-001;-6.801851093769074E-003;-1.726736780256033E-003;6.132420152425766E-003;
2.409166666666667E+009;1.743597686290741E-001;-7.830482907593250E-003;-1.409249030984938E-003;6.303100846707821E-003;
2.409333333333334E+009;1.736824959516525E-001;-9.185978211462498E-003;-1.244789687916637E-003;6.135093979537487E-003;
2.409500000000000E+009;1.727797389030457E-001;-1.044372282922268E-002;-8.140059653669596E-004;6.093031726777554E-003;
2.409666666666667E+009;1.718973219394684E-001;-1.180012244731188E-002;-6.694451440125704E-004;6.102188490331173E-003;
2.409833333333334E+009;1.709120720624924E-001;-1.298777479678392E-002;-4.042127402499318E-004;5.934216547757387E-003;
2.410000000000000E+009;1.701480597257614E-001;-1.446606777608395E-002;-1.607054873602465E-004;5.987609270960093E-003;
2.410166666666667E+009;1.694898307323456E-001;-1.610644161701202E-002;-7.839383761165664E-005;5.899564363062382E-003;
2.410333333333334E+009;1.687368005514145E-001;-1.763497851788998E-002;1.519018696853891E-004;5.676164291799069E-003;
2.410500000000000E+009;1.679812520742416E-001;-1.962726749479771E-002;3.122028720099479E-004;5.633713677525520E-003;
2.410666666666667E+009;1.675745844841003E-001;-2.141931839287281E-002;5.714739672839642E-004;5.690573249012232E-003;
2.410833333333334E+009;1.671774834394455E-001;-2.312441356480122E-002;6.373685901053250E-004;5.540353711694479E-003;
2.411000000000000E+009;1.664271950721741E-001;-2.497493103146553E-002;9.185998933389783E-004;5.417939741164446E-003;
2.411166666666667E+009;1.660404503345490E-001;-2.705578319728375E-002;8.497114176861942E-004;5.248378962278366E-003;
2.411333333333334E+009;1.656369715929031E-001;-2.890467643737793E-002;1.071054255589843E-003;5.271033383905888E-003;
2.411500000000000E+009;1.653204858303070E-001;-3.084279969334602E-002;1.230011926963925E-003;5.146839190274477E-003;
2.411666666666667E+009;1.652792990207672E-001;-3.287161886692047E-002;1.463176333345473E-003;5.088890902698040E-003;
2.411833333333334E+009;1.650609821081162E-001;-3.485263511538506E-002;1.522730453871191E-003;4.899401217699051E-003;
2.412000000000000E+009;1.652315109968185E-001;-3.702595084905624E-002;1.615697634406388E-003;4.958165809512138E-003;
2.412166666666667E+009;1.650441735982895E-001;-3.898398950695992E-002;1.727327355183661E-003;4.841757472604513E-003;
2.412333333333334E+009;1.651673316955566E-001;-4.077540338039398E-002;1.933839987032116E-003;4.776018671691418E-003;
2.412500000000000E+009;1.652647107839584E-001;-4.276951402425766E-002;2.193660708144307E-003;4.785437136888504E-003;
2.412666666666667E+009;1.656753271818161E-001;-4.496484994888306E-002;2.294861711561680E-003;4.624630790203810E-003;
2.412833333333334E+009;1.660858094692230E-001;-4.677339270710945E-002;2.288594609126449E-003;4.541509319096804E-003;
2.413000000000000E+009;1.661455780267716E-001;-4.862013831734657E-002;2.553262049332261E-003;4.573156591504812E-003;
2.413166666666667E+009;1.665608435869217E-001;-5.043716356158257E-002;2.629391616210342E-003;4.449474159628153E-003;
2.413333333333334E+009;1.669857352972031E-001;-5.218901485204697E-002;2.782171126455069E-003;4.249534104019404E-003;
2.413500000000000E+009;1.676286011934280E-001;-5.386963114142418E-002;2.879573032259941E-003;4.252320155501366E-003;
2.413666666666667E+009;1.680820435285568E-001;-5.555926263332367E-002;2.990647917613387E-003;4.035973455756903E-003;
2.413833333333334E+009;1.686372905969620E-001;-5.710053071379662E-002;2.981329336762428E-003;3.920411225408316E-003;
2.414000000000000E+009;1.691426038742065E-001;-5.872262641787529E-002;3.391049103811383E-003;3.817585064098239E-003;
2.414166666666667E+009;1.697600334882736E-001;-5.987542867660523E-002;3.589221742004156E-003;3.751764306798577E-003;
2.414333333333334E+009;1.703433841466904E-001;-6.118161976337433E-002;3.516663797199726E-003;3.458739491179586E-003;
2.414500000000000E+009;1.709796488285065E-001;-6.211342662572861E-002;3.737049177289009E-003;3.337604692205787E-003;
2.414666666666667E+009;1.714267581701279E-001;-6.324287503957748E-002;3.717384766787291E-003;3.295287955552340E-003;
2.414833333333334E+009;1.719722449779511E-001;-6.429661065340042E-002;3.792519448325038E-003;3.186865709722042E-003;
2.415000000000000E+009;1.723135113716126E-001;-6.509109586477280E-002;4.010017029941082E-003;2.911017509177327E-003;
2.415166666666667E+009;1.727943718433380E-001;-6.591440737247467E-002;3.915006760507822E-003;2.763073891401291E-003;
2.415333333333334E+009;1.734015494585037E-001;-6.646228581666946E-002;4.240593407303095E-003;2.696534153074026E-003;
2.415500000000000E+009;1.737345159053803E-001;-6.715494394302368E-002;4.212467931210995E-003;2.360098296776414E-003;
2.415666666666667E+009;1.740261763334274E-001;-6.755506247282028E-002;4.281381610780954E-003;2.279943553730846E-003;
2.415833333333334E+009;1.741985529661179E-001;-6.808757781982422E-002;4.372494295239449E-003;2.067650435492396E-003;
2.416000000000000E+009;1.744352877140045E-001;-6.858532875776291E-002;4.448216408491135E-003;1.954279839992523E-003;
2.416166666666667E+009;1.746389865875244E-001;-6.875188648700714E-002;4.606739617884159E-003;1.874391804449260E-003;
2.416333333333334E+009;1.745565682649612E-001;-6.897882372140884E-002;4.396545235067606E-003;1.823995378799737E-003;
2.416500000000000E+009;1.743998676538467E-001;-6.927777081727982E-002;4.712264519184828E-003;1.410192577168346E-003;
2.416666666666667E+009;1.743269115686417E-001;-6.936615705490112E-002;4.617783706635237E-003;1.269551226869226E-003;
2.416833333333334E+009;1.741217821836472E-001;-6.974412500858307E-002;4.612940829247236E-003;1.161101972684264E-003;
2.417000000000000E+009;1.735461801290512E-001;-6.972343474626541E-002;4.759364295750856E-003;1.064706593751907E-003;
2.417166666666667E+009;1.731569319963455E-001;-6.975413858890533E-002;4.625176079571247E-003;7.392694824375212E-004;
2.417333333333334E+009;1.726558804512024E-001;-6.986244022846222E-002;4.685327410697937E-003;5.889410385861993E-004;
2.417500000000000E+009;1.720019280910492E-001;-7.017543166875839E-002;4.599798470735550E-003;4.079096834175289E-004;
2.417666666666667E+009;1.713360249996185E-001;-7.011324167251587E-002;4.693712107837200E-003;1.979525695787743E-004;
2.417833333333334E+009;1.704500466585159E-001;-7.023657858371735E-002;4.576468840241432E-003;7.033642759779468E-005;
2.418000000000000E+009;1.693433076143265E-001;-7.052541524171829E-002;4.565566778182983E-003;-1.435995454812655E-005;
2.418166666666667E+009;1.684105247259140E-001;-7.063742727041245E-002;4.545706789940596E-003;-3.561743069440126E-004;
2.418333333333334E+009;1.676320880651474E-001;-7.098883390426636E-002;4.405280575156212E-003;-4.156685026828200E-004;
2.418500000000000E+009;1.663396954536438E-001;-7.129213958978653E-002;4.370767157524824E-003;-7.452503195963800E-004;
2.418666666666667E+009;1.652272045612335E-001;-7.160747051239014E-002;4.248112440109253E-003;-7.727235206402838E-004;
2.418833333333334E+009;1.638628840446472E-001;-7.212848216295242E-002;4.379636142402887E-003;-8.203982724808157E-004;
2.419000000000000E+009;1.624926477670670E-001;-7.249496132135391E-002;4.166609141975641E-003;-9.891273221001029E-004;
2.419166666666667E+009;1.612268984317780E-001;-7.313556224107742E-002;3.918400034308434E-003;-1.007947954349220E-003;
2.419333333333334E+009;1.598211526870728E-001;-7.362219691276550E-002;4.175722133368254E-003;-1.243819366209209E-003;
2.419500000000000E+009;1.585681289434433E-001;-7.458801567554474E-002;4.000893794000149E-003;-1.466517918743193E-003;
2.419666666666667E+009;1.573106050491333E-001;-7.542357593774796E-002;3.904346376657486E-003;-1.651183352805674E-003;
2.419833333333334E+009;1.557982265949249E-001;-7.609466463327408E-002;3.787309629842639E-003;-1.488885027356446E-003;
2.420000000000000E+009;1.546941995620728E-001;-7.716169953346252E-002;3.684654366225004E-003;-1.727183582261205E-003;
2.420166666666667E+009;1.533386111259460E-001;-7.829438149929047E-002;3.792519448325038E-003;-1.960987225174904E-003;
2.420333333333334E+009;1.522517055273056E-001;-7.961803674697876E-002;3.621926065534353E-003;-1.960637979209423E-003;
2.420500000000000E+009;1.508913487195969E-001;-8.054445683956146E-002;3.496574936434627E-003;-2.192463260143995E-003;
2.420666666666667E+009;1.497983783483505E-001;-8.191350102424622E-002;3.534395480528474E-003;-2.182656666263938E-003;
2.420833333333334E+009;1.487366706132889E-001;-8.335670828819275E-002;3.354922402650118E-003;-2.408828819170594E-003;
2.421000000000000E+009;1.475791335105896E-001;-8.474342525005341E-002;3.099445253610611E-003;-2.566299168393016E-003;
2.421166666666667E+009;1.467620879411697E-001;-8.630546182394028E-002;2.987557323649526E-003;-2.391231479123235E-003;
2.421333333333334E+009;1.459238529205322E-001;-8.795113861560822E-002;2.866536146029830E-003;-2.726763952523470E-003;
2.421500000000000E+009;1.451427936553955E-001;-8.948820084333420E-002;2.712703542783856E-003;-2.827377291396260E-003;
2.421666666666667E+009;1.444461345672607E-001;-9.126400202512741E-002;2.406560117378831E-003;-2.813700819388032E-003;
2.421833333333334E+009;1.439375132322311E-001;-9.302096068859100E-002;2.437106566503644E-003;-2.737900707870722E-003;
2.422000000000000E+009;1.433956176042557E-001;-9.476192295551300E-002;2.284294459968805E-003;-2.910473616793752E-003;
2.422166666666667E+009;1.429738402366638E-001;-9.671631455421448E-002;2.076765988022089E-003;-2.979141427204013E-003;
2.422333333333334E+009;1.427088826894760E-001;-9.827429056167603E-002;1.995278755202889E-003;-3.010170301422477E-003;
2.422500000000000E+009;1.424384266138077E-001;-1.000976637005806E-001;1.808927394449711E-003;-2.950585447251797E-003;
2.422666666666667E+009;1.422023922204971E-001;-1.019479557871819E-001;1.592049724422395E-003;-3.077777801081538E-003;
2.422833333333334E+009;1.422726064920425E-001;-1.037692800164223E-001;1.348225749097765E-003;-3.119975561276078E-003;
2.423000000000000E+009;1.420342028141022E-001;-1.054669916629791E-001;1.298900111578405E-003;-2.950347959995270E-003;
2.423166666666667E+009;1.424699425697327E-001;-1.072094887495041E-001;1.231675385497510E-003;-2.991331275552511E-003;
2.423333333333334E+009;1.426258832216263E-001;-1.088051795959473E-001;9.363104472868145E-004;-2.985614119097590E-003;
2.423500000000000E+009;1.428978890180588E-001;-1.104366183280945E-001;8.889560704119504E-004;-2.771282801404595E-003;
2.423666666666667E+009;1.429707407951355E-001;-1.121830195188522E-001;6.931986426934600E-004;-2.928186906501651E-003;
2.423833333333334E+009;1.434721052646637E-001;-1.136838793754578E-001;7.181715336628258E-004;-2.798988018184900E-003;
2.424000000000000E+009;1.437904983758926E-001;-1.150062605738640E-001;5.131615325808525E-004;-2.644894644618034E-003;
2.424166666666667E+009;1.442503482103348E-001;-1.163640022277832E-001;4.633611533790827E-004;-2.607505302876234E-003;
2.424333333333334E+009;1.446519345045090E-001;-1.176535189151764E-001;2.873534394893795E-004;-2.612935844808817E-003;
2.424500000000000E+009;1.451330035924912E-001;-1.190126165747643E-001;2.800588554237038E-004;-2.593392739072442E-003;
2.424666666666667E+009;1.456653773784638E-001;-1.199274063110352E-001;1.658497203607112E-004;-2.564939670264721E-003;
2.424833333333334E+009;1.459999829530716E-001;-1.208461225032806E-001;1.808999804779887E-004;-2.551515353843570E-003;
2.425000000000000E+009;1.466013044118881E-001;-1.217998489737511E-001;2.899536630138755E-004;-2.308118855580688E-003;
2.425166666666667E+009;1.469088494777679E-001;-1.226453110575676E-001;7.029368862276897E-005;-2.447415143251419E-003;
2.425333333333334E+009;1.474757343530655E-001;-1.233456283807755E-001;6.815722736064345E-005;-2.272684592753649E-003;
2.425500000000000E+009;1.479246467351914E-001;-1.240227371454239E-001;3.431097502470948E-005;-2.283724490553141E-003;
2.425666666666667E+009;1.480922102928162E-001;-1.246238201856613E-001;4.631522824638523E-005;-2.205181168392301E-003;
2.425833333333334E+009;1.484573781490326E-001;-1.249567791819572E-001;-2.533065708121285E-005;-2.135761547833681E-003;
2.426000000000000E+009;1.486513465642929E-001;-1.255071759223938E-001;-5.186172347748652E-005;-2.228156896308065E-003;
2.426166666666667E+009;1.490887552499771E-001;-1.258190274238586E-001;-2.031926269410178E-004;-2.222108421847224E-003;
2.426333333333334E+009;1.490443795919418E-001;-1.259630471467972E-001;-1.417326129740104E-004;-2.081807237118483E-003;
2.426500000000000E+009;1.491753458976746E-001;-1.261070966720581E-001;-1.959507353603840E-004;-2.082789316773415E-003;
2.426666666666667E+009;1.492467820644379E-001;-1.261093914508820E-001;-1.654140796745196E-004;-2.042906358838081E-003;
2.426833333333334E+009;1.490177214145660E-001;-1.262457668781281E-001;-2.628841320984066E-004;-1.987140625715256E-003;
2.427000000000000E+009;1.487008184194565E-001;-1.262882053852081E-001;-2.181535091949627E-004;-2.079001162201166E-003;
2.427166666666667E+009;1.482987850904465E-001;-1.259820908308029E-001;-3.066194185521454E-004;-1.891898340545595E-003;
2.427333333333334E+009;1.478895246982575E-001;-1.259985864162445E-001;-5.465903086587787E-004;-2.072039991617203E-003;
2.427500000000000E+009;1.474308073520660E-001;-1.259558051824570E-001;-3.531628462951630E-004;-1.903714262880385E-003;
2.427666666666667E+009;1.467475295066834E-001;-1.258503496646881E-001;-4.018477920908481E-004;-1.931526698172092E-003;
