# Version 1.00
#
freq[Hz];re:Trc1_S11;im:Trc1_S11;re:Trc2_S21;im:Trc2_S21;
2.400000000000000E+009;1.618040204048157E-001;5.280046164989471E-002;-3.124650102108717E-003;-4.233743064105511E-003;
2.400166666666667E+009;1.616091430187225E-001;5.118077620863915E-002;-3.209447721019387E-003;-4.342582076787949E-003;
2.400333333333334E+009;1.613471508026123E-001;4.929083213210106E-002;-3.340538125485182E-003;-4.409952554851770E-003;
2.400500000000000E+009;1.614660620689392E-001;4.716003313660622E-002;-3.559015458449721E-003;-4.424250684678555E-003;
2.400666666666667E+009;1.614494770765305E-001;4.520773515105248E-002;-3.707749070599675E-003;-4.391408059746027E-003;
2.400833333333334E+009;1.615257114171982E-001;4.334429278969765E-002;-3.829709254205227E-003;-4.255349282175303E-003;
2.401000000000000E+009;1.614122986793518E-001;4.102684929966927E-002;-4.026493523269892E-003;-4.154150374233723E-003;
2.401166666666667E+009;1.616491824388504E-001;3.897132724523544E-002;-4.227706696838141E-003;-4.057302605360746E-003;
2.401333333333334E+009;1.617185920476914E-001;3.682819008827210E-002;-4.483982920646668E-003;-4.045508336275816E-003;
2.401500000000000E+009;1.622829288244247E-001;3.467617928981781E-002;-4.549330100417137E-003;-3.970462363213301E-003;
2.401666666666667E+009;1.624698936939240E-001;3.284865245223045E-002;-4.995434544980526E-003;-3.694087732583284E-003;
2.401833333333334E+009;1.626949757337570E-001;3.064762987196446E-002;-5.204507615417242E-003;-3.618712304159999E-003;
2.402000000000000E+009;1.629794538021088E-001;2.854392305016518E-002;-5.111544858664274E-003;-3.616419387981296E-003;
2.402166666666667E+009;1.634661704301834E-001;2.659619599580765E-002;-5.459886975586414E-003;-3.336493158712983E-003;
2.402333333333334E+009;1.641852706670761E-001;2.458297833800316E-002;-5.654754582792521E-003;-3.196177305653691E-003;
2.402500000000000E+009;1.648776233196259E-001;2.280313149094582E-002;-5.809779278934002E-003;-3.117535263299942E-003;
2.402666666666667E+009;1.654347330331802E-001;2.104594744741917E-002;-5.963569041341543E-003;-2.920110942795873E-003;
2.402833333333334E+009;1.661147624254227E-001;1.924075372517109E-002;-6.431179121136665E-003;-2.608603797852993E-003;
2.403000000000000E+009;1.668121367692947E-001;1.734139584004879E-002;-6.533412728458643E-003;-2.265256363898516E-003;
2.403166666666667E+009;1.677661687135696E-001;1.584533043205738E-002;-6.565584801137447E-003;-2.015630714595318E-003;
2.403333333333334E+009;1.685087829828262E-001;1.458946149796248E-002;-6.816726643592119E-003;-1.540588447824121E-003;
2.403500000000000E+009;1.691853106021881E-001;1.294599659740925E-002;-6.979081779718399E-003;-1.435576239600778E-003;
2.403666666666667E+009;1.700449734926224E-001;1.154739968478680E-002;-7.226195652037859E-003;-1.042316551320255E-003;
2.403833333333334E+009;1.711792796850205E-001;1.031492929905653E-002;-7.196464575827122E-003;-9.368333267048001E-004;
2.404000000000000E+009;1.718895435333252E-001;9.101778268814087E-003;-7.357658818364143E-003;-4.915304598398507E-004;
2.404166666666667E+009;1.726897358894348E-001;7.931780070066452E-003;-7.404869422316551E-003;4.194410939817317E-005;
2.404333333333334E+009;1.735499352216721E-001;7.101738359779120E-003;-7.351862732321024E-003;3.223152016289532E-004;
2.404500000000000E+009;1.744021326303482E-001;5.920676048845053E-003;-7.390720304101706E-003;6.743451231159270E-004;
2.404666666666667E+009;1.751229017972946E-001;5.233669187873602E-003;-7.347062695771456E-003;9.761520777828991E-004;
2.404833333333334E+009;1.759114116430283E-001;4.495091736316681E-003;-7.370980456471443E-003;1.442434382624924E-003;
2.405000000000000E+009;1.767067760229111E-001;3.684165189042687E-003;-7.287414278835058E-003;1.855444628745318E-003;
2.405166666666667E+009;1.773950010538101E-001;3.160174703225493E-003;-7.179467007517815E-003;2.202623989433050E-003;
2.405333333333334E+009;1.782167106866837E-001;2.301722532138228E-003;-6.904263515025377E-003;2.546332078054547E-003;
2.405500000000000E+009;1.787920743227005E-001;2.097807126119733E-003;-6.739899981766939E-003;2.937071956694126E-003;
2.405666666666667E+009;1.792883723974228E-001;1.793033909052610E-003;-6.778087001293898E-003;3.212018869817257E-003;
2.405833333333334E+009;1.796646714210510E-001;1.558033516630530E-003;-6.477645598351955E-003;3.456822130829096E-003;
2.406000000000000E+009;1.801856160163879E-001;1.120790257118642E-003;-6.260693073272705E-003;3.596463473513722E-003;
2.406166666666667E+009;1.804794371128082E-001;9.698820649646223E-004;-6.081075407564640E-003;3.904834156855941E-003;
2.406333333333334E+009;1.809585243463516E-001;7.028897525742650E-004;-5.869477987289429E-003;4.230176564306021E-003;
2.406500000000000E+009;1.810238659381867E-001;4.845465882681310E-004;-5.586514249444008E-003;4.525102209299803E-003;
2.406666666666667E+009;1.810420304536820E-001;3.884305770043284E-004;-5.425772164016962E-003;4.808699712157250E-003;
2.406833333333334E+009;1.810941845178604E-001;-3.259783625253476E-005;-5.172262433916330E-003;4.875820595771074E-003;
2.407000000000000E+009;1.811282038688660E-001;-3.302935147075914E-005;-4.799563437700272E-003;5.113472696393728E-003;
2.407166666666667E+009;1.811277419328690E-001;-2.408659347565845E-004;-4.643864929676056E-003;5.168313160538673E-003;
2.407333333333334E+009;1.808374524116516E-001;-6.614112644456327E-004;-4.466145299375057E-003;5.314866080880165E-003;
2.407500000000000E+009;1.805321127176285E-001;-9.371178457513452E-004;-4.047503694891930E-003;5.529412534087896E-003;
2.407666666666667E+009;1.802401840686798E-001;-1.166954869404435E-003;-3.802675055339932E-003;5.599126219749451E-003;
2.407833333333334E+009;1.797072291374207E-001;-1.803641906008124E-003;-3.577969036996365E-003;5.682538729161024E-003;
2.408000000000000E+009;1.792530715465546E-001;-2.302399603649974E-003;-3.157413797453046E-003;5.856401752680540E-003;
2.408166666666667E+009;1.786124110221863E-001;-2.727847313508391E-003;-2.994172507897019E-003;5.877854768186808E-003;
2.408333333333334E+009;1.782629042863846E-001;-3.319259500131011E-003;-2.727162092924118E-003;5.998296197503805E-003;
2.408500000000000E+009;1.774138957262039E-001;-4.078741651028395E-003;-2.424617996439338E-003;6.191761232912540E-003;
2.408666666666667E+009;1.766985505819321E-001;-4.965619184076786E-003;-2.204302465543151E-003;6.176401861011982E-003;
2.408833333333334E+009;1.758133769035339E-001;-5.874276626855135E-003;-2.017864724621177E-003;6.022267509251833E-003;
2.409000000000000E+009;1.751403510570526E-001;-6.828139536082745E-003;-1.742862164974213E-003;6.021775770932436E-003;
2.409166666666667E+009;1.744046658277512E-001;-7.814039476215839E-003;-1.513361465185881E-003;6.107181310653687E-003;
2.409333333333334E+009;1.735608875751495E-001;-9.017366915941238E-003;-1.165880355983973E-003;6.115695461630821E-003;
2.409500000000000E+009;1.726814061403275E-001;-1.039845682680607E-002;-9.642572258599103E-004;5.951076745986939E-003;
2.409666666666667E+009;1.718255877494812E-001;-1.176093425601721E-002;-6.669451831839979E-004;5.998930893838406E-003;
2.409833333333334E+009;1.709222048521042E-001;-1.301021222025156E-002;-5.299866897985339E-004;5.908322054892778E-003;
2.410000000000000E+009;1.702551990747452E-001;-1.439993083477020E-002;-2.692742273211479E-004;5.909962113946676E-003;
2.410166666666667E+009;1.696267426013947E-001;-1.601849682629108E-002;4.707662810687907E-005;5.877140443772078E-003;
2.410333333333334E+009;1.687928140163422E-001;-1.761470362544060E-002;-3.014487447217107E-006;5.816762801259756E-003;
2.410500000000000E+009;1.680749654769898E-001;-1.943801529705524E-002;3.556172596290708E-004;5.688026081770659E-003;
2.410666666666667E+009;1.674300730228424E-001;-2.125995047390461E-002;4.368438094388694E-004;5.731994751840830E-003;
2.410833333333334E+009;1.671341210603714E-001;-2.299332059919834E-002;7.126650307327509E-004;5.381240043789148E-003;
2.411000000000000E+009;1.663418412208557E-001;-2.488728053867817E-002;8.467406150884926E-004;5.402414593845606E-003;
2.411166666666667E+009;1.659739315509796E-001;-2.678403444588184E-002;8.694785647094250E-004;5.304463207721710E-003;
2.411333333333334E+009;1.656204909086227E-001;-2.879274822771549E-002;1.121101668104529E-003;5.226962734013796E-003;
2.411500000000000E+009;1.652517914772034E-001;-3.072907216846943E-002;1.217621727846563E-003;5.255182273685932E-003;
2.411666666666667E+009;1.651541292667389E-001;-3.285047411918640E-002;1.351846265606582E-003;5.023892037570477E-003;
2.411833333333334E+009;1.650897860527039E-001;-3.480314090847969E-002;1.465818029828370E-003;5.111627280712128E-003;
2.412000000000000E+009;1.651274412870407E-001;-3.697130456566811E-002;1.589944702573121E-003;4.960224032402039E-003;
2.412166666666667E+009;1.648731827735901E-001;-3.886714205145836E-002;1.666918396949768E-003;4.754760302603245E-003;
2.412333333333334E+009;1.653047800064087E-001;-4.071202501654625E-002;1.926721073687077E-003;4.963940009474754E-003;
2.412500000000000E+009;1.652487069368362E-001;-4.281756281852722E-002;2.105855848640204E-003;4.747444298118353E-003;
2.412666666666667E+009;1.656557619571686E-001;-4.503311589360237E-002;2.115948824211955E-003;4.603912122547627E-003;
2.412833333333334E+009;1.658503264188767E-001;-4.668823629617691E-002;2.298179548233748E-003;4.642778076231480E-003;
2.413000000000000E+009;1.661859005689621E-001;-4.864888265728951E-002;2.361617283895612E-003;4.371956456452608E-003;
2.413166666666667E+009;1.667488366365433E-001;-5.041049793362618E-002;2.564930589869618E-003;4.360415041446686E-003;
2.413333333333334E+009;1.669691205024719E-001;-5.226236209273338E-002;2.596005797386169E-003;4.164760466665030E-003;
2.413500000000000E+009;1.675235927104950E-001;-5.390561744570732E-002;2.884986810386181E-003;4.234741907566786E-003;
2.413666666666667E+009;1.679684817790985E-001;-5.559714138507843E-002;3.182460088282824E-003;4.002727568149567E-003;
2.413833333333334E+009;1.684744507074356E-001;-5.701028555631638E-002;3.201572922989726E-003;3.806257154792547E-003;
2.414000000000000E+009;1.688322275876999E-001;-5.850177258253098E-002;3.316232003271580E-003;3.791562281548977E-003;
2.414166666666667E+009;1.696003824472427E-001;-5.972125753760338E-002;3.304549027234316E-003;3.650548169389367E-003;
2.414333333333334E+009;1.700093299150467E-001;-6.116148084402084E-002;3.567746374756098E-003;3.564016660675407E-003;
2.414500000000000E+009;1.709486097097397E-001;-6.218639016151428E-002;3.683785907924175E-003;3.307843348011375E-003;
2.414666666666667E+009;1.714239567518234E-001;-6.318233907222748E-002;3.743636887520552E-003;3.153796540573239E-003;
2.414833333333334E+009;1.718558520078659E-001;-6.414619088172913E-002;3.874245099723339E-003;3.136000363156200E-003;
2.415000000000000E+009;1.722765713930130E-001;-6.497755646705627E-002;3.907055128365755E-003;2.884378191083670E-003;
2.415166666666667E+009;1.728363186120987E-001;-6.576075404882431E-002;3.968824166804552E-003;2.660494530573487E-003;
2.415333333333334E+009;1.733387261629105E-001;-6.643359363079071E-002;3.992312122136354E-003;2.613170072436333E-003;
2.415500000000000E+009;1.738085448741913E-001;-6.710495799779892E-002;4.149534273892641E-003;2.614728640764952E-003;
2.415666666666667E+009;1.739950329065323E-001;-6.748778373003006E-002;4.410746507346630E-003;2.273145131766796E-003;
2.415833333333334E+009;1.743413656949997E-001;-6.802301108837128E-002;4.193710163235664E-003;2.263799076899886E-003;
2.416000000000000E+009;1.743534952402115E-001;-6.839708238840103E-002;4.410838708281517E-003;2.002939349040389E-003;
2.416166666666667E+009;1.746524870395660E-001;-6.873036921024323E-002;4.408108536154032E-003;1.834856811910868E-003;
2.416333333333334E+009;1.745391041040421E-001;-6.890494376420975E-002;4.586300812661648E-003;1.560789882205427E-003;
2.416500000000000E+009;1.744962483644486E-001;-6.917911022901535E-002;4.513255786150694E-003;1.528015593066812E-003;
2.416666666666667E+009;1.742156296968460E-001;-6.934256851673126E-002;4.546905867755413E-003;1.271613524295390E-003;
2.416833333333334E+009;1.740427017211914E-001;-6.952264159917831E-002;4.620914347469807E-003;1.111637917347252E-003;
2.417000000000000E+009;1.734984964132309E-001;-6.972684711217880E-002;4.655010532587767E-003;9.052423411048949E-004;
2.417166666666667E+009;1.731122881174088E-001;-6.972064822912216E-002;4.546978510916233E-003;7.884853985160589E-004;
2.417333333333334E+009;1.727358400821686E-001;-6.977904587984085E-002;4.643401596695185E-003;5.465535796247423E-004;
2.417500000000000E+009;1.720187664031982E-001;-7.005674391984940E-002;4.613204393535852E-003;3.045685880351812E-004;
2.417666666666667E+009;1.712911278009415E-001;-7.009223103523254E-002;4.620219115167856E-003;2.094796800520271E-004;
2.417833333333334E+009;1.704560667276382E-001;-7.017864286899567E-002;4.605369176715612E-003;8.447028449154459E-006;
2.418000000000000E+009;1.693742722272873E-001;-7.051725685596466E-002;4.636601544916630E-003;3.346201992826536E-005;
2.418166666666667E+009;1.684113591909409E-001;-7.049717754125595E-002;4.377787932753563E-003;-2.355524484300986E-004;
2.418333333333334E+009;1.676541715860367E-001;-7.085246592760086E-002;4.397313110530376E-003;-3.897033166140318E-004;
2.418500000000000E+009;1.663151234388351E-001;-7.114821672439575E-002;4.332184325903654E-003;-5.352037842385471E-004;
2.418666666666667E+009;1.652244478464127E-001;-7.156655192375183E-002;4.327658563852310E-003;-6.992054986767471E-004;
2.418833333333334E+009;1.638630330562592E-001;-7.197687774896622E-002;4.214381333440542E-003;-8.044388378039002E-004;
2.419000000000000E+009;1.625334620475769E-001;-7.236878573894501E-002;4.091957584023476E-003;-9.360822732560337E-004;
2.419166666666667E+009;1.613907217979431E-001;-7.305666804313660E-002;4.148748703300953E-003;-1.010614330880344E-003;
2.419333333333334E+009;1.598087698221207E-001;-7.366562634706497E-002;3.949772100895643E-003;-1.148279174230993E-003;
2.419500000000000E+009;1.584447920322418E-001;-7.454726099967957E-002;3.987904172390699E-003;-1.353182480670512E-003;
2.419666666666667E+009;1.574292629957199E-001;-7.519477605819702E-002;3.843621816486120E-003;-1.527014188468456E-003;
2.419833333333334E+009;1.558553278446198E-001;-7.612346112728119E-002;3.771294839680195E-003;-1.556757139042020E-003;
2.420000000000000E+009;1.546804308891296E-001;-7.721327990293503E-002;3.745107678696513E-003;-1.689100870862603E-003;
2.420166666666667E+009;1.533286124467850E-001;-7.830074429512024E-002;3.719771513715386E-003;-1.675135223194957E-003;
2.420333333333334E+009;1.522056460380554E-001;-7.937275618314743E-002;3.735236590728164E-003;-1.979249529540539E-003;
2.420500000000000E+009;1.510598510503769E-001;-8.041591942310333E-002;3.623757744207978E-003;-1.997285289689899E-003;
2.420666666666667E+009;1.498241573572159E-001;-8.178600668907166E-002;3.377649234607816E-003;-2.217995934188366E-003;
2.420833333333334E+009;1.486874967813492E-001;-8.338689804077148E-002;3.384032053872943E-003;-2.358785597607493E-003;
2.421000000000000E+009;1.475876867771149E-001;-8.492650091648102E-002;3.237896366044879E-003;-2.532905898988247E-003;
2.421166666666667E+009;1.466687470674515E-001;-8.637906610965729E-002;3.232804127037525E-003;-2.455497859045863E-003;
2.421333333333334E+009;1.459246724843979E-001;-8.798813074827194E-002;2.868979936465621E-003;-2.640965860337019E-003;
2.421500000000000E+009;1.450571268796921E-001;-8.950065821409226E-002;2.852805191650987E-003;-2.571731805801392E-003;
2.421666666666667E+009;1.444093585014343E-001;-9.125950187444687E-002;2.595108468085527E-003;-2.772692590951920E-003;
2.421833333333334E+009;1.437582522630692E-001;-9.299406409263611E-002;2.408737083896995E-003;-2.963857259601355E-003;
2.422000000000000E+009;1.432494074106216E-001;-9.480060636997223E-002;2.296675927937031E-003;-3.052327316254377E-003;
2.422166666666667E+009;1.428080797195435E-001;-9.669788181781769E-002;2.080754842609167E-003;-3.035376314073801E-003;
2.422333333333334E+009;1.426411420106888E-001;-9.827767312526703E-002;1.838575582951307E-003;-3.102596383541822E-003;
2.422500000000000E+009;1.422001719474793E-001;-1.000193953514099E-001;1.817225827835500E-003;-2.915099263191223E-003;
2.422666666666667E+009;1.420475989580154E-001;-1.018428355455399E-001;1.691782497800887E-003;-3.055724082514644E-003;
2.422833333333334E+009;1.420695334672928E-001;-1.037791892886162E-001;1.500176149420440E-003;-3.134666942059994E-003;
2.423000000000000E+009;1.420231759548187E-001;-1.053941324353218E-001;1.308214385062456E-003;-3.068065270781517E-003;
2.423166666666667E+009;1.422852575778961E-001;-1.071214526891708E-001;1.043042866513133E-003;-3.004795173183084E-003;
2.423333333333334E+009;1.425686180591583E-001;-1.087417975068092E-001;1.015336019918323E-003;-3.084284020587802E-003;
2.423500000000000E+009;1.427371799945831E-001;-1.103886216878891E-001;9.257165947929025E-004;-2.874877769500017E-003;
2.423666666666667E+009;1.428694725036621E-001;-1.120667010545731E-001;6.355980876833201E-004;-2.813712693750858E-003;
2.423833333333334E+009;1.434376388788223E-001;-1.135171800851822E-001;5.845914129167795E-004;-2.914186799898744E-003;
2.424000000000000E+009;1.437245458364487E-001;-1.149418652057648E-001;5.997263942845166E-004;-2.774988999590278E-003;
2.424166666666667E+009;1.441575884819031E-001;-1.163440272212029E-001;5.192046519368887E-004;-2.763383788987994E-003;
2.424333333333334E+009;1.447076350450516E-001;-1.175350546836853E-001;4.427213862072676E-004;-2.730011474341154E-003;
2.424500000000000E+009;1.450399011373520E-001;-1.188423335552216E-001;2.719548647291958E-004;-2.745527308434248E-003;
2.424666666666667E+009;1.456517130136490E-001;-1.197604909539223E-001;2.760716597549617E-004;-2.552933292463422E-003;
2.424833333333334E+009;1.460086852312088E-001;-1.209019869565964E-001;2.480254916008562E-004;-2.318387851119041E-003;
2.425000000000000E+009;1.466056257486343E-001;-1.217110008001328E-001;2.244384086225182E-004;-2.465430647134781E-003;
2.425166666666667E+009;1.468779295682907E-001;-1.226382553577423E-001;1.970628945855424E-004;-2.373607130721211E-003;
2.425333333333334E+009;1.474269330501556E-001;-1.233698800206184E-001;-9.990161515815998E-007;-2.359117148444057E-003;
2.425500000000000E+009;1.478460431098938E-001;-1.240493133664131E-001;-3.789986067204154E-006;-2.248133998364210E-003;
2.425666666666667E+009;1.480750739574432E-001;-1.245943382382393E-001;-7.129591540433466E-005;-2.230934100225568E-003;
2.425833333333334E+009;1.484383195638657E-001;-1.250515431165695E-001;-4.247339893481694E-005;-2.331508556380868E-003;
2.426000000000000E+009;1.487129032611847E-001;-1.255001127719879E-001;-1.414588477928191E-004;-2.198094502091408E-003;
2.426166666666667E+009;1.490176171064377E-001;-1.257367581129074E-001;-2.071993512799963E-004;-1.990742050111294E-003;
2.426333333333334E+009;1.490054726600647E-001;-1.260293424129486E-001;-1.772931427694857E-004;-2.087499015033245E-003;
2.426500000000000E+009;1.491620093584061E-001;-1.261383146047592E-001;-1.947870769072324E-004;-2.035806188359857E-003;
2.426666666666667E+009;1.491158157587051E-001;-1.261252164840698E-001;-1.647257158765569E-004;-2.121843397617340E-003;
2.426833333333334E+009;1.490090042352676E-001;-1.262553185224533E-001;-1.948065764736384E-004;-2.154903020709753E-003;
2.427000000000000E+009;1.487423628568649E-001;-1.262205392122269E-001;-2.313472796231508E-004;-1.989307347685099E-003;
2.427166666666667E+009;1.484289467334747E-001;-1.259975731372833E-001;-3.398954577278346E-004;-2.034898381680250E-003;
2.427333333333334E+009;1.479839086532593E-001;-1.260130107402802E-001;-4.688123590312898E-004;-2.000583335757256E-003;
2.427500000000000E+009;1.475068330764771E-001;-1.259444355964661E-001;-2.371417649555951E-004;-1.902517047710717E-003;
2.427666666666667E+009;1.467661708593369E-001;-1.259302347898483E-001;-4.412904090713710E-004;-1.942353555932641E-003;
