# Version 1.00
#
freq[Hz];re:Trc1_S11;im:Trc1_S11;re:Trc2_S21;im:Trc2_S21;
2.400000000000000E+009;1.552195250988007E-001;1.068471297621727E-001;-3.343035932630301E-003;-4.102938401047140E-004;
2.400166666666667E+009;1.548705697059631E-001;1.043998748064041E-001;-3.505135653540492E-003;-2.810691075865179E-004;
2.400333333333334E+009;1.548578888177872E-001;1.020890325307846E-001;-3.489510156214237E-003;-1.638620888115838E-004;
2.400500000000000E+009;1.548080742359161E-001;9.943623095750809E-002;-3.488420741632581E-003;-2.249073004350066E-004;
2.400666666666667E+009;1.550600081682205E-001;9.684589505195618E-002;-3.407498123124242E-003;-4.837411324842833E-005;
2.400833333333334E+009;1.547948569059372E-001;9.391935169696808E-002;-3.407543059438467E-003;8.245476783486083E-005;
2.401000000000000E+009;1.550859510898590E-001;9.120929241180420E-002;-3.457371378317475E-003;4.929252099827863E-005;
2.401166666666667E+009;1.549765020608902E-001;8.853415399789810E-002;-3.346441779285669E-003;9.574808791512623E-005;
2.401333333333334E+009;1.552963107824326E-001;8.540350198745728E-002;-3.432258032262325E-003;2.724614751059562E-004;
2.401500000000000E+009;1.557637304067612E-001;8.249778300523758E-002;-3.387680277228355E-003;3.890501975547522E-004;
2.401666666666667E+009;1.561010777950287E-001;7.981050014495850E-002;-3.366556717082858E-003;4.755834233947098E-004;
2.401833333333334E+009;1.566870361566544E-001;7.713611423969269E-002;-3.296141978353262E-003;5.448185256682336E-004;
2.402000000000000E+009;1.575269997119904E-001;7.437355816364288E-002;-3.321350086480379E-003;5.558981210924685E-004;
2.402166666666667E+009;1.581498086452484E-001;7.181345671415329E-002;-3.303894307464361E-003;6.872110534459353E-004;
2.402333333333334E+009;1.591216176748276E-001;6.899676471948624E-002;-3.388436511158943E-003;5.829329602420330E-004;
2.402500000000000E+009;1.602886915206909E-001;6.650209426879883E-002;-3.466148162260652E-003;8.545905584469438E-004;
2.402666666666667E+009;1.614046543836594E-001;6.433143466711044E-002;-3.433932783082128E-003;7.590648019686341E-004;
2.402833333333334E+009;1.629213690757752E-001;6.180163845419884E-002;-3.534035524353385E-003;8.247063378803432E-004;
2.403000000000000E+009;1.642006039619446E-001;5.950900912284851E-002;-3.471564501523972E-003;1.031184103339911E-003;
2.403166666666667E+009;1.659776568412781E-001;5.731075257062912E-002;-3.663304960355163E-003;1.356094842776656E-003;
2.403333333333334E+009;1.673270165920258E-001;5.523309111595154E-002;-3.649115795269609E-003;1.397933810949326E-003;
2.403500000000000E+009;1.691256612539291E-001;5.300585925579071E-002;-3.624823410063982E-003;1.766831614077091E-003;
2.403666666666667E+009;1.708790957927704E-001;5.109579116106033E-002;-3.633070038631558E-003;1.925028976984322E-003;
2.403833333333334E+009;1.725087910890579E-001;4.930790513753891E-002;-3.499956801533699E-003;1.922385883517563E-003;
2.404000000000000E+009;1.740839183330536E-001;4.747825115919113E-002;-3.266907064244151E-003;2.155503025278449E-003;
2.404166666666667E+009;1.759761571884155E-001;4.599637538194656E-002;-3.113871905952692E-003;2.473354805260897E-003;
2.404333333333334E+009;1.777650564908981E-001;4.453389346599579E-002;-2.865886781364679E-003;2.527472795918584E-003;
2.404500000000000E+009;1.792052984237671E-001;4.312016442418098E-002;-3.013214329257608E-003;2.486579818651080E-003;
2.404666666666667E+009;1.809869706630707E-001;4.195928946137428E-002;-2.794246189296246E-003;2.661185804754496E-003;
2.404833333333334E+009;1.826682686805725E-001;4.088426753878593E-002;-2.480652183294296E-003;2.833324018865824E-003;
2.405000000000000E+009;1.841041892766953E-001;4.012954980134964E-002;-2.399388700723648E-003;2.934621414169669E-003;
2.405166666666667E+009;1.854748278856278E-001;3.950843587517738E-002;-2.208201214671135E-003;3.067158861085773E-003;
2.405333333333334E+009;1.869066208600998E-001;3.888729587197304E-002;-2.085921820253134E-003;3.103386843577027E-003;
2.405500000000000E+009;1.885163784027100E-001;3.862749412655830E-002;-1.900219591334462E-003;3.203495638445020E-003;
2.405666666666667E+009;1.896697282791138E-001;3.819887340068817E-002;-1.695527462288737E-003;3.144178073853254E-003;
2.405833333333334E+009;1.909743100404739E-001;3.798280656337738E-002;-1.541191129945219E-003;3.203841159120202E-003;
2.406000000000000E+009;1.919579058885574E-001;3.775632008910179E-002;-1.688046380877495E-003;3.303273813799024E-003;
2.406166666666667E+009;1.929345130920410E-001;3.757897391915321E-002;-1.322270254604518E-003;3.221489023417234E-003;
2.406333333333334E+009;1.938201338052750E-001;3.764985874295235E-002;-1.241439371369779E-003;3.369842655956745E-003;
2.406500000000000E+009;1.945998370647430E-001;3.777531906962395E-002;-1.068657147698104E-003;3.230928676202893E-003;
2.406666666666667E+009;1.952572166919708E-001;3.783982619643211E-002;-9.337530937045813E-004;3.334679407998920E-003;
2.406833333333334E+009;1.957918852567673E-001;3.765528276562691E-002;-8.554205414839089E-004;3.255243645980954E-003;
2.407000000000000E+009;1.961222141981125E-001;3.799409419298172E-002;-6.960125756449997E-004;3.150713862851262E-003;
2.407166666666667E+009;1.965183615684509E-001;3.792268037796021E-002;-5.502983112819493E-004;3.182362066581845E-003;
2.407333333333334E+009;1.963855773210526E-001;3.805905207991600E-002;-3.287494764663279E-004;3.187416587024927E-003;
2.407500000000000E+009;1.963772624731064E-001;3.833291679620743E-002;-3.646386612672359E-004;3.140931017696858E-003;
2.407666666666667E+009;1.964786797761917E-001;3.805528953671455E-002;-1.360024616587907E-004;3.184743225574493E-003;
2.407833333333334E+009;1.959655731916428E-001;3.809234872460365E-002;7.687590550631285E-005;3.214606782421470E-003;
2.408000000000000E+009;1.958333104848862E-001;3.801397979259491E-002;1.169100651168264E-004;3.028832608833909E-003;
2.408166666666667E+009;1.953520625829697E-001;3.763744980096817E-002;2.403715479886159E-004;2.818487817421556E-003;
2.408333333333334E+009;1.949619203805924E-001;3.720209375023842E-002;3.554095164872706E-004;2.908524125814438E-003;
2.408500000000000E+009;1.943080574274063E-001;3.696980327367783E-002;3.788045723922551E-004;2.804545219987631E-003;
2.408666666666667E+009;1.936444789171219E-001;3.633475303649902E-002;4.894517478533089E-004;2.774890745058656E-003;
2.408833333333334E+009;1.929032802581787E-001;3.560690954327583E-002;6.476105772890151E-004;2.718534087762237E-003;
2.409000000000000E+009;1.920136809349060E-001;3.466220200061798E-002;5.885374848730862E-004;2.711898181587458E-003;
2.409166666666667E+009;1.910908222198486E-001;3.371581435203552E-002;6.538641173392534E-004;2.538893371820450E-003;
2.409333333333334E+009;1.901734620332718E-001;3.277552127838135E-002;7.283170125447214E-004;2.512370003387332E-003;
2.409500000000000E+009;1.889623850584030E-001;3.146507963538170E-002;8.018846856430173E-004;2.271190518513322E-003;
2.409666666666667E+009;1.880426406860352E-001;2.989845722913742E-002;6.772833294235170E-004;2.274853875860572E-003;
2.409833333333334E+009;1.869129240512848E-001;2.843409404158592E-002;8.088615722954273E-004;2.318123355507851E-003;
2.410000000000000E+009;1.859007179737091E-001;2.686209604144096E-002;9.856765391305089E-004;2.206298988312483E-003;
2.410166666666667E+009;1.850006580352783E-001;2.495961636304855E-002;9.600562043488026E-004;2.198372269049287E-003;
2.410333333333334E+009;1.841002255678177E-001;2.313469350337982E-002;9.116751025430858E-004;2.225333359092474E-003;
2.410500000000000E+009;1.829828619956970E-001;2.115745283663273E-002;1.074455678462982E-003;2.026188187301159E-003;
2.410666666666667E+009;1.820583045482636E-001;1.888643018901348E-002;1.127251773141325E-003;2.006189199164510E-003;
2.410833333333334E+009;1.814223229885101E-001;1.667664758861065E-002;1.011025742627680E-003;2.082252176478505E-003;
2.411000000000000E+009;1.806315928697586E-001;1.431127917021513E-002;1.042371150106192E-003;1.937981927767396E-003;
2.411166666666667E+009;1.798801869153976E-001;1.232986617833376E-002;1.379488734528422E-003;1.762371626682580E-003;
2.411333333333334E+009;1.796008795499802E-001;9.883299469947815E-003;1.414058846421540E-003;1.853928668424487E-003;
2.411500000000000E+009;1.790283620357513E-001;7.492321077734232E-003;1.194789540022612E-003;1.609890605323017E-003;
2.411666666666667E+009;1.789717525243759E-001;4.906657617539167E-003;1.327830948866904E-003;1.431139186024666E-003;
2.411833333333334E+009;1.786580234766007E-001;2.576326485723257E-003;1.178917242214084E-003;1.290289685130119E-003;
2.412000000000000E+009;1.786837875843048E-001;1.276596435673127E-006;1.293623237870634E-003;1.288814935833216E-003;
2.412166666666667E+009;1.788832545280457E-001;-2.206240314990282E-003;1.293398789130151E-003;1.252854708582163E-003;
2.412333333333334E+009;1.789911091327667E-001;-4.855948500335217E-003;1.257764524780214E-003;1.071740058250725E-003;
2.412500000000000E+009;1.795861572027206E-001;-7.246968336403370E-003;1.223245169967413E-003;1.020680996589363E-003;
2.412666666666667E+009;1.799242496490479E-001;-1.001548301428556E-002;1.024700701236725E-003;8.081850246526301E-004;
2.412833333333334E+009;1.808325946331024E-001;-1.223261002451181E-002;9.556214208714664E-004;7.671837229281664E-004;
2.413000000000000E+009;1.814482361078262E-001;-1.479792874306440E-002;8.961913990788162E-004;8.005310082808137E-004;
2.413166666666667E+009;1.822632104158402E-001;-1.694841869175434E-002;8.133117808029056E-004;6.569803226739168E-004;
2.413333333333334E+009;1.832913905382156E-001;-1.939463801681995E-002;5.603719619102776E-004;6.773544591851533E-004;
2.413500000000000E+009;1.841546744108200E-001;-2.173323929309845E-002;6.141913472674787E-004;7.638603565283120E-004;
2.413666666666667E+009;1.854564696550369E-001;-2.375204861164093E-002;6.435703253373504E-004;7.457042229361832E-004;
2.413833333333334E+009;1.864552795886993E-001;-2.592245116829872E-002;5.108387558721006E-004;9.482340537942946E-004;
2.414000000000000E+009;1.876730322837830E-001;-2.791036665439606E-002;6.286695133894682E-004;8.660368039272726E-004;
2.414166666666667E+009;1.888968199491501E-001;-2.983962371945381E-002;5.699706380255520E-004;1.080016954801977E-003;
2.414333333333334E+009;1.899159848690033E-001;-3.178162127733231E-002;5.774511955678463E-004;8.859657682478428E-004;
2.414500000000000E+009;1.913248896598816E-001;-3.328954055905342E-002;5.996504332870245E-004;1.028496655635536E-003;
2.414666666666667E+009;1.923015564680100E-001;-3.480109572410584E-002;7.424365030601621E-004;9.561110055074096E-004;
2.414833333333334E+009;1.934265196323395E-001;-3.625856712460518E-002;6.111001130193472E-004;1.019272138364613E-003;
2.415000000000000E+009;1.945700347423554E-001;-3.750528767704964E-002;8.334451122209430E-004;9.641257929615676E-004;
2.415166666666667E+009;1.958189904689789E-001;-3.867629170417786E-002;7.702540606260300E-004;9.244642569683492E-004;
2.415333333333334E+009;1.969701498746872E-001;-3.958509117364883E-002;9.007414919324219E-004;8.776258327998221E-004;
2.415500000000000E+009;1.979857385158539E-001;-4.035713151097298E-002;9.137926390394568E-004;8.871090249158442E-004;
2.415666666666667E+009;1.991437375545502E-001;-4.120048135519028E-002;7.901418139226735E-004;8.482832345180214E-004;
2.415833333333334E+009;1.998135447502136E-001;-4.181612655520439E-002;7.878941250964999E-004;9.047366329468787E-004;
2.416000000000000E+009;2.006999254226685E-001;-4.230332747101784E-002;7.232097559608519E-004;8.448222652077675E-004;
2.416166666666667E+009;2.012332081794739E-001;-4.294864088296890E-002;7.666176534257829E-004;7.799160666763783E-004;
2.416333333333334E+009;2.019449919462204E-001;-4.323508590459824E-002;7.061207434162498E-004;8.283134084194899E-004;
2.416500000000000E+009;2.023741006851196E-001;-4.344383627176285E-002;6.575459265150130E-004;7.694953819736838E-004;
2.416666666666667E+009;2.026433497667313E-001;-4.370897635817528E-002;8.605584735050798E-004;8.299971232190728E-004;
2.416833333333334E+009;2.026549428701401E-001;-4.371933266520500E-002;6.664698012173176E-004;7.613571360707283E-004;
2.417000000000000E+009;2.029691785573959E-001;-4.386402666568756E-002;6.669583963230252E-004;8.947119931690395E-004;
2.417166666666667E+009;2.025503814220429E-001;-4.374366998672485E-002;7.744500762782991E-004;8.172772359102964E-004;
2.417333333333334E+009;2.022732049226761E-001;-4.346845671534538E-002;7.104339310899377E-004;8.243517368100584E-004;
2.417500000000000E+009;2.021365463733673E-001;-4.354838654398918E-002;8.177214767783880E-004;8.743554353713989E-004;
2.417666666666667E+009;2.015620917081833E-001;-4.332873597741127E-002;8.335941820405424E-004;9.753414778970182E-004;
2.417833333333334E+009;2.010724246501923E-001;-4.307813942432404E-002;8.330661803483963E-004;9.747369913384318E-004;
2.418000000000000E+009;2.003426551818848E-001;-4.271882772445679E-002;9.156896849162877E-004;1.002715551294386E-003;
2.418166666666667E+009;1.996343433856964E-001;-4.279713332653046E-002;9.043298196047545E-004;1.012441120110452E-003;
2.418333333333334E+009;1.986642181873322E-001;-4.249823465943337E-002;1.048691337928176E-003;9.369099279865623E-004;
2.418500000000000E+009;1.976279467344284E-001;-4.250717163085938E-002;1.071937265805900E-003;9.674559696577489E-004;
2.418666666666667E+009;1.966093182563782E-001;-4.245569556951523E-002;1.008636783808470E-003;1.052541658282280E-003;
2.418833333333334E+009;1.952872723340988E-001;-4.264354333281517E-002;1.303688623011112E-003;1.152415643446147E-003;
2.419000000000000E+009;1.940254569053650E-001;-4.283997043967247E-002;1.345778582617641E-003;7.991256425157189E-004;
2.419166666666667E+009;1.926290243864059E-001;-4.295905306935310E-002;1.315752044320107E-003;8.631660602986813E-004;
2.419333333333334E+009;1.912715733051300E-001;-4.354786127805710E-002;1.359656103886664E-003;8.283136412501335E-004;
2.419500000000000E+009;1.896938532590866E-001;-4.388619586825371E-002;1.326404511928558E-003;7.241096463985741E-004;
2.419666666666667E+009;1.881282478570938E-001;-4.472510516643524E-002;1.564209582284093E-003;4.851088160648942E-004;
2.419833333333334E+009;1.865851283073425E-001;-4.527062177658081E-002;1.536733936518431E-003;6.722372490912676E-004;
2.420000000000000E+009;1.848465800285339E-001;-4.621592536568642E-002;1.379508757963777E-003;5.272575072012842E-004;
2.420166666666667E+009;1.831731200218201E-001;-4.710143804550171E-002;1.420206739567220E-003;4.546174895949662E-004;
2.420333333333334E+009;1.814452707767487E-001;-4.828627407550812E-002;1.580580603331327E-003;5.265310173854232E-004;
2.420500000000000E+009;1.798268854618073E-001;-4.961512610316277E-002;1.519843935966492E-003;5.306873354129493E-004;
2.420666666666667E+009;1.782290041446686E-001;-5.075510591268539E-002;1.521452562883496E-003;3.591596323531121E-004;
2.420833333333334E+009;1.765461713075638E-001;-5.221800878643990E-002;1.460872124880552E-003;2.469644532538950E-004;
2.421000000000000E+009;1.752603203058243E-001;-5.373428389430046E-002;1.469712238758802E-003;3.026854246854782E-004;
2.421166666666667E+009;1.736033558845520E-001;-5.535828322172165E-002;1.625856035389006E-003;2.663180930539966E-004;
2.421333333333334E+009;1.719341725111008E-001;-5.691525712609291E-002;1.598037430085242E-003;3.123016795143485E-004;
2.421500000000000E+009;1.706892400979996E-001;-5.887331813573837E-002;1.606669742614031E-003;5.344849341781810E-005;
2.421666666666667E+009;1.694684475660324E-001;-6.058067828416824E-002;1.363178715109825E-003;1.017348622553982E-004;
2.421833333333334E+009;1.683488637208939E-001;-6.249288097023964E-002;1.560554141178727E-003;-4.053312295582146E-005;
2.422000000000000E+009;1.671235263347626E-001;-6.440895795822144E-002;1.481498242355883E-003;-2.905152177845594E-005;
2.422166666666667E+009;1.664405018091202E-001;-6.636425852775574E-002;1.350962207652628E-003;-9.407541074324399E-005;
2.422333333333334E+009;1.654459238052368E-001;-6.840027123689652E-002;1.446592505089939E-003;-2.819674264173955E-004;
2.422500000000000E+009;1.646473556756973E-001;-7.039517164230347E-002;1.245423569343984E-003;-4.206292214803398E-004;
2.422666666666667E+009;1.638267338275909E-001;-7.247208803892136E-002;1.240174286067486E-003;-2.849726588465273E-004;
2.422833333333334E+009;1.636376976966858E-001;-7.455128431320190E-002;1.224133069626987E-003;-4.165089048910886E-004;
2.423000000000000E+009;1.629632711410523E-001;-7.673294842243195E-002;1.073005027137697E-003;-3.997114254161716E-004;
2.423166666666667E+009;1.627514660358429E-001;-7.850292325019836E-002;1.030733343213797E-003;-5.690050311386585E-004;
2.423333333333334E+009;1.626352071762085E-001;-8.056964725255966E-002;8.403428946621716E-004;-5.022453842684627E-004;
2.423500000000000E+009;1.624373644590378E-001;-8.244133740663528E-002;9.931167587637901E-004;-4.287949122954160E-004;
2.423666666666667E+009;1.626101434230804E-001;-8.437889069318771E-002;6.929039955139160E-004;-4.385309002827853E-004;
2.423833333333334E+009;1.626162827014923E-001;-8.614841103553772E-002;6.655803299508989E-004;-3.007783670909703E-004;
2.424000000000000E+009;1.626305431127548E-001;-8.797675371170044E-002;5.880690878257155E-004;-2.499805705156177E-004;
2.424166666666667E+009;1.625983268022537E-001;-8.943443745374680E-002;5.245228530839086E-004;-3.120048204436898E-004;
2.424333333333334E+009;1.629831641912460E-001;-9.119936078786850E-002;5.749436677433550E-004;-2.963411970995367E-004;
2.424500000000000E+009;1.633129268884659E-001;-9.291561692953110E-002;5.663078045472503E-004;-1.864662772277370E-004;
2.424666666666667E+009;1.636720150709152E-001;-9.415714442729950E-002;5.535591044463217E-004;-8.315316335938405E-006;
2.424833333333334E+009;1.642730683088303E-001;-9.558178484439850E-002;5.181090673431754E-004;-1.904696205201617E-006;
2.425000000000000E+009;1.646144837141037E-001;-9.674686193466187E-002;5.253803683444858E-004;-4.196463123662397E-005;
2.425166666666667E+009;1.649220138788223E-001;-9.781222790479660E-002;6.749581662006676E-004;1.879841420304729E-006;
2.425333333333334E+009;1.652849465608597E-001;-9.879927337169647E-002;7.303101010620594E-004;1.968520700756926E-005;
2.425500000000000E+009;1.657527089118958E-001;-9.977927058935165E-002;5.086486344225705E-004;1.666471362113953E-004;
2.425666666666667E+009;1.662422120571137E-001;-1.005203723907471E-001;6.981245824135840E-004;3.224898364351247E-006;
2.425833333333334E+009;1.665193587541580E-001;-1.013108864426613E-001;7.290860521607101E-004;1.225602463819087E-004;
2.426000000000000E+009;1.669395416975021E-001;-1.017904654145241E-001;7.747600320726633E-004;2.050836774287745E-004;
2.426166666666667E+009;1.672609001398087E-001;-1.022114753723145E-001;6.731905741617084E-004;9.031987428897992E-005;
2.426333333333334E+009;1.674478948116303E-001;-1.028430834412575E-001;8.122874423861504E-004;4.161140168434940E-005;
2.426500000000000E+009;1.677696108818054E-001;-1.030822470784187E-001;8.062519482336938E-004;8.007513679331169E-005;
2.426666666666667E+009;1.679486632347107E-001;-1.032824516296387E-001;7.054645684547722E-004;1.015518573694862E-004;
2.426833333333334E+009;1.681675761938095E-001;-1.036356315016747E-001;8.212747052311897E-004;2.721739001572132E-004;
2.427000000000000E+009;1.681727468967438E-001;-1.037465706467629E-001;6.507567595690489E-004;2.557886182330549E-004;
2.427166666666667E+009;1.682394295930862E-001;-1.038125902414322E-001;7.826116052456200E-004;1.721570151858032E-004;
2.427333333333334E+009;1.682446300983429E-001;-1.041052639484406E-001;9.136620792560279E-004;2.212308609159663E-004;
2.427500000000000E+009;1.678799688816071E-001;-1.042188405990601E-001;9.893920505419374E-004;-2.586446134955622E-005;
2.427666666666667E+009;1.674430817365646E-001;-1.042179986834526E-001;8.937019738368690E-004;1.875982561614364E-004;
2.427833333333334E+009;1.671459227800369E-001;-1.042510196566582E-001;1.007794053293765E-003;1.981110108317807E-004;
