# Version 1.00
#
freq[Hz];re:Trc1_S11;im:Trc1_S11;re:Trc2_S21;im:Trc2_S21;
2.400000000000000E+009;1.551985889673233E-001;1.072178855538368E-001;-3.001974197104573E-003;-8.210482192225754E-004;
2.400166666666667E+009;1.548760831356049E-001;1.048139333724976E-001;-2.999741584062576E-003;-6.767890881747007E-004;
2.400333333333334E+009;1.550207436084747E-001;1.024567261338234E-001;-2.984367543831468E-003;-6.323420093394816E-004;
2.400500000000000E+009;1.548441797494888E-001;9.980270266532898E-002;-3.171858144924045E-003;-6.715916679240763E-004;
2.400666666666667E+009;1.550081223249435E-001;9.727674722671509E-002;-3.223397769033909E-003;-6.229108548723161E-004;
2.400833333333334E+009;1.549197435379028E-001;9.444621950387955E-002;-3.149276599287987E-003;-3.939130110666156E-004;
2.401000000000000E+009;1.551870256662369E-001;9.130623936653137E-002;-3.092692233622074E-003;-3.107248630840331E-004;
2.401166666666667E+009;1.553044468164444E-001;8.854997158050537E-002;-3.172005992382765E-003;-1.585502905072644E-004;
2.401333333333334E+009;1.556434780359268E-001;8.591444790363312E-002;-3.333231201395392E-003;-5.636012792820111E-005;
2.401500000000000E+009;1.559930145740509E-001;8.294677734375000E-002;-3.273040754720569E-003;1.038315385812894E-004;
2.401666666666667E+009;1.562354117631912E-001;8.002739399671555E-002;-3.255818039178848E-003;-2.186134224757552E-005;
2.401833333333334E+009;1.566654592752457E-001;7.726436853408814E-002;-3.217243123799563E-003;4.535559855867177E-005;
2.402000000000000E+009;1.576936542987824E-001;7.443038374185562E-002;-3.183688735589385E-003;3.533051130943932E-005;
2.402166666666667E+009;1.586772352457047E-001;7.206156104803085E-002;-3.308846615254879E-003;1.030683561111800E-004;
2.402333333333334E+009;1.594493538141251E-001;6.922236829996109E-002;-3.543446771800518E-003;1.935931941261515E-004;
2.402500000000000E+009;1.606137752532959E-001;6.674604117870331E-002;-3.487130161374807E-003;4.554819606710225E-004;
2.402666666666667E+009;1.618062704801559E-001;6.423614919185638E-002;-3.581074997782707E-003;5.423864931799471E-004;
2.402833333333334E+009;1.629740148782730E-001;6.193079426884651E-002;-3.612947650253773E-003;5.017549847252667E-004;
2.403000000000000E+009;1.645154505968094E-001;5.938476696610451E-002;-3.741616616025567E-003;8.274375577457249E-004;
2.403166666666667E+009;1.662929058074951E-001;5.730770900845528E-002;-3.633832558989525E-003;8.780300267972052E-004;
2.403333333333334E+009;1.676636934280396E-001;5.508301779627800E-002;-3.754883306100965E-003;9.935890557244420E-004;
2.403500000000000E+009;1.692453026771545E-001;5.305809155106545E-002;-3.723783651366830E-003;1.299998257309198E-003;
2.403666666666667E+009;1.712086647748947E-001;5.108510702848434E-002;-3.599813906475902E-003;1.546287792734802E-003;
2.403833333333334E+009;1.728410422801971E-001;4.909516498446465E-002;-3.619505790993571E-003;1.768961315974593E-003;
2.404000000000000E+009;1.744144558906555E-001;4.734608903527260E-002;-3.484565299004316E-003;1.947664073668420E-003;
2.404166666666667E+009;1.760937124490738E-001;4.600813984870911E-002;-3.382591996341944E-003;2.065428066998720E-003;
2.404333333333334E+009;1.777482926845551E-001;4.443006217479706E-002;-3.342668060213327E-003;2.372361486777663E-003;
2.404500000000000E+009;1.794031411409378E-001;4.303802177309990E-002;-2.979613840579987E-003;2.531558740884066E-003;
2.404666666666667E+009;1.811454445123673E-001;4.177735373377800E-002;-3.016645321622491E-003;2.436466980725527E-003;
2.404833333333334E+009;1.827309727668762E-001;4.069494083523750E-002;-2.688936190679669E-003;2.616467187181115E-003;
2.405000000000000E+009;1.840691417455673E-001;3.999068588018417E-002;-2.573654288426042E-003;2.671994036063552E-003;
2.405166666666667E+009;1.856200844049454E-001;3.931812196969986E-002;-2.344312379136682E-003;2.771259518340230E-003;
2.405333333333334E+009;1.869032979011536E-001;3.883126005530357E-002;-2.414725255221129E-003;2.927366411313415E-003;
2.405500000000000E+009;1.883177757263184E-001;3.837425261735916E-002;-2.136973896995187E-003;2.895833924412727E-003;
2.405666666666667E+009;1.895304769277573E-001;3.794862329959869E-002;-2.048332709819078E-003;2.969385357573628E-003;
2.405833333333334E+009;1.909362822771072E-001;3.766627237200737E-002;-1.896251691505313E-003;3.123989095911384E-003;
2.406000000000000E+009;1.918787360191345E-001;3.766824677586556E-002;-1.769049209542573E-003;2.890092320740223E-003;
2.406166666666667E+009;1.929900646209717E-001;3.750940784811974E-002;-1.693301368504763E-003;3.044138895347714E-003;
2.406333333333334E+009;1.938108056783676E-001;3.758214414119721E-002;-1.600867719389498E-003;2.931897528469563E-003;
2.406500000000000E+009;1.946426630020142E-001;3.749651089310646E-002;-1.332819578237832E-003;3.108421573415399E-003;
2.406666666666667E+009;1.952222287654877E-001;3.762358427047730E-002;-1.227741246111691E-003;3.035737434402108E-003;
2.406833333333334E+009;1.956791728734970E-001;3.773050010204315E-002;-1.143535017035902E-003;3.105667652562261E-003;
2.407000000000000E+009;1.960297673940659E-001;3.795651346445084E-002;-9.908700594678521E-004;2.999746007844806E-003;
2.407166666666667E+009;1.963692158460617E-001;3.777629882097244E-002;-8.161016157828271E-004;3.314028726890683E-003;
2.407333333333334E+009;1.964448094367981E-001;3.810497745871544E-002;-7.012342102825642E-004;3.176104975864291E-003;
2.407500000000000E+009;1.963230371475220E-001;3.802358731627464E-002;-4.162980476394296E-004;3.134018508717418E-003;
2.407666666666667E+009;1.964268088340759E-001;3.801204264163971E-002;-3.174179000779986E-004;3.125881543383002E-003;
2.407833333333334E+009;1.959436088800430E-001;3.801828250288963E-002;-3.167819522786886E-004;2.989856526255608E-003;
2.408000000000000E+009;1.959377080202103E-001;3.797293454408646E-002;-2.319321502000094E-004;3.116332227364183E-003;
2.408166666666667E+009;1.952604353427887E-001;3.761136159300804E-002;4.501217699726112E-005;3.023508936166763E-003;
2.408333333333334E+009;1.949750781059265E-001;3.711376711726189E-002;5.719063847209327E-005;2.877167658880353E-003;
2.408500000000000E+009;1.942517459392548E-001;3.685870394110680E-002;2.991336805280298E-004;2.814163919538260E-003;
2.408666666666667E+009;1.934952884912491E-001;3.636543825268745E-002;2.462589472997934E-004;2.665323670953512E-003;
2.408833333333334E+009;1.929164379835129E-001;3.560851514339447E-002;4.842791822738946E-004;2.650217618793249E-003;
2.409000000000000E+009;1.921215653419495E-001;3.460711985826492E-002;3.934200212825090E-004;2.578902989625931E-003;
2.409166666666667E+009;1.910136342048645E-001;3.375058993697166E-002;6.214191671460867E-004;2.450394444167614E-003;
2.409333333333334E+009;1.901632994413376E-001;3.264520689845085E-002;5.321481730788946E-004;2.223697258159518E-003;
2.409500000000000E+009;1.890201866626740E-001;3.140108659863472E-002;5.667760851792991E-004;2.309097908437252E-003;
2.409666666666667E+009;1.881095170974731E-001;3.013315983116627E-002;6.755400099791586E-004;2.403782214969397E-003;
2.409833333333334E+009;1.870529949665070E-001;2.840356156229973E-002;5.122284637764096E-004;2.180532552301884E-003;
2.410000000000000E+009;1.861143559217453E-001;2.686291933059692E-002;6.738376105204225E-004;2.141937846317887E-003;
2.410166666666667E+009;1.851007789373398E-001;2.502978779375553E-002;7.601874531246722E-004;2.092281589284539E-003;
2.410333333333334E+009;1.840962916612625E-001;2.330064959824085E-002;6.964018684811890E-004;2.109754132106900E-003;
2.410500000000000E+009;1.830007880926132E-001;2.134410664439201E-002;8.420420926995575E-004;2.032146323472261E-003;
2.410666666666667E+009;1.820918172597885E-001;1.900831982493401E-002;8.118614787235856E-004;2.029911382123828E-003;
2.410833333333334E+009;1.816745996475220E-001;1.690310426056385E-002;7.675780216231942E-004;1.823171623982489E-003;
2.411000000000000E+009;1.808535009622574E-001;1.468264963477850E-002;9.986489312723279E-004;1.836449489928782E-003;
2.411166666666667E+009;1.801072061061859E-001;1.238238066434860E-002;9.901825105771422E-004;1.766277709975839E-003;
2.411333333333334E+009;1.796599477529526E-001;9.700110182166100E-003;9.198727784678340E-004;1.694215810857713E-003;
2.411500000000000E+009;1.792569905519486E-001;7.283099461346865E-003;1.179099665023387E-003;1.635303255170584E-003;
2.411666666666667E+009;1.789697110652924E-001;5.024602171033621E-003;1.098512904718518E-003;1.506276545114815E-003;
2.411833333333334E+009;1.787776052951813E-001;2.603065222501755E-003;1.233990769833326E-003;1.466260291635990E-003;
2.412000000000000E+009;1.790706217288971E-001;-1.754305558279157E-004;1.042073126882315E-003;1.300877425819635E-003;
2.412166666666667E+009;1.789084076881409E-001;-2.342431806027889E-003;1.031464315019548E-003;1.129750744439662E-003;
2.412333333333334E+009;1.792135089635849E-001;-5.055464338511229E-003;9.792341152206063E-004;1.077405293472111E-003;
2.412500000000000E+009;1.797556728124619E-001;-7.428694982081652E-003;7.858838071115315E-004;9.367048041895032E-004;
2.412666666666667E+009;1.801760643720627E-001;-1.011183205991983E-002;8.528369362466037E-004;1.033266657032073E-003;
2.412833333333334E+009;1.807673573493958E-001;-1.235122233629227E-002;7.895914604887366E-004;7.358689326792955E-004;
2.413000000000000E+009;1.815970689058304E-001;-1.489914767444134E-002;6.192568107508123E-004;8.176207775250077E-004;
2.413166666666667E+009;1.823065280914307E-001;-1.711507700383663E-002;5.628882790915668E-004;8.619038271717727E-004;
2.413333333333334E+009;1.834164112806320E-001;-1.953066699206829E-002;5.805680411867797E-004;9.845979511737824E-004;
2.413500000000000E+009;1.841157078742981E-001;-2.199183404445648E-002;5.059031536802650E-004;1.076435088180006E-003;
2.413666666666667E+009;1.853440552949905E-001;-2.401762269437313E-002;4.891499993391335E-004;1.083090086467564E-003;
2.413833333333334E+009;1.864603310823441E-001;-2.609091065824032E-002;4.515830078162253E-004;9.623590740375221E-004;
2.414000000000000E+009;1.874782443046570E-001;-2.832099981606007E-002;2.352882147533819E-004;1.113825477659702E-003;
2.414166666666667E+009;1.887160390615463E-001;-2.998884208500385E-002;4.514885658863932E-004;1.107587246224284E-003;
2.414333333333334E+009;1.898518502712250E-001;-3.201382234692574E-002;4.992255708202720E-004;1.250918139703572E-003;
2.414500000000000E+009;1.910058706998825E-001;-3.351240232586861E-002;6.345334695652127E-004;1.256976858712733E-003;
2.414666666666667E+009;1.923644095659256E-001;-3.508341312408447E-002;6.022829329594970E-004;1.322228228673339E-003;
2.414833333333334E+009;1.933869570493698E-001;-3.647409752011299E-002;3.848571504931897E-004;1.156661659479141E-003;
2.415000000000000E+009;1.943586170673370E-001;-3.772502765059471E-002;5.473336786963046E-004;1.103500137105584E-003;
2.415166666666667E+009;1.956932842731476E-001;-3.879886120557785E-002;6.816426757723093E-004;1.068012556061149E-003;
2.415333333333334E+009;1.968606263399124E-001;-3.987825661897659E-002;8.293598657473922E-004;1.154656521975994E-003;
2.415500000000000E+009;1.977934539318085E-001;-4.055167734622955E-002;8.016815991140902E-004;1.105341711081564E-003;
2.415666666666667E+009;1.989293992519379E-001;-4.132337495684624E-002;6.274338811635971E-004;1.127090537920594E-003;
2.415833333333334E+009;1.996757239103317E-001;-4.193402081727982E-002;6.536124856211245E-004;1.051270286552608E-003;
2.416000000000000E+009;2.004854679107666E-001;-4.249314963817596E-002;7.916598115116358E-004;9.595248848199844E-004;
2.416166666666667E+009;2.010617852210999E-001;-4.300282895565033E-002;7.941490621306002E-004;8.780045318417251E-004;
2.416333333333334E+009;2.016476839780808E-001;-4.326362162828445E-002;7.300128345377743E-004;1.021200791001320E-003;
2.416500000000000E+009;2.020885795354843E-001;-4.360609874129295E-002;6.669824360869825E-004;8.551379432901740E-004;
2.416666666666667E+009;2.024997621774674E-001;-4.371776804327965E-002;7.344686309807003E-004;1.010669278912246E-003;
2.416833333333334E+009;2.025787383317947E-001;-4.371387138962746E-002;7.399254245683551E-004;1.028044731356204E-003;
2.417000000000000E+009;2.026738524436951E-001;-4.380214214324951E-002;7.074843160808086E-004;9.909515501931310E-004;
2.417166666666667E+009;2.024096101522446E-001;-4.363030940294266E-002;6.870201323181391E-004;1.041545066982508E-003;
2.417333333333334E+009;2.021477371454239E-001;-4.334843903779984E-002;6.557112792506814E-004;1.177752856165171E-003;
2.417500000000000E+009;2.019063830375671E-001;-4.350685328245163E-002;7.104896358214319E-004;1.194442622363567E-003;
2.417666666666667E+009;2.013725340366364E-001;-4.330172762274742E-002;7.696599350310862E-004;1.192264375276864E-003;
2.417833333333334E+009;2.009302079677582E-001;-4.300784692168236E-002;7.416473818011582E-004;1.146791968494654E-003;
2.418000000000000E+009;2.001780569553375E-001;-4.264473170042038E-002;8.178134448826313E-004;1.143524306826294E-003;
2.418166666666667E+009;1.994141042232513E-001;-4.266402125358582E-002;9.498149738647044E-004;1.165166497230530E-003;
2.418333333333334E+009;1.985950320959091E-001;-4.240824282169342E-002;1.008516759611666E-003;1.286007231101394E-003;
2.418500000000000E+009;1.974330246448517E-001;-4.244316369295120E-002;1.077416236512363E-003;1.173168886452913E-003;
2.418666666666667E+009;1.965745389461517E-001;-4.234999418258667E-002;1.069894176907837E-003;1.119569642469287E-003;
2.418833333333334E+009;1.952594071626663E-001;-4.259308800101280E-002;1.293458393774927E-003;1.152045908384025E-003;
2.419000000000000E+009;1.939930021762848E-001;-4.264936223626137E-002;1.228542183525860E-003;9.787557646632195E-004;
2.419166666666667E+009;1.925496906042099E-001;-4.283469542860985E-002;1.380090485326946E-003;1.057181856594980E-003;
2.419333333333334E+009;1.912093162536621E-001;-4.337494447827339E-002;1.537495525553823E-003;9.123498457483947E-004;
2.419500000000000E+009;1.896924823522568E-001;-4.382076486945152E-002;1.511962036602199E-003;9.907493367791176E-004;
2.419666666666667E+009;1.880488097667694E-001;-4.471177235245705E-002;1.304498058743775E-003;7.622103439643979E-004;
2.419833333333334E+009;1.864109635353088E-001;-4.525907710194588E-002;1.498914905823767E-003;8.750731358304620E-004;
2.420000000000000E+009;1.848121583461762E-001;-4.604725167155266E-002;1.475017983466387E-003;6.795343942940235E-004;
2.420166666666667E+009;1.832508295774460E-001;-4.704616963863373E-002;1.585579244419932E-003;5.929424078203738E-004;
2.420333333333334E+009;1.815697848796845E-001;-4.822110757231712E-002;1.545581850223243E-003;6.984724313952029E-004;
2.420500000000000E+009;1.799028515815735E-001;-4.967891052365303E-002;1.651469268836081E-003;6.314994534477592E-004;
2.420666666666667E+009;1.782395839691162E-001;-5.054112896323204E-002;1.784254796802998E-003;5.428116419352591E-004;
2.420833333333334E+009;1.766287237405777E-001;-5.219830572605133E-002;1.659884001128376E-003;4.927877453155816E-004;
2.421000000000000E+009;1.751499772071838E-001;-5.371611565351486E-002;1.680272049270570E-003;5.092179635539651E-004;
2.421166666666667E+009;1.735429167747498E-001;-5.527160316705704E-002;1.811408321373165E-003;3.080334572587162E-004;
2.421333333333334E+009;1.720525473356247E-001;-5.696846172213554E-002;1.657696906477213E-003;2.967380860354751E-004;
2.421500000000000E+009;1.706553399562836E-001;-5.879928544163704E-002;1.729013514705002E-003;2.589193754829466E-004;
2.421666666666667E+009;1.695072203874588E-001;-6.060358881950378E-002;1.593130175024271E-003;2.472703054081649E-004;
2.421833333333334E+009;1.684619784355164E-001;-6.260116398334503E-002;1.747898757457733E-003;3.153096986352466E-005;
2.422000000000000E+009;1.672606617212296E-001;-6.431340426206589E-002;1.703669317066670E-003;-3.225357431801967E-005;
2.422166666666667E+009;1.663635373115540E-001;-6.646662950515747E-002;1.683775917626917E-003;1.289437477680622E-005;
2.422333333333334E+009;1.653162091970444E-001;-6.858161091804504E-002;1.595587935298681E-003;-9.145576768787578E-005;
2.422500000000000E+009;1.646876037120819E-001;-7.045924663543701E-002;1.503687351942062E-003;-1.395399012835696E-004;
2.422666666666667E+009;1.640080958604813E-001;-7.239583134651184E-002;1.434945850633085E-003;-1.756396668497473E-004;
2.422833333333334E+009;1.635782867670059E-001;-7.471696287393570E-002;1.510517206043005E-003;-2.002392575377598E-004;
2.423000000000000E+009;1.630305647850037E-001;-7.676831632852554E-002;1.374738756567240E-003;-3.592454304452986E-004;
2.423166666666667E+009;1.626586914062500E-001;-7.867141067981720E-002;1.219271332956851E-003;-3.007870982401073E-004;
2.423333333333334E+009;1.624200344085693E-001;-8.064046502113342E-002;9.408011101186276E-004;-2.947943867184222E-004;
2.423500000000000E+009;1.624298840761185E-001;-8.241672813892365E-002;1.027110614813864E-003;-3.664187970571220E-004;
2.423666666666667E+009;1.623849868774414E-001;-8.423727750778198E-002;8.641750901006162E-004;-4.054385353811085E-004;
2.423833333333334E+009;1.624448895454407E-001;-8.605061471462250E-002;8.938322425819933E-004;-3.617633483372629E-004;
2.424000000000000E+009;1.625862866640091E-001;-8.806136995553970E-002;7.903049117885530E-004;-3.468295617494732E-004;
2.424166666666667E+009;1.626031547784805E-001;-8.972008526325226E-002;6.727064610458911E-004;-2.769644197542220E-004;
2.424333333333334E+009;1.628738790750504E-001;-9.110422432422638E-002;8.279202738776803E-004;-2.485705481376499E-004;
2.424500000000000E+009;1.632294356822968E-001;-9.285489469766617E-002;6.471360102295876E-004;-1.617261004867032E-004;
2.424666666666667E+009;1.633616685867310E-001;-9.419840574264526E-002;7.957356283441186E-004;-5.009136202716036E-006;
2.424833333333334E+009;1.640943288803101E-001;-9.542413055896759E-002;8.225875790230930E-004;9.058212890522555E-005;
2.425000000000000E+009;1.644008010625839E-001;-9.675259888172150E-002;7.628310122527182E-004;-5.850108573213220E-005;
2.425166666666667E+009;1.647757291793823E-001;-9.782285243272781E-002;7.242423598654568E-004;-1.531761226942763E-004;
2.425333333333334E+009;1.651082783937454E-001;-9.886962920427322E-002;7.725945324636996E-004;-1.074679603334516E-004;
2.425500000000000E+009;1.655279397964478E-001;-9.973728656768799E-002;7.907132385298610E-004;4.670785710914061E-005;
2.425666666666667E+009;1.660239696502686E-001;-1.003853455185890E-001;8.363835513591766E-004;-4.786173303727992E-005;
2.425833333333334E+009;1.663296967744827E-001;-1.011587977409363E-001;8.450553286820650E-004;-1.906753459479660E-005;
2.426000000000000E+009;1.666988730430603E-001;-1.015893593430519E-001;8.054035715758801E-004;-5.227465408097487E-006;
2.426166666666667E+009;1.670972406864166E-001;-1.021536737680435E-001;8.860456873662770E-004;3.168376133544371E-005;
2.426333333333334E+009;1.673611402511597E-001;-1.025400385260582E-001;8.710352121852338E-004;5.171825978322886E-005;
2.426500000000000E+009;1.676631867885590E-001;-1.028412356972694E-001;7.989574223756790E-004;1.506853877799586E-004;
2.426666666666667E+009;1.677957475185394E-001;-1.031566709280014E-001;8.669100934639573E-004;2.047943053185009E-005;
2.426833333333334E+009;1.681590080261231E-001;-1.034350544214249E-001;9.047099156305194E-004;1.531740417703986E-004;
2.427000000000000E+009;1.681274324655533E-001;-1.036201417446137E-001;8.893727208487690E-004;-1.329253882431658E-005;
2.427166666666667E+009;1.682039499282837E-001;-1.036916002631187E-001;1.035352353937924E-003;1.034019078360871E-004;
2.427333333333334E+009;1.680829972028732E-001;-1.038123816251755E-001;8.177303243428469E-004;1.509074209025130E-004;
2.427500000000000E+009;1.678275763988495E-001;-1.039754152297974E-001;9.555139113217592E-004;1.889389677671716E-004;
2.427666666666667E+009;1.674647629261017E-001;-1.040397211909294E-001;1.144287642091513E-003;2.813166065607220E-004;
2.427833333333334E+009;1.671700626611710E-001;-1.041134819388390E-001;1.040022703818977E-003;1.899396156659350E-004;
