# Version 1.00
#
freq[Hz];re:Trc1_S11;im:Trc1_S11;re:Trc2_S21;im:Trc2_S21;
2.400000000000000E+009;1.554261147975922E-001;1.068385839462280E-001;-2.922462765127420E-003;-3.209642891306430E-004;
2.400166666666667E+009;1.551333069801331E-001;1.044915989041328E-001;-3.162040142342448E-003;-2.378262579441071E-004;
2.400333333333334E+009;1.549885720014572E-001;1.020729169249535E-001;-3.103621536865830E-003;-3.244779363740236E-004;
2.400500000000000E+009;1.550231426954269E-001;9.945321828126907E-002;-3.024198347702622E-003;-4.079893187736161E-005;
2.400666666666667E+009;1.550633460283279E-001;9.698405116796494E-002;-3.127414733171463E-003;4.299433203414083E-005;
2.400833333333334E+009;1.549850404262543E-001;9.414283931255341E-002;-3.136392217129469E-003;2.181946038035676E-004;
2.401000000000000E+009;1.551433205604553E-001;9.113002568483353E-002;-3.107916098088026E-003;2.308367547811940E-004;
2.401166666666667E+009;1.552669554948807E-001;8.846475183963776E-002;-3.070322331041098E-003;1.459110644645989E-004;
2.401333333333334E+009;1.555080264806747E-001;8.563578128814697E-002;-3.075792221352458E-003;3.604216326493770E-004;
2.401500000000000E+009;1.559022665023804E-001;8.270127326250076E-002;-2.986711449921131E-003;4.132750909775496E-004;
2.401666666666667E+009;1.562170982360840E-001;7.985831797122955E-002;-3.072662744671106E-003;3.763936110772193E-004;
2.401833333333334E+009;1.568896919488907E-001;7.730925083160400E-002;-3.050083294510841E-003;5.653643165715039E-004;
2.402000000000000E+009;1.576560884714127E-001;7.438609004020691E-002;-2.974207978695631E-003;4.759045841637999E-004;
2.402166666666667E+009;1.585608869791031E-001;7.185731828212738E-002;-2.973150694742799E-003;5.970775964669883E-004;
2.402333333333334E+009;1.595095843076706E-001;6.897162646055222E-002;-3.180955071002245E-003;6.347349262796342E-004;
2.402500000000000E+009;1.605460047721863E-001;6.634712219238281E-002;-3.120485926046968E-003;7.185414433479309E-004;
2.402666666666667E+009;1.615062952041626E-001;6.419366598129273E-002;-3.105126786977053E-003;7.581781828776002E-004;
2.402833333333334E+009;1.629484444856644E-001;6.168479099869728E-002;-3.217954421415925E-003;9.986971272155643E-004;
2.403000000000000E+009;1.645473092794418E-001;5.938866734504700E-002;-3.305889433249831E-003;1.063592615537345E-003;
2.403166666666667E+009;1.661949306726456E-001;5.720345303416252E-002;-3.401334630325437E-003;1.261192141100764E-003;
2.403333333333334E+009;1.675527840852737E-001;5.502516403794289E-002;-3.416559193283320E-003;1.255973242223263E-003;
2.403500000000000E+009;1.691133081912994E-001;5.293279141187668E-002;-3.179652849212289E-003;1.538273878395557E-003;
2.403666666666667E+009;1.710270643234253E-001;5.096978321671486E-002;-3.245980711653829E-003;1.819985802285373E-003;
2.403833333333334E+009;1.727925390005112E-001;4.909536242485046E-002;-3.181552281603217E-003;1.923106960020959E-003;
2.404000000000000E+009;1.741740405559540E-001;4.728247225284576E-002;-3.096598898991942E-003;2.190773608162999E-003;
2.404166666666667E+009;1.759227216243744E-001;4.593214392662048E-002;-3.046376397833228E-003;2.435439033433795E-003;
2.404333333333334E+009;1.774293929338455E-001;4.445447400212288E-002;-2.809237223118544E-003;2.560391789302230E-003;
2.404500000000000E+009;1.791502535343170E-001;4.284595325589180E-002;-2.608605893328786E-003;2.655211836099625E-003;
2.404666666666667E+009;1.809171140193939E-001;4.188690707087517E-002;-2.584153786301613E-003;2.779768547043204E-003;
2.404833333333334E+009;1.826046705245972E-001;4.082405939698219E-002;-2.351746195927262E-003;2.875004662200809E-003;
2.405000000000000E+009;1.838683485984802E-001;4.021218046545982E-002;-1.936037326231599E-003;2.879652893170714E-003;
2.405166666666667E+009;1.854299455881119E-001;3.960893303155899E-002;-2.101080026477575E-003;2.947671338915825E-003;
2.405333333333334E+009;1.868759095668793E-001;3.897646814584732E-002;-1.773764728568494E-003;3.075743326917291E-003;
2.405500000000000E+009;1.883294284343720E-001;3.850103542208672E-002;-1.656918204389513E-003;2.957966644316912E-003;
2.405666666666667E+009;1.895015835762024E-001;3.814323246479034E-002;-1.498108496889472E-003;2.951092552393675E-003;
2.405833333333334E+009;1.908403038978577E-001;3.798170387744904E-002;-1.400760491378605E-003;3.103345399722457E-003;
2.406000000000000E+009;1.917827725410461E-001;3.775919228792191E-002;-1.136482344008982E-003;3.123335307464004E-003;
2.406166666666667E+009;1.928231567144394E-001;3.749636933207512E-002;-1.133050420321524E-003;2.854528836905956E-003;
2.406333333333334E+009;1.937155574560165E-001;3.765189647674561E-002;-9.733537444844842E-004;2.935013966634870E-003;
2.406500000000000E+009;1.944434791803360E-001;3.770139068365097E-002;-8.266617078334093E-004;2.970413770526648E-003;
2.406666666666667E+009;1.952158957719803E-001;3.773797303438187E-002;-7.538170320913196E-004;3.007463179528713E-003;
2.406833333333334E+009;1.956573575735092E-001;3.779952973127365E-002;-5.957274697721005E-004;3.152965335175395E-003;
2.407000000000000E+009;1.959711015224457E-001;3.810062631964684E-002;-6.180243217386305E-004;3.037737915292382E-003;
2.407166666666667E+009;1.963342130184174E-001;3.789661079645157E-002;-3.443374589551240E-004;3.159210784360766E-003;
2.407333333333334E+009;1.962139904499054E-001;3.805004060268402E-002;-3.219937498215586E-004;3.002890851348639E-003;
2.407500000000000E+009;1.963523179292679E-001;3.826731070876122E-002;-7.927267870400101E-005;2.976466901600361E-003;
2.407666666666667E+009;1.963421702384949E-001;3.817303106188774E-002;5.448973752208985E-005;2.875035395845771E-003;
2.407833333333334E+009;1.958347707986832E-001;3.808351233601570E-002;1.883044169517234E-004;2.941783284768462E-003;
2.408000000000000E+009;1.957030296325684E-001;3.796045482158661E-002;8.084654109552503E-005;2.914544194936752E-003;
2.408166666666667E+009;1.952442079782486E-001;3.753496706485748E-002;2.939348050858825E-004;2.678577555343509E-003;
2.408333333333334E+009;1.946824640035629E-001;3.718963637948036E-002;4.593128978740424E-004;2.722990000620484E-003;
2.408500000000000E+009;1.941118836402893E-001;3.688878938555718E-002;4.214826039969921E-004;2.562675625085831E-003;
2.408666666666667E+009;1.934581845998764E-001;3.635616600513458E-002;4.415120929479599E-004;2.393310889601708E-003;
2.408833333333334E+009;1.927915215492249E-001;3.563978523015976E-002;7.509415154345334E-004;2.497043460607529E-003;
2.409000000000000E+009;1.919080317020416E-001;3.472559154033661E-002;8.297858294099569E-004;2.407852793112397E-003;
2.409166666666667E+009;1.909435838460922E-001;3.382885828614235E-002;8.011877071112394E-004;2.180920680984855E-003;
2.409333333333334E+009;1.900814175605774E-001;3.285603970289230E-002;7.040396449156106E-004;2.129442756995559E-003;
2.409500000000000E+009;1.889856308698654E-001;3.150657936930656E-002;7.227876340039074E-004;2.066378481686115E-003;
2.409666666666667E+009;1.879976838827133E-001;3.005488775670528E-002;8.455693605355918E-004;2.036178484559059E-003;
2.409833333333334E+009;1.867831647396088E-001;2.863361313939095E-002;8.023210102692246E-004;1.935858861543238E-003;
2.410000000000000E+009;1.860174387693405E-001;2.684308029711247E-002;9.340424439869821E-004;1.909644925035536E-003;
2.410166666666667E+009;1.848917901515961E-001;2.511630393564701E-002;8.946295711211860E-004;1.811279333196580E-003;
2.410333333333334E+009;1.840351074934006E-001;2.330007217824459E-002;9.105804492719472E-004;1.892145955935121E-003;
2.410500000000000E+009;1.829991936683655E-001;2.136189118027687E-002;9.608746040612459E-004;1.986358780413866E-003;
2.410666666666667E+009;1.820734441280365E-001;1.902697607874870E-002;9.070677333511412E-004;1.891526393592358E-003;
2.410833333333334E+009;1.814458966255188E-001;1.695811375975609E-002;1.126636518165469E-003;1.661952934227884E-003;
2.411000000000000E+009;1.808088868856430E-001;1.462615281343460E-002;1.128698582760990E-003;1.697609783150256E-003;
2.411166666666667E+009;1.801005899906158E-001;1.245380658656359E-002;1.108094118535519E-003;1.507436158135533E-003;
2.411333333333334E+009;1.794586479663849E-001;9.917049668729305E-003;1.108321244828403E-003;1.320300623774529E-003;
2.411500000000000E+009;1.791681945323944E-001;7.578181568533182E-003;1.298489281907678E-003;1.286260318011046E-003;
2.411666666666667E+009;1.789947748184204E-001;5.065056961029768E-003;1.155700185336173E-003;1.244090497493744E-003;
2.411833333333334E+009;1.786364912986755E-001;2.784504787996411E-003;1.412333222106099E-003;1.049089012667537E-003;
2.412000000000000E+009;1.788796633481979E-001;1.147044386016205E-004;1.373427105136216E-003;9.149138932116330E-004;
2.412166666666667E+009;1.789116263389587E-001;-2.145418198779225E-003;1.285820384509862E-003;7.732841186225414E-004;
2.412333333333334E+009;1.792569756507874E-001;-4.832759499549866E-003;1.217906596139073E-003;8.121291757561266E-004;
2.412500000000000E+009;1.797385513782501E-001;-7.106369361281395E-003;1.175684621557593E-003;6.151890847831965E-004;
2.412666666666667E+009;1.801185309886932E-001;-9.697220288217068E-003;1.057372894138098E-003;4.574433842208237E-004;
2.412833333333334E+009;1.808293759822846E-001;-1.233475282788277E-002;1.072409912012518E-003;5.498079117387533E-004;
2.413000000000000E+009;1.816901862621307E-001;-1.451293379068375E-002;9.412597864866257E-004;5.302924546413124E-004;
2.413166666666667E+009;1.823355555534363E-001;-1.690553687512875E-002;7.441001362167299E-004;4.056608886457980E-004;
2.413333333333334E+009;1.836175918579102E-001;-1.930163614451885E-002;6.421724101528525E-004;3.880313888657838E-004;
2.413500000000000E+009;1.842743009328842E-001;-2.178960107266903E-002;5.825623520649970E-004;4.720260913018137E-004;
2.413666666666667E+009;1.855725497007370E-001;-2.383418381214142E-002;6.472039385698736E-004;4.827103693969548E-004;
2.413833333333334E+009;1.866156309843063E-001;-2.590715326368809E-002;5.363597883842886E-004;6.846699980087578E-004;
2.414000000000000E+009;1.876298636198044E-001;-2.791718579828739E-002;5.531776696443558E-004;6.645356188528240E-004;
2.414166666666667E+009;1.890144199132919E-001;-2.974042668938637E-002;4.677435499615967E-004;6.637578480876982E-004;
2.414333333333334E+009;1.901879161596298E-001;-3.181752935051918E-002;4.744597827084363E-004;7.049901178106666E-004;
2.414500000000000E+009;1.913434565067291E-001;-3.327972814440727E-002;4.638150567188859E-004;7.060241769067943E-004;
2.414666666666667E+009;1.925319731235504E-001;-3.485408052802086E-002;6.220616633072496E-004;7.116686319932342E-004;
2.414833333333334E+009;1.935703009366989E-001;-3.629920631647110E-002;5.578900454565883E-004;7.374506676569581E-004;
2.415000000000000E+009;1.946987211704254E-001;-3.757063299417496E-002;6.765879224985838E-004;7.070163846947253E-004;
2.415166666666667E+009;1.960940659046173E-001;-3.869109973311424E-002;7.041532662697136E-004;6.799912662245333E-004;
2.415333333333334E+009;1.971030980348587E-001;-3.963106870651245E-002;6.914404802955687E-004;6.384485750459135E-004;
2.415500000000000E+009;1.981722861528397E-001;-4.034861922264099E-002;6.599725456908345E-004;6.519394810311496E-004;
2.415666666666667E+009;1.991872042417526E-001;-4.110551252961159E-002;6.127545493654907E-004;5.543091683648527E-004;
2.415833333333334E+009;1.998961120843887E-001;-4.188290238380432E-002;6.985369254834950E-004;6.748157902620733E-004;
2.416000000000000E+009;2.007164657115936E-001;-4.238865152001381E-002;6.979550817050040E-004;5.990629433654249E-004;
2.416166666666667E+009;2.014674246311188E-001;-4.299542307853699E-002;6.318110390566289E-004;6.592362769879401E-004;
2.416333333333334E+009;2.019370943307877E-001;-4.325068742036820E-002;5.740128108300269E-004;5.485433503054082E-004;
2.416500000000000E+009;2.025362700223923E-001;-4.350069165229797E-002;5.741635104641318E-004;6.191114662215114E-004;
2.416666666666667E+009;2.027187794446945E-001;-4.389820992946625E-002;6.077656289562583E-004;5.905001889914274E-004;
2.416833333333334E+009;2.028584778308868E-001;-4.374871030449867E-002;4.443802754394710E-004;6.583300419151783E-004;
2.417000000000000E+009;2.029623985290527E-001;-4.396641999483109E-002;5.182310123927891E-004;7.018182077445090E-004;
2.417166666666667E+009;2.027449756860733E-001;-4.382302239537239E-002;6.418310222215951E-004;7.488604751415551E-004;
2.417333333333334E+009;2.024376094341278E-001;-4.366221278905869E-002;5.373696913011372E-004;9.225407848134637E-004;
2.417500000000000E+009;2.021557539701462E-001;-4.367873072624207E-002;5.567034240812063E-004;8.404365507885814E-004;
2.417666666666667E+009;2.016334831714630E-001;-4.341012984514237E-002;5.841981619596481E-004;9.525814675725997E-004;
2.417833333333334E+009;2.010676562786102E-001;-4.315418377518654E-002;7.822057814337313E-004;8.926316513679922E-004;
2.418000000000000E+009;2.004274874925613E-001;-4.290791973471642E-002;9.575978619977832E-004;9.764052229002118E-004;
2.418166666666667E+009;1.994835734367371E-001;-4.285719990730286E-002;8.438815129920840E-004;8.407906279899180E-004;
2.418333333333334E+009;1.986828744411469E-001;-4.260470345616341E-002;1.045354641973972E-003;1.013338565826416E-003;
2.418500000000000E+009;1.975542008876801E-001;-4.261181503534317E-002;1.033541280776262E-003;8.445401908829808E-004;
2.418666666666667E+009;1.966978460550308E-001;-4.251490905880928E-002;1.138356048613787E-003;9.324136190116406E-004;
2.418833333333334E+009;1.953175514936447E-001;-4.271163791418076E-002;9.885975159704685E-004;7.781022577546537E-004;
2.419000000000000E+009;1.939768493175507E-001;-4.299829900264740E-002;1.265773549675942E-003;7.580883684568107E-004;
2.419166666666667E+009;1.926167607307434E-001;-4.309336096048355E-002;1.143168541602790E-003;7.036977913230658E-004;
2.419333333333334E+009;1.912505477666855E-001;-4.360794275999069E-002;1.238211407326162E-003;7.947494741529226E-004;
2.419500000000000E+009;1.897400468587875E-001;-4.400571435689926E-002;1.187219982966781E-003;5.108086043037474E-004;
2.419666666666667E+009;1.881635934114456E-001;-4.480412602424622E-002;1.218402758240700E-003;4.584612324833870E-004;
2.419833333333334E+009;1.863542199134827E-001;-4.547803103923798E-002;1.273535774089396E-003;4.474809975363314E-004;
2.420000000000000E+009;1.848817169666290E-001;-4.625059291720390E-002;1.241511199623346E-003;3.201329964213073E-004;
2.420166666666667E+009;1.831894516944885E-001;-4.719926789402962E-002;1.180409337393940E-003;3.936931025236845E-004;
2.420333333333334E+009;1.814801543951035E-001;-4.830070957541466E-002;1.127855386584997E-003;2.834991319105029E-004;
2.420500000000000E+009;1.796949803829193E-001;-4.962536692619324E-002;1.212187111377716E-003;2.254392311442643E-004;
2.420666666666667E+009;1.782798767089844E-001;-5.077523738145828E-002;1.115360762923956E-003;2.082535647787154E-004;
2.420833333333334E+009;1.765883564949036E-001;-5.225081741809845E-002;1.060241484083235E-003;2.101983700413257E-004;
2.421000000000000E+009;1.750097423791885E-001;-5.375878140330315E-002;1.164807239547372E-003;8.620754670118913E-005;
2.421166666666667E+009;1.736475974321365E-001;-5.568642541766167E-002;1.066660159267485E-003;1.812051777960733E-004;
2.421333333333334E+009;1.718308329582214E-001;-5.714936554431915E-002;1.100008492358029E-003;3.745059075299650E-005;
2.421500000000000E+009;1.707075238227844E-001;-5.906856060028076E-002;1.107340911403298E-003;1.342820178251714E-004;
2.421666666666667E+009;1.693301349878311E-001;-6.077343970537186E-002;1.109180506318808E-003;-5.832449096487835E-005;
2.421833333333334E+009;1.683749854564667E-001;-6.261675804853439E-002;1.159970299340785E-003;-8.986321336124092E-005;
2.422000000000000E+009;1.670459508895874E-001;-6.453758478164673E-002;1.025679288432002E-003;-1.644596050027758E-004;
2.422166666666667E+009;1.664761900901794E-001;-6.658393889665604E-002;1.052363193593919E-003;-2.352892333874479E-004;
2.422333333333334E+009;1.653408855199814E-001;-6.866553425788879E-002;9.603652288205922E-004;-3.329868486616761E-004;
2.422500000000000E+009;1.645391434431076E-001;-7.059742510318756E-002;8.809568244032562E-004;-2.820603258442134E-004;
2.422666666666667E+009;1.638072878122330E-001;-7.267912477254868E-002;7.459104526787996E-004;-4.265696625225246E-004;
2.422833333333334E+009;1.633171290159226E-001;-7.466487586498261E-002;7.757818675599992E-004;-2.228455414297059E-004;
2.423000000000000E+009;1.628774702548981E-001;-7.667163014411926E-002;6.185609963722527E-004;-3.243225801270455E-004;
2.423166666666667E+009;1.624812185764313E-001;-7.870648801326752E-002;3.950800164602697E-004;-3.983096394222230E-004;
2.423333333333334E+009;1.624043434858322E-001;-8.075604587793350E-002;3.495434648357332E-004;-3.296779759693891E-004;
2.423500000000000E+009;1.623282581567764E-001;-8.243650943040848E-002;3.609041741583496E-004;-2.771527506411076E-004;
2.423666666666667E+009;1.623318493366242E-001;-8.444293588399887E-002;3.150749544147402E-004;-2.789017162285745E-004;
2.423833333333334E+009;1.623331308364868E-001;-8.628752082586289E-002;3.662357048597187E-004;-1.795293501345441E-004;
2.424000000000000E+009;1.623315215110779E-001;-8.811468631029129E-002;3.246095147915185E-004;-1.958418870344758E-004;
2.424166666666667E+009;1.625104844570160E-001;-8.969338238239288E-002;1.327721111010760E-004;-1.535338815301657E-004;
2.424333333333334E+009;1.627984791994095E-001;-9.116822481155396E-002;1.776941935531795E-004;1.459388204239076E-005;
2.424500000000000E+009;1.631380021572113E-001;-9.294317662715912E-002;2.913679345510900E-004;1.644633011892438E-004;
2.424666666666667E+009;1.633696109056473E-001;-9.431061148643494E-002;3.087999357376248E-004;2.134194655809552E-004;
2.424833333333334E+009;1.641402989625931E-001;-9.552317857742310E-002;1.468249538447708E-004;1.505575055489317E-004;
2.425000000000000E+009;1.643400788307190E-001;-9.681815654039383E-002;2.168759092455730E-004;2.870540192816407E-004;
2.425166666666667E+009;1.646757423877716E-001;-9.784310311079025E-002;1.086867414414883E-004;3.888225182890892E-004;
2.425333333333334E+009;1.650079339742661E-001;-9.891865402460098E-002;2.457943337503821E-004;3.368933103047311E-004;
2.425500000000000E+009;1.655496656894684E-001;-9.979907423257828E-002;1.586240541655570E-004;2.215759595856071E-004;
2.425666666666667E+009;1.658892631530762E-001;-1.005256325006485E-001;3.783885040320456E-004;4.191356129013002E-004;
2.425833333333334E+009;1.661718636751175E-001;-1.013309136033058E-001;3.974890278186649E-004;4.306737100705504E-004;
2.426000000000000E+009;1.666022390127182E-001;-1.015861034393311E-001;4.941407241858542E-004;5.396181950345635E-004;
2.426166666666667E+009;1.669826805591583E-001;-1.022040471434593E-001;4.533271421678364E-004;4.404978826642036E-004;
2.426333333333334E+009;1.670646220445633E-001;-1.026579067111015E-001;4.999351804144681E-004;5.553305963985622E-004;
2.426500000000000E+009;1.674346327781677E-001;-1.028006598353386E-001;5.206085625104606E-004;4.444099031388760E-004;
2.426666666666667E+009;1.677212864160538E-001;-1.031143814325333E-001;6.640179781243205E-004;5.663456977345049E-004;
2.426833333333334E+009;1.680350005626679E-001;-1.033870354294777E-001;5.778961931355298E-004;5.835111951455474E-004;
2.427000000000000E+009;1.679911613464356E-001;-1.036711484193802E-001;5.753411096520722E-004;5.052945343777537E-004;
2.427166666666667E+009;1.680858582258225E-001;-1.036561056971550E-001;7.079904316924512E-004;6.772859487682581E-004;
2.427333333333334E+009;1.679019033908844E-001;-1.039343327283859E-001;8.265206124633551E-004;7.693442748859525E-004;
2.427500000000000E+009;1.676989197731018E-001;-1.040677875280380E-001;8.853669860400260E-004;5.547055625356734E-004;
2.427666666666667E+009;1.674124300479889E-001;-1.040440425276756E-001;9.991327533498406E-004;6.377511308528483E-004;
2.427833333333334E+009;1.669765263795853E-001;-1.041119322180748E-001;8.975779055617750E-004;6.590245757251978E-004;
