# Version 1.00
#
freq[Hz];re:Trc1_S11;im:Trc1_S11;re:Trc2_S21;im:Trc2_S21;
2.400000000000000E+009;1.563118696212769E-001;5.994648113846779E-002;-3.539356403052807E-003;2.564102644100785E-003;
2.400166666666667E+009;1.565148532390595E-001;5.820185691118240E-002;-3.528950503095985E-003;2.547621494159102E-003;
2.400333333333334E+009;1.565245389938355E-001;5.597913265228272E-002;-3.372155595570803E-003;2.596816746518016E-003;
2.400500000000000E+009;1.567897349596024E-001;5.403574183583260E-002;-3.088566707447171E-003;2.717470983043313E-003;
2.400666666666667E+009;1.570387184619904E-001;5.227043107151985E-002;-3.287363797426224E-003;2.708468586206436E-003;
2.400833333333334E+009;1.574323773384094E-001;5.016617476940155E-002;-2.932863542810082E-003;2.741288160905242E-003;
2.401000000000000E+009;1.578534394502640E-001;4.817406833171845E-002;-3.157358150929213E-003;2.682934515178204E-003;
2.401166666666667E+009;1.583101749420166E-001;4.601773992180824E-002;-3.011140972375870E-003;2.837610896676779E-003;
2.401333333333334E+009;1.587348133325577E-001;4.383409023284912E-002;-2.991210669279099E-003;3.026355756446719E-003;
2.401500000000000E+009;1.593300700187683E-001;4.211533442139626E-002;-2.950041554868221E-003;2.991849556565285E-003;
2.401666666666667E+009;1.599201261997223E-001;4.015977308154106E-002;-2.919644815847278E-003;3.037872025743127E-003;
2.401833333333334E+009;1.605456620454788E-001;3.826349228620529E-002;-2.827753545716405E-003;3.138608997687697E-003;
2.402000000000000E+009;1.610448956489563E-001;3.637454658746719E-002;-3.018420422449708E-003;3.375819651409984E-003;
2.402166666666667E+009;1.617936342954636E-001;3.440012410283089E-002;-2.925029024481773E-003;3.342753509059548E-003;
2.402333333333334E+009;1.625067889690399E-001;3.284793347120285E-002;-2.714790869504213E-003;3.370611229911447E-003;
2.402500000000000E+009;1.636361777782440E-001;3.111593797802925E-002;-2.630217699334025E-003;3.508491674438119E-003;
2.402666666666667E+009;1.644363701343536E-001;2.969925105571747E-002;-2.640923252329230E-003;3.570651868358254E-003;
2.402833333333334E+009;1.652281135320664E-001;2.826062217354775E-002;-2.521304646506906E-003;3.689717268571258E-003;
2.403000000000000E+009;1.661734431982040E-001;2.672088518738747E-002;-2.402405953034759E-003;3.570732893422246E-003;
2.403166666666667E+009;1.671684086322784E-001;2.548784203827381E-002;-2.299562096595764E-003;3.785893786698580E-003;
2.403333333333334E+009;1.679553389549255E-001;2.433601580560207E-002;-2.358286641538143E-003;4.027581308037043E-003;
2.403500000000000E+009;1.688465923070908E-001;2.322128973901272E-002;-2.179026138037443E-003;4.162947647273541E-003;
2.403666666666667E+009;1.699038594961166E-001;2.197302132844925E-002;-1.997682498767972E-003;4.286303184926510E-003;
2.403833333333334E+009;1.710039824247360E-001;2.091114781796932E-002;-2.173065440729260E-003;4.319783300161362E-003;
2.404000000000000E+009;1.718938052654266E-001;2.013931982219219E-002;-1.755242468789220E-003;4.507744219154120E-003;
2.404166666666667E+009;1.727387607097626E-001;1.906611584126949E-002;-1.698174746707082E-003;4.723957274109125E-003;
2.404333333333334E+009;1.736568659543991E-001;1.852045953273773E-002;-1.436267746612430E-003;4.920409992337227E-003;
2.404500000000000E+009;1.742549091577530E-001;1.757605373859406E-002;-1.339956535957754E-003;4.688801709562540E-003;
2.404666666666667E+009;1.752084493637085E-001;1.700942590832710E-002;-1.020807190798223E-003;4.765318706631661E-003;
2.404833333333334E+009;1.758322119712830E-001;1.644315943121910E-002;-8.023317786864936E-004;4.842943046241999E-003;
2.405000000000000E+009;1.765030324459076E-001;1.585642807185650E-002;-7.726462790742517E-004;4.730997141450644E-003;
2.405166666666667E+009;1.771959960460663E-001;1.554140355437994E-002;-5.433704936876893E-004;5.073563661426306E-003;
2.405333333333334E+009;1.777975708246231E-001;1.487810909748077E-002;-3.608968399930745E-004;5.086274351924658E-003;
2.405500000000000E+009;1.782418936491013E-001;1.470265071839094E-002;-3.046680067200214E-004;5.161439534276724E-003;
2.405666666666667E+009;1.787288188934326E-001;1.438632141798735E-002;-5.671579856425524E-005;5.379448179155588E-003;
2.405833333333334E+009;1.789144724607468E-001;1.393286138772965E-002;2.074158401228488E-004;5.342240910977125E-003;
2.406000000000000E+009;1.792253255844116E-001;1.351613271981478E-002;5.460989195853472E-004;5.086904391646385E-003;
2.406166666666667E+009;1.792476177215576E-001;1.338607538491488E-002;7.062018848955631E-004;5.143581423908472E-003;
2.406333333333334E+009;1.795638948678970E-001;1.303471811115742E-002;1.064709969796240E-003;5.135896615684032E-003;
2.406500000000000E+009;1.794925630092621E-001;1.263803243637085E-002;1.374658895656467E-003;5.071728955954313E-003;
2.406666666666667E+009;1.793949604034424E-001;1.225747633725405E-002;1.402477966621518E-003;4.891725257039070E-003;
2.406833333333334E+009;1.793568283319473E-001;1.187611836940050E-002;1.600915449671447E-003;5.006215535104275E-003;
2.407000000000000E+009;1.792163550853729E-001;1.142828911542893E-002;1.812179456464946E-003;4.833657760173082E-003;
2.407166666666667E+009;1.790175437927246E-001;1.101151946932077E-002;1.939322100952268E-003;4.776961170136929E-003;
2.407333333333334E+009;1.785293370485306E-001;1.047866325825453E-002;2.220541238784790E-003;4.372117575258017E-003;
2.407500000000000E+009;1.783046871423721E-001;9.827637113630772E-003;2.385158557444811E-003;4.384591709822416E-003;
2.407666666666667E+009;1.778476834297180E-001;9.280351921916008E-003;2.442862140014768E-003;4.289063625037670E-003;
2.407833333333334E+009;1.772380769252777E-001;8.331559598445892E-003;2.627359703183174E-003;3.982684575021267E-003;
2.408000000000000E+009;1.767897754907608E-001;7.491928059607744E-003;2.801478374749422E-003;3.966259304434061E-003;
2.408166666666667E+009;1.762226670980454E-001;6.860185414552689E-003;2.806492848321796E-003;3.716120729222894E-003;
2.408333333333334E+009;1.756229549646378E-001;5.817835684865713E-003;2.927287947386503E-003;3.614755114540458E-003;
2.408500000000000E+009;1.750562489032745E-001;4.881312604993582E-003;2.881929511204362E-003;3.432636382058263E-003;
2.408666666666667E+009;1.742798686027527E-001;3.530745860189199E-003;2.864898182451725E-003;3.196165896952152E-003;
2.408833333333334E+009;1.736053526401520E-001;2.426912309601903E-003;3.062290605157614E-003;3.079037414863706E-003;
2.409000000000000E+009;1.729081273078919E-001;1.125887501984835E-003;3.131885314360261E-003;2.953245770186186E-003;
2.409166666666667E+009;1.723698228597641E-001;-2.481421397533268E-004;3.004925092682242E-003;2.810379024595022E-003;
2.409333333333334E+009;1.718074828386307E-001;-1.780197490006685E-003;3.139558481052518E-003;2.792176790535450E-003;
2.409500000000000E+009;1.711827516555786E-001;-3.300232812762260E-003;3.277564188465476E-003;2.527110278606415E-003;
2.409666666666667E+009;1.705913096666336E-001;-4.750609397888184E-003;3.031243104487658E-003;2.388114808127284E-003;
2.409833333333334E+009;1.698904633522034E-001;-6.277204025536776E-003;3.203557804226875E-003;2.305788453668356E-003;
2.410000000000000E+009;1.694898307323456E-001;-8.052417077124119E-003;3.136368235573173E-003;2.247727708891034E-003;
2.410166666666667E+009;1.689431369304657E-001;-9.772850200533867E-003;3.106283722445369E-003;2.158267423510552E-003;
2.410333333333334E+009;1.687664389610291E-001;-1.165721938014031E-002;3.029988612979651E-003;2.007625065743923E-003;
2.410500000000000E+009;1.685018837451935E-001;-1.345952972769737E-002;3.013856476172805E-003;1.942663104273379E-003;
2.410666666666667E+009;1.679353863000870E-001;-1.539107039570808E-002;2.901756670325995E-003;1.912496518343687E-003;
2.410833333333334E+009;1.678487956523895E-001;-1.725573278963566E-002;3.042417345568538E-003;1.913426560349762E-003;
2.411000000000000E+009;1.675213724374771E-001;-1.916260831058025E-002;3.119779052212834E-003;1.886216457933188E-003;
2.411166666666667E+009;1.676988452672958E-001;-2.107626199722290E-002;3.068969817832112E-003;1.748060341924429E-003;
2.411333333333334E+009;1.676567792892456E-001;-2.286303415894508E-002;3.144828369840980E-003;1.571441418491304E-003;
2.411500000000000E+009;1.676145493984222E-001;-2.498592063784599E-002;3.027066355571151E-003;1.559192198328674E-003;
2.411666666666667E+009;1.679335087537766E-001;-2.680179476737976E-002;3.030232153832912E-003;1.523463986814022E-003;
2.411833333333334E+009;1.680776029825211E-001;-2.868928574025631E-002;3.084673779085279E-003;1.442090026102960E-003;
2.412000000000000E+009;1.684723198413849E-001;-3.070400096476078E-002;3.003540914505720E-003;1.497577992267907E-003;
2.412166666666667E+009;1.687736958265305E-001;-3.253863379359245E-002;3.090869868174195E-003;1.423909678123891E-003;
2.412333333333334E+009;1.694390326738358E-001;-3.426608815789223E-002;3.207316389307380E-003;1.342517090961337E-003;
2.412500000000000E+009;1.694280952215195E-001;-3.595115989446640E-002;3.245556727051735E-003;1.396151026710868E-003;
2.412666666666667E+009;1.700550913810730E-001;-3.781421482563019E-002;3.185447771102190E-003;1.224523759447038E-003;
2.412833333333334E+009;1.707282364368439E-001;-3.951146453619003E-002;3.137491410598159E-003;1.137442653998733E-003;
2.413000000000000E+009;1.712892800569534E-001;-4.113784804940224E-002;3.335932502523065E-003;1.028814818710089E-003;
2.413166666666667E+009;1.718572974205017E-001;-4.265867546200752E-002;3.343077376484871E-003;1.206730375997722E-003;
2.413333333333334E+009;1.722717434167862E-001;-4.417449980974197E-002;3.375979373231530E-003;1.012524589896202E-003;
2.413500000000000E+009;1.729517430067062E-001;-4.554219543933868E-002;3.353930544108152E-003;9.756030049175024E-004;
2.413666666666667E+009;1.735301464796066E-001;-4.692060872912407E-002;3.555931383743882E-003;9.288048604503274E-004;
2.413833333333334E+009;1.741986721754074E-001;-4.804311320185661E-002;3.597275586798787E-003;8.616580162197352E-004;
2.414000000000000E+009;1.746615916490555E-001;-4.937791824340820E-002;3.642267780378461E-003;7.114659529179335E-004;
2.414166666666667E+009;1.753332167863846E-001;-5.042042583227158E-002;3.504078835248947E-003;6.256006308831275E-004;
2.414333333333334E+009;1.758555769920349E-001;-5.132814869284630E-002;3.579542273655534E-003;5.360757932066917E-004;
2.414500000000000E+009;1.765198409557343E-001;-5.223239213228226E-002;3.717946354299784E-003;4.490100254770368E-004;
2.414666666666667E+009;1.769055575132370E-001;-5.295810103416443E-002;3.690624842420220E-003;2.822176320478320E-004;
2.414833333333334E+009;1.772341132164002E-001;-5.392357707023621E-002;3.646705998107791E-003;1.323805481661111E-004;
2.415000000000000E+009;1.776574254035950E-001;-5.442745238542557E-002;3.736826125532389E-003;7.707419717917219E-005;
2.415166666666667E+009;1.778554469347000E-001;-5.499875172972679E-002;3.737996099516749E-003;-7.221901614684612E-005;
2.415333333333334E+009;1.782881170511246E-001;-5.573337525129318E-002;3.781125880777836E-003;-6.162683712318540E-005;
2.415500000000000E+009;1.784615367650986E-001;-5.612046644091606E-002;3.770823357626796E-003;-2.615405828692019E-004;
2.415666666666667E+009;1.783968508243561E-001;-5.637084692716599E-002;3.775541204959154E-003;-4.407492815516889E-004;
2.415833333333334E+009;1.785658597946167E-001;-5.679042637348175E-002;3.841693280264735E-003;-5.109120393171907E-004;
2.416000000000000E+009;1.782659590244293E-001;-5.719271302223206E-002;3.779649967327714E-003;-4.046441463287920E-004;
2.416166666666667E+009;1.784293502569199E-001;-5.747698992490768E-002;3.791343187913299E-003;-6.498296279460192E-004;
2.416333333333334E+009;1.780941635370255E-001;-5.775899440050125E-002;3.855448216199875E-003;-9.306338615715504E-004;
2.416500000000000E+009;1.776908934116364E-001;-5.800663307309151E-002;3.701843088492751E-003;-9.184054797515273E-004;
2.416666666666667E+009;1.772962659597397E-001;-5.819049850106239E-002;3.717620857059956E-003;-1.012083492241800E-003;
2.416833333333334E+009;1.768241375684738E-001;-5.860958620905876E-002;3.588746767491102E-003;-1.127124065533280E-003;
2.417000000000000E+009;1.761126667261124E-001;-5.885387584567070E-002;3.613714827224612E-003;-1.407733070664108E-003;
2.417166666666667E+009;1.754382103681564E-001;-5.893763527274132E-002;3.528757719323039E-003;-1.433018944226205E-003;
2.417333333333334E+009;1.746846437454224E-001;-5.934927985072136E-002;3.526319982483983E-003;-1.457048812881112E-003;
2.417500000000000E+009;1.738270223140717E-001;-5.995385348796845E-002;3.375543747097254E-003;-1.657243818044663E-003;
2.417666666666667E+009;1.730767786502838E-001;-6.003451347351074E-002;3.330829320475459E-003;-1.670726924203336E-003;
2.417833333333334E+009;1.719368249177933E-001;-6.038847938179970E-002;3.263271180912852E-003;-1.855501672253013E-003;
2.418000000000000E+009;1.709146499633789E-001;-6.090701743960381E-002;3.260692814365029E-003;-1.947764423675835E-003;
2.418166666666667E+009;1.697647273540497E-001;-6.129775941371918E-002;3.131705801934004E-003;-1.925948075950146E-003;
2.418333333333334E+009;1.689024865627289E-001;-6.192309036850929E-002;3.032321343198419E-003;-2.161516575142741E-003;
2.418500000000000E+009;1.676367372274399E-001;-6.253124028444290E-002;3.060497110709548E-003;-2.104686107486486E-003;
2.418666666666667E+009;1.664171069860458E-001;-6.335236132144928E-002;2.836661180481315E-003;-2.301956759765744E-003;
2.418833333333334E+009;1.649917960166931E-001;-6.399373710155487E-002;2.782872179523110E-003;-2.442513126879931E-003;
2.419000000000000E+009;1.639335006475449E-001;-6.479000300168991E-002;2.676617586985230E-003;-2.380560385063291E-003;
2.419166666666667E+009;1.626263111829758E-001;-6.575877964496613E-002;2.606629626825452E-003;-2.523595467209816E-003;
2.419333333333334E+009;1.613585650920868E-001;-6.657582521438599E-002;2.634961623698473E-003;-2.492530969902873E-003;
2.419500000000000E+009;1.602020859718323E-001;-6.773080676794052E-002;2.444933634251356E-003;-2.547177718952298E-003;
2.419666666666667E+009;1.591508835554123E-001;-6.885787844657898E-002;2.242229878902435E-003;-2.559443702921271E-003;
2.419833333333334E+009;1.578382104635239E-001;-6.977201998233795E-002;2.165504731237888E-003;-2.752948785200715E-003;
2.420000000000000E+009;1.569379568099976E-001;-7.115919142961502E-002;2.209193771705031E-003;-2.679709112271667E-003;
2.420166666666667E+009;1.558073610067368E-001;-7.248763740062714E-002;2.205517841503024E-003;-2.805201336741447E-003;
2.420333333333334E+009;1.549901813268662E-001;-7.382180541753769E-002;1.968665514141321E-003;-2.756522968411446E-003;
2.420500000000000E+009;1.541855633258820E-001;-7.505226880311966E-002;2.019816311076284E-003;-2.883498556911945E-003;
2.420666666666667E+009;1.532443463802338E-001;-7.654201984405518E-002;1.867120387032628E-003;-2.982761943712831E-003;
2.420833333333334E+009;1.524365395307541E-001;-7.815250754356384E-002;1.842844649218023E-003;-3.064710181206465E-003;
2.421000000000000E+009;1.516463905572891E-001;-7.969800382852554E-002;1.543077290989459E-003;-3.053808351978660E-003;
2.421166666666667E+009;1.512128412723541E-001;-8.132839947938919E-002;1.437853323295713E-003;-3.026656573638320E-003;
2.421333333333334E+009;1.507862806320190E-001;-8.307052403688431E-002;1.357923960313201E-003;-3.271607216447592E-003;
2.421500000000000E+009;1.503850221633911E-001;-8.460383117198944E-002;1.453323289752007E-003;-3.018580377101898E-003;
2.421666666666667E+009;1.500324606895447E-001;-8.600775152444840E-002;1.405321643687785E-003;-3.204562701284885E-003;
2.421833333333334E+009;1.498762667179108E-001;-8.788026869297028E-002;1.323846634477377E-003;-3.017605282366276E-003;
2.422000000000000E+009;1.495491862297058E-001;-8.940908312797546E-002;1.200291910208762E-003;-3.059515031054616E-003;
2.422166666666667E+009;1.495317816734314E-001;-9.130745381116867E-002;1.163181266747415E-003;-3.173641860485077E-003;
2.422333333333334E+009;1.494669169187546E-001;-9.289058297872543E-002;1.033716951496899E-003;-3.299444448202848E-003;
2.422500000000000E+009;1.495996564626694E-001;-9.433025121688843E-002;9.029301581904292E-004;-3.209945047274232E-003;
2.422666666666667E+009;1.497742533683777E-001;-9.589660167694092E-002;8.027184521779418E-004;-3.190192626789212E-003;
2.422833333333334E+009;1.499127447605133E-001;-9.761344641447067E-002;7.678249385207892E-004;-3.314642235636711E-003;
2.423000000000000E+009;1.502301394939423E-001;-9.899833053350449E-002;6.503748008981347E-004;-3.181903157383204E-003;
2.423166666666667E+009;1.506154984235764E-001;-1.004311740398407E-001;4.357231373433024E-004;-3.349179169163108E-003;
2.423333333333334E+009;1.511882543563843E-001;-1.017245128750801E-001;5.127664771862328E-004;-3.276851028203964E-003;
2.423500000000000E+009;1.515347659587860E-001;-1.032741218805313E-001;2.872626355383545E-004;-3.273024223744869E-003;
2.423666666666667E+009;1.519345641136169E-001;-1.045475155115128E-001;2.535867097321898E-004;-3.374306717887521E-003;
2.423833333333334E+009;1.525466889142990E-001;-1.060067415237427E-001;1.487742702011019E-004;-3.219084115698934E-003;
2.424000000000000E+009;1.529002338647842E-001;-1.068873032927513E-001;-1.021825755742611E-005;-3.143488196656108E-003;
2.424166666666667E+009;1.533166021108627E-001;-1.081464514136314E-001;-6.391817441908643E-005;-3.241859842091799E-003;
2.424333333333334E+009;1.538864970207214E-001;-1.089310944080353E-001;-2.135716349584982E-004;-3.200642997398973E-003;
2.424500000000000E+009;1.543844640254974E-001;-1.100783124566078E-001;-2.770042628981173E-004;-3.068936057388783E-003;
2.424666666666667E+009;1.551531255245209E-001;-1.106949821114540E-001;-3.621754876803607E-004;-3.029680345207453E-003;
2.424833333333334E+009;1.553292125463486E-001;-1.115229725837708E-001;-4.090287839062512E-004;-2.998505719006062E-003;
2.425000000000000E+009;1.557115316390991E-001;-1.123531907796860E-001;-6.465518963523209E-004;-3.033806337043643E-003;
2.425166666666667E+009;1.560248136520386E-001;-1.130523905158043E-001;-6.175546441227198E-004;-3.040124662220478E-003;
2.425333333333334E+009;1.563652604818344E-001;-1.135193705558777E-001;-8.059095707722008E-004;-2.942217979580164E-003;
2.425500000000000E+009;1.567216962575913E-001;-1.140828952193260E-001;-7.432911661453545E-004;-2.855322323739529E-003;
2.425666666666667E+009;1.567201465368271E-001;-1.145220100879669E-001;-9.512405958957970E-004;-2.852349076420069E-003;
2.425833333333334E+009;1.568900942802429E-001;-1.149698495864868E-001;-8.720617624931037E-004;-2.687226748093963E-003;
2.426000000000000E+009;1.569033116102219E-001;-1.154421791434288E-001;-1.069755875505507E-003;-2.732817782089114E-003;
2.426166666666667E+009;1.570705026388168E-001;-1.157464012503624E-001;-1.058198977261782E-003;-2.668092725798488E-003;
2.426333333333334E+009;1.567235887050629E-001;-1.159734949469566E-001;-9.184030350297689E-004;-2.597401617094874E-003;
2.426500000000000E+009;1.567372083663940E-001;-1.161062791943550E-001;-1.214060815982521E-003;-2.545323688536882E-003;
2.426666666666667E+009;1.565689891576767E-001;-1.161392182111740E-001;-1.151435193605721E-003;-2.421227283775806E-003;
2.426833333333334E+009;1.559940576553345E-001;-1.164780333638191E-001;-1.117741921916604E-003;-2.456520916894078E-003;
2.427000000000000E+009;1.555404514074326E-001;-1.166611835360527E-001;-1.268825377337635E-003;-2.398597309365869E-003;
2.427166666666667E+009;1.548995822668076E-001;-1.166249066591263E-001;-1.142168533988297E-003;-2.241491107270122E-003;
2.427333333333334E+009;1.542854458093643E-001;-1.169157326221466E-001;-1.328934449702501E-003;-2.286822767928243E-003;
2.427500000000000E+009;1.535591930150986E-001;-1.170437484979630E-001;-1.363116316497326E-003;-2.216510474681854E-003;
2.427666666666667E+009;1.527762264013290E-001;-1.173627674579620E-001;-1.359836198389530E-003;-2.030290197581053E-003;
2.427833333333334E+009;1.516878157854080E-001;-1.174577772617340E-001;-1.290011801756918E-003;-2.075359458103776E-003;
