# Version 1.00
#
freq[Hz];re:Trc1_S11;im:Trc1_S11;re:Trc2_S21;im:Trc2_S21;
2.400000000000000E+009;1.562316268682480E-001;5.985657870769501E-002;-3.337269881740212E-003;2.584793837741017E-003;
2.400166666666667E+009;1.564043909311295E-001;5.824446305632591E-002;-3.270087763667107E-003;2.679843688383699E-003;
2.400333333333334E+009;1.565289497375488E-001;5.623572692275047E-002;-3.331381827592850E-003;2.529795514419675E-003;
2.400500000000000E+009;1.569054126739502E-001;5.408689752221108E-002;-3.153586992993951E-003;2.658896846696734E-003;
2.400666666666667E+009;1.571538895368576E-001;5.197100341320038E-002;-3.091562772169709E-003;2.597970655187964E-003;
2.400833333333334E+009;1.574860215187073E-001;5.007430538535118E-002;-2.938842633739114E-003;2.730212640017271E-003;
2.401000000000000E+009;1.578280776739121E-001;4.811390861868858E-002;-3.129755379632115E-003;2.688645152375102E-003;
2.401166666666667E+009;1.581869572401047E-001;4.589414224028587E-002;-2.946064807474613E-003;2.850227989256382E-003;
2.401333333333334E+009;1.587412208318710E-001;4.389382153749466E-002;-3.081168280914426E-003;2.904732711613178E-003;
2.401500000000000E+009;1.593105494976044E-001;4.180311411619186E-002;-3.005981910973787E-003;2.938583260402083E-003;
2.401666666666667E+009;1.598748713731766E-001;4.008945450186729E-002;-3.079270943999291E-003;2.983854617923498E-003;
2.401833333333334E+009;1.605235189199448E-001;3.818582370877266E-002;-2.750773681327701E-003;3.146731061860919E-003;
2.402000000000000E+009;1.610676646232605E-001;3.643180802464485E-002;-2.938808174803853E-003;3.199081169441342E-003;
2.402166666666667E+009;1.620294451713562E-001;3.447337448596954E-002;-2.819408429786563E-003;3.315769834443927E-003;
2.402333333333334E+009;1.625161468982697E-001;3.291914984583855E-002;-2.806881908327341E-003;3.337265690788627E-003;
2.402500000000000E+009;1.635044813156128E-001;3.118132613599300E-002;-2.803886309266090E-003;3.373420797288418E-003;
2.402666666666667E+009;1.643503755331039E-001;2.978604659438133E-002;-2.526812022551894E-003;3.359476337209344E-003;
2.402833333333334E+009;1.652114838361740E-001;2.811513096094132E-002;-2.735179616138339E-003;3.787170164287090E-003;
2.403000000000000E+009;1.662288755178452E-001;2.665360458195210E-002;-2.463618060573936E-003;3.894789377227426E-003;
2.403166666666667E+009;1.671014577150345E-001;2.550839446485043E-002;-2.585904672741890E-003;3.928564488887787E-003;
2.403333333333334E+009;1.680222302675247E-001;2.431878447532654E-002;-2.316140569746494E-003;4.051270894706249E-003;
2.403500000000000E+009;1.689624786376953E-001;2.312963828444481E-002;-2.114772098138928E-003;4.347643349319696E-003;
2.403666666666667E+009;1.699130237102509E-001;2.200511656701565E-002;-2.185048302635551E-003;4.315882455557585E-003;
2.403833333333334E+009;1.709920465946198E-001;2.097446657717228E-002;-1.779545680619776E-003;4.405883606523275E-003;
2.404000000000000E+009;1.717857420444489E-001;2.003843896090984E-002;-1.869154628366232E-003;4.636956844478846E-003;
2.404166666666667E+009;1.726456731557846E-001;1.912685297429562E-002;-1.723089488223195E-003;4.555692430585623E-003;
2.404333333333334E+009;1.734110265970230E-001;1.840022020041943E-002;-1.648878329433501E-003;4.659930709749460E-003;
2.404500000000000E+009;1.740818321704865E-001;1.771419867873192E-002;-1.412807381711900E-003;4.921939224004746E-003;
2.404666666666667E+009;1.750770360231400E-001;1.710860989987850E-002;-1.197923091240227E-003;4.859185777604580E-003;
2.404833333333334E+009;1.758895665407181E-001;1.650405488908291E-002;-1.089077675715089E-003;5.093663465231657E-003;
2.405000000000000E+009;1.765578687191010E-001;1.581015996634960E-002;-8.137291297316551E-004;5.054337438195944E-003;
2.405166666666667E+009;1.771725714206696E-001;1.544512249529362E-002;-5.131226498633623E-004;5.130247678607702E-003;
2.405333333333334E+009;1.776648163795471E-001;1.488622371107340E-002;-3.733197518158704E-004;5.201425403356552E-003;
2.405500000000000E+009;1.782281845808029E-001;1.459353324025869E-002;-1.988127914955840E-004;5.048994440585375E-003;
2.405666666666667E+009;1.785697788000107E-001;1.424286328256130E-002;1.270504581043497E-004;5.223589483648539E-003;
2.405833333333334E+009;1.788735389709473E-001;1.400025840848684E-002;1.692455261945725E-004;5.264553707093000E-003;
2.406000000000000E+009;1.792412996292114E-001;1.339964941143990E-002;5.408269353210926E-004;5.352366250008345E-003;
2.406166666666667E+009;1.792144775390625E-001;1.333365775644779E-002;6.549413665197790E-004;5.170689430087805E-003;
2.406333333333334E+009;1.794826388359070E-001;1.309628132730722E-002;7.872690330259502E-004;5.174821242690086E-003;
2.406500000000000E+009;1.794709712266922E-001;1.273748651146889E-002;1.122907036915422E-003;5.030060652643442E-003;
2.406666666666667E+009;1.791685223579407E-001;1.245414186269045E-002;1.230071182362735E-003;4.967631306499243E-003;
2.406833333333334E+009;1.792733818292618E-001;1.181240845471621E-002;1.570112770423293E-003;5.002306774258614E-003;
2.407000000000000E+009;1.791101247072220E-001;1.154906023293734E-002;1.810160814784467E-003;4.694536328315735E-003;
2.407166666666667E+009;1.790277063846588E-001;1.104500424116850E-002;1.883539138361812E-003;4.585982766002417E-003;
2.407333333333334E+009;1.786320060491562E-001;1.044407859444618E-002;2.079505706205964E-003;4.499937873333693E-003;
2.407500000000000E+009;1.782383024692535E-001;9.940886870026588E-003;2.352584386244416E-003;4.469885025173426E-003;
2.407666666666667E+009;1.777633726596832E-001;9.273147210478783E-003;2.457216149196029E-003;4.239727742969990E-003;
2.407833333333334E+009;1.771374344825745E-001;8.545229211449623E-003;2.548863412812352E-003;4.080186132341623E-003;
2.408000000000000E+009;1.768184006214142E-001;7.618845440447331E-003;2.641641534864903E-003;3.949160221964121E-003;
2.408166666666667E+009;1.760718524456024E-001;6.965407170355320E-003;2.728601684793830E-003;3.865756327286363E-003;
2.408333333333334E+009;1.757043004035950E-001;5.953405518084765E-003;2.816341584548354E-003;3.582505276426673E-003;
2.408500000000000E+009;1.750257909297943E-001;4.826329182833433E-003;2.864707726985216E-003;3.306927392259240E-003;
2.408666666666667E+009;1.743686348199844E-001;3.697739914059639E-003;2.991119865328074E-003;3.169887932017446E-003;
2.408833333333334E+009;1.736442744731903E-001;2.509877085685730E-003;3.036503912881017E-003;3.152355784550309E-003;
2.409000000000000E+009;1.729589849710465E-001;1.219635945744813E-003;2.902024192735553E-003;3.044089535251260E-003;
2.409166666666667E+009;1.723658144474030E-001;-2.303189539816231E-004;3.079331014305353E-003;2.817281987518072E-003;
2.409333333333334E+009;1.718490421772003E-001;-1.730023417621851E-003;3.072484629228711E-003;2.780211623758078E-003;
2.409500000000000E+009;1.711611896753311E-001;-3.227402456104755E-003;3.079129382967949E-003;2.694542286917567E-003;
2.409666666666667E+009;1.705098897218704E-001;-4.859966691583395E-003;3.134892322123051E-003;2.301842439919710E-003;
2.409833333333334E+009;1.700495630502701E-001;-6.404581014066935E-003;2.954033203423023E-003;2.343901665881276E-003;
2.410000000000000E+009;1.694988757371903E-001;-8.028407581150532E-003;3.147451672703028E-003;2.209641505032778E-003;
2.410166666666667E+009;1.689661890268326E-001;-9.797255508601666E-003;3.011312568560243E-003;2.164493082091212E-003;
2.410333333333334E+009;1.686348468065262E-001;-1.159243006259203E-002;3.048988524824381E-003;2.106736879795790E-003;
2.410500000000000E+009;1.683965474367142E-001;-1.336550433188677E-002;3.178205806761980E-003;2.021701773628593E-003;
2.410666666666667E+009;1.680773794651032E-001;-1.551578287035227E-002;3.149315947666764E-003;1.952123246155679E-003;
2.410833333333334E+009;1.679932028055191E-001;-1.717803627252579E-002;2.961369929835200E-003;1.869215862825513E-003;
2.411000000000000E+009;1.676923185586929E-001;-1.919586770236492E-002;3.122917376458645E-003;1.702355919405818E-003;
2.411166666666667E+009;1.674944907426834E-001;-2.108243666589260E-002;3.134262980893254E-003;1.765549881383777E-003;
2.411333333333334E+009;1.677140146493912E-001;-2.300783991813660E-002;3.245525760576129E-003;1.479842001572251E-003;
2.411500000000000E+009;1.677659153938294E-001;-2.501528151333332E-002;2.972235903143883E-003;1.529056346043944E-003;
2.411666666666667E+009;1.680309921503067E-001;-2.694405801594257E-002;3.123002359643579E-003;1.624183612875640E-003;
2.411833333333334E+009;1.681419014930725E-001;-2.869002148509026E-002;3.036970971152186E-003;1.475365832448006E-003;
2.412000000000000E+009;1.685580760240555E-001;-3.071123175323010E-002;3.008730011060834E-003;1.560223521664739E-003;
2.412166666666667E+009;1.688020974397659E-001;-3.261058777570725E-002;3.218582831323147E-003;1.379385823383927E-003;
2.412333333333334E+009;1.693300604820252E-001;-3.426374122500420E-002;3.093312028795481E-003;1.490053837187588E-003;
2.412500000000000E+009;1.697501838207245E-001;-3.588374331593514E-002;3.151184413582087E-003;1.310062245465815E-003;
2.412666666666667E+009;1.703063547611237E-001;-3.785367682576180E-002;3.224556567147374E-003;1.164556713774800E-003;
2.412833333333334E+009;1.707944273948669E-001;-3.951507434248924E-002;3.240638412535191E-003;1.186058041639626E-003;
2.413000000000000E+009;1.711508929729462E-001;-4.106480255723000E-002;3.222969826310873E-003;1.114674611017108E-003;
2.413166666666667E+009;1.718201637268066E-001;-4.251861199736595E-002;3.326374571770430E-003;1.074265572242439E-003;
2.413333333333334E+009;1.722932457923889E-001;-4.416686668992043E-002;3.365478245541453E-003;9.746555006131530E-004;
2.413500000000000E+009;1.730933487415314E-001;-4.555052146315575E-002;3.373250598087907E-003;9.462700108997524E-004;
2.413666666666667E+009;1.736774742603302E-001;-4.685971885919571E-002;3.433439414948225E-003;8.312806603498757E-004;
2.413833333333334E+009;1.742560714483261E-001;-4.819114878773689E-002;3.390863770619035E-003;7.259601843543351E-004;
2.414000000000000E+009;1.746088713407517E-001;-4.915141686797142E-002;3.457144601270556E-003;7.368048536591232E-004;
2.414166666666667E+009;1.754179745912552E-001;-5.047670006752014E-002;3.464204026386142E-003;5.724226939491928E-004;
2.414333333333334E+009;1.759620606899262E-001;-5.134653672575951E-002;3.504647407680750E-003;5.620563752017915E-004;
2.414500000000000E+009;1.765824556350708E-001;-5.226695537567139E-002;3.712702542543411E-003;4.729558131657541E-004;
2.414666666666667E+009;1.770125776529312E-001;-5.287863314151764E-002;3.689776407554746E-003;4.018189792986959E-004;
2.414833333333334E+009;1.773388236761093E-001;-5.380921810865402E-002;3.644681069999933E-003;2.004500420298427E-004;
2.415000000000000E+009;1.775835156440735E-001;-5.449417605996132E-002;3.831450128927827E-003;1.417524763382971E-004;
2.415166666666667E+009;1.779478341341019E-001;-5.501503124833107E-002;3.696236759424210E-003;1.528015127405524E-004;
2.415333333333334E+009;1.784002035856247E-001;-5.560274049639702E-002;3.717978717759252E-003;-7.546149572590366E-005;
2.415500000000000E+009;1.784337908029556E-001;-5.600447207689285E-002;3.602954093366861E-003;-3.072255931328982E-004;
2.415666666666667E+009;1.784666925668716E-001;-5.642169713973999E-002;3.850445616990328E-003;-4.071575531270355E-004;
2.415833333333334E+009;1.784801781177521E-001;-5.684246867895126E-002;3.835398005321622E-003;-5.562836886383593E-004;
2.416000000000000E+009;1.784024685621262E-001;-5.725168436765671E-002;3.836056217551231E-003;-6.621973006986082E-004;
2.416166666666667E+009;1.783965826034546E-001;-5.754896998405457E-002;3.739311359822750E-003;-6.873484817333520E-004;
2.416333333333334E+009;1.781322360038757E-001;-5.778901651501656E-002;3.727782983332872E-003;-7.611841429024935E-004;
2.416500000000000E+009;1.777749210596085E-001;-5.799793824553490E-002;3.679278539493680E-003;-1.133193494752049E-003;
2.416666666666667E+009;1.773218065500259E-001;-5.829578638076782E-002;3.690409474074841E-003;-1.064058626070619E-003;
2.416833333333334E+009;1.769604682922363E-001;-5.863251164555550E-002;3.580926219001412E-003;-1.180676743388176E-003;
2.417000000000000E+009;1.761244535446167E-001;-5.880639329552651E-002;3.617671318352222E-003;-1.242272206582129E-003;
2.417166666666667E+009;1.754904389381409E-001;-5.908511951565743E-002;3.586138598620892E-003;-1.284131081774831E-003;
2.417333333333334E+009;1.747770607471466E-001;-5.929264053702354E-002;3.462366992607713E-003;-1.415090751834214E-003;
2.417500000000000E+009;1.738416254520416E-001;-5.978502333164215E-002;3.457549726590514E-003;-1.716814469546080E-003;
2.417666666666667E+009;1.730847954750061E-001;-6.002875417470932E-002;3.337676869705319E-003;-1.776403398253024E-003;
2.417833333333334E+009;1.719685047864914E-001;-6.036500260233879E-002;3.293237881734967E-003;-1.887081889435649E-003;
2.418000000000000E+009;1.708555519580841E-001;-6.092167645692825E-002;3.230885369703174E-003;-1.897684880532324E-003;
2.418166666666667E+009;1.697401404380798E-001;-6.136499717831612E-002;3.121962770819664E-003;-2.045213943347335E-003;
2.418333333333334E+009;1.688383519649506E-001;-6.200145184993744E-002;3.028966020792723E-003;-2.110148547217250E-003;
2.418500000000000E+009;1.675585508346558E-001;-6.250383704900742E-002;3.006710903719068E-003;-2.169539220631123E-003;
2.418666666666667E+009;1.664910614490509E-001;-6.337323784828186E-002;2.993288915604353E-003;-2.248302800580859E-003;
2.418833333333334E+009;1.651253700256348E-001;-6.405226886272430E-002;2.867845352739096E-003;-2.256253967061639E-003;
2.419000000000000E+009;1.638678163290024E-001;-6.479675322771072E-002;2.643262734636664E-003;-2.521700691431761E-003;
2.419166666666667E+009;1.626655459403992E-001;-6.582605093717575E-002;2.703486476093531E-003;-2.571069169789553E-003;
2.419333333333334E+009;1.613238006830216E-001;-6.665614247322083E-002;2.639565384015441E-003;-2.542466623708606E-003;
2.419500000000000E+009;1.602811217308044E-001;-6.764332205057144E-002;2.340572653338313E-003;-2.651024609804153E-003;
2.419666666666667E+009;1.592478156089783E-001;-6.886491924524307E-002;2.480533206835389E-003;-2.538551343604922E-003;
2.419833333333334E+009;1.579236090183258E-001;-6.991107761859894E-002;2.227396704256535E-003;-2.681847196072340E-003;
2.420000000000000E+009;1.569863706827164E-001;-7.122214138507843E-002;2.189119812101126E-003;-2.913810312747955E-003;
2.420166666666667E+009;1.558443307876587E-001;-7.254624366760254E-002;2.002164954319596E-003;-2.860208973288536E-003;
2.420333333333334E+009;1.549584567546845E-001;-7.383633404970169E-002;2.001118380576372E-003;-2.767074387520552E-003;
2.420500000000000E+009;1.540931016206741E-001;-7.528043538331986E-002;1.911596045829356E-003;-2.892675343900919E-003;
2.420666666666667E+009;1.532058417797089E-001;-7.671822607517242E-002;1.812270609661937E-003;-3.032578853890300E-003;
2.420833333333334E+009;1.524798870086670E-001;-7.819567620754242E-002;1.785945147275925E-003;-2.847998635843396E-003;
2.421000000000000E+009;1.516648530960083E-001;-7.985439896583557E-002;1.636158092878759E-003;-2.937756944447756E-003;
2.421166666666667E+009;1.512682586908341E-001;-8.130059391260147E-002;1.631310908123851E-003;-3.040595678612590E-003;
2.421333333333334E+009;1.508268564939499E-001;-8.290476351976395E-002;1.561612007208169E-003;-3.002005396410823E-003;
2.421500000000000E+009;1.502262055873871E-001;-8.453815430402756E-002;1.405949704349041E-003;-2.936872420832515E-003;
2.421666666666667E+009;1.499957293272018E-001;-8.627239614725113E-002;1.411368022672832E-003;-2.914851764217019E-003;
2.421833333333334E+009;1.498704403638840E-001;-8.780343085527420E-002;1.365463249385357E-003;-3.159893210977316E-003;
2.422000000000000E+009;1.495401263237000E-001;-8.955013751983643E-002;1.083980547264218E-003;-3.143015550449491E-003;
2.422166666666667E+009;1.495145261287689E-001;-9.136243909597397E-002;1.188957015983760E-003;-3.075627610087395E-003;
2.422333333333334E+009;1.495535075664520E-001;-9.268852323293686E-002;9.993148269131780E-004;-3.212530165910721E-003;
2.422500000000000E+009;1.496329903602600E-001;-9.442784637212753E-002;8.120051934383810E-004;-3.170321229845285E-003;
2.422666666666667E+009;1.495809704065323E-001;-9.592132270336151E-002;7.878707838244736E-004;-3.140454646199942E-003;
2.422833333333334E+009;1.499739438295364E-001;-9.758459031581879E-002;7.702013244852424E-004;-3.208203939720988E-003;
2.423000000000000E+009;1.502387076616287E-001;-9.901916235685349E-002;7.466596434824169E-004;-3.339683869853616E-003;
2.423166666666667E+009;1.506888866424561E-001;-1.006383001804352E-001;5.805750843137503E-004;-3.070949343964458E-003;
2.423333333333334E+009;1.511713415384293E-001;-1.018044427037239E-001;4.290543729439378E-004;-3.396556712687016E-003;
2.423500000000000E+009;1.515197008848190E-001;-1.031655073165894E-001;2.897256053984165E-004;-3.310200991109014E-003;
2.423666666666667E+009;1.517813205718994E-001;-1.047473475337029E-001;2.163778408430517E-004;-3.361196955665946E-003;
2.423833333333334E+009;1.525106430053711E-001;-1.058803349733353E-001;1.410875120200217E-004;-3.346911165863276E-003;
2.424000000000000E+009;1.528414785861969E-001;-1.069759503006935E-001;2.356261393288150E-004;-3.162122098729014E-003;
2.424166666666667E+009;1.533027142286301E-001;-1.081123128533363E-001;-5.088804755359888E-005;-3.344266442582011E-003;
2.424333333333334E+009;1.538719683885574E-001;-1.091194972395897E-001;-1.463872176827863E-004;-3.241110127419233E-003;
2.424500000000000E+009;1.545072793960571E-001;-1.101147010922432E-001;-2.770965802483261E-004;-3.086006268858910E-003;
2.424666666666667E+009;1.550212353467941E-001;-1.107623353600502E-001;-3.452950913924724E-004;-3.097702283412218E-003;
2.424833333333334E+009;1.553500145673752E-001;-1.115637198090553E-001;-5.629473598673940E-004;-3.201833460479975E-003;
2.425000000000000E+009;1.557773500680924E-001;-1.123893633484840E-001;-6.014372920617461E-004;-3.091373713687062E-003;
2.425166666666667E+009;1.560487151145935E-001;-1.130747422575951E-001;-5.204755580052733E-004;-3.004704136401415E-003;
2.425333333333334E+009;1.563963592052460E-001;-1.136991456151009E-001;-7.473762962035835E-004;-2.959735225886107E-003;
2.425500000000000E+009;1.567492187023163E-001;-1.141956001520157E-001;-6.703634862788022E-004;-2.839520806446672E-003;
2.425666666666667E+009;1.566731333732605E-001;-1.146692931652069E-001;-8.398843929171562E-004;-2.847546711564064E-003;
2.425833333333334E+009;1.568042337894440E-001;-1.148978322744370E-001;-9.261657251045108E-004;-2.756146015599370E-003;
2.426000000000000E+009;1.569033712148666E-001;-1.154117509722710E-001;-9.907770436257124E-004;-2.821040805429220E-003;
2.426166666666667E+009;1.570541411638260E-001;-1.157857552170754E-001;-1.084118150174618E-003;-2.607684116810560E-003;
2.426333333333334E+009;1.568031162023544E-001;-1.159135475754738E-001;-1.112141530029476E-003;-2.650165697559714E-003;
2.426500000000000E+009;1.566716134548187E-001;-1.161090508103371E-001;-1.146403257735074E-003;-2.636229386553168E-003;
2.426666666666667E+009;1.565184146165848E-001;-1.162023842334747E-001;-1.172458520159125E-003;-2.487575635313988E-003;
2.426833333333334E+009;1.560918986797333E-001;-1.165092214941979E-001;-1.129857497289777E-003;-2.445139456540346E-003;
2.427000000000000E+009;1.555815041065216E-001;-1.166714802384377E-001;-1.305638928897679E-003;-2.466331701725721E-003;
2.427166666666667E+009;1.549420803785324E-001;-1.167594566941261E-001;-1.296139322221279E-003;-2.334318356588483E-003;
2.427333333333334E+009;1.542573273181915E-001;-1.169093847274780E-001;-1.268192892894149E-003;-2.176850335672498E-003;
2.427500000000000E+009;1.535861045122147E-001;-1.170742437243462E-001;-1.489285845309496E-003;-2.288859570398927E-003;
2.427666666666667E+009;1.528333276510239E-001;-1.173048764467239E-001;-1.386069576255977E-003;-2.208556281402707E-003;
2.427833333333334E+009;1.517781615257263E-001;-1.174564808607101E-001;-1.427425537258387E-003;-2.108737360686064E-003;
