# Version 1.00
#
freq[Hz];re:Trc1_S11;im:Trc1_S11;re:Trc2_S21;im:Trc2_S21;
2.400000000000000E+009;1.562939286231995E-001;5.995597317814827E-002;-3.601090284064412E-003;2.526208059862256E-003;
2.400166666666667E+009;1.565449535846710E-001;5.817822366952896E-002;-3.430766286328435E-003;2.523954957723618E-003;
2.400333333333334E+009;1.565715670585632E-001;5.614842474460602E-002;-3.411633661016822E-003;2.700878540053964E-003;
2.400500000000000E+009;1.569895893335342E-001;5.404616519808769E-002;-3.331406973302364E-003;2.578901126980782E-003;
2.400666666666667E+009;1.570866405963898E-001;5.196193605661392E-002;-3.134257392957807E-003;2.591230208054185E-003;
2.400833333333334E+009;1.575073599815369E-001;5.013255402445793E-002;-3.240286372601986E-003;2.816119696944952E-003;
2.401000000000000E+009;1.578628271818161E-001;4.792568832635880E-002;-3.125587245449424E-003;2.941041020676494E-003;
2.401166666666667E+009;1.583656519651413E-001;4.591922461986542E-002;-3.109071636572480E-003;2.917368430644274E-003;
2.401333333333334E+009;1.586843729019165E-001;4.395473748445511E-002;-2.997738076373935E-003;2.789464546367526E-003;
2.401500000000000E+009;1.594161838293076E-001;4.206360131502152E-002;-3.060566261410713E-003;3.070375882089138E-003;
2.401666666666667E+009;1.599881350994110E-001;4.020071774721146E-002;-3.089142730459571E-003;2.999716205522418E-003;
2.401833333333334E+009;1.605364829301834E-001;3.815028443932533E-002;-2.950140275061131E-003;3.181197680532932E-003;
2.402000000000000E+009;1.610717922449112E-001;3.651684522628784E-002;-2.874791389331222E-003;3.190691350027919E-003;
2.402166666666667E+009;1.618766784667969E-001;3.453622758388519E-002;-2.825912088155747E-003;3.401528345420957E-003;
2.402333333333334E+009;1.627087444067001E-001;3.287007659673691E-002;-2.672934904694557E-003;3.314767964184284E-003;
2.402500000000000E+009;1.636563986539841E-001;3.131609410047531E-002;-2.676329575479031E-003;3.547735046595335E-003;
2.402666666666667E+009;1.642949283123016E-001;2.986311912536621E-002;-2.739554736763239E-003;3.555235220119357E-003;
2.402833333333334E+009;1.652020812034607E-001;2.827668190002441E-002;-2.479209098964930E-003;3.874783404171467E-003;
2.403000000000000E+009;1.661706268787384E-001;2.691340446472168E-002;-2.468755934387445E-003;3.899333998560906E-003;
2.403166666666667E+009;1.671866774559021E-001;2.549337968230248E-002;-2.489321399480104E-003;3.976636100560427E-003;
2.403333333333334E+009;1.681963652372360E-001;2.441491931676865E-002;-2.238773507997394E-003;4.135150928050280E-003;
2.403500000000000E+009;1.690574586391449E-001;2.327219769358635E-002;-2.233287319540978E-003;4.255226347595453E-003;
2.403666666666667E+009;1.700760275125504E-001;2.191237732768059E-002;-2.072627656161785E-003;4.181014839559794E-003;
2.403833333333334E+009;1.712667495012283E-001;2.101954072713852E-002;-1.938311499543488E-003;4.289838019758463E-003;
2.404000000000000E+009;1.719620972871780E-001;2.020752802491188E-002;-1.828438253141940E-003;4.625029861927033E-003;
2.404166666666667E+009;1.727345734834671E-001;1.918678544461727E-002;-1.671451143920422E-003;4.700684454292059E-003;
2.404333333333334E+009;1.735500097274780E-001;1.856510527431965E-002;-1.291515538468957E-003;4.832768812775612E-003;
2.404500000000000E+009;1.744070649147034E-001;1.770436950027943E-002;-1.200091326609254E-003;4.822134971618652E-003;
2.404666666666667E+009;1.751969158649445E-001;1.704700849950314E-002;-9.599098120816052E-004;4.928948357701302E-003;
2.404833333333334E+009;1.758892536163330E-001;1.633817888796330E-002;-9.228335111401975E-004;5.110841710120440E-003;
2.405000000000000E+009;1.765425801277161E-001;1.587373763322830E-002;-7.550692535005510E-004;4.998530726879835E-003;
2.405166666666667E+009;1.771831661462784E-001;1.550369895994663E-002;-4.234673397149891E-004;5.130399949848652E-003;
2.405333333333334E+009;1.778041422367096E-001;1.490498986095190E-002;-2.645738131832331E-004;5.096886772662401E-003;
2.405500000000000E+009;1.783021390438080E-001;1.463908422738314E-002;-1.047776459017769E-004;5.193365272134543E-003;
2.405666666666667E+009;1.786946058273315E-001;1.425973325967789E-002;2.848323310900014E-005;4.992870148271322E-003;
2.405833333333334E+009;1.789107471704483E-001;1.415950804948807E-002;3.691476304084063E-004;5.117482505738735E-003;
2.406000000000000E+009;1.793907880783081E-001;1.358760055154562E-002;5.875507486052811E-004;5.176868289709091E-003;
2.406166666666667E+009;1.793712526559830E-001;1.331905182451010E-002;9.035439579747617E-004;5.095396656543016E-003;
2.406333333333334E+009;1.796127408742905E-001;1.294016093015671E-002;9.653262677602470E-004;5.178110208362341E-003;
2.406500000000000E+009;1.796824336051941E-001;1.258947327733040E-002;1.172895776107907E-003;5.134748294949532E-003;
2.406666666666667E+009;1.793953627347946E-001;1.232156902551651E-002;1.487886765971780E-003;4.964336752891541E-003;
2.406833333333334E+009;1.793427765369415E-001;1.188676897436380E-002;1.543240388855338E-003;5.054645705968142E-003;
2.407000000000000E+009;1.793040931224823E-001;1.151884440332651E-002;1.934961997903884E-003;4.716437775641680E-003;
2.407166666666667E+009;1.790568977594376E-001;1.108992379158735E-002;1.873464672826231E-003;4.553616046905518E-003;
2.407333333333334E+009;1.786129027605057E-001;1.042228564620018E-002;2.231227699667215E-003;4.517529625445604E-003;
2.407500000000000E+009;1.783327460289002E-001;9.874608367681503E-003;2.495944034308195E-003;4.358510486781597E-003;
2.407666666666667E+009;1.778088361024857E-001;9.281225502490997E-003;2.607857808470726E-003;4.082312341779470E-003;
2.407833333333334E+009;1.772405505180359E-001;8.393636904656887E-003;2.603418193757534E-003;4.006691277027130E-003;
2.408000000000000E+009;1.768070310354233E-001;7.567364256829023E-003;2.868653507903218E-003;3.982821479439735E-003;
2.408166666666667E+009;1.762743890285492E-001;6.926496513187885E-003;2.756094560027123E-003;3.732349025085568E-003;
2.408333333333334E+009;1.757491827011108E-001;5.873307585716248E-003;2.978873206302524E-003;3.627703757956624E-003;
2.408500000000000E+009;1.750208586454392E-001;4.873677156865597E-003;2.959906822070479E-003;3.487851703539491E-003;
2.408666666666667E+009;1.743569970130920E-001;3.656791290268302E-003;3.021810436621308E-003;3.280736040323973E-003;
2.408833333333334E+009;1.736072152853012E-001;2.471371786668897E-003;3.190951654687524E-003;3.151889657601714E-003;
2.409000000000000E+009;1.729336977005005E-001;1.163417357020080E-003;3.105245297774673E-003;2.962385537102819E-003;
2.409166666666667E+009;1.722932755947113E-001;-3.227927954867482E-004;3.139061620458961E-003;2.865706570446491E-003;
2.409333333333334E+009;1.717482805252075E-001;-1.725641894154251E-003;2.972709247842431E-003;2.614577068015933E-003;
2.409500000000000E+009;1.710764318704605E-001;-3.240297781303525E-003;3.095418214797974E-003;2.598213963210583E-003;
2.409666666666667E+009;1.706530600786209E-001;-4.802667535841465E-003;3.256649244576693E-003;2.467675134539604E-003;
2.409833333333334E+009;1.699564456939697E-001;-6.401807535439730E-003;3.156183520331979E-003;2.370798494666815E-003;
2.410000000000000E+009;1.696828901767731E-001;-8.107640780508518E-003;3.083316609263420E-003;2.195378532633185E-003;
2.410166666666667E+009;1.691660583019257E-001;-9.951650165021420E-003;3.199915401637554E-003;2.063781954348087E-003;
2.410333333333334E+009;1.685097813606262E-001;-1.162433717399836E-002;3.018300980329514E-003;2.212698571383953E-003;
2.410500000000000E+009;1.684353947639465E-001;-1.344476267695427E-002;3.183107823133469E-003;1.860257587395608E-003;
2.410666666666667E+009;1.680821627378464E-001;-1.559359952807427E-002;3.247260116040707E-003;1.786993234418333E-003;
2.410833333333334E+009;1.678278148174286E-001;-1.723071373999119E-002;2.984590828418732E-003;1.678440603427589E-003;
2.411000000000000E+009;1.677923500537872E-001;-1.925617828965187E-002;3.030151594430208E-003;1.784242689609528E-003;
2.411166666666667E+009;1.675672978162766E-001;-2.106913924217224E-002;3.074297914281488E-003;1.689311466179788E-003;
2.411333333333334E+009;1.675689220428467E-001;-2.302561514079571E-002;2.965371822938323E-003;1.630935585126281E-003;
2.411500000000000E+009;1.677025556564331E-001;-2.519844286143780E-002;2.990399021655321E-003;1.618373440578580E-003;
2.411666666666667E+009;1.679277867078781E-001;-2.692331187427044E-002;3.174086101353169E-003;1.452640164643526E-003;
2.411833333333334E+009;1.681707203388214E-001;-2.871752344071865E-002;3.031715285032988E-003;1.355243031866849E-003;
2.412000000000000E+009;1.684721857309341E-001;-3.067695349454880E-002;3.099243389442563E-003;1.444042427465320E-003;
2.412166666666667E+009;1.687760800123215E-001;-3.266508504748344E-002;3.209881251677871E-003;1.441309577785432E-003;
2.412333333333334E+009;1.692640781402588E-001;-3.432249650359154E-002;3.302244003862143E-003;1.323261181823909E-003;
2.412500000000000E+009;1.695784181356430E-001;-3.585890308022499E-002;3.148003946989775E-003;1.329125370830298E-003;
2.412666666666667E+009;1.701052933931351E-001;-3.792074322700501E-002;3.175318241119385E-003;1.213533105328679E-003;
2.412833333333334E+009;1.707020103931427E-001;-3.960127010941505E-002;3.312434535473585E-003;1.146653434261680E-003;
2.413000000000000E+009;1.713783293962479E-001;-4.118046909570694E-002;3.433537669479847E-003;1.184086780995131E-003;
2.413166666666667E+009;1.719534099102020E-001;-4.258266091346741E-002;3.467164700850844E-003;9.870147332549095E-004;
2.413333333333334E+009;1.724279820919037E-001;-4.423812031745911E-002;3.525150939822197E-003;1.140695181675255E-003;
2.413500000000000E+009;1.731155514717102E-001;-4.567488655447960E-002;3.470498835667968E-003;9.672959567978978E-004;
2.413666666666667E+009;1.737920194864273E-001;-4.690450057387352E-002;3.514143871143460E-003;8.423184044659138E-004;
2.413833333333334E+009;1.742376387119293E-001;-4.819336161017418E-002;3.483950858935714E-003;8.551341015845537E-004;
2.414000000000000E+009;1.747434139251709E-001;-4.940652474761009E-002;3.690015291795135E-003;7.117101340554655E-004;
2.414166666666667E+009;1.754963845014572E-001;-5.026927217841148E-002;3.488958347588778E-003;4.742427263408899E-004;
2.414333333333334E+009;1.759199947118759E-001;-5.138681456446648E-002;3.647480858489871E-003;3.797470417339355E-004;
2.414500000000000E+009;1.766440123319626E-001;-5.240273475646973E-002;3.803479019552469E-003;2.039796090684831E-004;
2.414666666666667E+009;1.769064217805862E-001;-5.309680849313736E-002;3.812860930338502E-003;2.650274545885623E-004;
2.414833333333334E+009;1.772522181272507E-001;-5.398752167820931E-002;3.814326133579016E-003;1.327976788161323E-004;
2.415000000000000E+009;1.776032596826553E-001;-5.450672283768654E-002;3.968159202486277E-003;-5.875228089280427E-005;
2.415166666666667E+009;1.780230253934860E-001;-5.527640134096146E-002;3.762792795896530E-003;-8.881220128387213E-005;
2.415333333333334E+009;1.783023327589035E-001;-5.581462383270264E-002;3.930397331714630E-003;-1.696972321951762E-004;
2.415500000000000E+009;1.784482002258301E-001;-5.619019642472267E-002;3.683775896206498E-003;-3.236231277696788E-004;
2.415666666666667E+009;1.784668862819672E-001;-5.650661885738373E-002;3.806434571743012E-003;-4.464703670237213E-004;
2.415833333333334E+009;1.785619407892227E-001;-5.702315270900726E-002;3.769778413698077E-003;-5.404474795795977E-004;
2.416000000000000E+009;1.782534718513489E-001;-5.724944546818733E-002;3.741040593013167E-003;-7.511937292292714E-004;
2.416166666666667E+009;1.783114820718765E-001;-5.754325538873673E-002;3.771887160837650E-003;-7.649683975614607E-004;
2.416333333333334E+009;1.780392974615097E-001;-5.775820836424828E-002;3.624701173976064E-003;-8.739564218558371E-004;
2.416500000000000E+009;1.778064966201782E-001;-5.807046219706535E-002;3.663869341835380E-003;-1.028880360536277E-003;
2.416666666666667E+009;1.771825850009918E-001;-5.824607238173485E-002;3.665020456537604E-003;-1.081757596693933E-003;
2.416833333333334E+009;1.767918765544891E-001;-5.863116309046745E-002;3.519610501825810E-003;-1.243611332029104E-003;
2.417000000000000E+009;1.760955601930618E-001;-5.892919376492500E-002;3.597141476348043E-003;-1.402440248057246E-003;
2.417166666666667E+009;1.754383295774460E-001;-5.912392958998680E-002;3.463731845840812E-003;-1.415261183865368E-003;
2.417333333333334E+009;1.746539026498795E-001;-5.929021537303925E-002;3.481865162029862E-003;-1.494614058174193E-003;
2.417500000000000E+009;1.738414317369461E-001;-5.978380888700485E-002;3.530856221914291E-003;-1.659825327806175E-003;
2.417666666666667E+009;1.730976998806000E-001;-5.993444845080376E-002;3.397641004994512E-003;-1.723101246170700E-003;
2.417833333333334E+009;1.720061004161835E-001;-6.037583947181702E-002;3.261164296418428E-003;-1.814479124732316E-003;
2.418000000000000E+009;1.708852052688599E-001;-6.093370914459229E-002;3.333654720336199E-003;-1.957921078428626E-003;
2.418166666666667E+009;1.697962582111359E-001;-6.132141500711441E-002;3.242984414100647E-003;-1.991759985685349E-003;
2.418333333333334E+009;1.688523292541504E-001;-6.194553151726723E-002;3.099184716120362E-003;-2.143045887351036E-003;
2.418500000000000E+009;1.675420105457306E-001;-6.244961172342300E-002;3.029941115528345E-003;-2.167826984077692E-003;
2.418666666666667E+009;1.664381176233292E-001;-6.327133625745773E-002;2.945901127532125E-003;-2.368372865021229E-003;
2.418833333333334E+009;1.650309413671494E-001;-6.403891742229462E-002;2.780179260298610E-003;-2.303742105141282E-003;
2.419000000000000E+009;1.637816280126572E-001;-6.469752639532089E-002;2.834841376170516E-003;-2.369931666180491E-003;
2.419166666666667E+009;1.626015007495880E-001;-6.569113582372665E-002;2.709071151912212E-003;-2.615764737129211E-003;
2.419333333333334E+009;1.612461805343628E-001;-6.644240021705627E-002;2.728873630985618E-003;-2.595334313809872E-003;
2.419500000000000E+009;1.601205468177795E-001;-6.769862771034241E-002;2.550160745158792E-003;-2.635384909808636E-003;
2.419666666666667E+009;1.591743975877762E-001;-6.895320117473602E-002;2.438991563394666E-003;-2.554446924477816E-003;
2.419833333333334E+009;1.578032076358795E-001;-6.995063275098801E-002;2.287974348291755E-003;-2.769873477518559E-003;
2.420000000000000E+009;1.570813953876495E-001;-7.112526893615723E-002;2.152696717530489E-003;-2.795284613966942E-003;
2.420166666666667E+009;1.557578444480896E-001;-7.251247018575668E-002;2.066444838419557E-003;-2.867645351216197E-003;
2.420333333333334E+009;1.548921018838882E-001;-7.384531199932098E-002;2.034192904829979E-003;-2.830188721418381E-003;
2.420500000000000E+009;1.540504544973373E-001;-7.503900676965714E-002;1.990387216210365E-003;-2.937715500593185E-003;
2.420666666666667E+009;1.531641781330109E-001;-7.663536816835403E-002;1.856306917034090E-003;-2.955176169052720E-003;
2.420833333333334E+009;1.524608284235001E-001;-7.818221300840378E-002;1.886033103801310E-003;-3.049274673685432E-003;
2.421000000000000E+009;1.516072601079941E-001;-7.971888035535812E-002;1.669652760028839E-003;-3.285005688667297E-003;
2.421166666666667E+009;1.512300968170166E-001;-8.130782842636108E-002;1.646374585106969E-003;-3.115568542852998E-003;
2.421333333333334E+009;1.508442908525467E-001;-8.310173451900482E-002;1.624405384063721E-003;-3.116478445008397E-003;
2.421500000000000E+009;1.502744406461716E-001;-8.455993980169296E-002;1.351766055449843E-003;-3.082329872995615E-003;
2.421666666666667E+009;1.499611735343933E-001;-8.614945411682129E-002;1.364574534818530E-003;-3.061705967411399E-003;
2.421833333333334E+009;1.498533487319946E-001;-8.764708787202835E-002;1.223978935740888E-003;-3.100030357018113E-003;
2.422000000000000E+009;1.496281921863556E-001;-8.956204354763031E-002;1.280297175981104E-003;-3.199822269380093E-003;
2.422166666666667E+009;1.495404690504074E-001;-9.115464240312576E-002;1.159487175755203E-003;-3.201897721737623E-003;
2.422333333333334E+009;1.495838165283203E-001;-9.276115149259567E-002;9.891344234347343E-004;-3.205728717148304E-003;
2.422500000000000E+009;1.496606916189194E-001;-9.430819004774094E-002;8.317094179801643E-004;-3.273409791290760E-003;
2.422666666666667E+009;1.497013866901398E-001;-9.607111662626267E-002;7.880608318373561E-004;-3.220811020582914E-003;
2.422833333333334E+009;1.499752849340439E-001;-9.747925400733948E-002;7.346604252234101E-004;-3.315877169370651E-003;
2.423000000000000E+009;1.501290053129196E-001;-9.898832440376282E-002;6.299276719801128E-004;-3.253291593864560E-003;
2.423166666666667E+009;1.507373601198196E-001;-1.004899889230728E-001;6.590209086425602E-004;-3.299322444945574E-003;
2.423333333333334E+009;1.511198878288269E-001;-1.018361747264862E-001;4.272069490980357E-004;-3.266906132921577E-003;
2.423500000000000E+009;1.515514850616455E-001;-1.032886579632759E-001;4.208091413602233E-004;-3.253172850236297E-003;
2.423666666666667E+009;1.518430262804031E-001;-1.046444922685623E-001;2.731699787545949E-004;-3.176055150106549E-003;
2.423833333333334E+009;1.524744331836700E-001;-1.057596802711487E-001;9.099597082240507E-005;-3.289780346676707E-003;
2.424000000000000E+009;1.527806371450424E-001;-1.067882925271988E-001;7.999369699973613E-006;-3.415311453863978E-003;
2.424166666666667E+009;1.534006744623184E-001;-1.079706922173500E-001;-1.071662918548100E-004;-3.331510815769434E-003;
2.424333333333334E+009;1.538536995649338E-001;-1.089740768074989E-001;-1.506777189206332E-004;-3.105979878455401E-003;
2.424500000000000E+009;1.545175909996033E-001;-1.099967136979103E-001;-4.058517224621028E-004;-3.316717455163598E-003;
2.424666666666667E+009;1.549592018127441E-001;-1.107224076986313E-001;-3.131554694846273E-004;-3.277158364653587E-003;
2.424833333333334E+009;1.552347689867020E-001;-1.116756275296211E-001;-5.640455055981875E-004;-3.184103639796376E-003;
2.425000000000000E+009;1.557823717594147E-001;-1.123866662383080E-001;-5.755167221650481E-004;-3.026313614100218E-003;
2.425166666666667E+009;1.560335159301758E-001;-1.130026951432228E-001;-8.006012649275363E-004;-3.054033033549786E-003;
2.425333333333334E+009;1.563439816236496E-001;-1.135660484433174E-001;-7.180797401815653E-004;-3.055512439459562E-003;
2.425500000000000E+009;1.567000746726990E-001;-1.141686961054802E-001;-8.435906493104994E-004;-2.852328587323427E-003;
2.425666666666667E+009;1.567704081535339E-001;-1.145653203129768E-001;-9.187712566927075E-004;-2.832186175510287E-003;
2.425833333333334E+009;1.569538414478302E-001;-1.149846836924553E-001;-8.413190371356905E-004;-2.707869047299027E-003;
2.426000000000000E+009;1.569136381149292E-001;-1.154223233461380E-001;-1.002486445941031E-003;-2.717196475714445E-003;
2.426166666666667E+009;1.570351421833038E-001;-1.157011315226555E-001;-1.193328876979649E-003;-2.487638965249062E-003;
2.426333333333334E+009;1.569356620311737E-001;-1.159247234463692E-001;-1.056729117408395E-003;-2.781565766781569E-003;
2.426500000000000E+009;1.565638184547424E-001;-1.161391288042069E-001;-1.253677532076836E-003;-2.549240132793784E-003;
2.426666666666667E+009;1.565442383289337E-001;-1.161717250943184E-001;-1.329528400674462E-003;-2.336093923076987E-003;
2.426833333333334E+009;1.560289710760117E-001;-1.164937615394592E-001;-1.200857572257519E-003;-2.516969107091427E-003;
2.427000000000000E+009;1.555401384830475E-001;-1.167175993323326E-001;-1.429506926797330E-003;-2.427521394565702E-003;
2.427166666666667E+009;1.550265252590179E-001;-1.167185753583908E-001;-1.287152292206883E-003;-2.225666074082255E-003;
2.427333333333334E+009;1.542370170354843E-001;-1.169115826487541E-001;-1.319021917879582E-003;-2.372317016124725E-003;
2.427500000000000E+009;1.535616964101791E-001;-1.170644909143448E-001;-1.285865902900696E-003;-2.195567591115832E-003;
2.427666666666667E+009;1.526566296815872E-001;-1.172418668866158E-001;-1.416066428646445E-003;-2.130269305780530E-003;
2.427833333333334E+009;1.517255753278732E-001;-1.173864975571632E-001;-1.338065834715962E-003;-2.189741469919682E-003;
