# Version 1.00
#
freq[Hz];re:Trc1_S11;im:Trc1_S11;re:Trc2_S21;im:Trc2_S21;
2.400000000000000E+009;1.518906205892563E-001;1.173937767744064E-001;4.879321204498410E-004;9.134541614912450E-004;
2.400166666666667E+009;1.515136808156967E-001;1.151782423257828E-001;6.922776810824871E-004;9.157331660389900E-004;
2.400333333333334E+009;1.512507796287537E-001;1.129242926836014E-001;9.135125437751412E-004;7.018179167062044E-004;
2.400500000000000E+009;1.511203646659851E-001;1.102860718965530E-001;9.483587928116322E-004;5.731126875616610E-004;
2.400666666666667E+009;1.509175896644592E-001;1.078915670514107E-001;1.039740047417581E-003;4.004809889011085E-004;
2.400833333333334E+009;1.508561670780182E-001;1.049888804554939E-001;9.899899596348405E-004;3.698855289258063E-004;
2.401000000000000E+009;1.508715897798538E-001;1.021596640348434E-001;1.018874696455896E-003;9.749804303282872E-005;
2.401166666666667E+009;1.505955755710602E-001;9.929139167070389E-002;1.057608169503510E-003;-1.455788151361048E-004;
2.401333333333334E+009;1.507679820060730E-001;9.632426500320435E-002;9.774198988452554E-004;-3.835632232949138E-004;
2.401500000000000E+009;1.511642634868622E-001;9.351446479558945E-002;1.036262605339289E-003;-3.698310465551913E-004;
2.401666666666667E+009;1.513307392597199E-001;9.040588140487671E-002;1.089164172299206E-003;-4.606231232173741E-004;
2.401833333333334E+009;1.517755091190338E-001;8.757439255714417E-002;1.025136094540358E-003;-5.494219367392361E-004;
2.402000000000000E+009;1.525126695632935E-001;8.461995422840118E-002;9.381111594848335E-004;-8.353410521522164E-004;
2.402166666666667E+009;1.533049643039703E-001;8.207157999277115E-002;8.761666831560433E-004;-8.773739682510495E-004;
2.402333333333334E+009;1.542028337717056E-001;7.897422462701798E-002;7.615828071720898E-004;-1.013862318359315E-003;
2.402500000000000E+009;1.552752852439880E-001;7.607837766408920E-002;7.481283973902464E-004;-9.448242490179837E-004;
2.402666666666667E+009;1.567001193761826E-001;7.364246994256973E-002;6.818636902607977E-004;-1.056171837262809E-003;
2.402833333333334E+009;1.579004526138306E-001;7.089000940322876E-002;6.346112932078540E-004;-1.171530107967556E-003;
2.403000000000000E+009;1.594541072845459E-001;6.840699911117554E-002;4.110351146664470E-004;-1.144286128692329E-003;
2.403166666666667E+009;1.611914783716202E-001;6.593747437000275E-002;3.171196731273085E-004;-1.223665778525174E-003;
2.403333333333334E+009;1.628989875316620E-001;6.323862075805664E-002;2.650134265422821E-004;-1.323266769759357E-003;
2.403500000000000E+009;1.648008227348328E-001;6.115618348121643E-002;1.387014053761959E-004;-1.429165946319699E-003;
2.403666666666667E+009;1.668196916580200E-001;5.877730622887611E-002;4.746268314193003E-005;-1.396174309775233E-003;
2.403833333333334E+009;1.687991470098496E-001;5.657251924276352E-002;-1.438612962374464E-004;-1.307096332311630E-003;
2.404000000000000E+009;1.705404371023178E-001;5.448699370026588E-002;-2.726683451328427E-004;-1.404667156748474E-003;
2.404166666666667E+009;1.726927012205124E-001;5.278105661273003E-002;-4.842688213102520E-004;-1.416486571542919E-003;
2.404333333333334E+009;1.746110320091248E-001;5.084196850657463E-002;-5.421307287178934E-004;-1.253412803635001E-003;
2.404500000000000E+009;1.764323860406876E-001;4.909445717930794E-002;-6.547528319060803E-004;-1.214267569594085E-003;
2.404666666666667E+009;1.785175502300263E-001;4.790667071938515E-002;-7.646692101843655E-004;-1.316255657002330E-003;
2.404833333333334E+009;1.803567111492157E-001;4.649759083986282E-002;-8.943707798607647E-004;-1.165838679298759E-003;
2.405000000000000E+009;1.821427941322327E-001;4.573723673820496E-002;-8.139909477904439E-004;-1.100294291973114E-003;
2.405166666666667E+009;1.839427053928375E-001;4.479906708002091E-002;-9.083960321731865E-004;-1.096438500098884E-003;
2.405333333333334E+009;1.858101785182953E-001;4.414508491754532E-002;-1.108434284105897E-003;-9.140744805335999E-004;
2.405500000000000E+009;1.875457465648651E-001;4.344412311911583E-002;-1.058380352333188E-003;-9.431142243556678E-004;
2.405666666666667E+009;1.892228275537491E-001;4.298603534698486E-002;-1.178507227450609E-003;-8.351906435564160E-004;
2.405833333333334E+009;1.909262239933014E-001;4.269946366548538E-002;-1.136939041316509E-003;-8.701096521690488E-004;
2.406000000000000E+009;1.923811286687851E-001;4.247483983635902E-002;-1.406715251505375E-003;-7.574063492938876E-004;
2.406166666666667E+009;1.937717050313950E-001;4.228158667683601E-002;-1.611371524631977E-003;-7.015282753854990E-004;
2.406333333333334E+009;1.950302869081497E-001;4.244168102741242E-002;-1.544246566481888E-003;-5.692706909030676E-004;
2.406500000000000E+009;1.961654722690582E-001;4.245777428150177E-002;-1.573215122334659E-003;-5.280630430206657E-004;
2.406666666666667E+009;1.972583234310150E-001;4.246566444635391E-002;-1.752592157572508E-003;-3.136026789434254E-004;
2.406833333333334E+009;1.980435699224472E-001;4.261282831430435E-002;-1.698622247204185E-003;-1.685059687588364E-004;
2.407000000000000E+009;1.986818909645081E-001;4.287661239504814E-002;-1.812463277019560E-003;-1.728234783513472E-004;
2.407166666666667E+009;1.993509978055954E-001;4.288931190967560E-002;-1.843807403929532E-003;-7.121571343304822E-006;
2.407333333333334E+009;1.996043920516968E-001;4.317529499530792E-002;-1.793680246919394E-003;1.636301749385893E-004;
2.407500000000000E+009;1.998625695705414E-001;4.328495264053345E-002;-1.811926136724651E-003;2.370236034039408E-004;
2.407666666666667E+009;2.001339942216873E-001;4.348721727728844E-002;-1.784773194231093E-003;5.777621408924460E-004;
2.407833333333334E+009;1.997950673103333E-001;4.352881759405136E-002;-1.763927051797509E-003;6.426972104236484E-004;
2.408000000000000E+009;1.999889165163040E-001;4.364746809005737E-002;-1.880611525848508E-003;8.039369713515043E-004;
2.408166666666667E+009;1.995264440774918E-001;4.358401149511337E-002;-1.845351769588888E-003;1.051717554219067E-003;
2.408333333333334E+009;1.991950273513794E-001;4.336408525705338E-002;-1.665350282564759E-003;1.275387359783053E-003;
2.408500000000000E+009;1.983912736177445E-001;4.315952211618424E-002;-1.555417547933757E-003;1.328404410742223E-003;
2.408666666666667E+009;1.979783326387405E-001;4.295816645026207E-002;-1.403484609909356E-003;1.415229868143797E-003;
2.408833333333334E+009;1.972826421260834E-001;4.247317835688591E-002;-1.315921079367399E-003;1.482415944337845E-003;
2.409000000000000E+009;1.962479650974274E-001;4.170614108443260E-002;-1.086480799131095E-003;1.787912449799478E-003;
2.409166666666667E+009;1.952575296163559E-001;4.111694917082787E-002;-9.077480062842369E-004;1.721870037727058E-003;
2.409333333333334E+009;1.941169351339340E-001;4.031500220298767E-002;-6.768064922653139E-004;1.812309608794749E-003;
2.409500000000000E+009;1.928716003894806E-001;3.925453871488571E-002;-7.293853559531272E-004;1.958708744496107E-003;
2.409666666666667E+009;1.917047798633575E-001;3.805788978934288E-002;-4.547486023511738E-004;1.891836989670992E-003;
2.409833333333334E+009;1.903256326913834E-001;3.673255071043968E-002;-1.945762196555734E-004;1.894186600111425E-003;
2.410000000000000E+009;1.891633272171021E-001;3.529975563287735E-002;-2.962630787806120E-005;1.921483548358083E-003;
2.410166666666667E+009;1.879855245351791E-001;3.350907936692238E-002;1.174784392787842E-005;1.876189839094877E-003;
2.410333333333334E+009;1.868323832750320E-001;3.203831613063812E-002;1.894185988930985E-004;1.820186967961490E-003;
2.410500000000000E+009;1.855320781469345E-001;3.014327958226204E-002;1.779129379428923E-004;1.729688607156277E-003;
2.410666666666667E+009;1.843229085206986E-001;2.802733331918716E-002;4.066968685947359E-004;1.681169145740569E-003;
2.410833333333334E+009;1.834305077791214E-001;2.583449892699719E-002;5.582873127423227E-004;1.645549782551825E-003;
2.411000000000000E+009;1.822416782379150E-001;2.377586998045445E-002;6.855980609543622E-004;1.509661437012255E-003;
2.411166666666667E+009;1.813226491212845E-001;2.149595879018307E-002;7.348423241637647E-004;1.451562158763409E-003;
2.411333333333334E+009;1.804238855838776E-001;1.902494952082634E-002;8.071335032582283E-004;1.294580521062017E-003;
2.411500000000000E+009;1.798627227544785E-001;1.666063256561756E-002;9.201308130286634E-004;1.202799030579627E-003;
2.411666666666667E+009;1.794687658548355E-001;1.412397436797619E-002;1.058876630850136E-003;1.206065644510090E-003;
2.411833333333334E+009;1.788133233785629E-001;1.161762792617083E-002;9.962919866666198E-004;1.174555742181838E-003;
2.412000000000000E+009;1.787027418613434E-001;8.942342363297939E-003;1.173498108983040E-003;1.185530680231750E-003;
2.412166666666667E+009;1.784407496452332E-001;6.205860525369644E-003;1.212252886034548E-003;8.801504154689610E-004;
2.412333333333334E+009;1.783736348152161E-001;3.659469541162252E-003;1.314595108851790E-003;8.884159615263343E-004;
2.412500000000000E+009;1.786876469850540E-001;1.037437934428453E-003;1.458311337046325E-003;8.430000161752105E-004;
2.412666666666667E+009;1.787411421537399E-001;-1.622641924768686E-003;1.451238174922764E-003;6.268397555686534E-004;
2.412833333333334E+009;1.795079112052918E-001;-4.287606570869684E-003;1.542200217954814E-003;5.062143900431693E-004;
2.413000000000000E+009;1.799649447202683E-001;-7.008748594671488E-003;1.589476945810020E-003;4.354009288363159E-004;
2.413166666666667E+009;1.807408481836319E-001;-9.650765918195248E-003;1.664637355133891E-003;4.191451880615205E-004;
2.413333333333334E+009;1.817771941423416E-001;-1.211613882333040E-002;1.599655486643314E-003;1.986693241633475E-004;
2.413500000000000E+009;1.825554817914963E-001;-1.475671958178282E-002;1.620611408725381E-003;7.026615639915690E-005;
2.413666666666667E+009;1.835476309061050E-001;-1.722535490989685E-002;1.471170340664685E-003;1.893477565317880E-005;
2.413833333333334E+009;1.847336143255234E-001;-1.959308981895447E-002;1.567651052027941E-003;-1.405618822900578E-004;
2.414000000000000E+009;1.857545375823975E-001;-2.178536914288998E-002;1.600366318598390E-003;-2.803918032441288E-004;
2.414166666666667E+009;1.871497333049774E-001;-2.381251938641071E-002;1.455979654565454E-003;-4.129363223910332E-004;
2.414333333333334E+009;1.882442086935043E-001;-2.610667236149311E-002;1.519982819445431E-003;-7.305005565285683E-004;
2.414500000000000E+009;1.897298693656921E-001;-2.782053500413895E-002;1.242484664544463E-003;-8.634799742139876E-004;
2.414666666666667E+009;1.909120380878449E-001;-2.977894246578217E-002;1.254589646123350E-003;-8.563964511267841E-004;
2.414833333333334E+009;1.920781284570694E-001;-3.119968250393868E-002;1.050915685482323E-003;-1.044486649334431E-003;
2.415000000000000E+009;1.933059245347977E-001;-3.282751515507698E-002;1.153445453383029E-003;-1.162783009931445E-003;
2.415166666666667E+009;1.948776394128799E-001;-3.413858264684677E-002;9.949123486876488E-004;-1.145600457675755E-003;
2.415333333333334E+009;1.961368322372437E-001;-3.522669896483421E-002;9.652929147705436E-004;-1.408354029990733E-003;
2.415500000000000E+009;1.975684911012650E-001;-3.627668693661690E-002;8.307658135890961E-004;-1.482937601394951E-003;
2.415666666666667E+009;1.987594366073608E-001;-3.720481321215630E-002;6.392833893187344E-004;-1.509991125203669E-003;
2.415833333333334E+009;1.998250335454941E-001;-3.789765015244484E-002;4.118145443499088E-004;-1.620203256607056E-003;
2.416000000000000E+009;2.008331567049027E-001;-3.875279799103737E-002;2.337760961381719E-004;-1.700509455986321E-003;
2.416166666666667E+009;2.017188966274262E-001;-3.927976265549660E-002;3.072556501138024E-005;-1.575747271999717E-003;
2.416333333333334E+009;2.025995701551437E-001;-3.958941623568535E-002;-1.748835929902270E-004;-1.620153314433992E-003;
2.416500000000000E+009;2.032999992370606E-001;-3.984416648745537E-002;-4.140658129472286E-004;-1.619283109903336E-003;
2.416666666666667E+009;2.037928700447083E-001;-4.011626541614533E-002;-5.856718053109944E-004;-1.539073884487152E-003;
2.416833333333334E+009;2.043057978153229E-001;-4.004685953259468E-002;-8.742948994040489E-004;-1.286741695366800E-003;
2.417000000000000E+009;2.046762108802795E-001;-4.010618105530739E-002;-8.925374131649733E-004;-1.313440734520555E-003;
2.417166666666667E+009;2.046193927526474E-001;-4.003919288516045E-002;-1.032521831803024E-003;-1.066014519892633E-003;
2.417333333333334E+009;2.046407461166382E-001;-3.967850655317307E-002;-1.092140097171068E-003;-9.135927539318800E-004;
2.417500000000000E+009;2.045478522777557E-001;-3.949483856558800E-002;-1.052318606525660E-003;-7.888326654210687E-004;
2.417666666666667E+009;2.043549418449402E-001;-3.899246454238892E-002;-1.197936013340950E-003;-7.886642124503851E-004;
2.417833333333334E+009;2.040692567825317E-001;-3.862002119421959E-002;-1.199026359245181E-003;-5.462119006551802E-004;
2.418000000000000E+009;2.035984694957733E-001;-3.816336020827293E-002;-1.245928229764104E-003;-3.273007750976831E-004;
2.418166666666667E+009;2.029059827327728E-001;-3.771974891424179E-002;-1.245464663952589E-003;-3.899626608472318E-004;
2.418333333333334E+009;2.021483778953552E-001;-3.737702965736389E-002;-1.285112346522510E-003;-1.686796604190022E-004;
2.418500000000000E+009;2.013842910528183E-001;-3.695473819971085E-002;-1.273164525628090E-003;-4.722586163552478E-005;
2.418666666666667E+009;2.004927098751068E-001;-3.663498908281326E-002;-1.236199983395636E-003;2.275709448440466E-005;
2.418833333333334E+009;1.993808299303055E-001;-3.653097152709961E-002;-1.023141434416175E-003;2.603780012577772E-004;
2.419000000000000E+009;1.981637328863144E-001;-3.638136014342308E-002;-1.163836335763335E-003;4.476640897337347E-004;
2.419166666666667E+009;1.970321685075760E-001;-3.641325980424881E-002;-1.091709360480309E-003;4.404036735650152E-004;
2.419333333333334E+009;1.957180351018906E-001;-3.658812493085861E-002;-9.894871618598700E-004;6.101848557591438E-004;
2.419500000000000E+009;1.942621916532517E-001;-3.671374544501305E-002;-9.862789884209633E-004;6.512372638098896E-004;
2.419666666666667E+009;1.925530880689621E-001;-3.719703480601311E-002;-7.881760247983038E-004;8.359677158296108E-004;
2.419833333333334E+009;1.908650249242783E-001;-3.766188398003578E-002;-6.486210040748119E-004;7.413785206153989E-004;
2.420000000000000E+009;1.893141567707062E-001;-3.826786950230598E-002;-4.952970193699002E-004;8.729133987799287E-004;
2.420166666666667E+009;1.874585598707199E-001;-3.917823359370232E-002;-4.095726762898266E-004;9.688720456324518E-004;
2.420333333333334E+009;1.856322437524796E-001;-4.006402567028999E-002;-3.247676067985594E-004;9.366477024741471E-004;
2.420500000000000E+009;1.839002668857575E-001;-4.114853590726852E-002;-3.269340377300978E-004;9.514329722151160E-004;
2.420666666666667E+009;1.819384545087814E-001;-4.214393720030785E-002;-1.831837435020134E-004;8.983507868833840E-004;
2.420833333333334E+009;1.802024096250534E-001;-4.346260428428650E-002;-1.430008705938235E-004;8.789356215856969E-004;
2.421000000000000E+009;1.784517914056778E-001;-4.484466835856438E-002;-4.719260323327035E-005;8.538154652342200E-004;
2.421166666666667E+009;1.769213676452637E-001;-4.635038599371910E-002;7.961045776028186E-005;8.599916473031044E-004;
2.421333333333334E+009;1.749372184276581E-001;-4.779112711548805E-002;1.969127151824068E-005;9.464006288908422E-004;
2.421500000000000E+009;1.734382510185242E-001;-4.959841817617416E-002;1.358422014163807E-004;8.278561290353537E-004;
2.421666666666667E+009;1.717937141656876E-001;-5.126807838678360E-002;6.413229857571423E-005;8.983772131614387E-004;
2.421833333333334E+009;1.705530881881714E-001;-5.310646072030067E-002;1.752585958456621E-004;8.228897349908948E-004;
2.422000000000000E+009;1.690477132797241E-001;-5.505504459142685E-002;2.295519225299358E-004;8.879519300535321E-004;
2.422166666666667E+009;1.680388748645783E-001;-5.722985044121742E-002;3.970907418988645E-004;9.070803062058985E-004;
2.422333333333334E+009;1.668864041566849E-001;-5.908317863941193E-002;5.250920075923204E-004;8.916971273720264E-004;
2.422500000000000E+009;1.660364568233490E-001;-6.100095808506012E-002;5.917507223784924E-004;8.635443518869579E-004;
2.422666666666667E+009;1.650649309158325E-001;-6.321331858634949E-002;6.316832150332630E-004;8.355898899026215E-004;
2.422833333333334E+009;1.645733714103699E-001;-6.530536711215973E-002;8.600611472502351E-004;7.891449495218694E-004;
2.423000000000000E+009;1.639745980501175E-001;-6.748776137828827E-002;9.230547584593296E-004;7.897527539171279E-004;
2.423166666666667E+009;1.636366248130798E-001;-6.949865818023682E-002;1.143609290011227E-003;5.398102221079171E-004;
2.423333333333334E+009;1.633031368255615E-001;-7.178223133087158E-002;1.084656571038067E-003;4.964876570738852E-004;
2.423500000000000E+009;1.632889360189438E-001;-7.369786500930786E-002;1.338102854788303E-003;2.892357297241688E-004;
2.423666666666667E+009;1.633753180503845E-001;-7.581461966037750E-002;1.215694006532431E-003;4.740974691230804E-005;
2.423833333333334E+009;1.632085293531418E-001;-7.777362316846848E-002;1.222363091073930E-003;-4.754075052915141E-005;
2.424000000000000E+009;1.634252071380615E-001;-7.968354225158691E-002;1.391907571814954E-003;-1.069326972356066E-004;
2.424166666666667E+009;1.636540889739990E-001;-8.159168809652329E-002;1.313279499299824E-003;-3.786567831411958E-004;
2.424333333333334E+009;1.640465557575226E-001;-8.335708081722260E-002;1.251905690878630E-003;-6.685293628834188E-004;
2.424500000000000E+009;1.645588874816895E-001;-8.536262810230255E-002;1.109721255488694E-003;-8.214436820708215E-004;
2.424666666666667E+009;1.648273915052414E-001;-8.683686703443527E-002;1.020075404085219E-003;-8.168501080945134E-004;
2.424833333333334E+009;1.657191514968872E-001;-8.844889700412750E-002;9.635307360440493E-004;-9.274437325075269E-004;
2.425000000000000E+009;1.661190986633301E-001;-8.985305577516556E-002;6.207037367857993E-004;-9.032640955410898E-004;
2.425166666666667E+009;1.666841953992844E-001;-9.112565964460373E-002;5.530274938791990E-004;-1.052824314683676E-003;
2.425333333333334E+009;1.674349904060364E-001;-9.240182489156723E-002;4.056019824929535E-004;-1.208359608426690E-003;
2.425500000000000E+009;1.680758297443390E-001;-9.362467378377914E-002;1.595738285686821E-004;-1.084862742573023E-003;
2.425666666666667E+009;1.689731627702713E-001;-9.440682828426361E-002;4.763394372275798E-006;-1.257797586731613E-003;
2.425833333333334E+009;1.695676892995834E-001;-9.563520550727844E-002;-3.213064337614924E-005;-1.164891291409731E-003;
2.426000000000000E+009;1.703013926744461E-001;-9.603750705718994E-002;-2.311880525667220E-004;-1.117369625717402E-003;
2.426166666666667E+009;1.711017489433289E-001;-9.686174988746643E-002;-1.934683532454073E-004;-9.908857755362988E-004;
2.426333333333334E+009;1.714484244585037E-001;-9.746921807527542E-002;-3.053776454180479E-004;-8.549764170311391E-004;
2.426500000000000E+009;1.723043024539948E-001;-9.792839735746384E-002;-5.811183364130557E-004;-9.162677451968193E-004;
2.426666666666667E+009;1.728306710720062E-001;-9.842487424612045E-002;-4.917439073324204E-004;-7.992658065631986E-004;
2.426833333333334E+009;1.734566986560822E-001;-9.874594956636429E-002;-6.132212583906949E-004;-7.950792205519974E-004;
2.427000000000000E+009;1.737462729215622E-001;-9.913432598114014E-002;-4.058121703565121E-004;-5.209331284277141E-004;
2.427166666666667E+009;1.741590350866318E-001;-9.928533434867859E-002;-7.296620751731098E-004;-5.676979781128466E-004;
2.427333333333334E+009;1.744993776082993E-001;-9.962572157382965E-002;-6.810831837356091E-004;-4.994598566554487E-004;
2.427500000000000E+009;1.745326668024063E-001;-9.989817440509796E-002;-6.352008786052465E-004;-5.029761232435703E-004;
2.427666666666667E+009;1.744568347930908E-001;-9.991669654846191E-002;-5.762978689745069E-004;-3.880218719132245E-004;
2.427833333333334E+009;1.744274199008942E-001;-1.000913009047508E-001;-6.389398477040231E-004;-3.200455685146153E-004;
