# Version 1.00
#
freq[Hz];re:Trc1_S11;im:Trc1_S11;re:Trc2_S21;im:Trc2_S21;
2.400000000000000E+009;1.507826596498489E-001;1.144052222371101E-001;4.865702649112791E-004;1.088995020836592E-003;
2.400166666666667E+009;1.506104022264481E-001;1.123681217432022E-001;4.780102462973446E-004;1.091022277250886E-003;
2.400333333333334E+009;1.505932509899139E-001;1.100568324327469E-001;7.140850066207349E-004;8.629495278000832E-004;
2.400500000000000E+009;1.505877971649170E-001;1.074588820338249E-001;1.022734912112355E-003;7.738888380117714E-004;
2.400666666666667E+009;1.505626142024994E-001;1.050656363368034E-001;1.060973154380918E-003;5.521518760360777E-004;
2.400833333333334E+009;1.504800468683243E-001;1.024548560380936E-001;1.152712036855519E-003;5.345874233171344E-004;
2.401000000000000E+009;1.505658328533173E-001;9.958364814519882E-002;1.087873592041433E-003;2.126892650267109E-004;
2.401166666666667E+009;1.506486088037491E-001;9.695636481046677E-002;1.100670779123902E-003;4.460184209165163E-005;
2.401333333333334E+009;1.508435457944870E-001;9.387411177158356E-002;9.675316978245974E-004;2.413860420347191E-005;
2.401500000000000E+009;1.515034139156342E-001;9.118576347827911E-002;1.055410131812096E-003;-1.033215885399841E-004;
2.401666666666667E+009;1.517959535121918E-001;8.835323154926300E-002;1.092977123335004E-003;-2.734573208726943E-004;
2.401833333333334E+009;1.521724611520767E-001;8.569666743278503E-002;1.037601265124977E-003;-4.330298979766667E-004;
2.402000000000000E+009;1.531946957111359E-001;8.290591835975647E-002;1.018278417177498E-003;-4.817677836399525E-004;
2.402166666666667E+009;1.538005769252777E-001;8.021453768014908E-002;1.098023727536202E-003;-7.284532766789198E-004;
2.402333333333334E+009;1.550119072198868E-001;7.761353254318237E-002;7.696334505453706E-004;-6.813243380747736E-004;
2.402500000000000E+009;1.561920493841171E-001;7.509319484233856E-002;8.410781156271696E-004;-7.274035015143454E-004;
2.402666666666667E+009;1.574800610542297E-001;7.262630760669708E-002;9.192443685606122E-004;-8.936162921600044E-004;
2.402833333333334E+009;1.587956249713898E-001;6.988840550184250E-002;7.688330952078104E-004;-8.866889984346926E-004;
2.403000000000000E+009;1.604692190885544E-001;6.767176836729050E-002;6.596110761165619E-004;-1.012751483358443E-003;
2.403166666666667E+009;1.623862385749817E-001;6.533064693212509E-002;5.768813425675035E-004;-1.160474494099617E-003;
2.403333333333334E+009;1.637574583292007E-001;6.301515549421310E-002;4.382778133731335E-004;-1.143019879236817E-003;
2.403500000000000E+009;1.658078432083130E-001;6.081903353333473E-002;2.877389197237790E-004;-1.363616553135216E-003;
2.403666666666667E+009;1.677554547786713E-001;5.887663364410400E-002;1.920666691148654E-004;-1.309800427407026E-003;
2.403833333333334E+009;1.695218980312347E-001;5.691957101225853E-002;-3.107443490080186E-006;-1.331515493802726E-003;
2.404000000000000E+009;1.713503748178482E-001;5.496661365032196E-002;-6.602180656045675E-005;-1.416364917531610E-003;
2.404166666666667E+009;1.733868867158890E-001;5.326633155345917E-002;-1.341978640994057E-004;-1.328631769865751E-003;
2.404333333333334E+009;1.752223521471024E-001;5.165503174066544E-002;-4.530904116109014E-004;-1.184995984658599E-003;
2.404500000000000E+009;1.770394444465637E-001;5.013408511877060E-002;-4.066521360073239E-004;-1.318592811003327E-003;
2.404666666666667E+009;1.788913160562515E-001;4.888747632503510E-002;-6.341766566038132E-004;-1.191730261780322E-003;
2.404833333333334E+009;1.809246242046356E-001;4.769754782319069E-002;-7.367507205344737E-004;-1.041598501615226E-003;
2.405000000000000E+009;1.824366450309753E-001;4.687497392296791E-002;-6.819370901212096E-004;-1.177035155706108E-003;
2.405166666666667E+009;1.843180656433106E-001;4.600274935364723E-002;-6.444876780733466E-004;-1.009606639854610E-003;
2.405333333333334E+009;1.858163326978684E-001;4.542930051684380E-002;-9.265901753678918E-004;-1.057710265740752E-003;
2.405500000000000E+009;1.874997019767761E-001;4.492119327187538E-002;-8.532506180927157E-004;-9.988922392949462E-004;
2.405666666666667E+009;1.890842020511627E-001;4.462540522217751E-002;-9.532569092698395E-004;-9.024943574331701E-004;
2.405833333333334E+009;1.904936581850052E-001;4.419790208339691E-002;-1.094995881430805E-003;-8.427589200437069E-004;
2.406000000000000E+009;1.918623149394989E-001;4.403895139694214E-002;-1.209566020406783E-003;-6.619843770749867E-004;
2.406166666666667E+009;1.930932551622391E-001;4.385222867131233E-002;-1.156069803982973E-003;-7.435570005327463E-004;
2.406333333333334E+009;1.942900717258453E-001;4.382367059588432E-002;-1.280709053389728E-003;-5.554714589379728E-004;
2.406500000000000E+009;1.953578144311905E-001;4.382099583745003E-002;-1.439106650650501E-003;-5.772716249339283E-004;
2.406666666666667E+009;1.961576938629150E-001;4.387158900499344E-002;-1.457493519410491E-003;-3.817560500465334E-004;
2.406833333333334E+009;1.969757378101349E-001;4.391272738575935E-002;-1.545686740428209E-003;-4.056798352394253E-004;
2.407000000000000E+009;1.975673735141754E-001;4.402377456426621E-002;-1.563751255162060E-003;-1.891133288154379E-004;
2.407166666666667E+009;1.981663405895233E-001;4.385597631335259E-002;-1.683431793935597E-003;4.975350020686165E-005;
2.407333333333334E+009;1.983983814716339E-001;4.408641532063484E-002;-1.622471143491566E-003;1.835018774727359E-004;
2.407500000000000E+009;1.985276639461517E-001;4.415063932538033E-002;-1.689072465524077E-003;1.172244374174625E-004;
2.407666666666667E+009;1.986791640520096E-001;4.410963505506516E-002;-1.796400756575167E-003;4.421934427227825E-004;
2.407833333333334E+009;1.982253342866898E-001;4.408724233508110E-002;-1.567486324347556E-003;4.440602788235992E-004;
2.408000000000000E+009;1.983838528394699E-001;4.397415369749069E-002;-1.497983001172543E-003;6.496752030216157E-004;
2.408166666666667E+009;1.978924870491028E-001;4.374412447214127E-002;-1.534558949060738E-003;7.751591037958860E-004;
2.408333333333334E+009;1.975150704383850E-001;4.333978891372681E-002;-1.380852074362338E-003;1.126481336541474E-003;
2.408500000000000E+009;1.968965828418732E-001;4.316095635294914E-002;-1.330746919848025E-003;1.179088023491204E-003;
2.408666666666667E+009;1.962611526250839E-001;4.272494465112686E-002;-1.371828489936888E-003;1.329824212007225E-003;
2.408833333333334E+009;1.956141740083695E-001;4.190424457192421E-002;-1.073509687557817E-003;1.346143428236246E-003;
2.409000000000000E+009;1.947019696235657E-001;4.104362055659294E-002;-9.748504962772131E-004;1.711301854811609E-003;
2.409166666666667E+009;1.936592608690262E-001;4.022607207298279E-002;-8.920041727833450E-004;1.611222280189395E-003;
2.409333333333334E+009;1.928880810737610E-001;3.924949467182159E-002;9.211774158757180E-005;1.746845315210521E-003;
2.409500000000000E+009;1.916057318449020E-001;3.793891146779060E-002;-4.259569686837494E-004;1.323466422036290E-003;
2.409666666666667E+009;1.904830485582352E-001;3.673627600073814E-002;-1.234098017448559E-004;1.822149031795561E-003;
2.409833333333334E+009;1.893605738878250E-001;3.529600054025650E-002;-3.409254131838679E-004;1.675581093877554E-003;
2.410000000000000E+009;1.882991641759872E-001;3.372215852141380E-002;2.384759864071384E-004;1.911558210849762E-003;
2.410166666666667E+009;1.870084404945374E-001;3.208206221461296E-002;-3.708550821102108E-006;2.042454900220037E-003;
2.410333333333334E+009;1.859444677829742E-001;3.037936240434647E-002;7.529769791290164E-004;2.000181702896953E-003;
2.410500000000000E+009;1.848497241735458E-001;2.837973088026047E-002;2.474490902386606E-004;1.415999489836395E-003;
2.410666666666667E+009;1.837157756090164E-001;2.611040696501732E-002;5.822649691253901E-004;1.402230700477958E-003;
2.410833333333334E+009;1.829187870025635E-001;2.413297444581986E-002;5.428657750599086E-004;1.315594301559031E-003;
2.411000000000000E+009;1.820516735315323E-001;2.193020470440388E-002;6.557172746397555E-004;1.354181673377752E-003;
2.411166666666667E+009;1.812613159418106E-001;1.971323043107987E-002;8.107392350211740E-004;1.262582023628056E-003;
2.411333333333334E+009;1.804329603910446E-001;1.721106655895710E-002;7.933612214401364E-004;1.112227677367628E-003;
2.411500000000000E+009;1.800360232591629E-001;1.484058983623982E-002;9.446287294849753E-004;1.113048405386508E-003;
2.411666666666667E+009;1.796003878116608E-001;1.232666149735451E-002;1.136035891249776E-003;9.749947930686176E-004;
2.411833333333334E+009;1.792582571506500E-001;9.949461556971073E-003;9.194007143378258E-004;1.158483908511698E-003;
2.412000000000000E+009;1.791674494743347E-001;7.174246944487095E-003;1.049618585966528E-003;7.663718424737454E-004;
2.412166666666667E+009;1.790413111448288E-001;4.799950402230024E-003;1.277007162570953E-003;8.777535404078662E-004;
2.412333333333334E+009;1.791221499443054E-001;2.246024552732706E-003;1.093865488655865E-003;7.157890941016376E-004;
2.412500000000000E+009;1.795940995216370E-001;-3.008898347616196E-004;1.322755357250571E-003;6.584250950254500E-004;
2.412666666666667E+009;1.799065172672272E-001;-3.152069170027971E-003;1.323809614405036E-003;4.835522850044072E-004;
2.412833333333334E+009;1.805990487337112E-001;-5.637007765471935E-003;1.431593322195113E-003;3.859024436678737E-004;
2.413000000000000E+009;1.811905056238174E-001;-8.028629235923290E-003;1.458449522033334E-003;1.136999926529825E-004;
2.413166666666667E+009;1.818338483572006E-001;-1.055650878697634E-002;1.378115266561508E-003;1.384072238579392E-004;
2.413333333333334E+009;1.829076260328293E-001;-1.294223032891750E-002;1.511182985268533E-003;-1.046382094500586E-004;
2.413500000000000E+009;1.836642175912857E-001;-1.536977756768465E-002;1.495626405812800E-003;-2.858743537217379E-004;
2.413666666666667E+009;1.848131716251373E-001;-1.763114333152771E-002;1.415408100001514E-003;-3.004407335538417E-004;
2.413833333333334E+009;1.858680844306946E-001;-1.987552642822266E-002;1.343616517260671E-003;-4.527156997937709E-004;
2.414000000000000E+009;1.869765371084213E-001;-2.206382155418396E-002;1.424245187081397E-003;-5.733178113587201E-004;
2.414166666666667E+009;1.882603466510773E-001;-2.378501556813717E-002;1.281177974306047E-003;-6.817172979936004E-004;
2.414333333333334E+009;1.892380565404892E-001;-2.600613050162792E-002;1.137617626227438E-003;-8.803138625808060E-004;
2.414500000000000E+009;1.906179040670395E-001;-2.749575302004814E-002;1.137613784521818E-003;-9.494833648204804E-004;
2.414666666666667E+009;1.917306035757065E-001;-2.920782379806042E-002;1.048735924996436E-003;-1.054595573805273E-003;
2.414833333333334E+009;1.929674893617630E-001;-3.065164200961590E-002;1.005430589430034E-003;-1.130310120061040E-003;
2.415000000000000E+009;1.941250562667847E-001;-3.207481652498245E-002;1.001078868284822E-003;-1.268490217626095E-003;
2.415166666666667E+009;1.955023109912872E-001;-3.337686881422997E-002;7.170221069827676E-004;-1.496770069934428E-003;
2.415333333333334E+009;1.967803835868835E-001;-3.437817841768265E-002;7.576399948447943E-004;-1.423811772838235E-003;
2.415500000000000E+009;1.979345828294754E-001;-3.513675928115845E-002;4.539868969004601E-004;-1.545089064165950E-003;
2.415666666666667E+009;1.990290582180023E-001;-3.613326698541641E-002;4.078416677657515E-004;-1.633969950489700E-003;
2.415833333333334E+009;1.999153792858124E-001;-3.679116815328598E-002;1.411967386957258E-004;-1.770014991052449E-003;
2.416000000000000E+009;2.008012980222702E-001;-3.748401626944542E-002;-2.319865234312601E-005;-1.661968068219721E-003;
2.416166666666667E+009;2.017697989940643E-001;-3.803502395749092E-002;-4.037578764837235E-004;-1.622567768208683E-003;
2.416333333333334E+009;2.024004906415939E-001;-3.842636197805405E-002;-4.455092130228877E-004;-1.578791067004204E-003;
2.416500000000000E+009;2.030259370803833E-001;-3.868972510099411E-002;-6.926170317456126E-004;-1.516655087471008E-003;
2.416666666666667E+009;2.034377157688141E-001;-3.898821026086807E-002;-8.613900281488895E-004;-1.415932783856988E-003;
2.416833333333334E+009;2.037683725357056E-001;-3.900471329689026E-002;-8.771099965088069E-004;-1.272337161935866E-003;
2.417000000000000E+009;2.040625661611557E-001;-3.905859589576721E-002;-1.068807556293905E-003;-1.198844052851200E-003;
2.417166666666667E+009;2.038431763648987E-001;-3.888621553778648E-002;-1.260727993212640E-003;-9.644433157518506E-004;
2.417333333333334E+009;2.038627862930298E-001;-3.864920139312744E-002;-1.198547426611185E-003;-9.578547324053943E-004;
2.417500000000000E+009;2.036406397819519E-001;-3.852516412734985E-002;-1.259349053725600E-003;-7.593410555273294E-004;
2.417666666666667E+009;2.032003998756409E-001;-3.829277306795120E-002;-1.397930667735636E-003;-5.546453758142889E-004;
2.417833333333334E+009;2.029639482498169E-001;-3.789715096354485E-002;-1.317906426265836E-003;-4.417875024955720E-004;
2.418000000000000E+009;2.024988234043121E-001;-3.748193010687828E-002;-1.319113420322537E-003;-1.313220709562302E-004;
2.418166666666667E+009;2.017594575881958E-001;-3.727134689688683E-002;-1.453214092180133E-003;-2.281390043208376E-004;
2.418333333333334E+009;2.010545432567596E-001;-3.692598640918732E-002;-1.387338619679213E-003;-4.621450443664799E-006;
2.418500000000000E+009;2.000530213117600E-001;-3.690880537033081E-002;-1.437130384147167E-003;1.258981501450762E-004;
2.418666666666667E+009;1.992557197809219E-001;-3.663914650678635E-002;-1.459476887248457E-003;2.947583852801472E-004;
2.418833333333334E+009;1.981831341981888E-001;-3.657117486000061E-002;-1.334256958216429E-003;2.799309149850160E-004;
2.419000000000000E+009;1.969249844551086E-001;-3.669235482811928E-002;-1.254283590242267E-003;4.541026719380170E-004;
2.419166666666667E+009;1.956588625907898E-001;-3.678331524133682E-002;-1.187163521535695E-003;7.512359297834337E-004;
2.419333333333334E+009;1.944012045860291E-001;-3.719629719853401E-002;-1.155071426182985E-003;6.227176054380834E-004;
2.419500000000000E+009;1.929635256528854E-001;-3.741576150059700E-002;-9.418996050953865E-004;9.631219436414540E-004;
2.419666666666667E+009;1.914812624454498E-001;-3.804688900709152E-002;-1.046908786520362E-003;1.049928949214518E-003;
2.419833333333334E+009;1.897840797901154E-001;-3.865311294794083E-002;-7.389953825622797E-004;9.815094526857138E-004;
2.420000000000000E+009;1.882225722074509E-001;-3.950593620538712E-002;-7.159253582358360E-004;9.880569996312261E-004;
2.420166666666667E+009;1.865326464176178E-001;-4.034978151321411E-002;-4.654280783142895E-004;1.054721185937524E-003;
2.420333333333334E+009;1.848759800195694E-001;-4.131727665662766E-002;-5.083778523840010E-004;9.987045777961612E-004;
2.420500000000000E+009;1.831279695034027E-001;-4.251857101917267E-002;-3.649367718026042E-004;1.096623367629945E-003;
2.420666666666667E+009;1.814049035310745E-001;-4.360983893275261E-002;-3.770220209844410E-004;1.061783987097442E-003;
2.420833333333334E+009;1.796435117721558E-001;-4.512304812669754E-002;-2.780068607535213E-004;1.095724874176085E-003;
2.421000000000000E+009;1.781825721263886E-001;-4.648163169622421E-002;-1.227225875481963E-004;1.140346401371062E-003;
2.421166666666667E+009;1.766520738601685E-001;-4.808916151523590E-002;-1.520047080703080E-004;1.006493344902992E-003;
2.421333333333334E+009;1.748808175325394E-001;-4.963501915335655E-002;-8.099809929262847E-005;1.017131726257503E-003;
2.421500000000000E+009;1.733709275722504E-001;-5.146026238799095E-002;4.171883847448044E-005;1.076795277185738E-003;
2.421666666666667E+009;1.721040308475494E-001;-5.322949960827828E-002;6.999512697802857E-005;9.907283820211887E-004;
2.421833333333334E+009;1.708272546529770E-001;-5.505842342972755E-002;5.806760236737318E-005;1.009979168884456E-003;
2.422000000000000E+009;1.696108430624008E-001;-5.682493001222611E-002;2.988962805829942E-004;1.076369080692530E-003;
2.422166666666667E+009;1.687138825654984E-001;-5.881478264927864E-002;2.463606651872397E-004;1.143427449278534E-003;
2.422333333333334E+009;1.675965487957001E-001;-6.084219738841057E-002;3.866884508170188E-004;1.090573496185243E-003;
2.422500000000000E+009;1.667707115411758E-001;-6.274224817752838E-002;5.728585529141128E-004;1.142175635322928E-003;
2.422666666666667E+009;1.658580601215363E-001;-6.484081596136093E-002;7.179228705354035E-004;1.031328225508332E-003;
2.422833333333334E+009;1.653086990118027E-001;-6.691896170377731E-002;8.181105949915946E-004;1.059362431988120E-003;
2.423000000000000E+009;1.650170832872391E-001;-6.908350437879562E-002;1.014353241771460E-003;9.787592571228743E-004;
2.423166666666667E+009;1.645778864622116E-001;-7.116510719060898E-002;1.111576682887971E-003;7.088659913279116E-004;
2.423333333333334E+009;1.643794476985931E-001;-7.318381220102310E-002;1.213585957884789E-003;7.517015328630805E-004;
2.423500000000000E+009;1.641829609870911E-001;-7.499025017023087E-002;1.363563118502498E-003;3.943315823562443E-004;
2.423666666666667E+009;1.643292009830475E-001;-7.709182798862457E-002;1.401938381604850E-003;4.289011121727526E-004;
2.423833333333334E+009;1.642663031816483E-001;-7.883636653423309E-002;1.449428847990930E-003;2.102131402352825E-004;
2.424000000000000E+009;1.644662320613861E-001;-8.074752986431122E-002;1.468345057219267E-003;-9.534614946460351E-005;
2.424166666666667E+009;1.645762324333191E-001;-8.238658308982849E-002;1.469718874432147E-003;-2.128885826095939E-004;
2.424333333333334E+009;1.648475825786591E-001;-8.416470140218735E-002;1.226914697326720E-003;-4.025920061394572E-004;
2.424500000000000E+009;1.652817279100418E-001;-8.603259176015854E-002;1.242641126736999E-003;-4.399660974740982E-004;
2.424666666666667E+009;1.656779646873474E-001;-8.738113194704056E-002;1.011416548863053E-003;-6.651978474110365E-004;
2.424833333333334E+009;1.662884354591370E-001;-8.886665105819702E-002;9.510064846836031E-004;-5.596210830844939E-004;
2.425000000000000E+009;1.668575108051300E-001;-9.018795937299728E-002;8.499642717652023E-004;-9.621464996598661E-004;
2.425166666666667E+009;1.672883331775665E-001;-9.140992909669876E-002;7.569135050289333E-004;-1.065960386767983E-003;
2.425333333333334E+009;1.678525358438492E-001;-9.250528365373612E-002;4.883538349531591E-004;-8.913832716643810E-004;
2.425500000000000E+009;1.684156656265259E-001;-9.354369342327118E-002;4.626907175406814E-004;-9.591085254214704E-004;
2.425666666666667E+009;1.689506024122238E-001;-9.429193288087845E-002;4.167554725427181E-004;-9.769244352355599E-004;
2.425833333333334E+009;1.695237457752228E-001;-9.532663226127625E-002;2.796052140183747E-004;-1.041183480992913E-003;
2.426000000000000E+009;1.702604889869690E-001;-9.591689705848694E-002;1.551763562019914E-004;-1.076927408576012E-003;
2.426166666666667E+009;1.707718372344971E-001;-9.644103795289993E-002;-2.756543690338731E-004;-9.597752941772342E-004;
2.426333333333334E+009;1.710317879915237E-001;-9.713104367256165E-002;-2.433881600154564E-004;-8.470641332678497E-004;
2.426500000000000E+009;1.716886162757874E-001;-9.753615409135819E-002;-2.060718106804416E-004;-7.256073877215385E-004;
2.426666666666667E+009;1.721965372562408E-001;-9.800488501787186E-002;-2.110790519509465E-004;-7.544300751760602E-004;
2.426833333333334E+009;1.727173775434494E-001;-9.837166219949722E-002;-3.575723094400019E-004;-7.806505891494453E-004;
2.427000000000000E+009;1.729217767715454E-001;-9.863244742155075E-002;-3.647649427875876E-004;-5.395814077928662E-004;
2.427166666666667E+009;1.731830239295960E-001;-9.880013018846512E-002;-4.534832842182368E-004;-4.777262220159173E-004;
2.427333333333334E+009;1.731700450181961E-001;-9.921009838581085E-002;-3.472740936558694E-004;-5.987563054077327E-004;
2.427500000000000E+009;1.731367111206055E-001;-9.938436746597290E-002;-2.508928009774536E-004;-3.889477229677141E-004;
2.427666666666667E+009;1.731363683938980E-001;-9.955098479986191E-002;-5.155070102773607E-004;-3.100594913121313E-004;
2.427833333333334E+009;1.729383021593094E-001;-9.972871840000153E-002;-3.982420312240720E-004;-2.892515040002763E-004;
