# Version 1.00
#
freq[Hz];re:Trc1_S11;im:Trc1_S11;re:Trc2_S21;im:Trc2_S21;
2.400000000000000E+009;1.517553478479385E-001;1.177403554320335E-001;1.523130486020818E-004;9.770130272954702E-004;
2.400166666666667E+009;1.513572484254837E-001;1.156574785709381E-001;4.839972243644297E-004;8.230079547502101E-004;
2.400333333333334E+009;1.512089371681213E-001;1.132782921195030E-001;6.483228644356132E-004;7.145290728658438E-004;
2.400500000000000E+009;1.509582400321960E-001;1.107276827096939E-001;7.826447836123407E-004;5.998886190354824E-004;
2.400666666666667E+009;1.509283781051636E-001;1.082570999860764E-001;8.362110238522291E-004;6.104923086240888E-004;
2.400833333333334E+009;1.506123095750809E-001;1.053008064627647E-001;9.275021147914231E-004;3.399392298888415E-004;
2.401000000000000E+009;1.509192287921906E-001;1.023593470454216E-001;8.800891810096800E-004;1.300384174101055E-004;
2.401166666666667E+009;1.504613161087036E-001;9.970944374799728E-002;9.325261344201863E-004;-1.327956997556612E-004;
2.401333333333334E+009;1.509254127740860E-001;9.680361300706863E-002;8.931358461268246E-004;-1.028135302476585E-004;
2.401500000000000E+009;1.511363983154297E-001;9.376957267522812E-002;9.137001470662653E-004;-2.220337919425219E-004;
2.401666666666667E+009;1.513931453227997E-001;9.075773507356644E-002;8.265760261565447E-004;-3.168548864778131E-004;
2.401833333333334E+009;1.518466025590897E-001;8.788847178220749E-002;9.246582048945129E-004;-3.679782967083156E-004;
2.402000000000000E+009;1.525128036737442E-001;8.491081744432449E-002;8.700684993527830E-004;-5.766350077465177E-004;
2.402166666666667E+009;1.533177793025971E-001;8.221892267465591E-002;7.931609288789332E-004;-6.647629779763520E-004;
2.402333333333334E+009;1.541623473167419E-001;7.938265800476074E-002;7.011766429059207E-004;-7.487594848498702E-004;
2.402500000000000E+009;1.554635018110275E-001;7.647611945867539E-002;6.860980647616088E-004;-9.269628790207207E-004;
2.402666666666667E+009;1.565432399511337E-001;7.383251935243607E-002;5.262627964839339E-004;-8.219534065574408E-004;
2.402833333333334E+009;1.580290645360947E-001;7.113674283027649E-002;5.412237951532006E-004;-9.992291452363133E-004;
2.403000000000000E+009;1.596713960170746E-001;6.861388683319092E-002;4.589970048982650E-004;-1.096682855859399E-003;
2.403166666666667E+009;1.613270491361618E-001;6.608734279870987E-002;2.546304021961987E-004;-1.194170094095171E-003;
2.403333333333334E+009;1.631220281124115E-001;6.351308524608612E-002;3.701354726217687E-004;-1.355936634354293E-003;
2.403500000000000E+009;1.649515479803085E-001;6.117928773164749E-002;7.706235192017630E-005;-1.289297943003476E-003;
2.403666666666667E+009;1.670694500207901E-001;5.897361785173416E-002;1.933321982505731E-005;-1.491697505116463E-003;
2.403833333333334E+009;1.688059866428375E-001;5.673373118042946E-002;-1.660301786614582E-004;-1.328586717136204E-003;
2.404000000000000E+009;1.706205308437347E-001;5.471065267920494E-002;-2.579800202511251E-004;-1.370270387269557E-003;
2.404166666666667E+009;1.726211905479431E-001;5.298194661736488E-002;-5.527387838810682E-004;-1.370899495668709E-003;
2.404333333333334E+009;1.746490150690079E-001;5.118366703391075E-002;-4.797231231350452E-004;-1.187795191071928E-003;
2.404500000000000E+009;1.767181456089020E-001;4.930377006530762E-002;-7.694922387599945E-004;-1.171098556369543E-003;
2.404666666666667E+009;1.786465942859650E-001;4.800933226943016E-002;3.261424717493355E-004;-2.268318319693208E-003;
2.404833333333334E+009;1.803672909736633E-001;4.673694819211960E-002;-8.801064686849713E-004;-3.103373805060983E-003;
2.405000000000000E+009;1.824545264244080E-001;4.571183398365974E-002;-1.851979526691139E-003;-3.682850801851600E-004;
2.405166666666667E+009;1.840880811214447E-001;4.483817145228386E-002;-1.033404725603759E-003;-1.097015221603215E-003;
2.405333333333334E+009;1.860220283269882E-001;4.409276694059372E-002;-1.209083362482488E-003;-9.535102290101349E-004;
2.405500000000000E+009;1.877738833427429E-001;4.349708929657936E-002;-1.422931905835867E-003;-1.351599930785596E-003;
2.405666666666667E+009;1.893706917762756E-001;4.311668872833252E-002;-1.873066183179617E-003;-1.505670370534062E-003;
2.405833333333334E+009;1.908960938453674E-001;4.261883720755577E-002;-1.187061076052487E-003;-2.297756960615516E-003;
2.406000000000000E+009;1.924157589673996E-001;4.254904761910439E-002;-2.885717432945967E-003;-2.637300058268011E-004;
2.406166666666667E+009;1.938518285751343E-001;4.239763319492340E-002;-3.031948348507285E-003;-1.527631189674139E-003;
2.406333333333334E+009;1.955636739730835E-001;4.228458926081657E-002;-3.388861077837646E-004;2.820812631398439E-003;
2.406500000000000E+009;1.962443441152573E-001;4.235355928540230E-002;-2.294978592544794E-003;-1.403293106704950E-003;
2.406666666666667E+009;1.972609609365463E-001;4.233426600694656E-002;-1.632746774703264E-003;-3.741501423064619E-004;
2.406833333333334E+009;1.981613188982010E-001;4.248018562793732E-002;-1.580013311468065E-003;-1.603359414730221E-004;
2.407000000000000E+009;1.988671123981476E-001;4.273612797260284E-002;-1.920512877404690E-003;-1.679882116150111E-004;
2.407166666666667E+009;1.995325088500977E-001;4.264906048774719E-002;-1.742973923683167E-003;-4.692834772868082E-005;
2.407333333333334E+009;1.996675431728363E-001;4.300988093018532E-002;-1.787116285413504E-003;1.114277620217763E-005;
2.407500000000000E+009;1.998908817768097E-001;4.326606169342995E-002;-1.764568616636097E-003;3.981607151217759E-004;
2.407666666666667E+009;2.002096623182297E-001;4.336370155215263E-002;-2.034316072240472E-003;5.192969692870975E-004;
2.407833333333334E+009;1.997530460357666E-001;4.340513050556183E-002;-1.927779521793127E-003;6.335176876746118E-004;
2.408000000000000E+009;1.999041438102722E-001;4.353533312678337E-002;-1.760153216309845E-003;8.150267531163991E-004;
2.408166666666667E+009;1.993303894996643E-001;4.352099448442459E-002;-1.760780927725136E-003;1.089953584596515E-003;
2.408333333333334E+009;1.990372240543366E-001;4.316329583525658E-002;-1.655507017858326E-003;1.119135762564838E-003;
2.408500000000000E+009;1.984504014253616E-001;4.314559698104858E-002;-1.771242590621114E-003;1.411478966474533E-003;
2.408666666666667E+009;1.976998746395111E-001;4.299435019493103E-002;-1.287151011638343E-003;1.691795070655644E-003;
2.408833333333334E+009;1.970916092395783E-001;4.243195429444313E-002;-1.396664418280125E-003;1.703777234070003E-003;
2.409000000000000E+009;1.960320025682449E-001;4.191125929355621E-002;-1.273015863262117E-003;1.853218069300056E-003;
2.409166666666667E+009;1.950035393238068E-001;4.115122184157372E-002;-9.991937549784780E-004;1.843448146246374E-003;
2.409333333333334E+009;1.939486861228943E-001;4.039410874247551E-002;-7.800697931088507E-004;1.964380266144872E-003;
2.409500000000000E+009;1.925924718379974E-001;3.933890163898468E-002;-6.164076621644199E-004;1.957676373422146E-003;
2.409666666666667E+009;1.914598792791367E-001;3.815405070781708E-002;-3.281917306594551E-004;1.935967942699790E-003;
2.409833333333334E+009;1.903264820575714E-001;3.706796094775200E-002;-2.858914085663855E-004;1.946477219462395E-003;
2.410000000000000E+009;1.890655905008316E-001;3.555449843406677E-002;-1.271874498343095E-004;2.000025007873774E-003;
2.410166666666667E+009;1.878002583980560E-001;3.389516100287437E-002;1.272502231586259E-005;1.785496133379638E-003;
2.410333333333334E+009;1.864304691553116E-001;3.241054713726044E-002;5.944019358139485E-005;1.889900304377079E-003;
2.410500000000000E+009;1.851842999458313E-001;3.047073259949684E-002;2.462782722432166E-004;1.839345204643905E-003;
2.410666666666667E+009;1.841455250978470E-001;2.835560962557793E-002;4.806352662853897E-004;1.895861933007836E-003;
2.410833333333334E+009;1.833128184080124E-001;2.623492665588856E-002;5.532805807888508E-004;1.555706723593175E-003;
2.411000000000000E+009;1.822737455368042E-001;2.408725023269653E-002;6.997051532380283E-004;1.690259203314781E-003;
2.411166666666667E+009;1.812253594398499E-001;2.181807346642017E-002;7.320668664760888E-004;1.635220367461443E-003;
2.411333333333334E+009;1.804407984018326E-001;1.937232352793217E-002;9.728441364131868E-004;1.504030311480165E-003;
2.411500000000000E+009;1.797253638505936E-001;1.699788309633732E-002;1.011197688058019E-003;1.285301172174513E-003;
2.411666666666667E+009;1.793423295021057E-001;1.433016546070576E-002;1.083669951185584E-003;1.401339424774051E-003;
2.411833333333334E+009;1.787441819906235E-001;1.190176047384739E-002;1.079037901945412E-003;1.367727178148925E-003;
2.412000000000000E+009;1.785858273506165E-001;9.131705388426781E-003;1.304046716541052E-003;1.150321331806481E-003;
2.412166666666667E+009;1.785130351781845E-001;6.878869142383337E-003;1.395275467075408E-003;1.183156855404377E-003;
2.412333333333334E+009;1.785439252853394E-001;3.932385239750147E-003;1.489798189140856E-003;1.100152730941773E-003;
2.412500000000000E+009;1.788788437843323E-001;1.383926486596465E-003;1.540217315778136E-003;8.134334348142147E-004;
2.412666666666667E+009;1.790740191936493E-001;-1.564548583701253E-003;1.548424130305648E-003;7.689546328037977E-004;
2.412833333333334E+009;1.794652193784714E-001;-4.228934645652771E-003;1.638359040953219E-003;6.923958426341415E-004;
2.413000000000000E+009;1.801112890243530E-001;-6.711708381772041E-003;1.695231883786619E-003;4.958779318258166E-004;
2.413166666666667E+009;1.808628439903259E-001;-9.369414299726486E-003;1.635755179449916E-003;4.250611236784607E-004;
2.413333333333334E+009;1.818025261163712E-001;-1.194399408996105E-002;1.660892157815397E-003;2.615816192701459E-004;
2.413500000000000E+009;1.826047599315643E-001;-1.448942068964243E-002;1.625070581212640E-003;2.026608854066581E-005;
2.413666666666667E+009;1.836743205785751E-001;-1.698154211044312E-002;1.575048896484077E-003;1.375535339320777E-005;
2.413833333333334E+009;1.848663389682770E-001;-1.932217925786972E-002;1.566531253047288E-003;-1.230835769092664E-004;
2.414000000000000E+009;1.858359426259995E-001;-2.160938642919064E-002;1.552043366245925E-003;-2.815001062117517E-004;
2.414166666666667E+009;1.872331500053406E-001;-2.379606477916241E-002;1.498717931099236E-003;-3.276988863945007E-004;
2.414333333333334E+009;1.884361952543259E-001;-2.597003243863583E-002;1.481256447732449E-003;-4.878124454990029E-004;
2.414500000000000E+009;1.896757632493973E-001;-2.775047346949577E-002;1.381049980409443E-003;-6.689412984997034E-004;
2.414666666666667E+009;1.909345090389252E-001;-2.945304475724697E-002;1.413119025528431E-003;-7.581142708659172E-004;
2.414833333333334E+009;1.923941373825073E-001;-3.115783631801605E-002;1.356668304651976E-003;-9.038140997290611E-004;
2.415000000000000E+009;1.934842616319656E-001;-3.260041028261185E-002;1.233210205100477E-003;-1.209898618981242E-003;
2.415166666666667E+009;1.950373649597168E-001;-3.391814231872559E-002;1.155509846284986E-003;-1.227285596542060E-003;
2.415333333333334E+009;1.962423175573349E-001;-3.520829230546951E-002;9.666252881288528E-004;-1.442262087948620E-003;
2.415500000000000E+009;1.976229846477509E-001;-3.606240823864937E-002;8.553318330086768E-004;-1.626727869734168E-003;
2.415666666666667E+009;1.989544183015823E-001;-3.709196299314499E-002;7.424110663123429E-004;-1.359544112347066E-003;
2.415833333333334E+009;1.999895870685577E-001;-3.778869658708572E-002;4.136867064516991E-004;-1.524360501207411E-003;
2.416000000000000E+009;2.010215371847153E-001;-3.861357271671295E-002;3.832096408586949E-004;-1.740431878715754E-003;
2.416166666666667E+009;2.019347697496414E-001;-3.907496109604836E-002;9.348658932140097E-005;-1.608450198546052E-003;
2.416333333333334E+009;2.028274387121201E-001;-3.945928812026978E-002;-2.559034037403762E-004;-1.720648258924484E-003;
2.416500000000000E+009;2.036095410585403E-001;-3.972404077649117E-002;-3.412692167330533E-004;-1.650065183639526E-003;
2.416666666666667E+009;2.041277289390564E-001;-4.004033654928207E-002;-5.431984318420291E-004;-1.633505220524967E-003;
2.416833333333334E+009;2.045033723115921E-001;-3.997427225112915E-002;-7.708023185841739E-004;-1.462407875806093E-003;
2.417000000000000E+009;2.048477977514267E-001;-4.004428535699844E-002;-7.795420824550092E-004;-1.304312958382070E-003;
2.417166666666667E+009;2.049296796321869E-001;-3.982326760888100E-002;-9.866431355476379E-004;-1.177029218524694E-003;
2.417333333333334E+009;2.048645764589310E-001;-3.958419337868691E-002;-1.038401620462537E-003;-9.862665319815278E-004;
2.417500000000000E+009;2.048498839139938E-001;-3.942123055458069E-002;-9.555383003316820E-004;-8.766648825258017E-004;
2.417666666666667E+009;2.046815156936646E-001;-3.894009068608284E-002;-1.200292725116015E-003;-6.977613084018230E-004;
2.417833333333334E+009;2.043429613113403E-001;-3.854175657033920E-002;-1.178443315438926E-003;-6.313620251603425E-004;
2.418000000000000E+009;2.039153277873993E-001;-3.811089694499970E-002;-1.209204900078476E-003;-4.209770122542977E-004;
2.418166666666667E+009;2.032652795314789E-001;-3.769109025597572E-002;-1.310394494794309E-003;-3.091138205491006E-004;
2.418333333333334E+009;2.026342749595642E-001;-3.725623711943626E-002;-1.092861988581717E-003;-1.922592782648280E-004;
2.418500000000000E+009;2.017659842967987E-001;-3.701180592179298E-002;-1.225315616466105E-003;8.887086551112589E-006;
2.418666666666667E+009;2.010329216718674E-001;-3.662600740790367E-002;-1.194734242744744E-003;2.319324703421444E-004;
2.418833333333334E+009;1.998283267021179E-001;-3.648321703076363E-002;-1.261792727746069E-003;3.000693395733833E-004;
2.419000000000000E+009;1.985699832439423E-001;-3.631399944424629E-002;-1.173515105620027E-003;3.298228548374027E-004;
2.419166666666667E+009;1.973372399806976E-001;-3.634150698781014E-002;-9.904274484142661E-004;4.155818896833807E-004;
2.419333333333334E+009;1.960226446390152E-001;-3.662052750587463E-002;-9.042038582265377E-004;6.377741810865700E-004;
2.419500000000000E+009;1.945731639862061E-001;-3.681860491633415E-002;-7.620875840075314E-004;6.222583469934762E-004;
2.419666666666667E+009;1.929552108049393E-001;-3.732159733772278E-002;-7.863048231229186E-004;7.469793199561536E-004;
2.419833333333334E+009;1.913809180259705E-001;-3.770254924893379E-002;-5.812193849124014E-004;7.742376183159649E-004;
2.420000000000000E+009;1.895860433578491E-001;-3.838501498103142E-002;-5.713313585147262E-004;8.138659759424627E-004;
2.420166666666667E+009;1.877942532300949E-001;-3.915567696094513E-002;-4.190520558040589E-004;1.052679843269289E-003;
2.420333333333334E+009;1.859947144985199E-001;-4.001084715127945E-002;-2.410287415841594E-004;9.482352761551738E-004;
2.420500000000000E+009;1.841359734535217E-001;-4.142565652728081E-002;-1.350149686913937E-004;7.925760583020747E-004;
2.420666666666667E+009;1.823564469814301E-001;-4.219363257288933E-002;-7.360596646321937E-005;9.020565194077790E-004;
2.420833333333334E+009;1.803137063980103E-001;-4.360948130488396E-002;-6.008110722177662E-005;8.475540671497583E-004;
2.421000000000000E+009;1.786364316940308E-001;-4.502192884683609E-002;1.183611093438231E-004;9.429565980099142E-004;
2.421166666666667E+009;1.771485209465027E-001;-4.659113287925720E-002;3.311120235593990E-005;8.895556675270200E-004;
2.421333333333334E+009;1.750400960445404E-001;-4.792907088994980E-002;6.306946306722239E-005;9.246416157111526E-004;
2.421500000000000E+009;1.735219508409500E-001;-4.987861216068268E-002;2.066243905574083E-004;9.886120678856969E-004;
2.421666666666667E+009;1.720283031463623E-001;-5.149203166365624E-002;2.216538414359093E-004;9.376749512739480E-004;
2.421833333333334E+009;1.706099510192871E-001;-5.326997116208077E-002;2.477781672496349E-004;8.968575275503099E-004;
2.422000000000000E+009;1.692322045564652E-001;-5.524399131536484E-002;3.731161705218256E-004;8.449524175375700E-004;
2.422166666666667E+009;1.682551950216293E-001;-5.729335173964500E-002;5.312342545948923E-004;1.003963523544371E-003;
2.422333333333334E+009;1.670480966567993E-001;-5.927186831831932E-002;5.370940198190510E-004;9.881989099085331E-004;
2.422500000000000E+009;1.661066114902496E-001;-6.132001429796219E-002;6.547537050209940E-004;7.991211023181677E-004;
2.422666666666667E+009;1.651391237974167E-001;-6.340784579515457E-002;8.516114903613925E-004;8.566843462176621E-004;
2.422833333333334E+009;1.646315902471542E-001;-6.545341759920120E-002;8.619961445219815E-004;7.333976682275534E-004;
2.423000000000000E+009;1.639733314514160E-001;-6.774561852216721E-002;1.154204364866018E-003;7.030393462628126E-004;
2.423166666666667E+009;1.636203378438950E-001;-6.972634047269821E-002;1.107756863348186E-003;4.961927770636976E-004;
2.423333333333334E+009;1.634180992841721E-001;-7.178987562656403E-002;1.243877923116088E-003;5.169988726265729E-004;
2.423500000000000E+009;1.631595641374588E-001;-7.390791922807694E-002;1.296033384278417E-003;2.019431994995102E-004;
2.423666666666667E+009;1.632189005613327E-001;-7.604786008596420E-002;1.410684548318386E-003;7.435285806423053E-005;
2.423833333333334E+009;1.632633209228516E-001;-7.806612551212311E-002;1.482960535213351E-003;-1.411915145581588E-004;
2.424000000000000E+009;1.634691506624222E-001;-8.001959323883057E-002;1.469245296902955E-003;-2.334811433684081E-004;
2.424166666666667E+009;1.635411381721497E-001;-8.170482516288757E-002;1.457419828511775E-003;-3.861829172819853E-004;
2.424333333333334E+009;1.640412509441376E-001;-8.356150239706039E-002;1.226846943609417E-003;-7.250445778481662E-004;
2.424500000000000E+009;1.644402742385864E-001;-8.557717502117157E-002;1.139348372817040E-003;-8.796309120953083E-004;
2.424666666666667E+009;1.648181378841400E-001;-8.713898062705994E-002;1.197358826175332E-003;-8.168528438545764E-004;
2.424833333333334E+009;1.656272262334824E-001;-8.865668624639511E-002;9.833910735324025E-004;-1.001830794848502E-003;
2.425000000000000E+009;1.662028878927231E-001;-9.003157913684845E-002;7.529529393650591E-004;-1.053026411682367E-003;
2.425166666666667E+009;1.667247414588928E-001;-9.142294526100159E-002;6.940304301679134E-004;-1.154665020294488E-003;
2.425333333333334E+009;1.672789156436920E-001;-9.255074709653854E-002;5.404954426921904E-004;-1.280202646739781E-003;
2.425500000000000E+009;1.681231260299683E-001;-9.373232722282410E-002;4.788566147908568E-004;-1.265542465262115E-003;
2.425666666666667E+009;1.687909513711929E-001;-9.466285258531570E-002;1.549978624098003E-004;-1.175196492113173E-003;
2.425833333333334E+009;1.693567335605621E-001;-9.561375528573990E-002;-3.183999797329307E-005;-1.334578962996602E-003;
2.426000000000000E+009;1.700877994298935E-001;-9.617272764444351E-002;-1.253024529432878E-004;-1.295327441766858E-003;
2.426166666666667E+009;1.709478795528412E-001;-9.683363139629364E-002;-3.321795957162976E-004;-1.274497481063008E-003;
2.426333333333334E+009;1.714348047971726E-001;-9.758161008358002E-002;-2.884391578845680E-004;-1.023807795718312E-003;
2.426500000000000E+009;1.721787750720978E-001;-9.794341027736664E-002;-3.069490776397288E-004;-9.398807887919247E-004;
2.426666666666667E+009;1.728027313947678E-001;-9.836612641811371E-002;-3.159585467074066E-004;-9.439230780117214E-004;
2.426833333333334E+009;1.734787821769714E-001;-9.871684759855270E-002;-6.144831422716379E-004;-8.566038450226188E-004;
2.427000000000000E+009;1.739188134670258E-001;-9.908087551593781E-002;-4.089456924702972E-004;-8.762963698245585E-004;
2.427166666666667E+009;1.742431074380875E-001;-9.927759319543839E-002;-5.698585300706327E-004;-6.080997409299016E-004;
2.427333333333334E+009;1.744064539670944E-001;-9.965297579765320E-002;-6.684386171400547E-004;-7.135013001970947E-004;
2.427500000000000E+009;1.745949387550354E-001;-9.983148425817490E-002;-6.741589750163257E-004;-6.415990646928549E-004;
2.427666666666667E+009;1.746206432580948E-001;-9.988278895616531E-002;-7.783250766806305E-004;-4.367035871837288E-004;
2.427833333333334E+009;1.745381802320480E-001;-9.995504468679428E-002;-6.571243284270167E-004;-5.067383171990514E-004;
