# Version 1.00
#
freq[Hz];re:Trc1_S11;im:Trc1_S11;re:Trc2_S21;im:Trc2_S21;
2.400000000000000E+009;1.517581790685654E-001;1.178071275353432E-001;4.446830425877124E-004;1.066208351403475E-003;
2.400166666666667E+009;1.514476388692856E-001;1.156189069151878E-001;6.384518928825855E-004;9.814591612666845E-004;
2.400333333333334E+009;1.513937413692474E-001;1.133596450090408E-001;8.574512903578579E-004;7.305641775019467E-004;
2.400500000000000E+009;1.511051654815674E-001;1.107220947742462E-001;1.018078182823956E-003;5.950299091637135E-004;
2.400666666666667E+009;1.510314494371414E-001;1.082164645195007E-001;9.913727408275008E-004;5.506436573341489E-004;
2.400833333333334E+009;1.508270502090454E-001;1.055573523044586E-001;9.474952239543200E-004;2.904932480305433E-004;
2.401000000000000E+009;1.509154587984085E-001;1.026230677962303E-001;1.189225935377181E-003;1.967682765098289E-004;
2.401166666666667E+009;1.507036238908768E-001;9.980767220258713E-002;1.218870980665088E-003;1.095959160011262E-004;
2.401333333333334E+009;1.507959961891174E-001;9.689381718635559E-002;1.257808995433152E-003;-2.553768281359226E-004;
2.401500000000000E+009;1.513131409883499E-001;9.397537261247635E-002;1.061095506884158E-003;-3.052260726690292E-004;
2.401666666666667E+009;1.513400375843048E-001;9.084816277027130E-002;1.199738704599440E-003;-3.609787381719798E-004;
2.401833333333334E+009;1.519265323877335E-001;8.825679123401642E-002;8.171089575625956E-004;-6.065987981855869E-004;
2.402000000000000E+009;1.526574641466141E-001;8.505386114120483E-002;9.806996677070856E-004;-6.382376304827631E-004;
2.402166666666667E+009;1.532874107360840E-001;8.241991698741913E-002;9.680105722509325E-004;-6.975063588470221E-004;
2.402333333333334E+009;1.542479544878006E-001;7.928144186735153E-002;9.044721373356879E-004;-7.208072929643095E-004;
2.402500000000000E+009;1.554497182369232E-001;7.663474977016449E-002;6.752586923539639E-004;-7.807149086147547E-004;
2.402666666666667E+009;1.565726399421692E-001;7.396545261144638E-002;6.684833788312972E-004;-8.648720104247332E-004;
2.402833333333334E+009;1.580211520195007E-001;7.133157551288605E-002;5.612606764771044E-004;-9.654127061367035E-004;
2.403000000000000E+009;1.596680581569672E-001;6.869550049304962E-002;4.909369163215160E-004;-1.203770749270916E-003;
2.403166666666667E+009;1.614518165588379E-001;6.631079316139221E-002;2.924611617345363E-004;-1.144324080087245E-003;
2.403333333333334E+009;1.630922704935074E-001;6.369799375534058E-002;3.277229843661189E-004;-1.323306118138135E-003;
2.403500000000000E+009;1.650502830743790E-001;6.127200275659561E-002;3.210646536899731E-005;-1.307828002609313E-003;
2.403666666666667E+009;1.671400815248489E-001;5.908327177166939E-002;5.844204133609310E-005;-1.455610967241228E-003;
2.403833333333334E+009;1.690412014722824E-001;5.678781121969223E-002;-1.314399414695799E-004;-1.353890518657863E-003;
2.404000000000000E+009;1.708717346191406E-001;5.494989827275276E-002;-1.205066437250935E-004;-1.351816346868873E-003;
2.404166666666667E+009;1.729927062988281E-001;5.300779640674591E-002;-2.837264619302005E-004;-1.335366396233439E-003;
2.404333333333334E+009;1.748325973749161E-001;5.115765333175659E-002;-4.522690724115819E-004;-1.281865639612079E-003;
2.404500000000000E+009;1.767789423465729E-001;4.941245168447495E-002;-5.493463831953704E-004;-1.311738160438836E-003;
2.404666666666667E+009;1.788898110389710E-001;4.816462472081184E-002;-7.680014241486788E-004;-1.261203084141016E-003;
2.404833333333334E+009;1.808757632970810E-001;4.668389633297920E-002;-6.863328162580729E-004;-1.087084878236055E-003;
2.405000000000000E+009;1.826397329568863E-001;4.585858434438705E-002;-8.349302806891501E-004;-1.130978111177683E-003;
2.405166666666667E+009;1.843904107809067E-001;4.489011317491531E-002;-8.606564369983971E-004;-1.090380246751010E-003;
2.405333333333334E+009;1.862352639436722E-001;4.426646605134010E-002;-9.353138739243150E-004;-9.088706574402750E-004;
2.405500000000000E+009;1.880277991294861E-001;4.370348528027535E-002;-1.149541698396206E-003;-9.544426575303078E-004;
2.405666666666667E+009;1.896439045667648E-001;4.316978529095650E-002;-1.321370946243405E-003;-7.991562597453594E-004;
2.405833333333334E+009;1.912866979837418E-001;4.269152507185936E-002;-1.128570875152946E-003;-8.079180261120200E-004;
2.406000000000000E+009;1.926728039979935E-001;4.252973943948746E-002;-1.209822134114802E-003;-7.624750141985714E-004;
2.406166666666667E+009;1.942328065633774E-001;4.241447523236275E-002;-1.254202798008919E-003;-4.816733417101204E-004;
2.406333333333334E+009;1.954488456249237E-001;4.246027395129204E-002;-1.455881632864475E-003;-6.473348475992680E-004;
2.406500000000000E+009;1.966962963342667E-001;4.235700517892838E-002;-1.555997412651777E-003;-4.164649872109294E-004;
2.406666666666667E+009;1.975614875555039E-001;4.250588268041611E-002;-1.594968605786562E-003;-4.223182040732354E-004;
2.406833333333334E+009;1.985368728637695E-001;4.268288239836693E-002;-1.617995556443930E-003;-2.066499582724646E-004;
2.407000000000000E+009;1.990583539009094E-001;4.293775558471680E-002;-1.709394389763475E-003;-2.022718108491972E-004;
2.407166666666667E+009;1.998061090707779E-001;4.288666322827339E-002;-1.518630422651768E-003;-1.008935942081735E-004;
2.407333333333334E+009;2.000413537025452E-001;4.314932227134705E-002;-1.854796544648707E-003;1.416590675944462E-004;
2.407500000000000E+009;2.001659572124481E-001;4.330217093229294E-002;-1.815421623177826E-003;3.440997679717839E-004;
2.407666666666667E+009;2.005383074283600E-001;4.343235120177269E-002;-1.836880343034864E-003;4.601981199812144E-004;
2.407833333333334E+009;2.002642005681992E-001;4.354247450828552E-002;-1.758562983013690E-003;5.837188800796866E-004;
2.408000000000000E+009;2.003938555717468E-001;4.360350221395493E-002;-1.763133564963937E-003;8.561942959204316E-004;
2.408166666666667E+009;1.998012810945511E-001;4.351182281970978E-002;-1.682786038145423E-003;1.012187916785479E-003;
2.408333333333334E+009;1.995194703340530E-001;4.330554232001305E-002;-1.633353298529983E-003;1.067254343070090E-003;
2.408500000000000E+009;1.988983750343323E-001;4.330649226903915E-002;-1.502528204582632E-003;1.353833707980812E-003;
2.408666666666667E+009;1.983021497726440E-001;4.284913092851639E-002;-1.427459181286395E-003;1.490381429903209E-003;
2.408833333333334E+009;1.975043714046478E-001;4.253671318292618E-002;-1.191305229440332E-003;1.633737236261368E-003;
2.409000000000000E+009;1.965222805738449E-001;4.178973659873009E-002;-9.971850086003542E-004;1.730213174596429E-003;
2.409166666666667E+009;1.954939514398575E-001;4.113284498453140E-002;-8.557601249776781E-004;1.721863402053714E-003;
2.409333333333334E+009;1.944991946220398E-001;4.032953083515167E-002;-8.611898520030081E-004;1.847617560997605E-003;
2.409500000000000E+009;1.931242048740387E-001;3.937245160341263E-002;-4.963583778589964E-004;1.904820674099028E-003;
2.409666666666667E+009;1.919997483491898E-001;3.811785206198692E-002;-3.141064953524619E-004;1.860114163719118E-003;
2.409833333333334E+009;1.907727420330048E-001;3.678327053785324E-002;-7.693983934586868E-005;1.805989770218730E-003;
2.410000000000000E+009;1.896380633115768E-001;3.540581092238426E-002;1.093485334422439E-004;1.783666433766484E-003;
2.410166666666667E+009;1.881575584411621E-001;3.361485525965691E-002;9.822443826124072E-005;1.725969370454550E-003;
2.410333333333334E+009;1.871079653501511E-001;3.194062039256096E-002;3.846777544822544E-004;1.883915858343244E-003;
2.410500000000000E+009;1.857954710721970E-001;3.014101460576057E-002;3.692960017360747E-004;1.763546140864492E-003;
2.410666666666667E+009;1.846457272768021E-001;2.819564752280712E-002;4.957104683853686E-004;1.560177071951330E-003;
2.410833333333334E+009;1.838169991970062E-001;2.589693292975426E-002;5.729882395826280E-004;1.571998000144959E-003;
2.411000000000000E+009;1.827842593193054E-001;2.372347190976143E-002;6.102295010350645E-004;1.567640807479620E-003;
2.411166666666667E+009;1.816540956497192E-001;2.145452983677387E-002;8.738807518966496E-004;1.505117514170706E-003;
2.411333333333334E+009;1.808886677026749E-001;1.896976679563522E-002;8.229510276578367E-004;1.297145616263151E-003;
2.411500000000000E+009;1.803604662418366E-001;1.648621633648872E-002;9.903599275276065E-004;1.349369762465358E-003;
2.411666666666667E+009;1.796883940696716E-001;1.407774444669485E-002;1.135624595917761E-003;1.215345109812915E-003;
2.411833333333334E+009;1.789723932743073E-001;1.155929639935494E-002;1.222000224515796E-003;1.109835109673441E-003;
2.412000000000000E+009;1.790054738521576E-001;8.800883777439594E-003;1.159110805019736E-003;1.081689028069377E-003;
2.412166666666667E+009;1.787930130958557E-001;6.394809111952782E-003;1.327297999523580E-003;8.637171704322100E-004;
2.412333333333334E+009;1.787206828594208E-001;3.480190876871347E-003;1.394789549522102E-003;8.489816100336611E-004;
2.412500000000000E+009;1.789915412664414E-001;8.471383480355144E-004;1.452835625968874E-003;7.754989201202989E-004;
2.412666666666667E+009;1.793394535779953E-001;-1.919511822052300E-003;1.479841303080320E-003;5.778037593699992E-004;
2.412833333333334E+009;1.798761785030365E-001;-4.486353136599064E-003;1.700536231510341E-003;5.086259916424751E-004;
2.413000000000000E+009;1.804782301187515E-001;-7.215954363346100E-003;1.471451483666897E-003;1.682353176875040E-004;
2.413166666666667E+009;1.811610311269760E-001;-9.730634279549122E-003;1.561791985295713E-003;2.367344714002684E-004;
2.413333333333334E+009;1.818899363279343E-001;-1.246706023812294E-002;1.601558993570507E-003;1.532876631245017E-004;
2.413500000000000E+009;1.827225089073181E-001;-1.506780646741390E-002;1.479394501075149E-003;-3.745862704818137E-005;
2.413666666666667E+009;1.839337497949600E-001;-1.755160093307495E-002;1.566536026075482E-003;-2.148327766917646E-004;
2.413833333333334E+009;1.848769038915634E-001;-1.975762657821178E-002;1.349535887129605E-003;-2.339123457204551E-004;
2.414000000000000E+009;1.860997676849365E-001;-2.203130163252354E-002;1.445306581445038E-003;-3.693288308568299E-004;
2.414166666666667E+009;1.872654408216476E-001;-2.420302294194698E-002;1.390198594890535E-003;-5.253933486528695E-004;
2.414333333333334E+009;1.886318475008011E-001;-2.646377310156822E-002;1.451127347536385E-003;-6.425220635719597E-004;
2.414500000000000E+009;1.898120492696762E-001;-2.839810214936733E-002;1.268040738068521E-003;-8.163115708157420E-004;
2.414666666666667E+009;1.910421997308731E-001;-3.004605323076248E-002;1.281427335925400E-003;-8.795757894404233E-004;
2.414833333333334E+009;1.923295408487320E-001;-3.161074593663216E-002;1.360737020149827E-003;-1.028642174787819E-003;
2.415000000000000E+009;1.937698870897293E-001;-3.313170373439789E-002;1.117624226026237E-003;-1.170067233033478E-003;
2.415166666666667E+009;1.950749158859253E-001;-3.448466584086418E-002;9.599804179742932E-004;-1.358431996777654E-003;
2.415333333333334E+009;1.963270753622055E-001;-3.566578775644302E-002;8.740719058550894E-004;-1.460292725823820E-003;
2.415500000000000E+009;1.976238787174225E-001;-3.653262928128243E-002;8.521459531039000E-004;-1.557041425257921E-003;
2.415666666666667E+009;1.988172680139542E-001;-3.760702908039093E-002;6.055555422790349E-004;-1.626441022381187E-003;
2.415833333333334E+009;1.999041736125946E-001;-3.839661553502083E-002;2.910021576099098E-004;-1.601881231181324E-003;
2.416000000000000E+009;2.009764611721039E-001;-3.907351940870285E-002;2.137146657332778E-004;-1.806584070436657E-003;
2.416166666666667E+009;2.018555998802185E-001;-3.970694914460182E-002;4.375981745852187E-007;-1.666220254264772E-003;
2.416333333333334E+009;2.027150988578796E-001;-4.000228270888329E-002;-4.170346655882895E-004;-1.670916215516627E-003;
2.416500000000000E+009;2.035505622625351E-001;-4.032170027494431E-002;-4.459724004846066E-004;-1.657604356296361E-003;
2.416666666666667E+009;2.039201706647873E-001;-4.061128944158554E-002;-6.296695210039616E-004;-1.555651193484664E-003;
2.416833333333334E+009;2.043279558420181E-001;-4.048841074109078E-002;-8.470689645037055E-004;-1.526162028312683E-003;
2.417000000000000E+009;2.047028094530106E-001;-4.054520651698113E-002;-9.828739566728473E-004;-1.289907726459205E-003;
2.417166666666667E+009;2.046974152326584E-001;-4.042248427867889E-002;-1.106129377149046E-003;-1.108509954065085E-003;
2.417333333333334E+009;2.047220468521118E-001;-3.996071219444275E-002;-1.279726042412221E-003;-1.010759151540697E-003;
2.417500000000000E+009;2.047249078750610E-001;-3.986910358071327E-002;-1.120398985221982E-003;-8.457635995000601E-004;
2.417666666666667E+009;2.043531686067581E-001;-3.953065350651741E-002;-1.304231584072113E-003;-6.230198778212071E-004;
2.417833333333334E+009;2.040825486183167E-001;-3.903411701321602E-002;-1.295596593990922E-003;-6.013208767399192E-004;
2.418000000000000E+009;2.036250531673431E-001;-3.853408992290497E-002;-1.466850168071687E-003;-5.178530700504780E-004;
2.418166666666667E+009;2.029995620250702E-001;-3.822584077715874E-002;-1.345075084827840E-003;-3.777147503569722E-004;
2.418333333333334E+009;2.021507471799851E-001;-3.776100277900696E-002;-1.318977097980678E-003;-1.908519916469231E-004;
2.418500000000000E+009;2.014195621013641E-001;-3.758921101689339E-002;-1.280492870137096E-003;3.284154809080064E-005;
2.418666666666667E+009;2.006671130657196E-001;-3.711427748203278E-002;-1.303307712078095E-003;1.249168853973970E-004;
2.418833333333334E+009;1.994560062885284E-001;-3.702122718095779E-002;-1.318182214163244E-003;2.451925829518586E-004;
2.419000000000000E+009;1.982765495777130E-001;-3.679084405303001E-002;-1.234307885169983E-003;3.255166520830244E-004;
2.419166666666667E+009;1.969423294067383E-001;-3.686951100826263E-002;-1.167302019894123E-003;4.149668384343386E-004;
2.419333333333334E+009;1.956071555614471E-001;-3.707643598318100E-002;-1.145276473835111E-003;4.220285045448691E-004;
2.419500000000000E+009;1.941002607345581E-001;-3.713452816009522E-002;-9.680226212367415E-004;6.727738655172288E-004;
2.419666666666667E+009;1.925040781497955E-001;-3.779851645231247E-002;-8.967937319539487E-004;7.579978555440903E-004;
2.419833333333334E+009;1.908244937658310E-001;-3.812699392437935E-002;-7.549188449047506E-004;8.622560417279601E-004;
2.420000000000000E+009;1.890939325094223E-001;-3.864005580544472E-002;-6.819832487963140E-004;9.112861589528620E-004;
2.420166666666667E+009;1.873125731945038E-001;-3.952785208821297E-002;-5.030775791965425E-004;8.408204885199666E-004;
2.420333333333334E+009;1.855287253856659E-001;-4.042232409119606E-002;-3.518584126140922E-004;9.446352487429977E-004;
2.420500000000000E+009;1.835518628358841E-001;-4.167669638991356E-002;-3.108991077169776E-004;8.892359328456223E-004;
2.420666666666667E+009;1.817926913499832E-001;-4.235487058758736E-002;-2.018945087911561E-004;1.026263693347573E-003;
2.420833333333334E+009;1.798770129680634E-001;-4.383592680096626E-002;-1.321388699579984E-004;8.865810814313591E-004;
2.421000000000000E+009;1.782499253749847E-001;-4.534970968961716E-002;-1.591923064552248E-004;8.694773423485458E-004;
2.421166666666667E+009;1.765445172786713E-001;-4.695108905434609E-002;-6.449875218095258E-005;9.685255354270339E-004;
2.421333333333334E+009;1.746092140674591E-001;-4.809484630823135E-002;7.708890916546807E-005;7.944112876430154E-004;
2.421500000000000E+009;1.729337275028229E-001;-5.014503374695778E-002;4.326742418925278E-005;7.912149303592742E-004;
2.421666666666667E+009;1.714103817939758E-001;-5.168770253658295E-002;3.909538008883828E-006;9.217846090905368E-004;
2.421833333333334E+009;1.701799780130386E-001;-5.348373949527741E-002;2.315925230504945E-004;9.689315338619053E-004;
2.422000000000000E+009;1.685571968555450E-001;-5.525752902030945E-002;2.838557702489197E-004;9.264491964131594E-004;
2.422166666666667E+009;1.675850301980972E-001;-5.738779902458191E-002;3.881727170664817E-004;8.920197142288089E-004;
2.422333333333334E+009;1.662541180849075E-001;-5.932435765862465E-002;4.188216116745025E-004;7.998865912668407E-004;
2.422500000000000E+009;1.655060350894928E-001;-6.126686185598373E-002;4.286780604161322E-004;1.020533265545964E-003;
2.422666666666667E+009;1.648118048906326E-001;-6.341434270143509E-002;5.829937290400267E-004;9.445552132092416E-004;
2.422833333333334E+009;1.641981303691864E-001;-6.549423933029175E-002;8.559777052141726E-004;9.425556636415422E-004;
2.423000000000000E+009;1.634789556264877E-001;-6.767703592777252E-002;1.014713430777192E-003;6.117880693636835E-004;
2.423166666666667E+009;1.630338877439499E-001;-6.981398910284042E-002;1.072937157005072E-003;8.338250336237252E-004;
2.423333333333334E+009;1.628155261278153E-001;-7.184136658906937E-002;1.208087778650224E-003;5.129562341608107E-004;
2.423500000000000E+009;1.625480502843857E-001;-7.385440915822983E-002;1.201579812914133E-003;4.102041420992464E-004;
2.423666666666667E+009;1.627479046583176E-001;-7.599362730979919E-002;1.361824804916978E-003;2.434074267512187E-004;
2.423833333333334E+009;1.627664864063263E-001;-7.809594273567200E-002;1.276272349059582E-003;3.976836524088867E-005;
2.424000000000000E+009;1.628853976726532E-001;-7.995716482400894E-002;1.215100754052401E-003;-8.600541332270950E-005;
2.424166666666667E+009;1.631679236888886E-001;-8.181471377611160E-002;1.319147995673120E-003;-4.141176468692720E-004;
2.424333333333334E+009;1.635634005069733E-001;-8.349417895078659E-002;1.303012715652585E-003;-5.580646102316678E-004;
2.424500000000000E+009;1.639669984579086E-001;-8.537514507770538E-002;1.095972140319645E-003;-5.946325254626572E-004;
2.424666666666667E+009;1.644399613142014E-001;-8.692032098770142E-002;1.038791378960013E-003;-8.032103651203215E-004;
2.424833333333334E+009;1.651663035154343E-001;-8.844102174043655E-002;1.015725778415799E-003;-7.846053922548890E-004;
2.425000000000000E+009;1.657133102416992E-001;-8.995424956083298E-002;7.076668553054333E-004;-9.722411632537842E-004;
2.425166666666667E+009;1.663597375154495E-001;-9.126338362693787E-002;5.665266653522849E-004;-9.594144648872316E-004;
2.425333333333334E+009;1.668974608182907E-001;-9.243064373731613E-002;4.354153061285615E-004;-1.137939631007612E-003;
2.425500000000000E+009;1.676742732524872E-001;-9.349465370178223E-002;3.924748452845961E-004;-9.061587043106556E-004;
2.425666666666667E+009;1.683248728513718E-001;-9.444119036197662E-002;2.363812818657607E-004;-1.122570945881307E-003;
2.425833333333334E+009;1.691191047430039E-001;-9.540560096502304E-002;1.692795631242916E-004;-1.090696081519127E-003;
2.426000000000000E+009;1.697852313518524E-001;-9.603872150182724E-002;6.531141116283834E-005;-1.150170108303428E-003;
2.426166666666667E+009;1.705998629331589E-001;-9.674181044101715E-002;-1.510000001871958E-004;-9.106195648200810E-004;
2.426333333333334E+009;1.710451543331146E-001;-9.743402898311615E-002;-1.971514575416222E-004;-9.058459545485675E-004;
2.426500000000000E+009;1.718628704547882E-001;-9.781801700592041E-002;-2.911904302891344E-004;-7.312830421142280E-004;
2.426666666666667E+009;1.724974364042282E-001;-9.820783138275147E-002;-3.992557467427105E-004;-8.749730768613517E-004;
2.426833333333334E+009;1.731557101011276E-001;-9.862447530031204E-002;-4.282427835278213E-004;-8.122058934532106E-004;
2.427000000000000E+009;1.733916103839874E-001;-9.895589947700501E-002;-4.280772409401834E-004;-7.100073271431029E-004;
2.427166666666667E+009;1.738543957471848E-001;-9.906860440969467E-002;-6.288842414505780E-004;-6.268419092521071E-004;
2.427333333333334E+009;1.741668134927750E-001;-9.948843717575073E-002;-4.858432803303003E-004;-4.186912265140563E-004;
2.427500000000000E+009;1.741790324449539E-001;-9.967073798179627E-002;-5.980153218843043E-004;-3.954894200433046E-004;
2.427666666666667E+009;1.742849946022034E-001;-9.973257780075073E-002;-5.204892950132489E-004;-3.492068790365011E-004;
2.427833333333334E+009;1.741135567426682E-001;-9.987257421016693E-002;-4.736866976600140E-004;-3.532537957653403E-004;
