# Version 1.00
#
freq[Hz];re:Trc1_S11;im:Trc1_S11;re:Trc2_S21;im:Trc2_S21;
2.400000000000000E+009;1.512753665447235E-001;1.171632334589958E-001;4.065316752530634E-004;8.955912198871374E-004;
2.400166666666667E+009;1.508003622293472E-001;1.151564046740532E-001;4.578388179652393E-004;7.242521969601512E-004;
2.400333333333334E+009;1.507207751274109E-001;1.129040569067001E-001;7.829599780961871E-004;7.332001696340740E-004;
2.400500000000000E+009;1.505430638790131E-001;1.103346124291420E-001;7.606036961078644E-004;7.090730941854417E-004;
2.400666666666667E+009;1.504100710153580E-001;1.078036129474640E-001;9.299824014306068E-004;5.076167290098965E-004;
2.400833333333334E+009;1.501603126525879E-001;1.048745810985565E-001;8.384991670027375E-004;1.789084781194106E-004;
2.401000000000000E+009;1.500685662031174E-001;1.021663323044777E-001;9.803882567211986E-004;1.001572090899572E-004;
2.401166666666667E+009;1.500191092491150E-001;9.948541224002838E-002;9.684601100161672E-004;7.355426987487590E-006;
2.401333333333334E+009;1.503988951444626E-001;9.663126617670059E-002;9.145307121798396E-004;-9.287305874750018E-005;
2.401500000000000E+009;1.505882889032364E-001;9.366181492805481E-002;9.128787205554545E-004;-2.753442677203566E-004;
2.401666666666667E+009;1.507566869258881E-001;9.070163965225220E-002;8.479463867843151E-004;-5.037357914261520E-004;
2.401833333333334E+009;1.513197273015976E-001;8.780434727668762E-002;8.120462298393250E-004;-4.924949607811868E-004;
2.402000000000000E+009;1.520228832960129E-001;8.496030420064926E-002;7.487546536140144E-004;-5.875633214600384E-004;
2.402166666666667E+009;1.527114361524582E-001;8.212035149335861E-002;6.832404178567231E-004;-7.932825828902423E-004;
2.402333333333334E+009;1.536929905414581E-001;7.906418293714523E-002;5.947173340246081E-004;-9.576819720678031E-004;
2.402500000000000E+009;1.546403020620346E-001;7.623833417892456E-002;5.822004750370979E-004;-9.245300316251814E-004;
2.402666666666667E+009;1.557286232709885E-001;7.379630208015442E-002;4.923593369312584E-004;-9.758034721016884E-004;
2.402833333333334E+009;1.574829369783402E-001;7.117504626512528E-002;3.869695065077394E-004;-1.086057280190289E-003;
2.403000000000000E+009;1.589721590280533E-001;6.882375478744507E-002;3.440281725488603E-004;-1.022178912535310E-003;
2.403166666666667E+009;1.608864367008209E-001;6.595715880393982E-002;2.474111679475755E-004;-1.156159094534814E-003;
2.403333333333334E+009;1.623885184526444E-001;6.350363045930862E-002;1.115032355301082E-004;-1.259303651750088E-003;
2.403500000000000E+009;1.641579568386078E-001;6.120735779404640E-002;4.961703234585002E-005;-1.364570809528232E-003;
2.403666666666667E+009;1.664990186691284E-001;5.901479348540306E-002;3.998416650574654E-005;-1.498542609624565E-003;
2.403833333333334E+009;1.684332638978958E-001;5.690517649054527E-002;-4.570771125145257E-004;-1.166152884252369E-003;
2.404000000000000E+009;1.702056229114533E-001;5.488065257668495E-002;-4.355765122454613E-004;-1.270832144655287E-003;
2.404166666666667E+009;1.723434329032898E-001;5.309452116489410E-002;-5.331613938324153E-004;-1.214016461744905E-003;
2.404333333333334E+009;1.742636263370514E-001;5.126205831766129E-002;-5.942637799307704E-004;-1.372871105559170E-003;
2.404500000000000E+009;1.762439161539078E-001;4.949669539928436E-002;-7.085073157213628E-004;-1.228941488079727E-003;
2.404666666666667E+009;1.782213151454926E-001;4.809763282537460E-002;-6.934599950909615E-004;-1.053070765919983E-003;
2.404833333333334E+009;1.802957504987717E-001;4.680693522095680E-002;-8.047709125094116E-004;-9.171605342999101E-004;
2.405000000000000E+009;1.819310039281845E-001;4.599034786224365E-002;-1.037061447277665E-003;-9.525305358693004E-004;
2.405166666666667E+009;1.838354319334030E-001;4.501586034893990E-002;-1.020485069602728E-003;-8.845517877489328E-004;
2.405333333333334E+009;1.855412870645523E-001;4.443571344017983E-002;-1.166354864835739E-003;-8.976608514785767E-004;
2.405500000000000E+009;1.874218434095383E-001;4.373608157038689E-002;-1.133354613557458E-003;-7.889205007813871E-004;
2.405666666666667E+009;1.890281587839127E-001;4.327462613582611E-002;-1.108899363316596E-003;-7.066351245157421E-004;
2.405833333333334E+009;1.906692534685135E-001;4.291008412837982E-002;-1.286662882193923E-003;-7.727222982794046E-004;
2.406000000000000E+009;1.922125369310379E-001;4.273620620369911E-002;-1.413090154528618E-003;-6.655394099652767E-004;
2.406166666666667E+009;1.935491859912872E-001;4.265348985791206E-002;-1.548481872305274E-003;-6.292662583291531E-004;
2.406333333333334E+009;1.949089616537094E-001;4.261273518204689E-002;-1.593590364791453E-003;-4.317987477406859E-004;
2.406500000000000E+009;1.959822773933411E-001;4.260408878326416E-002;-1.712949713692069E-003;-3.313316847197712E-004;
2.406666666666667E+009;1.970122158527374E-001;4.287260025739670E-002;-1.509892870672047E-003;-3.416142426431179E-004;
2.406833333333334E+009;1.978688985109329E-001;4.291924461722374E-002;-1.693258876912296E-003;-2.552924852352589E-004;
2.407000000000000E+009;1.984387934207916E-001;4.321115091443062E-002;-1.836307346820831E-003;-5.981022331980057E-005;
2.407166666666667E+009;1.992010474205017E-001;4.316551610827446E-002;-1.729797222651541E-003;1.156599028035998E-004;
2.407333333333334E+009;1.993912458419800E-001;4.345133900642395E-002;-1.867810962721705E-003;2.773034793790430E-004;
2.407500000000000E+009;1.996571719646454E-001;4.381924122571945E-002;-1.871956977993250E-003;4.447180835995823E-004;
2.407666666666667E+009;1.998237818479538E-001;4.384015500545502E-002;-1.821630867198110E-003;7.186728762462735E-004;
2.407833333333334E+009;1.995594352483749E-001;4.401988163590431E-002;-1.847662962973118E-003;9.125651558861136E-004;
2.408000000000000E+009;1.996455341577530E-001;4.398025572299957E-002;-1.922123483382165E-003;8.675619028508663E-004;
2.408166666666667E+009;1.991917341947556E-001;4.405942186713219E-002;-1.748001202940941E-003;1.139068510383368E-003;
2.408333333333334E+009;1.988836526870728E-001;4.382885992527008E-002;-1.702151377685368E-003;1.232838258147240E-003;
2.408500000000000E+009;1.982426792383194E-001;4.379971325397492E-002;-1.460648025386035E-003;1.358852139674127E-003;
2.408666666666667E+009;1.976833790540695E-001;4.356860741972923E-002;-1.462940708734095E-003;1.672165584750474E-003;
2.408833333333334E+009;1.970281898975372E-001;4.299239814281464E-002;-1.241846010088921E-003;1.672533107921481E-003;
2.409000000000000E+009;1.959248781204224E-001;4.243973270058632E-002;-1.139722298830748E-003;1.877892878837884E-003;
2.409166666666667E+009;1.948920786380768E-001;4.182134568691254E-002;-1.033079228363931E-003;1.823156489990652E-003;
2.409333333333334E+009;1.938989013433456E-001;4.105581715703011E-002;-7.010449771769345E-004;2.061072271317244E-003;
2.409500000000000E+009;1.927752792835236E-001;3.983861207962036E-002;-5.660232272930443E-004;2.087805885821581E-003;
2.409666666666667E+009;1.915291249752045E-001;3.879158943891525E-002;-4.311197262722999E-004;2.092515118420124E-003;
2.409833333333334E+009;1.901733428239822E-001;3.741242736577988E-002;-2.376434713369235E-004;1.931135891936719E-003;
2.410000000000000E+009;1.891663819551468E-001;3.595016151666641E-002;4.689110937761143E-005;2.034482778981328E-003;
2.410166666666667E+009;1.878886967897415E-001;3.434551134705544E-002;4.176419315626845E-005;2.020424231886864E-003;
2.410333333333334E+009;1.866420805454254E-001;3.263127803802490E-002;3.832277725450695E-004;1.955615589395165E-003;
2.410500000000000E+009;1.855096369981766E-001;3.088201209902763E-002;3.880975418724120E-004;1.750830677337945E-003;
2.410666666666667E+009;1.843318939208984E-001;2.869826741516590E-002;5.875370115973055E-004;1.752350828610361E-003;
2.410833333333334E+009;1.834508031606674E-001;2.648866549134255E-002;6.580316112376750E-004;1.662494614720345E-003;
2.411000000000000E+009;1.824059486389160E-001;2.444528788328171E-002;6.603799993172288E-004;1.732689910568297E-003;
2.411166666666667E+009;1.815263181924820E-001;2.215021662414074E-002;8.570380741730332E-004;1.648173900321126E-003;
2.411333333333334E+009;1.807271540164948E-001;1.960790343582630E-002;9.455041144974530E-004;1.558408373966813E-003;
2.411500000000000E+009;1.799568086862564E-001;1.724117435514927E-002;1.107701798900962E-003;1.503618434071541E-003;
2.411666666666667E+009;1.796983182430267E-001;1.470369752496481E-002;1.102431095205247E-003;1.473691430874169E-003;
2.411833333333334E+009;1.790160983800888E-001;1.208282820880413E-002;1.319495146162808E-003;1.312872162088752E-003;
2.412000000000000E+009;1.788064986467362E-001;9.412083774805069E-003;1.233663992024958E-003;1.300684758462012E-003;
2.412166666666667E+009;1.786987930536270E-001;6.874012760818005E-003;1.472399337217212E-003;1.099637942388654E-003;
2.412333333333334E+009;1.786679476499558E-001;4.178952425718308E-003;1.409366726875305E-003;1.049082260578871E-003;
2.412500000000000E+009;1.790002882480621E-001;1.461128238588572E-003;1.584535930305719E-003;9.963727788999677E-004;
2.412666666666667E+009;1.793476641178131E-001;-1.361779985018075E-003;1.715477672405541E-003;6.347315502353013E-004;
2.412833333333334E+009;1.799132078886032E-001;-4.126118496060371E-003;1.784418593160808E-003;6.627122056670487E-004;
2.413000000000000E+009;1.803796291351318E-001;-6.689519155770540E-003;1.702043344266713E-003;5.028544692322612E-004;
2.413166666666667E+009;1.811531782150269E-001;-9.245407767593861E-003;1.727472641505301E-003;4.064656386617571E-004;
2.413333333333334E+009;1.820296645164490E-001;-1.189961470663548E-002;1.645707990974188E-003;1.470615679863840E-004;
2.413500000000000E+009;1.827597022056580E-001;-1.446708198636770E-002;1.770827104337513E-003;-9.324783604824916E-005;
2.413666666666667E+009;1.841668188571930E-001;-1.691439189016819E-002;1.691100420430303E-003;-3.127603122266009E-005;
2.413833333333334E+009;1.850863695144653E-001;-1.941455528140068E-002;1.749377930536866E-003;-2.433987829135731E-004;
2.414000000000000E+009;1.861543655395508E-001;-2.152655459940434E-002;1.541294506751001E-003;-3.491002717055380E-004;
2.414166666666667E+009;1.874300092458725E-001;-2.349474839866161E-002;1.673934049904347E-003;-5.139675922691822E-004;
2.414333333333334E+009;1.887454539537430E-001;-2.600773051381111E-002;1.639533089473844E-003;-4.955622716806829E-004;
2.414500000000000E+009;1.900020241737366E-001;-2.775887772440910E-002;1.589593593962491E-003;-7.244306616485119E-004;
2.414666666666667E+009;1.912551522254944E-001;-2.948459796607494E-002;1.548572327010334E-003;-9.075739071704447E-004;
2.414833333333334E+009;1.925923526287079E-001;-3.104343824088574E-002;1.339564449153841E-003;-1.019457471556962E-003;
2.415000000000000E+009;1.938881576061249E-001;-3.270120173692703E-002;1.406028284691274E-003;-1.222857157699764E-003;
2.415166666666667E+009;1.953659057617188E-001;-3.407572582364082E-002;1.126354327425361E-003;-1.332946121692658E-003;
2.415333333333334E+009;1.966726928949356E-001;-3.515386581420898E-002;1.095940708182752E-003;-1.453331904485822E-003;
2.415500000000000E+009;1.979448050260544E-001;-3.608113154768944E-002;9.690673323348165E-004;-1.620333991013467E-003;
2.415666666666667E+009;1.990312933921814E-001;-3.714077919721603E-002;6.629063282161951E-004;-1.584835350513458E-003;
2.415833333333334E+009;2.002055644989014E-001;-3.785212710499764E-002;6.015361286699772E-004;-1.596744405105710E-003;
2.416000000000000E+009;2.011875957250595E-001;-3.862506151199341E-002;3.694332845043391E-004;-1.703004469163716E-003;
2.416166666666667E+009;2.021902054548264E-001;-3.924409300088882E-002;1.157252190751024E-004;-1.824189093895257E-003;
2.416333333333334E+009;2.031126767396927E-001;-3.963591530919075E-002;-1.214453805005178E-004;-1.867047045379877E-003;
2.416500000000000E+009;2.037516087293625E-001;-3.985066339373589E-002;-2.654464624356479E-004;-1.763984095305204E-003;
2.416666666666667E+009;2.042948454618454E-001;-4.022041335701942E-002;-4.544651892501861E-004;-1.589635154232383E-003;
2.416833333333334E+009;2.046689391136169E-001;-4.016739875078201E-002;-6.467824568971992E-004;-1.529440283775330E-003;
2.417000000000000E+009;2.051860392093658E-001;-4.020771011710167E-002;-8.315405575558543E-004;-1.317339716479182E-003;
2.417166666666667E+009;2.050160914659500E-001;-3.999432548880577E-002;-8.184758480638266E-004;-1.264756079763174E-003;
2.417333333333334E+009;2.050795257091522E-001;-3.966784477233887E-002;-1.023987540975213E-003;-1.052821637131274E-003;
2.417500000000000E+009;2.050083577632904E-001;-3.964520245790482E-002;-1.001169206574559E-003;-1.018525101244450E-003;
2.417666666666667E+009;2.047639191150665E-001;-3.914233669638634E-002;-1.163809560239315E-003;-9.543239139020443E-004;
2.417833333333334E+009;2.044943124055862E-001;-3.871120512485504E-002;-1.179435988888145E-003;-5.633004475384951E-004;
2.418000000000000E+009;2.040208429098129E-001;-3.820683807134628E-002;-1.240868819877505E-003;-4.612628545146436E-004;
2.418166666666667E+009;2.033777981996536E-001;-3.784386441111565E-002;-1.286900485865772E-003;-3.350768238306046E-004;
2.418333333333334E+009;2.025422006845474E-001;-3.757255151867867E-002;-1.138512045145035E-003;-2.663002815097570E-004;
2.418500000000000E+009;2.017397135496140E-001;-3.727168589830399E-002;-1.131791621446610E-003;-7.670938066439703E-005;
2.418666666666667E+009;2.010333389043808E-001;-3.679151833057404E-002;-1.142597175203264E-003;1.036653484334238E-004;
2.418833333333334E+009;1.998432427644730E-001;-3.666730970144272E-002;-9.631127468310297E-004;8.534874359611422E-005;
2.419000000000000E+009;1.985140293836594E-001;-3.663493320345879E-002;-1.106143463402987E-003;1.764306798577309E-004;
2.419166666666667E+009;1.973953694105148E-001;-3.660190477967262E-002;-1.027091057039797E-003;2.533769584260881E-004;
2.419333333333334E+009;1.960364431142807E-001;-3.684834018349648E-002;-8.634240366518498E-004;5.729523254558444E-004;
2.419500000000000E+009;1.944048851728439E-001;-3.691739588975906E-002;-8.431980968452990E-004;6.739347008988261E-004;
2.419666666666667E+009;1.928593069314957E-001;-3.754583001136780E-002;-7.478558109141886E-004;7.092585437931120E-004;
2.419833333333334E+009;1.911906599998474E-001;-3.778577223420143E-002;-6.252744351513684E-004;7.409984245896339E-004;
2.420000000000000E+009;1.894783377647400E-001;-3.860397636890411E-002;-5.151973455213010E-004;7.253543590195477E-004;
2.420166666666667E+009;1.876680552959442E-001;-3.917172923684120E-002;-4.744504403788596E-004;7.395003340207040E-004;
2.420333333333334E+009;1.860480010509491E-001;-4.038259387016296E-002;-3.471767995506525E-004;9.790543699637055E-004;
2.420500000000000E+009;1.838731616735458E-001;-4.151359200477600E-002;-2.880087122321129E-004;9.118298185057938E-004;
2.420666666666667E+009;1.823133975267410E-001;-4.242036491632462E-002;-2.452338521834463E-004;7.384730270132422E-004;
2.420833333333334E+009;1.803959161043167E-001;-4.360190406441689E-002;-4.896471727988683E-005;8.054677164182067E-004;
2.421000000000000E+009;1.786062866449356E-001;-4.505863040685654E-002;3.561063567758538E-005;7.427606033161283E-004;
2.421166666666667E+009;1.770185828208923E-001;-4.660775139927864E-002;-6.052086973795667E-005;8.768999832682312E-004;
2.421333333333334E+009;1.750484853982925E-001;-4.815414175391197E-002;9.835228411247954E-005;7.416965672746301E-004;
2.421500000000000E+009;1.734077781438828E-001;-4.983862861990929E-002;9.770087490323931E-005;7.873396971262991E-004;
2.421666666666667E+009;1.719437539577484E-001;-5.160765722393990E-002;1.624035212444142E-004;6.965134525671601E-004;
2.421833333333334E+009;1.705818474292755E-001;-5.333342775702477E-002;1.972422614926472E-004;8.218513103201985E-004;
2.422000000000000E+009;1.693174839019775E-001;-5.533137544989586E-002;3.221021033823490E-004;8.393912576138973E-004;
2.422166666666667E+009;1.680625826120377E-001;-5.738457664847374E-002;2.908065798692405E-004;6.732172332704067E-004;
2.422333333333334E+009;1.669943630695343E-001;-5.937340483069420E-002;4.432103014551103E-004;7.808543159626424E-004;
2.422500000000000E+009;1.660091876983643E-001;-6.135519221425057E-002;5.165124894119799E-004;7.955495966598392E-004;
2.422666666666667E+009;1.652007400989533E-001;-6.330320984125137E-002;7.887071114964783E-004;8.037745719775558E-004;
2.422833333333334E+009;1.646045446395874E-001;-6.560413539409638E-002;8.720534970052540E-004;6.514911074191332E-004;
2.423000000000000E+009;1.639374494552612E-001;-6.772199273109436E-002;9.546822402626276E-004;5.336123285815120E-004;
2.423166666666667E+009;1.636085957288742E-001;-6.996434181928635E-002;1.049828599207103E-003;4.751695960294455E-004;
2.423333333333334E+009;1.631361842155457E-001;-7.210971415042877E-002;1.033866545185447E-003;4.090539878234267E-004;
2.423500000000000E+009;1.631111502647400E-001;-7.387901097536087E-002;1.324991113506258E-003;2.647818473633379E-004;
2.423666666666667E+009;1.633268147706986E-001;-7.609727978706360E-002;1.266015693545342E-003;1.124789014284033E-005;
2.423833333333334E+009;1.632664650678635E-001;-7.806058228015900E-002;1.372009865008295E-003;-2.674917050171644E-004;
2.424000000000000E+009;1.632896065711975E-001;-7.998606562614441E-002;1.303114462643862E-003;-3.139145846944302E-004;
2.424166666666667E+009;1.635110080242157E-001;-8.185756206512451E-002;1.162517466582358E-003;-5.067096208222210E-004;
2.424333333333334E+009;1.638771444559097E-001;-8.353549987077713E-002;1.168302726000547E-003;-5.648935912176967E-004;
2.424500000000000E+009;1.642761975526810E-001;-8.563788235187531E-002;1.069888705387712E-003;-7.571194437332451E-004;
2.424666666666667E+009;1.647764444351196E-001;-8.723091334104538E-002;9.847421897575259E-004;-6.978200399316847E-004;
2.424833333333334E+009;1.655526757240295E-001;-8.866535127162933E-002;7.546644192188978E-004;-1.010934356600046E-003;
2.425000000000000E+009;1.660537123680115E-001;-9.006808698177338E-002;6.346023292280734E-004;-1.172543154098094E-003;
2.425166666666667E+009;1.666033864021301E-001;-9.125526249408722E-002;5.985929165035486E-004;-1.222995109856129E-003;
2.425333333333334E+009;1.672454178333283E-001;-9.258449822664261E-002;4.567255091387779E-004;-1.194360665977001E-003;
2.425500000000000E+009;1.680248230695725E-001;-9.369047731161118E-002;1.895855093607679E-004;-1.257301773875952E-003;
2.425666666666667E+009;1.686624884605408E-001;-9.458771347999573E-002;-1.114454698836198E-005;-1.176650286652148E-003;
2.425833333333334E+009;1.694091260433197E-001;-9.557386487722397E-002;-8.808721031527966E-005;-9.936152491718531E-004;
2.426000000000000E+009;1.700877696275711E-001;-9.619049727916718E-002;-2.086713357130066E-004;-1.048134290613234E-003;
2.426166666666667E+009;1.708928942680359E-001;-9.689997881650925E-002;-3.648536512628198E-004;-1.113016973249614E-003;
2.426333333333334E+009;1.714443564414978E-001;-9.761856496334076E-002;-4.798650625161827E-004;-1.076144166290760E-003;
2.426500000000000E+009;1.721879988908768E-001;-9.797388315200806E-002;-5.507482565008104E-004;-8.564604213461280E-004;
2.426666666666667E+009;1.728499829769135E-001;-9.842675924301148E-002;-5.751795251853764E-004;-9.319936507381499E-004;
2.426833333333334E+009;1.734528392553330E-001;-9.877464920282364E-002;-6.436503026634455E-004;-7.700956193730235E-004;
2.427000000000000E+009;1.737412661314011E-001;-9.909123927354813E-002;-7.721174624748528E-004;-7.767422357574105E-004;
2.427166666666667E+009;1.740763336420059E-001;-9.932088106870651E-002;-7.781835156492889E-004;-5.231035174801946E-004;
2.427333333333334E+009;1.744650602340698E-001;-9.954962879419327E-002;-6.789360195398331E-004;-6.565932999365032E-004;
2.427500000000000E+009;1.745868325233460E-001;-9.995946288108826E-002;-8.229585364460945E-004;-4.033355507999659E-004;
2.427666666666667E+009;1.745039671659470E-001;-9.996028244495392E-002;-7.556540658697486E-004;-4.236761305946857E-004;
2.427833333333334E+009;1.745276600122452E-001;-1.000280454754829E-001;-8.178787538781762E-004;-3.975760773755610E-004;
