# Version 1.00
#
freq[Hz];re:Trc1_S11;im:Trc1_S11;re:Trc2_S21;im:Trc2_S21;
2.400000000000000E+009;1.564347743988037E-001;6.060164049267769E-002;-1.768680522218347E-003;1.262514735572040E-003;
2.400166666666667E+009;1.564821004867554E-001;5.872594192624092E-002;-1.881434000097215E-003;1.372097060084343E-003;
2.400333333333334E+009;1.565608531236649E-001;5.670520663261414E-002;-1.652455539442599E-003;1.457589329220355E-003;
2.400500000000000E+009;1.568382680416107E-001;5.458050593733788E-002;-1.852781511843205E-003;1.503276289440692E-003;
2.400666666666667E+009;1.570146083831787E-001;5.252700299024582E-002;-1.593834604136646E-003;1.530845649540424E-003;
2.400833333333334E+009;1.574038267135620E-001;5.067161470651627E-002;-1.501286169514060E-003;1.501687918789685E-003;
2.401000000000000E+009;1.577884256839752E-001;4.849002882838249E-002;-1.541598350740969E-003;1.564280712045729E-003;
2.401166666666667E+009;1.581054776906967E-001;4.626629874110222E-002;-1.378639251925051E-003;1.625179545953870E-003;
2.401333333333334E+009;1.584552377462387E-001;4.427155107259750E-002;-1.356120221316814E-003;1.666712691076100E-003;
2.401500000000000E+009;1.592772603034973E-001;4.222466796636581E-002;-1.168978400528431E-003;1.700558932498097E-003;
2.401666666666667E+009;1.596837192773819E-001;4.029725864529610E-002;-1.019378192722797E-003;1.701971748843789E-003;
2.401833333333334E+009;1.604040861129761E-001;3.818587213754654E-002;-1.003501936793327E-003;1.631733030080795E-003;
2.402000000000000E+009;1.608593910932541E-001;3.642549738287926E-002;-8.008546428754926E-004;1.683353562839329E-003;
2.402166666666667E+009;1.616708934307098E-001;3.453487902879715E-002;-8.284529903903604E-004;1.608831575140357E-003;
2.402333333333334E+009;1.622876226902008E-001;3.276728466153145E-002;-6.128661916591227E-004;1.531654619611800E-003;
2.402500000000000E+009;1.634891778230667E-001;3.110133297741413E-002;-5.274919676594436E-004;1.438736799173057E-003;
2.402666666666667E+009;1.641311496496201E-001;2.963151037693024E-002;-4.358699661679566E-004;1.462182030081749E-003;
2.402833333333334E+009;1.647960245609283E-001;2.811292186379433E-002;-4.766914935316891E-004;1.354621723294258E-003;
2.403000000000000E+009;1.657343208789825E-001;2.664282359182835E-002;-3.321492695249617E-004;1.257178257219493E-003;
2.403166666666667E+009;1.668998450040817E-001;2.524054422974587E-002;-2.523772418498993E-004;1.299137249588966E-003;
2.403333333333334E+009;1.678325384855270E-001;2.385773696005344E-002;-3.481551248114556E-004;1.138307736255229E-003;
2.403500000000000E+009;1.685560196638107E-001;2.287991344928742E-002;-1.539871736895293E-004;1.084746792912483E-003;
2.403666666666667E+009;1.696564108133316E-001;2.161419391632080E-002;-2.130969951394945E-004;9.645723039284349E-004;
2.403833333333334E+009;1.706570833921433E-001;2.055704034864903E-002;-2.816146879922599E-004;9.755454957485199E-004;
2.404000000000000E+009;1.715992242097855E-001;1.966376788914204E-002;-1.615988585399464E-004;8.506260928697884E-004;
2.404166666666667E+009;1.725007146596909E-001;1.884614303708077E-002;-2.352024021092802E-004;8.085122099146247E-004;
2.404333333333334E+009;1.732713133096695E-001;1.812015101313591E-002;-6.900708103785291E-005;7.153781480155885E-004;
2.404500000000000E+009;1.741034537553787E-001;1.724388077855110E-002;-2.863513363990933E-004;6.298233056440949E-004;
2.404666666666667E+009;1.749226003885269E-001;1.670305244624615E-002;-3.969694444094785E-005;6.218389607965946E-004;
2.404833333333334E+009;1.757026314735413E-001;1.616715081036091E-002;-2.030401810770854E-004;7.416801527142525E-004;
2.405000000000000E+009;1.764259785413742E-001;1.557100005447865E-002;-3.125612565781921E-004;6.437593256123364E-004;
2.405166666666667E+009;1.770734488964081E-001;1.505285035818815E-002;-2.845996350515634E-004;5.383402458392084E-004;
2.405333333333334E+009;1.778405308723450E-001;1.457230187952519E-002;-3.320934774819762E-004;3.094419080298394E-004;
2.405500000000000E+009;1.781790405511856E-001;1.448105927556753E-002;-2.083863655570895E-004;5.709449760615826E-004;
2.405666666666667E+009;1.786716729402542E-001;1.400956790894270E-002;-4.675446543842554E-004;3.365695301909000E-004;
2.405833333333334E+009;1.789649426937103E-001;1.382736861705780E-002;-3.544014180079103E-004;3.438010462559760E-004;
2.406000000000000E+009;1.794040501117706E-001;1.334308274090290E-002;-3.412978549022228E-004;3.824056766461581E-004;
2.406166666666667E+009;1.794634759426117E-001;1.325668208301067E-002;-4.906310932710767E-004;3.741967084351927E-004;
2.406333333333334E+009;1.798858195543289E-001;1.296857092529535E-002;-6.048443028703332E-004;3.941818431485444E-004;
2.406500000000000E+009;1.797657757997513E-001;1.273014117032290E-002;-7.621739059686661E-004;3.515649586915970E-004;
2.406666666666667E+009;1.796578764915466E-001;1.241666823625565E-002;-6.238375208340585E-004;3.427585761528462E-004;
2.406833333333334E+009;1.796938478946686E-001;1.191540155559778E-002;-6.779117975383997E-004;3.067169454880059E-004;
2.407000000000000E+009;1.795310974121094E-001;1.162472087889910E-002;-6.670336006209254E-004;3.021458978764713E-004;
2.407166666666667E+009;1.793860644102097E-001;1.135534606873989E-002;-6.914797704666853E-004;2.093864895869046E-004;
2.407333333333334E+009;1.790074706077576E-001;1.066456455737352E-002;-8.624114561825991E-004;4.006855306215584E-004;
2.407500000000000E+009;1.786302775144577E-001;1.014409121125937E-002;-9.087965008802712E-004;3.934094274882227E-004;
2.407666666666667E+009;1.782738119363785E-001;9.617114439606667E-003;-8.871864411048591E-004;5.463658599182963E-004;
2.407833333333334E+009;1.775927096605301E-001;8.773328736424446E-003;-1.179953687824309E-003;3.592582361306995E-004;
2.408000000000000E+009;1.770983636379242E-001;8.021021261811256E-003;-9.067167993634939E-004;3.940999449696392E-004;
2.408166666666667E+009;1.765175312757492E-001;7.377162110060453E-003;-1.027545076794922E-003;4.085762484464794E-004;
2.408333333333334E+009;1.763276010751724E-001;6.372428964823484E-003;-1.054378575645387E-003;7.824811036698520E-004;
2.408500000000000E+009;1.753840148448944E-001;5.430451128631830E-003;-1.132242847234011E-003;6.975025753490627E-004;
2.408666666666667E+009;1.747242659330368E-001;4.088874440640211E-003;-1.204206375405192E-003;8.154665119946003E-004;
2.408833333333334E+009;1.739865243434906E-001;3.049963619560003E-003;-1.061639166437089E-003;8.328123367391527E-004;
2.409000000000000E+009;1.733351051807404E-001;1.792365801520646E-003;-9.913499234244227E-004;6.623345543630421E-004;
2.409166666666667E+009;1.727433204650879E-001;4.040486528538168E-004;-1.041821786202490E-003;9.870145004242659E-004;
2.409333333333334E+009;1.721199005842209E-001;-1.043248688802123E-003;-1.023000804707408E-003;8.852467872202396E-004;
2.409500000000000E+009;1.713268607854843E-001;-2.790027530863881E-003;-1.074807369150221E-003;8.746500243432820E-004;
2.409666666666667E+009;1.707241535186768E-001;-4.180386196821928E-003;-1.137324259616435E-003;9.003644227050245E-004;
2.409833333333334E+009;1.700229048728943E-001;-5.779801402240992E-003;-1.216227770783007E-003;9.988477686420083E-004;
2.410000000000000E+009;1.696549206972122E-001;-7.360821589827538E-003;-8.346450631506741E-004;1.078123692423105E-003;
2.410166666666667E+009;1.693250238895416E-001;-9.197955951094627E-003;-1.096867490559816E-003;1.157659222371876E-003;
2.410333333333334E+009;1.686576008796692E-001;-1.102180499583483E-002;-9.808440227061510E-004;1.073767663910985E-003;
2.410500000000000E+009;1.683606356382370E-001;-1.279660034924746E-002;-1.157640828751028E-003;1.253109774552286E-003;
2.410666666666667E+009;1.680445522069931E-001;-1.497348304837942E-002;-1.002185279503465E-003;1.190334674902260E-003;
2.410833333333334E+009;1.678975075483322E-001;-1.669128984212875E-002;-1.066311611793935E-003;1.272973953746259E-003;
2.411000000000000E+009;1.675284802913666E-001;-1.861671358346939E-002;-9.405834716744721E-004;1.442264532670379E-003;
2.411166666666667E+009;1.674752086400986E-001;-2.068531699478626E-002;-9.845119202509522E-004;1.505653839558363E-003;
2.411333333333334E+009;1.673237383365631E-001;-2.267875708639622E-002;-1.142615918070078E-003;1.440347055904567E-003;
2.411500000000000E+009;1.675212532281876E-001;-2.471498027443886E-002;-9.862021543085575E-004;1.442995853722096E-003;
2.411666666666667E+009;1.676052063703537E-001;-2.640692703425884E-002;-9.015179239213467E-004;1.540259574539959E-003;
2.411833333333334E+009;1.678220927715302E-001;-2.851282246410847E-002;-8.355549070984125E-004;1.708306022919715E-003;
2.412000000000000E+009;1.682314127683640E-001;-3.052262403070927E-002;-8.550665224902332E-004;1.760000362992287E-003;
2.412166666666667E+009;1.683523356914520E-001;-3.230357915163040E-002;-9.185893577523530E-004;1.894200802780688E-003;
2.412333333333334E+009;1.687302887439728E-001;-3.405393660068512E-002;-7.371376850642264E-004;1.967500895261765E-003;
2.412500000000000E+009;1.692307740449905E-001;-3.592708334326744E-002;-8.377779740840197E-004;1.848525949753821E-003;
2.412666666666667E+009;1.698297411203384E-001;-3.775379061698914E-002;-5.945667508058250E-004;2.109501976519823E-003;
2.412833333333334E+009;1.702490895986557E-001;-3.945837169885635E-002;-7.647527381777763E-004;2.177938353270292E-003;
2.413000000000000E+009;1.709542274475098E-001;-4.103597626090050E-002;-6.513944244943559E-004;2.015178557485342E-003;
2.413166666666667E+009;1.715452671051025E-001;-4.261876270174980E-002;-6.917321588844061E-004;2.166796242818236E-003;
2.413333333333334E+009;1.719738394021988E-001;-4.424763098359108E-002;-4.309322102926672E-004;2.282622037455440E-003;
2.413500000000000E+009;1.725499182939529E-001;-4.558786749839783E-002;-4.292182275094092E-004;2.400052035227418E-003;
2.413666666666667E+009;1.733245253562927E-001;-4.692471399903297E-002;-2.919030375778675E-004;2.415691036731005E-003;
2.413833333333334E+009;1.739357113838196E-001;-4.831232875585556E-002;-1.779296435415745E-004;2.366228727623820E-003;
2.414000000000000E+009;1.744282692670822E-001;-4.938414320349693E-002;-1.050169448717497E-004;2.470635809004307E-003;
2.414166666666667E+009;1.751501858234406E-001;-5.056672543287277E-002;-1.605903889867477E-005;2.522774040699005E-003;
2.414333333333334E+009;1.757767945528030E-001;-5.156020075082779E-002;1.464531233068556E-004;2.534677507355809E-003;
2.414500000000000E+009;1.763556301593781E-001;-5.248571932315826E-002;2.443727862555534E-004;2.543694339692593E-003;
2.414666666666667E+009;1.769728213548660E-001;-5.335085093975067E-002;3.023715107701719E-004;2.617808990180492E-003;
2.414833333333334E+009;1.772260814905167E-001;-5.419224128127098E-002;5.447283037938178E-004;2.587597351521254E-003;
2.415000000000000E+009;1.776969879865646E-001;-5.490464344620705E-002;6.493866676464677E-004;2.651735208928585E-003;
2.415166666666667E+009;1.779852211475372E-001;-5.547219514846802E-002;6.843563751317561E-004;2.710789442062378E-003;
2.415333333333334E+009;1.783528774976730E-001;-5.598120018839836E-002;8.092875941656530E-004;2.605740912258625E-003;
2.415500000000000E+009;1.784636378288269E-001;-5.646516010165215E-002;9.955451823771000E-004;2.528089564293623E-003;
2.415666666666667E+009;1.786315590143204E-001;-5.684615299105644E-002;1.082705450244248E-003;2.485892502591014E-003;
2.415833333333334E+009;1.787450760602951E-001;-5.710720643401146E-002;1.237017335370183E-003;2.586347283795476E-003;
2.416000000000000E+009;1.785650700330734E-001;-5.750993266701698E-002;1.378373242914677E-003;2.374606905505061E-003;
2.416166666666667E+009;1.787758022546768E-001;-5.782727897167206E-002;1.377889420837164E-003;2.380254212766886E-003;
2.416333333333334E+009;1.782624870538712E-001;-5.802312493324280E-002;1.581442076712847E-003;2.298163250088692E-003;
2.416500000000000E+009;1.780262440443039E-001;-5.832784622907639E-002;1.710916869342327E-003;2.207689685747027E-003;
2.416666666666667E+009;1.776297241449356E-001;-5.832454189658165E-002;1.792161725461483E-003;2.036022022366524E-003;
2.416833333333334E+009;1.772686690092087E-001;-5.867045000195503E-002;1.888433704152703E-003;2.037933096289635E-003;
2.417000000000000E+009;1.764833480119705E-001;-5.886520445346832E-002;2.013379009440541E-003;1.974826445803046E-003;
2.417166666666667E+009;1.758743375539780E-001;-5.904095619916916E-002;2.122019417583942E-003;1.871221698820591E-003;
2.417333333333334E+009;1.752607375383377E-001;-5.928523465991020E-002;2.017664723098278E-003;1.827760250307620E-003;
2.417500000000000E+009;1.742691099643707E-001;-5.972257256507874E-002;2.138294046744704E-003;1.755346194840968E-003;
2.417666666666667E+009;1.735497713088989E-001;-5.977685004472733E-002;2.237826120108366E-003;1.534014823846519E-003;
2.417833333333334E+009;1.723978668451309E-001;-6.014178693294525E-002;2.318869112059474E-003;1.387043274007738E-003;
2.418000000000000E+009;1.713870167732239E-001;-6.071121245622635E-002;2.280470449477434E-003;1.402124762535095E-003;
2.418166666666667E+009;1.702631264925003E-001;-6.090639531612396E-002;2.358775120228529E-003;1.290467334911227E-003;
2.418333333333334E+009;1.693536192178726E-001;-6.151793524622917E-002;2.420951612293720E-003;1.120389904826880E-003;
2.418500000000000E+009;1.680731773376465E-001;-6.209301203489304E-002;2.347034867852926E-003;9.849024936556816E-004;
2.418666666666667E+009;1.669373810291290E-001;-6.284829229116440E-002;2.386022359132767E-003;9.703915566205978E-004;
2.418833333333334E+009;1.655564308166504E-001;-6.355275958776474E-002;2.466392470523715E-003;7.665424491278827E-004;
2.419000000000000E+009;1.642374545335770E-001;-6.425920128822327E-002;2.480313414707780E-003;7.281194557435811E-004;
2.419166666666667E+009;1.630763113498688E-001;-6.520657241344452E-002;2.385577186942101E-003;7.154251215979457E-004;
2.419333333333334E+009;1.617780625820160E-001;-6.589139997959137E-002;2.421307144686580E-003;6.895143305882812E-004;
2.419500000000000E+009;1.605165898799896E-001;-6.709009408950806E-002;2.400363795459271E-003;6.089496891945601E-004;
2.419666666666667E+009;1.595282256603241E-001;-6.816106289625168E-002;2.519430825486779E-003;4.398201126605272E-004;
2.419833333333334E+009;1.582785397768021E-001;-6.916236132383347E-002;2.425392158329487E-003;5.317194736562669E-004;
2.420000000000000E+009;1.572755277156830E-001;-7.043535262346268E-002;2.384315012022853E-003;3.190534189343453E-004;
2.420166666666667E+009;1.562154293060303E-001;-7.194107025861740E-002;2.409792505204678E-003;1.472167787142098E-004;
2.420333333333334E+009;1.552438884973526E-001;-7.313188165426254E-002;2.407640684396029E-003;2.103834267472848E-004;
2.420500000000000E+009;1.543724387884140E-001;-7.458736002445221E-002;2.332909265533090E-003;3.475391349638812E-005;
2.420666666666667E+009;1.533995568752289E-001;-7.583146542310715E-002;2.190576167777181E-003;-1.669086195761338E-004;
2.420833333333334E+009;1.524449735879898E-001;-7.764510065317154E-002;2.327661029994488E-003;-1.049981729011051E-004;
2.421000000000000E+009;1.518060564994812E-001;-7.929477840662003E-002;2.270306926220655E-003;-5.584500831901096E-005;
2.421166666666667E+009;1.511889696121216E-001;-8.072064816951752E-002;2.140096155926585E-003;-1.783103798516095E-004;
2.421333333333334E+009;1.508750468492508E-001;-8.244758099317551E-002;2.010278170928359E-003;-3.703364345710725E-004;
2.421500000000000E+009;1.502491831779480E-001;-8.413695544004440E-002;2.124572871252894E-003;-4.726279294118285E-004;
2.421666666666667E+009;1.499863713979721E-001;-8.587197959423065E-002;2.128216903656721E-003;-3.560850454960018E-004;
2.421833333333334E+009;1.496112197637558E-001;-8.753921091556549E-002;1.897729584015906E-003;-3.939418820664287E-004;
2.422000000000000E+009;1.493736654520035E-001;-8.923948556184769E-002;1.808758359402418E-003;-5.355944158509374E-004;
2.422166666666667E+009;1.493506580591202E-001;-9.091732650995255E-002;1.963387010619044E-003;-6.423029117286205E-004;
2.422333333333334E+009;1.493428349494934E-001;-9.279388189315796E-002;1.912874053232372E-003;-5.104823503643274E-004;
2.422500000000000E+009;1.493055224418640E-001;-9.422559291124344E-002;1.865820027887821E-003;-6.502173491753638E-004;
2.422666666666667E+009;1.494038850069046E-001;-9.589783102273941E-002;1.658952445723116E-003;-7.391534163616598E-004;
2.422833333333334E+009;1.497583091259003E-001;-9.755121916532517E-002;1.729622599668801E-003;-5.983677110634744E-004;
2.423000000000000E+009;1.499227136373520E-001;-9.907478839159012E-002;1.591801526956260E-003;-6.936556310392916E-004;
2.423166666666667E+009;1.504283100366592E-001;-1.006187573075295E-001;1.663019065745175E-003;-8.022307301871479E-004;
2.423333333333334E+009;1.507077515125275E-001;-1.019947677850723E-001;1.694440841674805E-003;-5.505847511813045E-004;
2.423500000000000E+009;1.511469781398773E-001;-1.034248918294907E-001;1.621482777409256E-003;-7.210501353256404E-004;
2.423666666666667E+009;1.514018326997757E-001;-1.048601940274239E-001;1.432574354112148E-003;-7.493174634873867E-004;
2.423833333333334E+009;1.522266715764999E-001;-1.060599535703659E-001;1.589223393239081E-003;-7.861162303015590E-004;
2.424000000000000E+009;1.526637822389603E-001;-1.071711182594299E-001;1.586634782142937E-003;-8.733303402550519E-004;
2.424166666666667E+009;1.530867218971252E-001;-1.083828359842300E-001;1.422061817720532E-003;-7.930945721454918E-004;
2.424333333333334E+009;1.536170840263367E-001;-1.093882545828819E-001;1.521107391454279E-003;-8.503580465912819E-004;
2.424500000000000E+009;1.541637331247330E-001;-1.104511618614197E-001;1.411457080394030E-003;-8.187121711671352E-004;
2.424666666666667E+009;1.547653675079346E-001;-1.110876277089119E-001;1.474356860853732E-003;-7.608986925333738E-004;
2.424833333333334E+009;1.549236625432968E-001;-1.119345799088478E-001;1.332736690528691E-003;-1.036277506500483E-003;
2.425000000000000E+009;1.554780602455139E-001;-1.125864312052727E-001;1.330077182501555E-003;-8.964024018496275E-004;
2.425166666666667E+009;1.558252274990082E-001;-1.132918149232864E-001;1.401213114149869E-003;-9.126539225690067E-004;
2.425333333333334E+009;1.563110351562500E-001;-1.139146164059639E-001;1.430409844033420E-003;-1.029464765451849E-003;
2.425500000000000E+009;1.565934717655182E-001;-1.144547909498215E-001;1.356672728434205E-003;-9.920258307829499E-004;
2.425666666666667E+009;1.566007882356644E-001;-1.148750931024551E-001;1.382916932925582E-003;-9.524159249849618E-004;
2.425833333333334E+009;1.569224298000336E-001;-1.151999086141586E-001;1.372651429846883E-003;-1.027586637064815E-003;
2.426000000000000E+009;1.569043546915054E-001;-1.156811192631722E-001;1.207013963721693E-003;-1.133839832618833E-003;
2.426166666666667E+009;1.571376770734787E-001;-1.160694360733032E-001;1.217940589413047E-003;-1.193355768918991E-003;
2.426333333333334E+009;1.570292711257935E-001;-1.162333190441132E-001;1.119572087191045E-003;-1.161595107987523E-003;
2.426500000000000E+009;1.569550782442093E-001;-1.163310483098030E-001;1.104876631870866E-003;-1.074970467016101E-003;
2.426666666666667E+009;1.567052453756332E-001;-1.163727268576622E-001;1.039190217852593E-003;-1.314168330281973E-003;
2.426833333333334E+009;1.563382893800736E-001;-1.166199073195458E-001;1.045909826643765E-003;-1.271989196538925E-003;
2.427000000000000E+009;1.558021456003189E-001;-1.168402805924416E-001;1.228330540470779E-003;-1.285389647819102E-003;
2.427166666666667E+009;1.552404463291168E-001;-1.168166324496269E-001;9.830754715949297E-004;-1.250986591912806E-003;
2.427333333333334E+009;1.546348780393601E-001;-1.169517636299133E-001;7.293070084415376E-004;-1.252131187357009E-003;
2.427500000000000E+009;1.540698260068893E-001;-1.171422377228737E-001;8.948324830271304E-004;-1.197883742861450E-003;
2.427666666666667E+009;1.531761884689331E-001;-1.173166781663895E-001;9.684952674433589E-004;-1.276335446164012E-003;
2.427833333333334E+009;1.521921753883362E-001;-1.173908039927483E-001;9.141797781921923E-004;-1.146531314589083E-003;
