# Version 1.00
#
freq[Hz];re:Trc1_S11;im:Trc1_S11;re:Trc2_S21;im:Trc2_S21;
2.400000000000000E+009;1.564307510852814E-001;6.045773252844811E-002;-1.847461098805070E-003;1.408146112225950E-003;
2.400166666666667E+009;1.566269546747208E-001;5.878026038408279E-002;-1.614253851585090E-003;1.431275741197169E-003;
2.400333333333334E+009;1.564922928810120E-001;5.680893361568451E-002;-1.705983420833945E-003;1.400804845616221E-003;
2.400500000000000E+009;1.568704545497894E-001;5.469139292836189E-002;-1.601210096850991E-003;1.467322814278305E-003;
2.400666666666667E+009;1.569823473691940E-001;5.259592458605766E-002;-1.683350419625640E-003;1.416296581737697E-003;
2.400833333333334E+009;1.573307514190674E-001;5.063892900943756E-002;-1.512964954599738E-003;1.557277282699943E-003;
2.401000000000000E+009;1.577490568161011E-001;4.849589616060257E-002;-1.519001671113074E-003;1.572396722622216E-003;
2.401166666666667E+009;1.578909903764725E-001;4.634232074022293E-002;-1.244324841536582E-003;1.703584333881736E-003;
2.401333333333334E+009;1.585674285888672E-001;4.433395713567734E-002;-1.348964986391366E-003;1.767640700563788E-003;
2.401500000000000E+009;1.590128242969513E-001;4.217381402850151E-002;-1.121682813391089E-003;1.568285748362541E-003;
2.401666666666667E+009;1.594798713922501E-001;4.033622518181801E-002;-1.093039871193469E-003;1.584655023179948E-003;
2.401833333333334E+009;1.602884680032730E-001;3.835457190871239E-002;-1.084996736608446E-003;1.596716814674437E-003;
2.402000000000000E+009;1.608584225177765E-001;3.646682575345039E-002;-7.070443243719637E-004;1.718158018775284E-003;
2.402166666666667E+009;1.615266948938370E-001;3.462550416588783E-002;-7.711268262937665E-004;1.694253529421985E-003;
2.402333333333334E+009;1.622637361288071E-001;3.292896598577499E-002;-6.981957121752203E-004;1.482502091675997E-003;
2.402500000000000E+009;1.633987426757813E-001;3.134004026651382E-002;-4.578804364427924E-004;1.601798227056861E-003;
2.402666666666667E+009;1.639782786369324E-001;2.982346713542938E-002;-4.293486999813467E-004;1.385196344926953E-003;
2.402833333333334E+009;1.649541407823563E-001;2.821907587349415E-002;-4.164584679529071E-004;1.396356383338571E-003;
2.403000000000000E+009;1.657231152057648E-001;2.675566822290421E-002;-4.917854676023126E-004;1.273708534426987E-003;
2.403166666666667E+009;1.667984426021576E-001;2.539748139679432E-002;-2.893948112614453E-004;1.182679669000208E-003;
2.403333333333334E+009;1.678522825241089E-001;2.412183769047260E-002;-2.990991633851081E-004;1.251164940185845E-003;
2.403500000000000E+009;1.685938388109207E-001;2.287031337618828E-002;-2.570989308878779E-004;1.347037847153842E-003;
2.403666666666667E+009;1.696479320526123E-001;2.163746021687985E-002;-2.403861144557595E-004;1.075129839591682E-003;
2.403833333333334E+009;1.708107143640518E-001;2.064378745853901E-002;-2.987430489156395E-004;9.969050297513604E-004;
2.404000000000000E+009;1.716102808713913E-001;1.991231925785542E-002;-3.359864640515298E-004;9.458907879889011E-004;
2.404166666666667E+009;1.724012494087219E-001;1.875306479632855E-002;-1.388803648296744E-004;7.417448214255273E-004;
2.404333333333334E+009;1.732573062181473E-001;1.809134148061276E-002;-2.358849742449820E-004;7.456380408257246E-004;
2.404500000000000E+009;1.740891784429550E-001;1.734885014593601E-002;-1.882700016722083E-004;8.351970463991165E-004;
2.404666666666667E+009;1.750411391258240E-001;1.684295199811459E-002;-2.029456372838467E-004;6.794292712584138E-004;
2.404833333333334E+009;1.757701486349106E-001;1.615048944950104E-002;-2.024901623371989E-004;4.802171024493873E-004;
2.405000000000000E+009;1.764185875654221E-001;1.567233912646771E-002;-3.333593194838613E-004;6.456577684730291E-004;
2.405166666666667E+009;1.770514249801636E-001;1.507911179214716E-002;-1.972881000256166E-004;4.237302346155047E-004;
2.405333333333334E+009;1.778676211833954E-001;1.457240898162127E-002;-4.033222794532776E-004;5.488369497470558E-004;
2.405500000000000E+009;1.782316118478775E-001;1.439836993813515E-002;-3.002820594701916E-004;6.272646714933217E-004;
2.405666666666667E+009;1.786998957395554E-001;1.404569577425718E-002;-3.283879777882248E-004;4.248945915605873E-004;
2.405833333333334E+009;1.789353489875794E-001;1.386687625199556E-002;-5.106325843371451E-004;4.212103376630694E-004;
2.406000000000000E+009;1.793797314167023E-001;1.351481862366200E-002;-2.993839734699577E-004;3.509100934024900E-004;
2.406166666666667E+009;1.795000582933426E-001;1.333254016935825E-002;-5.001081153750420E-004;3.942485200241208E-004;
2.406333333333334E+009;1.797830313444138E-001;1.289848145097494E-002;-5.566396284848452E-004;5.188765935599804E-004;
2.406500000000000E+009;1.798836439847946E-001;1.263550110161305E-002;-4.546054115053266E-004;2.943653671536595E-004;
2.406666666666667E+009;1.796490997076035E-001;1.238928921520710E-002;-5.719990003854036E-004;3.748001763597131E-004;
2.406833333333334E+009;1.796642839908600E-001;1.192852202802897E-002;-5.806070403195918E-004;3.409905475564301E-004;
2.407000000000000E+009;1.794861555099487E-001;1.162902545183897E-002;-6.057852879166603E-004;3.658012428786606E-004;
2.407166666666667E+009;1.793889850378037E-001;1.117298752069473E-002;-6.768812309019268E-004;4.242033755872399E-004;
2.407333333333334E+009;1.789456903934479E-001;1.072700414806604E-002;-7.418908062390983E-004;4.532650054898113E-004;
2.407500000000000E+009;1.786020249128342E-001;1.017682626843453E-002;-7.210749899968505E-004;2.625093620736152E-004;
2.407666666666667E+009;1.781773567199707E-001;9.697372093796730E-003;-8.114915690384805E-004;4.055344907101244E-004;
2.407833333333334E+009;1.776806414127350E-001;8.793188259005547E-003;-7.953901658765972E-004;3.515936550684273E-004;
2.408000000000000E+009;1.771225333213806E-001;8.056198246777058E-003;-8.225931087508798E-004;6.223789532668889E-004;
2.408166666666667E+009;1.765580624341965E-001;7.323105353862047E-003;-8.645232301205397E-004;5.196069832891226E-004;
2.408333333333334E+009;1.761481463909149E-001;6.398755125701428E-003;-9.285372798331082E-004;5.654979613609612E-004;
2.408500000000000E+009;1.755323261022568E-001;5.333343986421824E-003;-9.496586280874908E-004;4.886646056547761E-004;
2.408666666666667E+009;1.747588068246841E-001;4.131560679525137E-003;-1.093778992071748E-003;5.444497219286859E-004;
2.408833333333334E+009;1.740612089633942E-001;2.915878081694245E-003;-8.354106103070080E-004;8.163578459061682E-004;
2.409000000000000E+009;1.732569783926010E-001;1.756512909196317E-003;-9.576945449225605E-004;7.708552293479443E-004;
2.409166666666667E+009;1.725887209177017E-001;3.540249308571219E-004;-9.698655921965838E-004;8.828196441754699E-004;
2.409333333333334E+009;1.721062213182449E-001;-1.143150497227907E-003;-1.010112115181983E-003;8.288126555271447E-004;
2.409500000000000E+009;1.713674813508987E-001;-2.611395437270403E-003;-1.105580711737275E-003;8.739999611862004E-004;
2.409666666666667E+009;1.706678569316864E-001;-4.232406150549650E-003;-1.005492871627212E-003;8.531174971722066E-004;
2.409833333333334E+009;1.699994206428528E-001;-5.711999721825123E-003;-1.077720895409584E-003;1.059952657669783E-003;
2.410000000000000E+009;1.695660650730133E-001;-7.339103613048792E-003;-1.056222710758448E-003;9.803194552659988E-004;
2.410166666666667E+009;1.691664755344391E-001;-9.211507625877857E-003;-1.168721704743803E-003;1.032000291161239E-003;
2.410333333333334E+009;1.686311960220337E-001;-1.116890460252762E-002;-1.013085711747408E-003;1.094285864382982E-003;
2.410500000000000E+009;1.683528274297714E-001;-1.292125880718231E-002;-1.007657963782549E-003;1.232768758200109E-003;
2.410666666666667E+009;1.680437177419663E-001;-1.486148964613676E-002;-1.085589756257832E-003;1.179516431875527E-003;
2.410833333333334E+009;1.677655726671219E-001;-1.663275249302387E-002;-1.095703919418156E-003;1.240217359736562E-003;
2.411000000000000E+009;1.676248013973236E-001;-1.861325278878212E-002;-1.065694959834218E-003;1.353068393655121E-003;
2.411166666666667E+009;1.674899756908417E-001;-2.052815072238445E-002;-1.017119502648711E-003;1.307596336118877E-003;
2.411333333333334E+009;1.674593985080719E-001;-2.264362201094627E-002;-9.061272139661014E-004;1.506189000792801E-003;
2.411500000000000E+009;1.673267781734467E-001;-2.480606362223625E-002;-1.059701549820602E-003;1.454439014196396E-003;
2.411666666666667E+009;1.677748113870621E-001;-2.663204632699490E-002;-9.875195100903511E-004;1.578691764734685E-003;
2.411833333333334E+009;1.678567230701447E-001;-2.840058505535126E-002;-9.913278045132756E-004;1.643144874833524E-003;
2.412000000000000E+009;1.682061553001404E-001;-3.033969737589359E-002;-9.133616113103926E-004;1.834592898376286E-003;
2.412166666666667E+009;1.684530973434448E-001;-3.219657391309738E-002;-8.669262751936913E-004;1.664288574829698E-003;
2.412333333333334E+009;1.691309660673142E-001;-3.406412154436112E-002;-8.423210238106549E-004;1.710697310045362E-003;
2.412500000000000E+009;1.694973111152649E-001;-3.597621619701386E-002;-8.348043193109334E-004;1.968289492651820E-003;
2.412666666666667E+009;1.699062585830689E-001;-3.762863203883171E-002;-7.851002155803144E-004;1.996292266994715E-003;
2.412833333333334E+009;1.704330742359161E-001;-3.942539170384407E-002;-6.151442066766322E-004;2.152816858142614E-003;
2.413000000000000E+009;1.710238456726074E-001;-4.114797338843346E-002;-7.699099369347096E-004;2.231418620795012E-003;
2.413166666666667E+009;1.715674549341202E-001;-4.270707815885544E-002;-5.553752998821437E-004;2.056026831269264E-003;
2.413333333333334E+009;1.721092462539673E-001;-4.413592442870140E-002;-5.024035344831646E-004;2.291570184752345E-003;
2.413500000000000E+009;1.728313267230988E-001;-4.574776068329811E-002;-4.194097127765417E-004;2.389665693044663E-003;
2.413666666666667E+009;1.734636425971985E-001;-4.705032706260681E-002;-2.435533970128745E-004;2.277118619531393E-003;
2.413833333333334E+009;1.739407181739807E-001;-4.825481027364731E-002;-2.429308733553626E-005;2.436490263789892E-003;
2.414000000000000E+009;1.744928359985352E-001;-4.950068891048431E-002;-6.451935769291595E-005;2.554947044700384E-003;
2.414166666666667E+009;1.753652244806290E-001;-5.052503198385239E-002;-2.455902540532406E-005;2.602564636617899E-003;
2.414333333333334E+009;1.758587658405304E-001;-5.157443881034851E-002;8.010258898139000E-005;2.605085261166096E-003;
2.414500000000000E+009;1.764133423566818E-001;-5.262509733438492E-002;2.379411889705807E-004;2.513457788154483E-003;
2.414666666666667E+009;1.770434826612473E-001;-5.359337851405144E-002;4.046974936500192E-004;2.530311234295368E-003;
2.414833333333334E+009;1.772414594888687E-001;-5.423682928085327E-002;4.677083634305745E-004;2.726978855207562E-003;
2.415000000000000E+009;1.776237636804581E-001;-5.480124428868294E-002;7.449546246789396E-004;2.524240408092737E-003;
2.415166666666667E+009;1.779620796442032E-001;-5.552123859524727E-002;7.313034730032086E-004;2.501434879377484E-003;
2.415333333333334E+009;1.783230304718018E-001;-5.611342564225197E-002;9.144594077952206E-004;2.534706378355622E-003;
2.415500000000000E+009;1.785567849874497E-001;-5.650794133543968E-002;8.962266147136688E-004;2.513298066332936E-003;
2.415666666666667E+009;1.785869747400284E-001;-5.675019696354866E-002;1.157646882347763E-003;2.557032508775592E-003;
2.415833333333334E+009;1.788297891616821E-001;-5.722905322909355E-002;1.225348445586860E-003;2.432071836665273E-003;
2.416000000000000E+009;1.784832775592804E-001;-5.744545161724091E-002;1.291550113819540E-003;2.261320361867547E-003;
2.416166666666667E+009;1.785570085048676E-001;-5.780281871557236E-002;1.494854106567800E-003;2.181504154577851E-003;
2.416333333333334E+009;1.783194392919540E-001;-5.794327333569527E-002;1.511942362412810E-003;2.139789750799537E-003;
2.416500000000000E+009;1.780502498149872E-001;-5.821130052208901E-002;1.643833704292774E-003;2.168763661757112E-003;
2.416666666666667E+009;1.775862425565720E-001;-5.828800797462463E-002;1.770561677403748E-003;2.066809451207519E-003;
2.416833333333334E+009;1.772800832986832E-001;-5.862895771861076E-002;1.969778211787343E-003;1.865976722911000E-003;
2.417000000000000E+009;1.764341443777084E-001;-5.884633585810661E-002;1.879390212707222E-003;1.920853508636355E-003;
2.417166666666667E+009;1.757591217756271E-001;-5.911235511302948E-002;2.054831711575389E-003;1.736257807351649E-003;
2.417333333333334E+009;1.751232147216797E-001;-5.921078100800514E-002;2.082073828205466E-003;1.686145085841417E-003;
2.417500000000000E+009;1.743011921644211E-001;-5.959813296794891E-002;2.149857347831130E-003;1.667664153501391E-003;
2.417666666666667E+009;1.734976768493652E-001;-5.981482192873955E-002;2.018452621996403E-003;1.444362686015666E-003;
2.417833333333334E+009;1.724610477685928E-001;-6.018690764904022E-002;2.079778118059039E-003;1.531319459900260E-003;
2.418000000000000E+009;1.713961809873581E-001;-6.069358438253403E-002;2.217914210632443E-003;1.360235037282109E-003;
2.418166666666667E+009;1.703217327594757E-001;-6.089514866471291E-002;2.302458276972175E-003;1.341899973340333E-003;
2.418333333333334E+009;1.694267839193344E-001;-6.161418929696083E-002;2.199947834014893E-003;1.196615630760789E-003;
2.418500000000000E+009;1.681318283081055E-001;-6.215276569128037E-002;2.185196615755558E-003;9.916577255353332E-004;
2.418666666666667E+009;1.670120507478714E-001;-6.272441893815994E-002;2.317039761692286E-003;9.013999952003360E-004;
2.418833333333334E+009;1.656816899776459E-001;-6.340262293815613E-002;2.203852636739612E-003;9.264527470804751E-004;
2.419000000000000E+009;1.643341630697250E-001;-6.419969350099564E-002;2.427998697385192E-003;7.419795729219914E-004;
2.419166666666667E+009;1.631849259138107E-001;-6.514741480350494E-002;2.338527934625745E-003;7.188547751866281E-004;
2.419333333333334E+009;1.617171615362167E-001;-6.590768694877625E-002;2.303381683304906E-003;6.717646610923111E-004;
2.419500000000000E+009;1.606483608484268E-001;-6.696631759405136E-002;2.292541554197669E-003;4.477210168261081E-004;
2.419666666666667E+009;1.594017446041107E-001;-6.812677532434464E-002;2.164833014830947E-003;4.399367899168283E-004;
2.419833333333334E+009;1.583934873342514E-001;-6.917821615934372E-002;2.235311083495617E-003;3.993595018982887E-004;
2.420000000000000E+009;1.574045121669769E-001;-7.053576409816742E-002;2.213335130363703E-003;1.600100076757371E-004;
2.420166666666667E+009;1.562262177467346E-001;-7.176280021667481E-002;2.243391238152981E-003;1.599233219167218E-004;
2.420333333333334E+009;1.553286463022232E-001;-7.320488244295120E-002;2.286053495481610E-003;1.781261089490727E-004;
2.420500000000000E+009;1.544431746006012E-001;-7.452829182147980E-002;2.067016903311014E-003;-1.347204524790868E-004;
2.420666666666667E+009;1.535193473100662E-001;-7.602899521589279E-002;2.116939052939415E-003;-1.720813452266157E-004;
2.420833333333334E+009;1.526427567005158E-001;-7.748734951019287E-002;2.221282571554184E-003;-1.179335085907951E-004;
2.421000000000000E+009;1.519463658332825E-001;-7.913839071989059E-002;2.068104920908809E-003;-1.942235830938444E-004;
2.421166666666667E+009;1.514051407575607E-001;-8.085990697145462E-002;2.110641449689865E-003;-3.244752588216215E-004;
2.421333333333334E+009;1.510027199983597E-001;-8.268097043037415E-002;1.996725099161267E-003;-3.599496267270297E-004;
2.421500000000000E+009;1.502927243709564E-001;-8.408622443675995E-002;1.984180416911840E-003;-4.315571277402341E-004;
2.421666666666667E+009;1.499459147453308E-001;-8.581881225109100E-002;2.002677181735635E-003;-4.985537379980087E-004;
2.421833333333334E+009;1.496603190898895E-001;-8.748853951692581E-002;1.771235256455839E-003;-5.196410929784179E-004;
2.422000000000000E+009;1.494583487510681E-001;-8.932249248027802E-002;1.788975321687758E-003;-5.189201910980046E-004;
2.422166666666667E+009;1.493643373250961E-001;-9.087466448545456E-002;1.745198620483279E-003;-5.507520399987698E-004;
2.422333333333334E+009;1.495104283094406E-001;-9.270142763853073E-002;1.671901205554605E-003;-5.055579822510481E-004;
2.422500000000000E+009;1.492794305086136E-001;-9.430380910634995E-002;1.646600081585348E-003;-5.128539050929248E-004;
2.422666666666667E+009;1.494751572608948E-001;-9.594783931970596E-002;1.651556580327451E-003;-6.803501164540649E-004;
2.422833333333334E+009;1.496493518352509E-001;-9.766169637441635E-002;1.703319256193936E-003;-7.014577859081328E-004;
2.423000000000000E+009;1.498179137706757E-001;-9.922380745410919E-002;1.830262714065611E-003;-6.962142651900649E-004;
2.423166666666667E+009;1.504050344228745E-001;-1.005130633711815E-001;1.712671946734190E-003;-6.633788580074906E-004;
2.423333333333334E+009;1.508306264877319E-001;-1.018423289060593E-001;1.614066190086305E-003;-7.342072785831988E-004;
2.423500000000000E+009;1.511811316013336E-001;-1.035344600677490E-001;1.483893604017794E-003;-6.428068154491484E-004;
2.423666666666667E+009;1.514489203691483E-001;-1.048365458846092E-001;1.451961928978562E-003;-7.017584284767509E-004;
2.423833333333334E+009;1.520934849977493E-001;-1.061017364263535E-001;1.619962044060230E-003;-8.206547936424613E-004;
2.424000000000000E+009;1.525689810514450E-001;-1.072141155600548E-001;1.509881345555186E-003;-9.012693190015853E-004;
2.424166666666667E+009;1.529284119606018E-001;-1.084252446889877E-001;1.346634235233069E-003;-8.394334581680596E-004;
2.424333333333334E+009;1.535806506872177E-001;-1.093554496765137E-001;1.488160109147430E-003;-7.454768638126552E-004;
2.424500000000000E+009;1.541985869407654E-001;-1.103935465216637E-001;1.474000513553619E-003;-7.937851478345692E-004;
2.424666666666667E+009;1.547895967960358E-001;-1.111358404159546E-001;1.486585126258433E-003;-7.554770563729107E-004;
2.424833333333334E+009;1.550474017858505E-001;-1.119550243020058E-001;1.299989060498774E-003;-8.512866334058344E-004;
2.425000000000000E+009;1.554989814758301E-001;-1.129031404852867E-001;1.226840773597360E-003;-9.444522438570857E-004;
2.425166666666667E+009;1.558099687099457E-001;-1.132840737700462E-001;1.282051322050393E-003;-8.021749672479928E-004;
2.425333333333334E+009;1.561849564313889E-001;-1.139573082327843E-001;1.319671864621341E-003;-9.230834548361599E-004;
2.425500000000000E+009;1.566460877656937E-001;-1.145089343190193E-001;1.458596671000123E-003;-1.104611903429031E-003;
2.425666666666667E+009;1.566184461116791E-001;-1.149054318666458E-001;1.216725446283817E-003;-9.120245813392103E-004;
2.425833333333334E+009;1.568499058485031E-001;-1.152852922677994E-001;1.149465329945087E-003;-1.061468617990613E-003;
2.426000000000000E+009;1.569175869226456E-001;-1.157679557800293E-001;1.213970710523427E-003;-1.013036235235632E-003;
2.426166666666667E+009;1.571286469697952E-001;-1.159160137176514E-001;1.192047726362944E-003;-1.158513943664730E-003;
2.426333333333334E+009;1.569604724645615E-001;-1.161326393485069E-001;1.244467566721141E-003;-1.287664403207600E-003;
2.426500000000000E+009;1.568644791841507E-001;-1.162892505526543E-001;1.138946390710771E-003;-1.143161091022193E-003;
2.426666666666667E+009;1.568139046430588E-001;-1.164115816354752E-001;1.052808016538620E-003;-1.115715713240206E-003;
2.426833333333334E+009;1.563377976417542E-001;-1.166136935353279E-001;9.587408858351409E-004;-1.145140617154539E-003;
2.427000000000000E+009;1.557644158601761E-001;-1.167905405163765E-001;9.633875451982021E-004;-1.292130327783525E-003;
2.427166666666667E+009;1.552954167127609E-001;-1.166893839836121E-001;9.300545207224786E-004;-1.304807723499835E-003;
2.427333333333334E+009;1.546395719051361E-001;-1.169177293777466E-001;8.658480364829302E-004;-1.274665002711117E-003;
2.427500000000000E+009;1.540437042713165E-001;-1.169896796345711E-001;9.653922170400620E-004;-1.073134480975568E-003;
2.427666666666667E+009;1.531936377286911E-001;-1.172318831086159E-001;7.992781465873122E-004;-1.347495708614588E-003;
2.427833333333334E+009;1.521296948194504E-001;-1.173885539174080E-001;7.966830162331462E-004;-1.315414556302130E-003;
