# Version 1.00
#
freq[Hz];re:Trc1_S11;im:Trc1_S11;re:Trc2_S21;im:Trc2_S21;
2.400000000000000E+009;1.563169360160828E-001;6.061157211661339E-002;-1.906881108880043E-003;1.378239481709898E-003;
2.400166666666667E+009;1.564747095108032E-001;5.871841683983803E-002;-1.909841550514102E-003;1.461535808630288E-003;
2.400333333333334E+009;1.565825790166855E-001;5.673629418015480E-002;-1.772231538780034E-003;1.572815119288862E-003;
2.400500000000000E+009;1.567238569259644E-001;5.467390641570091E-002;-1.627431600354612E-003;1.501552877016366E-003;
2.400666666666667E+009;1.569670885801315E-001;5.264089256525040E-002;-1.623864169232547E-003;1.546868355944753E-003;
2.400833333333334E+009;1.572713702917099E-001;5.080342292785645E-002;-1.613322296179831E-003;1.609800499863923E-003;
2.401000000000000E+009;1.575191766023636E-001;4.864295572042465E-002;-1.467826194129884E-003;1.528367633000016E-003;
2.401166666666667E+009;1.579714715480804E-001;4.633951559662819E-002;-1.333365915343165E-003;1.593417720869184E-003;
2.401333333333334E+009;1.585507243871689E-001;4.422945901751518E-002;-1.270394772291184E-003;1.742388471029699E-003;
2.401500000000000E+009;1.591907739639282E-001;4.230126366019249E-002;-1.138459774665535E-003;1.691053039394319E-003;
2.401666666666667E+009;1.596502959728241E-001;4.052269831299782E-002;-1.137963030487299E-003;1.687636598944664E-003;
2.401833333333334E+009;1.603077650070190E-001;3.847597166895866E-002;-9.634965099394321E-004;1.656813663430512E-003;
2.402000000000000E+009;1.608650386333466E-001;3.679310157895088E-002;-1.024257857352495E-003;1.782381092198193E-003;
2.402166666666667E+009;1.615263223648071E-001;3.473170101642609E-002;-6.243630195967853E-004;1.619025832042098E-003;
2.402333333333334E+009;1.623309403657913E-001;3.280308097600937E-002;-5.365121178328991E-004;1.564240898005664E-003;
2.402500000000000E+009;1.631865501403809E-001;3.128621727228165E-002;-4.896927275694907E-004;1.653189421631396E-003;
2.402666666666667E+009;1.640168726444244E-001;2.972238324582577E-002;-6.287414580583572E-004;1.433132099919021E-003;
2.402833333333334E+009;1.649157851934433E-001;2.802292630076408E-002;-3.351780178491026E-004;1.494178199209273E-003;
2.403000000000000E+009;1.657585203647614E-001;2.663664147257805E-002;-3.060365852434188E-004;1.546828309074044E-003;
2.403166666666667E+009;1.667617410421372E-001;2.542437613010407E-002;-3.136924642603844E-004;1.384081784635782E-003;
2.403333333333334E+009;1.678647547960281E-001;2.419574372470379E-002;-2.560808206908405E-004;1.292007626034319E-003;
2.403500000000000E+009;1.687981784343720E-001;2.284765057265759E-002;-3.346748708281666E-004;1.128765987232328E-003;
2.403666666666667E+009;1.696747392416000E-001;2.161856926977634E-002;-1.203916326630861E-004;9.679514332674444E-004;
2.403833333333334E+009;1.707017272710800E-001;2.076357044279575E-002;-1.012436696328223E-004;9.401722345501185E-004;
2.404000000000000E+009;1.714376509189606E-001;1.975784450769424E-002;-1.286004262510687E-004;8.664347697049379E-004;
2.404166666666667E+009;1.724700480699539E-001;1.890185847878456E-002;-7.958196511026472E-005;8.303245413117111E-004;
2.404333333333334E+009;1.733182966709137E-001;1.807743869721890E-002;-1.307747006649151E-004;7.824498461559415E-004;
2.404500000000000E+009;1.740751117467880E-001;1.735523156821728E-002;1.813372000469826E-005;6.963915075175464E-004;
2.404666666666667E+009;1.750838607549667E-001;1.663363724946976E-002;-1.056035762303509E-004;5.712434649467468E-004;
2.404833333333334E+009;1.756485551595688E-001;1.627365872263908E-002;-1.088682911358774E-004;5.961929564364255E-004;
2.405000000000000E+009;1.764474511146545E-001;1.550246961414814E-002;-1.493852323619649E-004;6.353698554448783E-004;
2.405166666666667E+009;1.769398748874664E-001;1.511645037680864E-002;-3.492285613901913E-004;3.637609770521522E-004;
2.405333333333334E+009;1.777556985616684E-001;1.464301720261574E-002;-3.175770980305970E-004;4.781371681019664E-004;
2.405500000000000E+009;1.782321035861969E-001;1.427831128239632E-002;-2.048859023489058E-004;4.309779033064842E-004;
2.405666666666667E+009;1.787161380052567E-001;1.401705387979746E-002;-2.962557773571461E-004;4.205988079775125E-004;
2.405833333333334E+009;1.790025234222412E-001;1.383297890424728E-002;-5.535886157304049E-004;4.284242168068886E-004;
2.406000000000000E+009;1.793385446071625E-001;1.341786887496710E-002;-3.800355189014226E-004;3.154531295876950E-004;
2.406166666666667E+009;1.795555055141449E-001;1.330010686069727E-002;-5.521057755686343E-004;3.507412038743496E-004;
2.406333333333334E+009;1.798257380723953E-001;1.288251206278801E-002;-4.109508881811053E-004;2.548680058680475E-004;
2.406500000000000E+009;1.798161268234253E-001;1.271678227931261E-002;-5.660055321641266E-004;4.384333151392639E-004;
2.406666666666667E+009;1.797025799751282E-001;1.243394985795021E-002;-5.367420963011682E-004;3.923957119695842E-004;
2.406833333333334E+009;1.797828376293182E-001;1.198771968483925E-002;-6.362760323099792E-004;2.833401376847178E-004;
2.407000000000000E+009;1.795461773872376E-001;1.168525498360395E-002;-6.677954806946218E-004;3.013810201082379E-004;
2.407166666666667E+009;1.793198287487030E-001;1.128796394914389E-002;-6.329229800030589E-004;4.239807021804154E-004;
2.407333333333334E+009;1.789536029100418E-001;1.066714059561491E-002;-8.109089685603976E-004;4.162404802627862E-004;
2.407500000000000E+009;1.787174493074417E-001;1.014051865786314E-002;-6.626592949032784E-004;2.817313943523914E-004;
2.407666666666667E+009;1.782958358526230E-001;9.640152566134930E-003;-7.684543379582465E-004;4.836906446143985E-004;
2.407833333333334E+009;1.777011752128601E-001;8.857241831719875E-003;-7.555513875558972E-004;5.590173532254994E-004;
2.408000000000000E+009;1.771492511034012E-001;8.147791028022766E-003;-8.660944295115769E-004;3.659306094050407E-004;
2.408166666666667E+009;1.764542758464813E-001;7.383713033050299E-003;-9.587130625732243E-004;5.448303418233991E-004;
2.408333333333334E+009;1.762011796236038E-001;6.384200882166624E-003;-8.781784563325346E-004;3.430265933275223E-004;
2.408500000000000E+009;1.755251437425613E-001;5.360255483537912E-003;-9.743364062160254E-004;6.064104964025319E-004;
2.408666666666667E+009;1.748639941215515E-001;4.231068771332502E-003;-8.976089302450419E-004;5.942339776083827E-004;
2.408833333333334E+009;1.739912182092667E-001;3.056117566302419E-003;-8.743912330828607E-004;6.488970248028636E-004;
2.409000000000000E+009;1.734462231397629E-001;1.692898687906563E-003;-1.087103853933513E-003;6.609652191400528E-004;
2.409166666666667E+009;1.726529598236084E-001;4.380522877909243E-004;-1.097170985303819E-003;9.095725254155695E-004;
2.409333333333334E+009;1.720481961965561E-001;-1.137817511335015E-003;-9.681003866717219E-004;8.307332755066454E-004;
2.409500000000000E+009;1.713434606790543E-001;-2.742621582001448E-003;-9.823614964261651E-004;8.927490562200546E-004;
2.409666666666667E+009;1.706341207027435E-001;-4.135821480304003E-003;-9.726422140374780E-004;9.832335636019707E-004;
2.409833333333334E+009;1.700453162193298E-001;-5.738453008234501E-003;-1.063844072632492E-003;9.639098425395787E-004;
2.410000000000000E+009;1.697025746107101E-001;-7.461791858077049E-003;-9.902227902784944E-004;1.028676633723080E-003;
2.410166666666667E+009;1.692567914724350E-001;-9.156928397715092E-003;-1.005942816846073E-003;9.553439449518919E-004;
2.410333333333334E+009;1.687182039022446E-001;-1.103402860462666E-002;-9.370032930746675E-004;1.179893733933568E-003;
2.410500000000000E+009;1.685636341571808E-001;-1.301112584769726E-002;-1.023927470669150E-003;1.145975082181394E-003;
2.410666666666667E+009;1.679477542638779E-001;-1.494414266198874E-002;-1.085865194909275E-003;1.217918121255934E-003;
2.410833333333334E+009;1.677487343549728E-001;-1.663427613675594E-002;-1.096758875064552E-003;1.189511967822909E-003;
2.411000000000000E+009;1.677497923374176E-001;-1.856168732047081E-002;-1.030334620736539E-003;1.315160887315869E-003;
2.411166666666667E+009;1.675152927637100E-001;-2.060055546462536E-002;-9.070078376680613E-004;1.384885399602354E-003;
2.411333333333334E+009;1.674764156341553E-001;-2.250603213906288E-002;-1.096325926482678E-003;1.390339341014624E-003;
2.411500000000000E+009;1.672925055027008E-001;-2.481029368937016E-002;-9.980587055906653E-004;1.559377298690379E-003;
2.411666666666667E+009;1.676983833312988E-001;-2.638589590787888E-002;-9.456440457142890E-004;1.414224621839821E-003;
2.411833333333334E+009;1.679839342832565E-001;-2.845941670238972E-002;-9.505437919870019E-004;1.551920431666076E-003;
2.412000000000000E+009;1.683996170759201E-001;-3.032643534243107E-002;-1.051996601745486E-003;1.596326939761639E-003;
2.412166666666667E+009;1.683772206306458E-001;-3.230914846062660E-002;-8.281036280095577E-004;1.728351926431060E-003;
2.412333333333334E+009;1.690466105937958E-001;-3.402294218540192E-002;-8.032703772187233E-004;1.759411534294486E-003;
2.412500000000000E+009;1.693183332681656E-001;-3.580032661557198E-002;-7.874797447584570E-004;1.878860290162265E-003;
2.412666666666667E+009;1.697987020015717E-001;-3.784893825650215E-002;-7.622414268553257E-004;1.915622735396028E-003;
2.412833333333334E+009;1.703645437955856E-001;-3.940806165337563E-002;-7.412416744045913E-004;2.067584311589599E-003;
2.413000000000000E+009;1.709269285202026E-001;-4.122355580329895E-002;-6.502014584839344E-004;2.239508554339409E-003;
2.413166666666667E+009;1.716033965349197E-001;-4.266604408621788E-002;-4.694729577749968E-004;2.237640786916018E-003;
2.413333333333334E+009;1.721504032611847E-001;-4.413593932986260E-002;-4.577826766762883E-004;2.154360525310040E-003;
2.413500000000000E+009;1.727914214134216E-001;-4.571412131190300E-002;-3.624126547947526E-004;2.144334604963660E-003;
2.413666666666667E+009;1.734611988067627E-001;-4.696427658200264E-002;-3.534414572641254E-004;2.343788277357817E-003;
2.413833333333334E+009;1.740320473909378E-001;-4.835292324423790E-002;-1.891173887997866E-004;2.529988996684551E-003;
2.414000000000000E+009;1.745347380638123E-001;-4.946339130401611E-002;-8.664825145388022E-005;2.544038230553269E-003;
2.414166666666667E+009;1.753052324056625E-001;-5.071403831243515E-002;4.201016054139473E-005;2.644706983119249E-003;
2.414333333333334E+009;1.758006066083908E-001;-5.159334093332291E-002;1.805034407880157E-004;2.466573147103190E-003;
2.414500000000000E+009;1.764130294322968E-001;-5.259175598621368E-002;1.152699915110134E-004;2.601226326078177E-003;
2.414666666666667E+009;1.768201291561127E-001;-5.341512337327004E-002;4.014572186861187E-004;2.596115227788687E-003;
2.414833333333334E+009;1.772228628396988E-001;-5.425890162587166E-002;5.492256022989750E-004;2.610234310850501E-003;
2.415000000000000E+009;1.776549071073532E-001;-5.482373759150505E-002;6.058792350813747E-004;2.470905194059014E-003;
2.415166666666667E+009;1.780005544424057E-001;-5.546734109520912E-002;7.206632872112095E-004;2.470072358846664E-003;
2.415333333333334E+009;1.783886849880219E-001;-5.606063827872276E-002;6.955806165933609E-004;2.465884434059262E-003;
2.415500000000000E+009;1.785673946142197E-001;-5.649114400148392E-002;1.055080210790038E-003;2.541707130149007E-003;
2.415666666666667E+009;1.786334514617920E-001;-5.669356882572174E-002;1.142568071372807E-003;2.407348016276956E-003;
2.415833333333334E+009;1.786809116601944E-001;-5.720530077815056E-002;1.258037402294576E-003;2.444367855787277E-003;
2.416000000000000E+009;1.785421222448349E-001;-5.751850083470345E-002;1.308664097450674E-003;2.209227532148361E-003;
2.416166666666667E+009;1.786470413208008E-001;-5.771394073963165E-002;1.454574754461646E-003;2.323095453903079E-003;
2.416333333333334E+009;1.782345026731491E-001;-5.793431773781776E-002;1.538996933959425E-003;2.146242884919047E-003;
2.416500000000000E+009;1.780550181865692E-001;-5.809531733393669E-002;1.607927959412336E-003;2.128198277205229E-003;
2.416666666666667E+009;1.776145696640015E-001;-5.817651003599167E-002;1.606502337381244E-003;1.958986511453986E-003;
2.416833333333334E+009;1.771449893712997E-001;-5.867540091276169E-002;1.778912148438394E-003;2.013555262237787E-003;
2.417000000000000E+009;1.765164583921433E-001;-5.888152495026588E-002;1.937328604981303E-003;1.874268520623446E-003;
2.417166666666667E+009;1.758176237344742E-001;-5.907554551959038E-002;1.957457279786468E-003;1.755023724399507E-003;
2.417333333333334E+009;1.751512289047241E-001;-5.916004255414009E-002;2.043166197836399E-003;1.730184070765972E-003;
2.417500000000000E+009;1.743866950273514E-001;-5.967068672180176E-002;2.054281532764435E-003;1.526821055449545E-003;
2.417666666666667E+009;1.735645234584808E-001;-5.987477302551270E-002;2.007077913731337E-003;1.449242001399398E-003;
2.417833333333334E+009;1.725586652755737E-001;-6.017583236098290E-002;2.120377728715539E-003;1.293037785217166E-003;
2.418000000000000E+009;1.713533401489258E-001;-6.065823882818222E-002;2.153146313503385E-003;1.341132796369493E-003;
2.418166666666667E+009;1.703713834285736E-001;-6.095753982663155E-002;2.166185528039932E-003;1.165003399364650E-003;
2.418333333333334E+009;1.693557649850845E-001;-6.154057383537293E-002;2.252023667097092E-003;1.197945675812662E-003;
2.418500000000000E+009;1.682107746601105E-001;-6.200651824474335E-002;2.254160121083260E-003;1.051434432156384E-003;
2.418666666666667E+009;1.669683307409287E-001;-6.279284507036209E-002;2.102510072290897E-003;9.327235748060048E-004;
2.418833333333334E+009;1.655624806880951E-001;-6.351968646049500E-002;2.474584383890033E-003;8.349715499207377E-004;
2.419000000000000E+009;1.643534898757935E-001;-6.422539800405502E-002;2.148751169443131E-003;7.237492827698588E-004;
2.419166666666667E+009;1.631953716278076E-001;-6.505299359560013E-002;2.321714535355568E-003;6.218462949618697E-004;
2.419333333333334E+009;1.617679148912430E-001;-6.590877473354340E-002;2.360123675316572E-003;5.538475816138089E-004;
2.419500000000000E+009;1.606129258871079E-001;-6.716719269752502E-002;2.247710479423404E-003;3.783716820180416E-004;
2.419666666666667E+009;1.593638509511948E-001;-6.827372312545776E-002;2.476504072546959E-003;2.843466936610639E-004;
2.419833333333334E+009;1.582732349634171E-001;-6.919620931148529E-002;2.334738150238991E-003;2.608612994663417E-004;
2.420000000000000E+009;1.572743058204651E-001;-7.049103081226349E-002;2.331639872863889E-003;3.420085413381457E-004;
2.420166666666667E+009;1.561660468578339E-001;-7.187018543481827E-002;2.364608459174633E-003;1.457211183151230E-004;
2.420333333333334E+009;1.551475077867508E-001;-7.318292558193207E-002;2.320437692105770E-003;1.588632876519114E-004;
2.420500000000000E+009;1.543070822954178E-001;-7.449542731046677E-002;2.249132376164198E-003;-1.553074798721355E-005;
2.420666666666667E+009;1.534080058336258E-001;-7.588899135589600E-002;1.990603981539607E-003;-6.916446000104770E-005;
2.420833333333334E+009;1.527080237865448E-001;-7.769419997930527E-002;2.097438089549542E-003;-2.021042600972578E-004;
2.421000000000000E+009;1.519590616226196E-001;-7.931859791278839E-002;2.071840688586235E-003;-5.562416481552646E-005;
2.421166666666667E+009;1.512631624937058E-001;-8.080307394266129E-002;2.029020572081208E-003;-2.678957534953952E-004;
2.421333333333334E+009;1.507394164800644E-001;-8.237218856811523E-002;1.889234292320907E-003;-3.863310557790101E-004;
2.421500000000000E+009;1.502169966697693E-001;-8.409338444471359E-002;1.988545758649707E-003;-4.665588203351945E-004;
2.421666666666667E+009;1.499432027339935E-001;-8.580166846513748E-002;2.014508936554194E-003;-3.294665948487818E-004;
2.421833333333334E+009;1.497261822223663E-001;-8.762080967426300E-002;1.946551841683686E-003;-3.901410964317620E-004;
2.422000000000000E+009;1.495253741741180E-001;-8.927319943904877E-002;1.823592698201537E-003;-4.812799161300063E-004;
2.422166666666667E+009;1.493902057409287E-001;-9.102352708578110E-002;1.690686796791852E-003;-5.761741194874048E-004;
2.422333333333334E+009;1.492949426174164E-001;-9.253322333097458E-002;1.841136370785534E-003;-6.572205456905067E-004;
2.422500000000000E+009;1.493723988533020E-001;-9.417908638715744E-002;1.702689216472209E-003;-5.551590584218502E-004;
2.422666666666667E+009;1.495216339826584E-001;-9.585590660572052E-002;1.770093804225326E-003;-6.639188504777849E-004;
2.422833333333334E+009;1.496348232030869E-001;-9.772031754255295E-002;1.599664799869061E-003;-5.511726485565305E-004;
2.423000000000000E+009;1.498702317476273E-001;-9.912093728780747E-002;1.573996618390083E-003;-6.350167095661163E-004;
2.423166666666667E+009;1.502068191766739E-001;-1.007301807403565E-001;1.557828974910080E-003;-6.550577236339450E-004;
2.423333333333334E+009;1.508160233497620E-001;-1.018877252936363E-001;1.506066182628274E-003;-7.321561570279300E-004;
2.423500000000000E+009;1.511580795049667E-001;-1.034995242953301E-001;1.519631478004158E-003;-7.105504628270865E-004;
2.423666666666667E+009;1.514248847961426E-001;-1.048656255006790E-001;1.395909697748721E-003;-7.426032098010182E-004;
2.423833333333334E+009;1.521395444869995E-001;-1.062283664941788E-001;1.370327081531286E-003;-8.615343249402940E-004;
2.424000000000000E+009;1.524525135755539E-001;-1.070941016077995E-001;1.501400256529450E-003;-7.440276676788926E-004;
2.424166666666667E+009;1.529512256383896E-001;-1.085042804479599E-001;1.371110207401216E-003;-8.068833849392831E-004;
2.424333333333334E+009;1.536747813224793E-001;-1.093651428818703E-001;1.451358897611499E-003;-5.889738677069545E-004;
2.424500000000000E+009;1.540748625993729E-001;-1.104218736290932E-001;1.342695322819054E-003;-7.654461078345776E-004;
2.424666666666667E+009;1.547388136386871E-001;-1.109596863389015E-001;1.255379756912589E-003;-8.283922798000276E-004;
2.424833333333334E+009;1.549833565950394E-001;-1.119766458868980E-001;1.412952784448862E-003;-8.557009277865291E-004;
2.425000000000000E+009;1.555819511413574E-001;-1.127043813467026E-001;1.417969237081707E-003;-8.413763716816902E-004;
2.425166666666667E+009;1.558112055063248E-001;-1.133730635046959E-001;1.358435139991343E-003;-9.212467703036964E-004;
2.425333333333334E+009;1.562289446592331E-001;-1.139865294098854E-001;1.419826643541455E-003;-9.624700178392232E-004;
2.425500000000000E+009;1.565942019224167E-001;-1.145157292485237E-001;1.365912146866322E-003;-9.592861169949174E-004;
2.425666666666667E+009;1.567126661539078E-001;-1.149590387940407E-001;1.103365211747587E-003;-8.924978319555521E-004;
2.425833333333334E+009;1.568847000598908E-001;-1.152882203459740E-001;1.287748338654637E-003;-1.136858132667840E-003;
2.426000000000000E+009;1.569090336561203E-001;-1.157059669494629E-001;1.287874765694141E-003;-1.040518283843994E-003;
2.426166666666667E+009;1.570494621992111E-001;-1.159219592809677E-001;1.168948481790721E-003;-1.150844618678093E-003;
2.426333333333334E+009;1.569964885711670E-001;-1.160221546888351E-001;1.081925118342042E-003;-1.007517916150391E-003;
2.426500000000000E+009;1.568945199251175E-001;-1.162770614027977E-001;1.049995771609247E-003;-1.232348382472992E-003;
2.426666666666667E+009;1.567823290824890E-001;-1.163489148020744E-001;1.212159870192409E-003;-1.134648337028921E-003;
2.426833333333334E+009;1.562795490026474E-001;-1.165104210376740E-001;1.011342974379659E-003;-1.094844541512430E-003;
2.427000000000000E+009;1.557986289262772E-001;-1.167534068226814E-001;8.682935731485486E-004;-1.204253407195211E-003;
2.427166666666667E+009;1.552491188049316E-001;-1.166063547134399E-001;1.047738478519023E-003;-1.221353420987725E-003;
2.427333333333334E+009;1.546345353126526E-001;-1.169220432639122E-001;9.229953866451979E-004;-1.184890163131058E-003;
2.427500000000000E+009;1.540219038724899E-001;-1.170063689351082E-001;8.114850497804582E-004;-1.231507398188114E-003;
2.427666666666667E+009;1.532632559537888E-001;-1.172779425978661E-001;8.876926149241626E-004;-1.326015219092369E-003;
2.427833333333334E+009;1.522233039140701E-001;-1.173799037933350E-001;8.037776569835842E-004;-1.176665537059307E-003;
