# Version 1.00
#
freq[Hz];re:Trc1_S11;im:Trc1_S11;re:Trc2_S21;im:Trc2_S21;
2.400000000000000E+009;1.564186960458756E-001;6.056281179189682E-002;-1.910455524921417E-003;1.304349512793124E-003;
2.400166666666667E+009;1.565515398979187E-001;5.871151387691498E-002;-1.792812487110496E-003;1.330905477516353E-003;
2.400333333333334E+009;1.566461473703384E-001;5.673485994338989E-002;-1.730464631691575E-003;1.484057749621570E-003;
2.400500000000000E+009;1.568207144737244E-001;5.470850691199303E-002;-1.625021221116185E-003;1.445261761546135E-003;
2.400666666666667E+009;1.569238603115082E-001;5.255620926618576E-002;-1.712518394924700E-003;1.426444505341351E-003;
2.400833333333334E+009;1.572824120521545E-001;5.062016472220421E-002;-1.784183783456683E-003;1.424344955012202E-003;
2.401000000000000E+009;1.577252149581909E-001;4.839174076914787E-002;-1.476270961575210E-003;1.532537164166570E-003;
2.401166666666667E+009;1.581846475601196E-001;4.639365524053574E-002;-1.436316408216953E-003;1.792869297787547E-003;
2.401333333333334E+009;1.584786772727966E-001;4.426658526062965E-002;-1.385061070322990E-003;1.578738912940025E-003;
2.401500000000000E+009;1.592664271593094E-001;4.236898943781853E-002;-1.254400936886668E-003;1.687318435870111E-003;
2.401666666666667E+009;1.597092151641846E-001;4.036502912640572E-002;-1.067157834768295E-003;1.473800512030721E-003;
2.401833333333334E+009;1.602060496807098E-001;3.836720436811447E-002;-1.174408826045692E-003;1.681379042565823E-003;
2.402000000000000E+009;1.608304232358933E-001;3.653909638524056E-002;-9.828774491325021E-004;1.659832894802094E-003;
2.402166666666667E+009;1.617068052291870E-001;3.462550044059753E-002;-8.920416585169733E-004;1.495125005021691E-003;
2.402333333333334E+009;1.621178686618805E-001;3.292615339159966E-002;-6.234755273908377E-004;1.490121940150857E-003;
2.402500000000000E+009;1.633841246366501E-001;3.122729063034058E-002;-6.926595233380795E-004;1.491797040216625E-003;
2.402666666666667E+009;1.640238016843796E-001;2.955049090087414E-002;-5.145640461705625E-004;1.578846713528037E-003;
2.402833333333334E+009;1.649938523769379E-001;2.815762534737587E-002;-6.560281035490334E-004;1.318983617238700E-003;
2.403000000000000E+009;1.658876240253449E-001;2.659754268825054E-002;-5.114418454468250E-004;1.474172691814601E-003;
2.403166666666667E+009;1.668971329927445E-001;2.524428255856037E-002;-4.430822737049311E-004;1.230489579029381E-003;
2.403333333333334E+009;1.677890270948410E-001;2.415197528898716E-002;-2.577003324404359E-004;1.127290772274137E-003;
2.403500000000000E+009;1.685484945774078E-001;2.282571792602539E-002;-2.870005846489221E-004;1.052577164955437E-003;
2.403666666666667E+009;1.695849150419235E-001;2.171172015368938E-002;-3.426282492000610E-004;1.007922342978418E-003;
2.403833333333334E+009;1.707016229629517E-001;2.050925791263580E-002;-2.417194336885586E-004;9.581660269759595E-004;
2.404000000000000E+009;1.715746521949768E-001;1.968527026474476E-002;-2.194794215029106E-004;9.167777025140822E-004;
2.404166666666667E+009;1.724592149257660E-001;1.878750137984753E-002;-1.810301473597065E-004;9.474555845372379E-004;
2.404333333333334E+009;1.733699142932892E-001;1.797784864902496E-002;-2.878764935303479E-004;8.598095737397671E-004;
2.404500000000000E+009;1.740773320198059E-001;1.722171902656555E-002;-3.668329736683518E-004;6.884664180688560E-004;
2.404666666666667E+009;1.749547123908997E-001;1.662995666265488E-002;-1.970879820873961E-004;7.202016422525048E-004;
2.404833333333334E+009;1.757976412773132E-001;1.613651216030121E-002;-2.884888963308185E-004;7.727910415269435E-004;
2.405000000000000E+009;1.763790547847748E-001;1.563741825520992E-002;-3.648449783213437E-004;4.656662931665778E-004;
2.405166666666667E+009;1.770193725824356E-001;1.506844721734524E-002;-4.172117623966187E-004;5.024331621825695E-004;
2.405333333333334E+009;1.777431070804596E-001;1.456146128475666E-002;-3.471292729955167E-004;5.236614379100502E-004;
2.405500000000000E+009;1.781360954046249E-001;1.442846935242415E-002;-4.956881748512387E-004;5.016883369535208E-004;
2.405666666666667E+009;1.787972301244736E-001;1.409657858312130E-002;-4.896789905615151E-004;4.423983336891979E-004;
2.405833333333334E+009;1.789283305406570E-001;1.383955776691437E-002;-4.235878877807409E-004;5.051777116023004E-004;
2.406000000000000E+009;1.794319301843643E-001;1.338404137641192E-002;-5.378543282859027E-004;5.172330420464277E-004;
2.406166666666667E+009;1.794430166482925E-001;1.329472847282887E-002;-6.215625908225775E-004;4.615090729203075E-004;
2.406333333333334E+009;1.797599494457245E-001;1.292658597230911E-002;-5.027861916460097E-004;3.639149945229292E-004;
2.406500000000000E+009;1.797750443220139E-001;1.263122074306011E-002;-6.212057196535170E-004;3.312821500003338E-004;
2.406666666666667E+009;1.796198338270187E-001;1.236755773425102E-002;-6.539933965541422E-004;3.946153738070279E-004;
2.406833333333334E+009;1.796923875808716E-001;1.197951752692461E-002;-6.866542389616370E-004;3.564953512977809E-004;
2.407000000000000E+009;1.795897632837296E-001;1.151487510651350E-002;-7.822014740668237E-004;4.183374694548547E-004;
2.407166666666667E+009;1.793365031480789E-001;1.124180946499109E-002;-8.316482999362052E-004;4.871724813710898E-004;
2.407333333333334E+009;1.789634674787521E-001;1.066098175942898E-002;-8.198615978471935E-004;3.855692048091441E-004;
2.407500000000000E+009;1.787204891443253E-001;1.018077321350575E-002;-7.152770995162427E-004;4.559015214908868E-004;
2.407666666666667E+009;1.783254295587540E-001;9.624596685171127E-003;-9.001356083899736E-004;4.995950730517507E-004;
2.407833333333334E+009;1.776233166456223E-001;8.796645328402519E-003;-1.002731500193477E-003;4.124951665289700E-004;
2.408000000000000E+009;1.771772950887680E-001;7.948636077344418E-003;-9.835724486038089E-004;4.869317344855517E-004;
2.408166666666667E+009;1.765647977590561E-001;7.361889816820622E-003;-9.224581299349666E-004;5.399064393714070E-004;
2.408333333333334E+009;1.761508285999298E-001;6.429716479033232E-003;-8.366165566258133E-004;6.636063335463405E-004;
2.408500000000000E+009;1.754451096057892E-001;5.418626591563225E-003;-9.912410750985146E-004;7.437255117110908E-004;
2.408666666666667E+009;1.747413873672485E-001;4.187510348856449E-003;-9.686274570412934E-004;7.272521033883095E-004;
2.408833333333334E+009;1.740027219057083E-001;3.057800931856036E-003;-1.029171166010201E-003;8.634194964542985E-004;
2.409000000000000E+009;1.733247339725494E-001;1.810442190617323E-003;-1.069621415808797E-003;8.676356519572437E-004;
2.409166666666667E+009;1.726310849189758E-001;3.995049919467419E-004;-1.071272417902947E-003;7.782904431223869E-004;
2.409333333333334E+009;1.721983999013901E-001;-1.105809351429343E-003;-1.230769441463053E-003;7.237492827698588E-004;
2.409500000000000E+009;1.713392138481140E-001;-2.745443722233176E-003;-9.108264930546284E-004;1.002802862785757E-003;
2.409666666666667E+009;1.707709878683090E-001;-4.209164064377546E-003;-9.999298490583897E-004;1.183565240353346E-003;
2.409833333333334E+009;1.701353192329407E-001;-5.775670055299997E-003;-1.004114281386137E-003;9.815272642299533E-004;
2.410000000000000E+009;1.696652323007584E-001;-7.498658262193203E-003;-1.121225417591631E-003;1.188958762213588E-003;
2.410166666666667E+009;1.690675020217896E-001;-9.125518612563610E-003;-1.006533624604344E-003;1.010454958304763E-003;
2.410333333333334E+009;1.685975342988968E-001;-1.098334416747093E-002;-1.029417850077152E-003;1.121644279919565E-003;
2.410500000000000E+009;1.683068722486496E-001;-1.287667546421289E-002;-1.013580593280494E-003;1.246909145265818E-003;
2.410666666666667E+009;1.679950356483460E-001;-1.490706484764814E-002;-1.015424495562911E-003;1.392196747474372E-003;
2.410833333333334E+009;1.679233461618424E-001;-1.656173355877399E-002;-1.013909815810621E-003;1.244765357114375E-003;
2.411000000000000E+009;1.676342338323593E-001;-1.856586523354054E-002;-1.052459818311036E-003;1.278995303437114E-003;
2.411166666666667E+009;1.674508154392242E-001;-2.066723816096783E-002;-1.029768725857139E-003;1.523167127743363E-003;
2.411333333333334E+009;1.673535853624344E-001;-2.261836081743240E-002;-1.056950655765832E-003;1.689575030468404E-003;
2.411500000000000E+009;1.675361245870590E-001;-2.466874942183495E-002;-1.025742036290467E-003;1.559447846375406E-003;
2.411666666666667E+009;1.676910519599915E-001;-2.656152285635471E-002;-9.676123736426234E-004;1.607460668310523E-003;
2.411833333333334E+009;1.678854823112488E-001;-2.846480160951614E-002;-9.662177180871368E-004;1.755862031131983E-003;
2.412000000000000E+009;1.681551188230515E-001;-3.043162636458874E-002;-9.427485638298094E-004;1.804951345548034E-003;
2.412166666666667E+009;1.683388203382492E-001;-3.229933604598045E-002;-7.349707884714007E-004;1.767351175658405E-003;
2.412333333333334E+009;1.690317839384079E-001;-3.390377387404442E-002;-8.223023614846170E-004;1.948663033545017E-003;
2.412500000000000E+009;1.693448275327683E-001;-3.590409457683563E-002;-8.946981979534030E-004;1.874078065156937E-003;
2.412666666666667E+009;1.697939187288284E-001;-3.767527267336845E-002;-7.579913362860680E-004;2.121301600709558E-003;
2.412833333333334E+009;1.705861985683441E-001;-3.946834057569504E-002;-5.845020641572774E-004;2.087381668388844E-003;
2.413000000000000E+009;1.710525155067444E-001;-4.102441668510437E-002;-7.705883472226560E-004;2.301197964698076E-003;
2.413166666666667E+009;1.715439110994339E-001;-4.260281473398209E-002;-5.108786863274872E-004;2.223105635493994E-003;
2.413333333333334E+009;1.721768081188202E-001;-4.403909668326378E-002;-5.696264561265707E-004;2.194888889789581E-003;
2.413500000000000E+009;1.727866381406784E-001;-4.562167450785637E-002;-5.321317585185170E-004;2.397765172645450E-003;
2.413666666666667E+009;1.734411567449570E-001;-4.703786596655846E-002;-3.051547682844102E-004;2.395474351942539E-003;
2.413833333333334E+009;1.739779710769653E-001;-4.826384037733078E-002;-2.302324428455904E-004;2.497966634109616E-003;
2.414000000000000E+009;1.746104806661606E-001;-4.955353215336800E-002;-1.797759032342583E-004;2.545282477512956E-003;
2.414166666666667E+009;1.751485615968704E-001;-5.050167068839073E-002;-1.083438619389199E-004;2.659631893038750E-003;
2.414333333333334E+009;1.757480651140213E-001;-5.159818753600121E-002;1.344037736998871E-004;2.613092539831996E-003;
2.414500000000000E+009;1.764609068632126E-001;-5.275124683976173E-002;2.426382852718234E-004;2.728575840592384E-003;
2.414666666666667E+009;1.768640726804733E-001;-5.341472849249840E-002;4.820620815735310E-004;2.580869942903519E-003;
2.414833333333334E+009;1.772537380456924E-001;-5.435440689325333E-002;4.830012039747089E-004;2.599101280793548E-003;
2.415000000000000E+009;1.776193827390671E-001;-5.491180717945099E-002;5.167835042811930E-004;2.679926343262196E-003;
2.415166666666667E+009;1.780000627040863E-001;-5.546701699495316E-002;7.365999044850469E-004;2.691314090043306E-003;
2.415333333333334E+009;1.783061921596527E-001;-5.604138225317001E-002;8.547973702661693E-004;2.587184309959412E-003;
2.415500000000000E+009;1.785119920969009E-001;-5.643051862716675E-002;1.078492030501366E-003;2.535383217036724E-003;
2.415666666666667E+009;1.785351336002350E-001;-5.682573467493057E-002;1.223147846758366E-003;2.440015552565455E-003;
2.415833333333334E+009;1.786803603172302E-001;-5.723425000905991E-002;1.271693035960197E-003;2.451297827064991E-003;
2.416000000000000E+009;1.785255223512650E-001;-5.753042176365852E-002;1.322568394243717E-003;2.580553526058793E-003;
2.416166666666667E+009;1.786106228828430E-001;-5.773245915770531E-002;1.345158903859556E-003;2.379554789513350E-003;
2.416333333333334E+009;1.783676445484161E-001;-5.792672932147980E-002;1.583222416229546E-003;2.224147319793701E-003;
2.416500000000000E+009;1.780002862215042E-001;-5.808523669838905E-002;1.676570740528405E-003;2.287740120664239E-003;
2.416666666666667E+009;1.776206493377686E-001;-5.838563665747643E-002;1.694093574769795E-003;2.172798616811633E-003;
2.416833333333334E+009;1.773091256618500E-001;-5.858211591839790E-002;1.875501940958202E-003;2.020177198573947E-003;
2.417000000000000E+009;1.764831691980362E-001;-5.882168561220169E-002;1.899686641991139E-003;1.989687792956829E-003;
2.417166666666667E+009;1.758117973804474E-001;-5.894096940755844E-002;2.088438021019101E-003;1.801898470148444E-003;
2.417333333333334E+009;1.751982271671295E-001;-5.924737080931664E-002;2.060275524854660E-003;1.814938616007567E-003;
2.417500000000000E+009;1.742362529039383E-001;-5.960232391953468E-002;2.051810733973980E-003;1.626068959012628E-003;
2.417666666666667E+009;1.735119521617889E-001;-5.981745570898056E-002;2.279599197208881E-003;1.579246716573834E-003;
2.417833333333334E+009;1.723782569169998E-001;-6.016546115279198E-002;2.146646846085787E-003;1.471603289246559E-003;
2.418000000000000E+009;1.714969724416733E-001;-6.067770346999168E-002;2.225419040769339E-003;1.363807939924300E-003;
2.418166666666667E+009;1.701906621456146E-001;-6.089195981621742E-002;2.351888222619891E-003;1.156311831437051E-003;
2.418333333333334E+009;1.693869978189468E-001;-6.158988550305367E-002;2.232836559414864E-003;1.183538348414004E-003;
2.418500000000000E+009;1.681198626756668E-001;-6.223230063915253E-002;2.427916973829269E-003;1.056586974300444E-003;
2.418666666666667E+009;1.669348329305649E-001;-6.265241652727127E-002;2.329246839508414E-003;9.259882499463856E-004;
2.418833333333334E+009;1.655705720186234E-001;-6.337455660104752E-002;2.311931457370520E-003;1.013389322906733E-003;
2.419000000000000E+009;1.643415540456772E-001;-6.426875293254852E-002;2.349447691813111E-003;8.253112901002169E-004;
2.419166666666667E+009;1.632505208253861E-001;-6.502920389175415E-002;2.319065853953362E-003;6.431430228985846E-004;
2.419333333333334E+009;1.617716103792191E-001;-6.586336344480515E-002;2.290433738380671E-003;5.981797585263848E-004;
2.419500000000000E+009;1.606038212776184E-001;-6.711392849683762E-002;2.265688730403781E-003;5.998170236125588E-004;
2.419666666666667E+009;1.595528125762940E-001;-6.827171146869659E-002;2.398221986368299E-003;4.054584424011409E-004;
2.419833333333334E+009;1.582904309034348E-001;-6.925456225872040E-002;2.377017866820097E-003;4.468820989131928E-004;
2.420000000000000E+009;1.572800576686859E-001;-7.037614285945892E-002;2.339910948649049E-003;1.509247085778043E-004;
2.420166666666667E+009;1.562020778656006E-001;-7.177532464265823E-002;2.362990053370595E-003;9.362350829178467E-005;
2.420333333333334E+009;1.551723182201386E-001;-7.321507483720779E-002;2.244464587420225E-003;1.018687762552872E-004;
2.420500000000000E+009;1.543431133031845E-001;-7.453306764364243E-002;2.291556214913726E-003;-7.073855522321537E-005;
2.420666666666667E+009;1.533316671848297E-001;-7.587958872318268E-002;2.081972314044833E-003;-5.509467882802710E-005;
2.420833333333334E+009;1.526491940021515E-001;-7.758044451475143E-002;2.230142708867788E-003;-2.113583468599245E-004;
2.421000000000000E+009;1.518538445234299E-001;-7.913941144943237E-002;2.175934379920363E-003;-2.003992121899501E-004;
2.421166666666667E+009;1.513133645057678E-001;-8.077785372734070E-002;1.975488150492311E-003;-3.474846889730543E-004;
2.421333333333334E+009;1.507450938224793E-001;-8.235466480255127E-002;2.219341462478042E-003;-3.189134877175093E-004;
2.421500000000000E+009;1.503468304872513E-001;-8.414869755506516E-002;2.158470684662461E-003;-2.532066719140858E-004;
2.421666666666667E+009;1.498389989137650E-001;-8.580642938613892E-002;1.929829712025821E-003;-4.927517729811370E-004;
2.421833333333334E+009;1.496240496635437E-001;-8.747547864913940E-002;1.881566247902811E-003;-6.532187690027058E-004;
2.422000000000000E+009;1.495352834463120E-001;-8.919069170951843E-002;1.914745662361383E-003;-5.169506184756756E-004;
2.422166666666667E+009;1.493808925151825E-001;-9.103842824697495E-002;1.807268010452390E-003;-5.664810305461288E-004;
2.422333333333334E+009;1.494369059801102E-001;-9.266259521245956E-002;1.823489321395755E-003;-6.031684461049736E-004;
2.422500000000000E+009;1.493701785802841E-001;-9.413730353116989E-002;1.814922667108476E-003;-7.137314532883465E-004;
2.422666666666667E+009;1.493780314922333E-001;-9.589400142431259E-002;1.786358887329698E-003;-6.644653622061014E-004;
2.422833333333334E+009;1.497783064842224E-001;-9.774664789438248E-002;1.714820042252541E-003;-5.199048900976777E-004;
2.423000000000000E+009;1.498951315879822E-001;-9.908329695463181E-002;1.674848375841975E-003;-6.712395115755498E-004;
2.423166666666667E+009;1.505141407251358E-001;-1.007188037037849E-001;1.705058966763318E-003;-6.088172085583210E-004;
2.423333333333334E+009;1.508389711380005E-001;-1.018611639738083E-001;1.520524965599179E-003;-7.882126956246793E-004;
2.423500000000000E+009;1.511552780866623E-001;-1.035735383629799E-001;1.490949653089047E-003;-8.592654485255480E-004;
2.423666666666667E+009;1.513598859310150E-001;-1.049469783902168E-001;1.478228718042374E-003;-7.357627036981285E-004;
2.423833333333334E+009;1.521535217761993E-001;-1.060668826103210E-001;1.556677278131247E-003;-7.852083654142916E-004;
2.424000000000000E+009;1.524070054292679E-001;-1.071259826421738E-001;1.439646352082491E-003;-8.316586026921868E-004;
2.424166666666667E+009;1.530324518680573E-001;-1.084298118948937E-001;1.534184557385743E-003;-9.555576834827662E-004;
2.424333333333334E+009;1.537454873323441E-001;-1.094028279185295E-001;1.417939434759319E-003;-7.389006204903126E-004;
2.424500000000000E+009;1.541320681571960E-001;-1.104637309908867E-001;1.521080383099616E-003;-9.131024708040059E-004;
2.424666666666667E+009;1.547798812389374E-001;-1.110134124755859E-001;1.532500144094229E-003;-9.256497723981738E-004;
2.424833333333334E+009;1.550068110227585E-001;-1.119325384497643E-001;1.305698417127132E-003;-7.871610578149557E-004;
2.425000000000000E+009;1.555388420820236E-001;-1.127882078289986E-001;1.281738397665322E-003;-1.117130741477013E-003;
2.425166666666667E+009;1.558813750743866E-001;-1.133440956473351E-001;1.434143050573766E-003;-9.783696150407195E-004;
2.425333333333334E+009;1.562965512275696E-001;-1.138960495591164E-001;1.274477108381689E-003;-9.095999412238598E-004;
2.425500000000000E+009;1.565385758876801E-001;-1.144638359546661E-001;1.463644439354539E-003;-1.025981735438108E-003;
2.425666666666667E+009;1.567418277263641E-001;-1.149429827928543E-001;1.177572296001017E-003;-9.649884304963052E-004;
2.425833333333334E+009;1.568971276283264E-001;-1.153068989515305E-001;1.295359339565039E-003;-1.129469485022128E-003;
2.426000000000000E+009;1.569364368915558E-001;-1.156531423330307E-001;1.343137002550066E-003;-1.167468493804336E-003;
2.426166666666667E+009;1.572032421827316E-001;-1.159143671393395E-001;1.227926462888718E-003;-1.165187568403781E-003;
2.426333333333334E+009;1.569958776235580E-001;-1.161815971136093E-001;1.162559492513537E-003;-1.070186262950301E-003;
2.426500000000000E+009;1.568143665790558E-001;-1.163165047764778E-001;1.080138608813286E-003;-1.270688138902187E-003;
2.426666666666667E+009;1.567484885454178E-001;-1.164247095584869E-001;1.144695095717907E-003;-1.249740016646683E-003;
2.426833333333334E+009;1.563190966844559E-001;-1.164896637201309E-001;1.096745603717864E-003;-1.162411295808852E-003;
2.427000000000000E+009;1.559489965438843E-001;-1.167457848787308E-001;1.053108251653612E-003;-1.351605751551688E-003;
2.427166666666667E+009;1.553448587656021E-001;-1.167237311601639E-001;1.033481792546809E-003;-1.296908012591302E-003;
2.427333333333334E+009;1.546880155801773E-001;-1.168722361326218E-001;9.308399748988450E-004;-1.287538208998740E-003;
2.427500000000000E+009;1.540558189153671E-001;-1.170772537589073E-001;8.379829814657569E-004;-1.343673560768366E-003;
2.427666666666667E+009;1.532100439071655E-001;-1.172128692269325E-001;8.119331905618310E-004;-1.259641372598708E-003;
2.427833333333334E+009;1.521147042512894E-001;-1.173354536294937E-001;7.619223906658590E-004;-1.282600685954094E-003;
