# Version 1.00
#
freq[Hz];re:Trc1_S11;im:Trc1_S11;re:Trc2_S21;im:Trc2_S21;
2.400000000000000E+009;1.565713882446289E-001;6.043413653969765E-002;-1.941239694133401E-003;1.541908830404282E-003;
2.400166666666667E+009;1.565188020467758E-001;5.874013528227806E-002;-1.884504104964435E-003;1.368102617561817E-003;
2.400333333333334E+009;1.564726084470749E-001;5.662614479660988E-002;-1.695092767477036E-003;1.530540524981916E-003;
2.400500000000000E+009;1.567376106977463E-001;5.475517734885216E-002;-1.611987361684442E-003;1.528573920950294E-003;
2.400666666666667E+009;1.570682674646378E-001;5.243883654475212E-002;-1.425880589522421E-003;1.521309604868293E-003;
2.400833333333334E+009;1.574988663196564E-001;5.051045864820480E-002;-1.483509666286409E-003;1.604802440851927E-003;
2.401000000000000E+009;1.576282083988190E-001;4.833269119262695E-002;-1.310886465944350E-003;1.658591907471418E-003;
2.401166666666667E+009;1.582005321979523E-001;4.641709104180336E-002;-1.391598372720182E-003;1.596113550476730E-003;
2.401333333333334E+009;1.584855318069458E-001;4.413315653800964E-002;-1.228939509019256E-003;1.611037412658334E-003;
2.401500000000000E+009;1.591658592224121E-001;4.230677708983421E-002;-9.402519208379090E-004;1.699277432635427E-003;
2.401666666666667E+009;1.596809625625610E-001;4.026076570153236E-002;-1.005475525744259E-003;1.706558978185058E-003;
2.401833333333334E+009;1.602376997470856E-001;3.834636136889458E-002;-8.149822242558003E-004;1.745555899105966E-003;
2.402000000000000E+009;1.608648747205734E-001;3.648082911968231E-002;-7.224356522783637E-004;1.669788733124733E-003;
2.402166666666667E+009;1.614191681146622E-001;3.446508198976517E-002;-6.906913476996124E-004;1.809755689464510E-003;
2.402333333333334E+009;1.622854173183441E-001;3.277079388499260E-002;-6.934587145224214E-004;1.479967846535146E-003;
2.402500000000000E+009;1.633866578340530E-001;3.111328929662705E-002;-3.151599958073348E-004;1.359306625090540E-003;
2.402666666666667E+009;1.640267819166184E-001;2.950194291770458E-002;-3.499838639982045E-004;8.613734971731901E-004;
2.402833333333334E+009;1.648850291967392E-001;2.805386297404766E-002;-3.940880123991519E-004;1.697912113741040E-003;
2.403000000000000E+009;1.657417714595795E-001;2.647418901324272E-002;-4.115701594855636E-004;1.084232586435974E-003;
2.403166666666667E+009;1.668514758348465E-001;2.516348659992218E-002;-4.005596274510026E-004;1.600963179953396E-003;
2.403333333333334E+009;1.677412390708923E-001;2.398962900042534E-002;-4.490711726248264E-004;1.092135440558195E-003;
2.403500000000000E+009;1.686417311429977E-001;2.270653843879700E-002;1.531572779640555E-004;3.805590968113393E-004;
2.403666666666667E+009;1.695799082517624E-001;2.159540355205536E-002;-2.201314637204632E-004;1.092664897441864E-003;
2.403833333333334E+009;1.707091033458710E-001;2.068562619388104E-002;1.925774849951267E-004;9.140453184954822E-004;
2.404000000000000E+009;1.714063286781311E-001;1.965172216296196E-002;-5.804606480523944E-004;6.280833622440696E-004;
2.404166666666667E+009;1.724373251199722E-001;1.879030279815197E-002;-9.428380144527182E-005;8.336693281307817E-004;
2.404333333333334E+009;1.732767671346664E-001;1.824053376913071E-002;-2.444950805511326E-004;6.706611020490527E-004;
2.404500000000000E+009;1.739548146724701E-001;1.722900941967964E-002;-3.044793847948313E-004;5.306859966367483E-004;
2.404666666666667E+009;1.750362515449524E-001;1.666682586073875E-002;-5.186006819712929E-005;8.952106582000852E-004;
2.404833333333334E+009;1.756497770547867E-001;1.612566038966179E-002;-3.620349743869156E-004;4.542355891317129E-004;
2.405000000000000E+009;1.763825714588165E-001;1.560839172452688E-002;-3.897633287124336E-004;7.530914735980332E-004;
2.405166666666667E+009;1.769668906927109E-001;1.497630309313536E-002;-4.882894572801888E-004;5.428079748526216E-004;
2.405333333333334E+009;1.778506934642792E-001;1.457779854536057E-002;-3.429019707255065E-004;5.206081550568342E-004;
2.405500000000000E+009;1.783048808574677E-001;1.447115372866392E-002;-4.081723745912314E-004;3.588611725717783E-004;
2.405666666666667E+009;1.787354350090027E-001;1.399058289825916E-002;-4.548408323898912E-004;3.386356984265149E-004;
2.405833333333334E+009;1.790297776460648E-001;1.365281548351049E-002;-4.919607890769839E-004;4.444560036063194E-004;
2.406000000000000E+009;1.794303953647614E-001;1.335973944514990E-002;-4.478468908928335E-004;3.216416807845235E-004;
2.406166666666667E+009;1.795942187309265E-001;1.331483852118254E-002;-4.968178109265864E-004;4.187559243291616E-004;
2.406333333333334E+009;1.798576563596726E-001;1.304615195840597E-002;-5.685231299139559E-004;3.619935596361756E-004;
2.406500000000000E+009;1.798100769519806E-001;1.258331630378962E-002;-6.129408720880747E-004;4.305788315832615E-004;
2.406666666666667E+009;1.796060353517532E-001;1.233877148479223E-002;-5.913390195928514E-004;4.459318006411195E-004;
2.406833333333334E+009;1.797256767749786E-001;1.190971769392490E-002;-7.701092981733382E-004;3.750687756109983E-004;
2.407000000000000E+009;1.796946078538895E-001;1.157052069902420E-002;-8.666510111652315E-004;4.205852455925196E-004;
2.407166666666667E+009;1.794951707124710E-001;1.117288321256638E-002;-6.562042399309576E-004;5.324649391695857E-004;
2.407333333333334E+009;1.790411323308945E-001;1.057061273604631E-002;-7.174527854658663E-004;4.693562223110348E-004;
2.407500000000000E+009;1.786513030529022E-001;1.012561004608870E-002;-6.444544997066259E-004;4.043022054247558E-004;
2.407666666666667E+009;1.782833039760590E-001;9.524909779429436E-003;-8.960568811744452E-004;5.640961462631822E-004;
2.407833333333334E+009;1.776404827833176E-001;8.822413161396980E-003;-8.218370494432747E-004;5.277151358313859E-004;
2.408000000000000E+009;1.773115098476410E-001;7.847581058740616E-003;-8.041460532695055E-004;5.821546656079590E-004;
2.408166666666667E+009;1.765742152929306E-001;7.148954551666975E-003;-7.309269276447594E-004;5.370352300815284E-004;
2.408333333333334E+009;1.760496795177460E-001;6.209885701537132E-003;-9.151346748694778E-004;6.218582275323570E-004;
2.408500000000000E+009;1.755688786506653E-001;5.181683693081141E-003;-1.025665085762739E-003;6.740159587934613E-004;
2.408666666666667E+009;1.748256683349609E-001;4.059463739395142E-003;-8.732443675398827E-004;6.330953328870237E-004;
2.408833333333334E+009;1.740255206823349E-001;2.953031798824668E-003;-8.369918796233833E-004;6.718874792568386E-004;
2.409000000000000E+009;1.732827425003052E-001;1.671635778620839E-003;-1.045167795382440E-003;6.622359505854547E-004;
2.409166666666667E+009;1.726643592119217E-001;3.755534999072552E-004;-9.693756001070142E-004;8.256547152996063E-004;
2.409333333333334E+009;1.720679551362991E-001;-1.164356246590614E-003;-9.508116636425257E-004;8.714155992493033E-004;
2.409500000000000E+009;1.713744103908539E-001;-2.875547157600522E-003;-9.329949971288443E-004;8.924770518206060E-004;
2.409666666666667E+009;1.706383824348450E-001;-4.289367701858282E-003;-8.951380150392652E-004;1.029576058499515E-003;
2.409833333333334E+009;1.700969785451889E-001;-5.839796736836433E-003;-9.380936389788985E-004;1.009006286039949E-003;
2.410000000000000E+009;1.696225553750992E-001;-7.485221605747938E-003;-9.020037832669914E-004;1.134258811362088E-003;
2.410166666666667E+009;1.690898984670639E-001;-9.353703819215298E-003;-1.016710884869099E-003;1.074081286787987E-003;
2.410333333333334E+009;1.685991585254669E-001;-1.100713852792978E-002;-9.449118515476584E-004;1.116735977120698E-003;
2.410500000000000E+009;1.683377772569656E-001;-1.287365239113569E-002;-9.153715218417347E-004;1.149722840636969E-003;
2.410666666666667E+009;1.678006201982498E-001;-1.496078819036484E-002;-1.037722802720964E-003;1.137434155680239E-003;
2.410833333333334E+009;1.677311956882477E-001;-1.674138009548187E-002;-8.847979479469359E-004;1.216923701576889E-003;
2.411000000000000E+009;1.675455123186112E-001;-1.879976503551006E-002;-1.083287992514670E-003;1.292322995141149E-003;
2.411166666666667E+009;1.673573553562164E-001;-2.071322686970234E-002;-8.441315731033683E-004;1.348108169622719E-003;
2.411333333333334E+009;1.674320399761200E-001;-2.255708724260330E-002;-9.903557365760207E-004;1.465696492232382E-003;
2.411500000000000E+009;1.674205064773560E-001;-2.458201721310616E-002;-8.954335935413837E-004;1.439890591427684E-003;
2.411666666666667E+009;1.678214669227600E-001;-2.670210786163807E-002;-9.035549592226744E-004;1.564996084198356E-003;
2.411833333333334E+009;1.677965372800827E-001;-2.850536443293095E-002;-1.034597284160554E-003;1.517632044851780E-003;
2.412000000000000E+009;1.681792289018631E-001;-3.037777356803417E-002;-8.510647458024323E-004;1.721260952763259E-003;
2.412166666666667E+009;1.685039848089218E-001;-3.227002546191216E-002;-8.842654642648995E-004;1.735344529151917E-003;
2.412333333333334E+009;1.690491735935211E-001;-3.413569182157517E-002;-1.032060128636658E-003;1.930811442434788E-003;
2.412500000000000E+009;1.693510264158249E-001;-3.584312647581101E-002;-7.905284292064607E-004;1.959770917892456E-003;
2.412666666666667E+009;1.698662638664246E-001;-3.779441118240356E-002;-6.806844612583518E-004;1.951809390448034E-003;
2.412833333333334E+009;1.705811917781830E-001;-3.941661491990089E-002;-5.808271234855056E-004;1.946882577612996E-003;
2.413000000000000E+009;1.708852797746658E-001;-4.104933142662048E-002;-5.848853033967316E-004;2.104952232912183E-003;
2.413166666666667E+009;1.715001612901688E-001;-4.255848005414009E-002;-5.199532024562359E-004;2.250476274639368E-003;
2.413333333333334E+009;1.720909923315048E-001;-4.429651051759720E-002;-3.798175603151321E-004;2.268597017973661E-003;
2.413500000000000E+009;1.727366149425507E-001;-4.569728299975395E-002;-3.788165049627423E-004;2.363043138757348E-003;
2.413666666666667E+009;1.735519468784332E-001;-4.714922606945038E-002;-3.684133698698133E-004;2.452277811244130E-003;
2.413833333333334E+009;1.739866286516190E-001;-4.818629473447800E-002;-2.521180431358516E-004;2.402178244665265E-003;
2.414000000000000E+009;1.744185984134674E-001;-4.948400333523750E-002;-1.346657081739977E-004;2.553221303969622E-003;
2.414166666666667E+009;1.752283573150635E-001;-5.062223970890045E-002;-7.965316035551950E-005;2.456131624057889E-003;
2.414333333333334E+009;1.758189499378204E-001;-5.168691277503967E-002;1.623077405383810E-004;2.624090295284987E-003;
2.414500000000000E+009;1.765524744987488E-001;-5.261573567986488E-002;3.666074189823121E-004;2.606861991807818E-003;
2.414666666666667E+009;1.768742203712463E-001;-5.342927575111389E-002;4.773988912347704E-004;2.734529320150614E-003;
2.414833333333334E+009;1.773836612701416E-001;-5.424838885664940E-002;6.320045795291662E-004;2.656038617715240E-003;
2.415000000000000E+009;1.776035577058792E-001;-5.480593442916870E-002;5.350896390154958E-004;2.665764885023236E-003;
2.415166666666667E+009;1.779809147119522E-001;-5.547558143734932E-002;7.002811180427671E-004;2.543561859056354E-003;
2.415333333333334E+009;1.783917993307114E-001;-5.612744763493538E-002;9.026286425068975E-004;2.752603264525533E-003;
2.415500000000000E+009;1.785234510898590E-001;-5.649004504084587E-002;1.061893650330603E-003;2.568200696259737E-003;
2.415666666666667E+009;1.786771714687347E-001;-5.690217390656471E-002;1.050611957907677E-003;2.687013940885663E-003;
2.415833333333334E+009;1.787926256656647E-001;-5.713406205177307E-002;1.178264035843313E-003;2.513311803340912E-003;
2.416000000000000E+009;1.784855574369431E-001;-5.752158164978027E-002;1.559127820655704E-003;2.578995656222105E-003;
2.416166666666667E+009;1.786318868398666E-001;-5.783192813396454E-002;1.540568773634732E-003;2.360022393986583E-003;
2.416333333333334E+009;1.783750951290131E-001;-5.799702554941177E-002;1.611108891665936E-003;2.226045355200768E-003;
2.416500000000000E+009;1.779965013265610E-001;-5.827992409467697E-002;1.659583300352097E-003;2.079683123156428E-003;
2.416666666666667E+009;1.776284724473953E-001;-5.839440226554871E-002;1.734456629492343E-003;2.071478404104710E-003;
2.416833333333334E+009;1.772328615188599E-001;-5.877412855625153E-002;1.862915814854205E-003;1.999904401600361E-003;
2.417000000000000E+009;1.764862388372421E-001;-5.888364464044571E-002;1.875263405963779E-003;1.982005545869470E-003;
2.417166666666667E+009;1.758666932582855E-001;-5.906078219413757E-002;2.026380971074104E-003;1.897011999972165E-003;
2.417333333333334E+009;1.751225888729096E-001;-5.933355540037155E-002;2.110787201672792E-003;1.730542629957199E-003;
2.417500000000000E+009;1.742831915616989E-001;-5.965525656938553E-002;2.074550371617079E-003;1.656313310377300E-003;
2.417666666666667E+009;1.734456270933151E-001;-5.980828031897545E-002;2.268001437187195E-003;1.687998184934259E-003;
2.417833333333334E+009;1.724678874015808E-001;-6.029484793543816E-002;2.200464950874448E-003;1.515977084636688E-003;
2.418000000000000E+009;1.713345944881439E-001;-6.081280112266541E-002;2.360034035518765E-003;1.386761898174882E-003;
2.418166666666667E+009;1.701784282922745E-001;-6.105676293373108E-002;2.390603302046657E-003;1.244899351149797E-003;
2.418333333333334E+009;1.693313866853714E-001;-6.163159012794495E-002;2.334065968170762E-003;1.275345333851874E-003;
2.418500000000000E+009;1.680432856082916E-001;-6.214562058448792E-002;2.316597150638700E-003;1.129464944824576E-003;
2.418666666666667E+009;1.669557243585587E-001;-6.289267539978027E-002;2.341173589229584E-003;9.736952488310635E-004;
2.418833333333334E+009;1.655203402042389E-001;-6.348692625761032E-002;2.359261969104409E-003;1.043973374180496E-003;
2.419000000000000E+009;1.642972379922867E-001;-6.422207504510880E-002;2.434254856780171E-003;7.485712994821370E-004;
2.419166666666667E+009;1.630502492189407E-001;-6.521321833133698E-002;2.589027397334576E-003;7.078066701069474E-004;
2.419333333333334E+009;1.618133336305618E-001;-6.588867306709290E-002;2.435439964756370E-003;5.998634151183069E-004;
2.419500000000000E+009;1.606246978044510E-001;-6.711349636316299E-002;2.418085001409054E-003;5.104411975480616E-004;
2.419666666666667E+009;1.595280766487122E-001;-6.829395890235901E-002;2.494788030162454E-003;4.155714996159077E-004;
2.419833333333334E+009;1.581592708826065E-001;-6.925165653228760E-002;2.378184348344803E-003;4.172471526544541E-004;
2.420000000000000E+009;1.572704464197159E-001;-7.062286883592606E-002;2.458560513332486E-003;2.513179497327656E-004;
2.420166666666667E+009;1.562046557664871E-001;-7.176450639963150E-002;2.362483879551292E-003;5.564466846408323E-005;
2.420333333333334E+009;1.551007777452469E-001;-7.319709658622742E-002;2.206776291131973E-003;1.225930463988334E-004;
2.420500000000000E+009;1.542961597442627E-001;-7.446993142366409E-002;2.305200789123774E-003;-1.319526490988210E-004;
2.420666666666667E+009;1.533658504486084E-001;-7.607183605432510E-002;2.128371037542820E-003;-8.930556941777468E-005;
2.420833333333334E+009;1.526492536067963E-001;-7.756654173135757E-002;2.239546505734325E-003;-1.127241193898954E-004;
2.421000000000000E+009;1.517494916915894E-001;-7.931146025657654E-002;2.111055655404925E-003;-2.050758048426360E-004;
2.421166666666667E+009;1.512035578489304E-001;-8.076585084199905E-002;2.136277267709374E-003;-5.630702798953280E-005;
2.421333333333334E+009;1.508687883615494E-001;-8.264412730932236E-002;2.094273921102285E-003;-4.085129476152360E-004;
2.421500000000000E+009;1.500994116067886E-001;-8.417664468288422E-002;1.989430049434304E-003;-3.247632412239909E-004;
2.421666666666667E+009;1.498731076717377E-001;-8.586417883634567E-002;1.985955750569701E-003;-5.415229825302959E-004;
2.421833333333334E+009;1.497253775596619E-001;-8.754529803991318E-002;1.923580421134830E-003;-4.686324391514063E-004;
2.422000000000000E+009;1.494672298431397E-001;-8.928759396076202E-002;1.784054678864777E-003;-5.838092183694243E-004;
2.422166666666667E+009;1.494075357913971E-001;-9.103993326425552E-002;1.682698493823409E-003;-4.595431382767856E-004;
2.422333333333334E+009;1.493637859821320E-001;-9.265732020139694E-002;1.694634440355003E-003;-5.994252860546112E-004;
2.422500000000000E+009;1.494109034538269E-001;-9.426522254943848E-002;1.750124385580421E-003;-6.050030351616442E-004;
2.422666666666667E+009;1.494059115648270E-001;-9.595335274934769E-002;1.683894544839859E-003;-5.903677665628493E-004;
2.422833333333334E+009;1.498001962900162E-001;-9.772577136754990E-002;1.642885035835207E-003;-5.946984747424722E-004;
2.423000000000000E+009;1.500139236450195E-001;-9.921755641698837E-002;1.577084534801543E-003;-6.736098439432681E-004;
2.423166666666667E+009;1.504177302122116E-001;-1.006866320967674E-001;1.593441469594836E-003;-7.128442521207035E-004;
2.423333333333334E+009;1.508073061704636E-001;-1.019511148333550E-001;1.590421423316002E-003;-5.879360251128674E-004;
2.423500000000000E+009;1.513916403055191E-001;-1.034987568855286E-001;1.535485498607159E-003;-6.928045768290758E-004;
2.423666666666667E+009;1.514764875173569E-001;-1.049670279026032E-001;1.533936010673642E-003;-6.363351712934673E-004;
2.423833333333334E+009;1.522748470306397E-001;-1.062083989381790E-001;1.479958766140044E-003;-6.890586228109896E-004;
2.424000000000000E+009;1.525299549102783E-001;-1.071692705154419E-001;1.577437738887966E-003;-7.674315129406750E-004;
2.424166666666667E+009;1.529291272163391E-001;-1.085268184542656E-001;1.641207840293646E-003;-6.304415874183178E-004;
2.424333333333334E+009;1.535932272672653E-001;-1.094861999154091E-001;1.581767224706709E-003;-7.404455682262778E-004;
2.424500000000000E+009;1.540685445070267E-001;-1.105197891592979E-001;1.510299392975867E-003;-6.763940909877420E-004;
2.424666666666667E+009;1.548325121402741E-001;-1.112566962838173E-001;1.549841603264213E-003;-8.020503446459770E-004;
2.424833333333334E+009;1.550719588994980E-001;-1.120406016707420E-001;1.425895956344903E-003;-7.132927421480417E-004;
2.425000000000000E+009;1.554594486951828E-001;-1.128282323479652E-001;1.377761829644442E-003;-8.266856893897057E-004;
2.425166666666667E+009;1.556651890277863E-001;-1.134458258748055E-001;1.462097046896815E-003;-7.589020533487201E-004;
2.425333333333334E+009;1.562354117631912E-001;-1.141026020050049E-001;1.272652763873339E-003;-7.436159648932517E-004;
2.425500000000000E+009;1.565982997417450E-001;-1.145491898059845E-001;1.432765508070588E-003;-1.004186691716313E-003;
2.425666666666667E+009;1.566548794507980E-001;-1.150805279612541E-001;1.264314167201519E-003;-8.627519709989429E-004;
2.425833333333334E+009;1.568126976490021E-001;-1.153396293520927E-001;1.273849164135754E-003;-1.108280033804476E-003;
2.426000000000000E+009;1.569044739007950E-001;-1.156996563076973E-001;1.351730548776686E-003;-9.711917373351753E-004;
2.426166666666667E+009;1.571542173624039E-001;-1.160253286361694E-001;1.074004801921547E-003;-1.042904448695481E-003;
2.426333333333334E+009;1.568930596113205E-001;-1.162839308381081E-001;1.134437392465770E-003;-1.273088739253581E-003;
2.426500000000000E+009;1.568309962749481E-001;-1.163447052240372E-001;9.878717828541994E-004;-1.133082085289061E-003;
2.426666666666667E+009;1.567202359437943E-001;-1.164081245660782E-001;1.229118905030191E-003;-1.073837978765369E-003;
2.426833333333334E+009;1.563079506158829E-001;-1.166283711791039E-001;1.121555920690298E-003;-1.289052306674421E-003;
2.427000000000000E+009;1.559018194675446E-001;-1.168441697955132E-001;9.639638592489064E-004;-1.120407367125154E-003;
2.427166666666667E+009;1.552856266498566E-001;-1.168294176459312E-001;1.069628517143428E-003;-1.308185397647321E-003;
2.427333333333334E+009;1.546329259872437E-001;-1.169359833002091E-001;9.449640056118369E-004;-1.210749265737832E-003;
2.427500000000000E+009;1.540530025959015E-001;-1.171143576502800E-001;7.526712142862380E-004;-1.117351581342518E-003;
2.427666666666667E+009;1.531986892223358E-001;-1.172139644622803E-001;8.153638918884099E-004;-1.314596505835652E-003;
2.427833333333334E+009;1.521992236375809E-001;-1.173403039574623E-001;8.191475062631071E-004;-1.319683971814811E-003;
