# Version 1.00
#
freq[Hz];re:Trc1_S11;im:Trc1_S11;re:Trc2_S21;im:Trc2_S21;
2.400000000000000E+009;1.689378321170807E-001;4.570233076810837E-002;-2.585671143606305E-003;9.290506131947041E-004;
2.400166666666667E+009;1.700871884822846E-001;4.481386020779610E-002;-2.617284422740340E-003;9.754604543559253E-004;
2.400333333333334E+009;1.708794981241226E-001;4.353551566600800E-002;-2.449109219014645E-003;9.502553148195148E-004;
2.400500000000000E+009;1.719411909580231E-001;4.259190335869789E-002;-2.482220763340592E-003;1.065639778971672E-003;
2.400666666666667E+009;1.726499646902084E-001;4.170949384570122E-002;-2.390910405665636E-003;9.828722104430199E-004;
2.400833333333334E+009;1.738519221544266E-001;4.087703302502632E-002;-2.445013960823417E-003;9.185670060105622E-004;
2.401000000000000E+009;1.744832247495651E-001;4.009785875678062E-002;-2.563129412010312E-003;8.923292043618858E-004;
2.401166666666667E+009;1.753985583782196E-001;3.928150236606598E-002;-2.431233646348119E-003;1.028275466524065E-003;
2.401333333333334E+009;1.759226471185684E-001;3.865708038210869E-002;-2.493811072781682E-003;9.152089478448033E-004;
2.401500000000000E+009;1.768571138381958E-001;3.795723989605904E-002;-2.579265739768744E-003;1.185121596790850E-003;
2.401666666666667E+009;1.772713810205460E-001;3.741101548075676E-002;-2.775487024337053E-003;1.152125187218189E-003;
2.401833333333334E+009;1.778509467840195E-001;3.663902729749680E-002;-2.546495525166392E-003;1.303689321503043E-003;
2.402000000000000E+009;1.782741695642471E-001;3.638091310858727E-002;-2.575415885075927E-003;1.529051456600428E-003;
2.402166666666667E+009;1.787408888339996E-001;3.559651598334312E-002;-2.723184647038579E-003;1.636852044612169E-003;
2.402333333333334E+009;1.790321022272110E-001;3.496817871928215E-002;-2.749524777755141E-003;1.739309984259307E-003;
2.402500000000000E+009;1.795199960470200E-001;3.455088660120964E-002;-2.733396133407950E-003;1.723309047520161E-003;
2.402666666666667E+009;1.795989423990250E-001;3.392747789621353E-002;-2.816378138959408E-003;1.841957215219736E-003;
2.402833333333334E+009;1.796912401914597E-001;3.308247029781342E-002;-2.808273304253817E-003;1.937231398187578E-003;
2.403000000000000E+009;1.796824336051941E-001;3.232849389314652E-002;-2.818687353283167E-003;2.222137991338968E-003;
2.403166666666667E+009;1.798496246337891E-001;3.172559291124344E-002;-2.639402402564883E-003;2.130288397893310E-003;
2.403333333333334E+009;1.797941774129868E-001;3.093571402132511E-002;-2.690610941499472E-003;2.546361647546291E-003;
2.403500000000000E+009;1.794583946466446E-001;2.983953990042210E-002;-2.420017262920737E-003;2.585270209237933E-003;
2.403666666666667E+009;1.792542189359665E-001;2.899517491459847E-002;-2.499182242900133E-003;2.584856702014804E-003;
2.403833333333334E+009;1.790777593851090E-001;2.810844033956528E-002;-2.317722886800766E-003;2.788522513583303E-003;
2.404000000000000E+009;1.786133348941803E-001;2.700732462108135E-002;-2.352546202018857E-003;3.140690270811319E-003;
2.404166666666667E+009;1.782782673835754E-001;2.568152546882629E-002;-2.260203240439296E-003;3.177882172167301E-003;
2.404333333333334E+009;1.778172254562378E-001;2.464421093463898E-002;-2.229969017207623E-003;3.276983508840203E-003;
2.404500000000000E+009;1.773335933685303E-001;2.308553829789162E-002;-1.910958788357675E-003;3.387184580788016E-003;
2.404666666666667E+009;1.770215779542923E-001;2.191576734185219E-002;-1.858979114331305E-003;3.516605589538813E-003;
2.404833333333334E+009;1.763277351856232E-001;2.034407109022141E-002;-1.707530696876347E-003;3.906641621142626E-003;
2.405000000000000E+009;1.758203208446503E-001;1.904568634927273E-002;-1.585681573487818E-003;4.046105779707432E-003;
2.405166666666667E+009;1.754177510738373E-001;1.739340089261532E-002;-1.471133902668953E-003;3.936661873012781E-003;
2.405333333333334E+009;1.750464737415314E-001;1.575446687638760E-002;-1.134706195443869E-003;4.139412194490433E-003;
2.405500000000000E+009;1.745162755250931E-001;1.416850741952658E-002;-1.140677719376981E-003;4.250689875334501E-003;
2.405666666666667E+009;1.741881966590881E-001;1.241987477988005E-002;-9.379747789353132E-004;4.207971040159464E-003;
2.405833333333334E+009;1.737141162157059E-001;1.059830840677023E-002;-7.646104786545038E-004;4.520266316831112E-003;
2.406000000000000E+009;1.733901500701904E-001;8.623577654361725E-003;-4.301819426473230E-004;4.417426884174347E-003;
2.406166666666667E+009;1.731099784374237E-001;6.965341512113810E-003;-2.730373525992036E-004;4.588706884533167E-003;
2.406333333333334E+009;1.730940639972687E-001;5.037733353674412E-003;1.473068004997913E-005;4.575798753648996E-003;
2.406500000000000E+009;1.728537082672119E-001;2.960893558338285E-003;2.898009261116386E-004;4.758073482662439E-003;
2.406666666666667E+009;1.726636588573456E-001;1.030166866257787E-003;5.070784245617688E-004;4.651294089853764E-003;
2.406833333333334E+009;1.725659817457199E-001;-1.151371514424682E-003;9.433822706341744E-004;4.436281509697437E-003;
2.407000000000000E+009;1.727188527584076E-001;-3.124064067378640E-003;1.194355310872197E-003;4.641844425350428E-003;
2.407166666666667E+009;1.729335039854050E-001;-5.267419852316380E-003;1.338551519438624E-003;4.576504696160555E-003;
2.407333333333334E+009;1.730758994817734E-001;-7.478959858417511E-003;1.720179221592844E-003;4.553605802357197E-003;
2.407500000000000E+009;1.733133196830750E-001;-9.482903406023979E-003;2.026587491855025E-003;4.327710717916489E-003;
2.407666666666667E+009;1.734999120235443E-001;-1.145195960998535E-002;2.226516604423523E-003;4.243484698235989E-003;
2.407833333333334E+009;1.737712472677231E-001;-1.376841124147177E-002;2.354693133383989E-003;4.020690917968750E-003;
2.408000000000000E+009;1.741269975900650E-001;-1.579803973436356E-002;2.653077011927962E-003;3.800228703767061E-003;
2.408166666666667E+009;1.745104342699051E-001;-1.775953918695450E-002;2.888034563511610E-003;3.706175368279219E-003;
2.408333333333334E+009;1.750891506671906E-001;-1.975181512534618E-002;3.121152054518461E-003;3.430538577958942E-003;
2.408500000000000E+009;1.752749979496002E-001;-2.176064066588879E-002;3.263365244492889E-003;3.281698096543551E-003;
2.408666666666667E+009;1.757464110851288E-001;-2.378668077290058E-002;3.520520869642496E-003;3.009684383869171E-003;
2.408833333333334E+009;1.760280877351761E-001;-2.549871057271957E-002;3.549689427018166E-003;2.652503782883287E-003;
2.409000000000000E+009;1.763722449541092E-001;-2.699504420161247E-002;3.665719181299210E-003;2.363678533583880E-003;
2.409166666666667E+009;1.768415421247482E-001;-2.872555144131184E-002;3.741732565686107E-003;2.113422378897667E-003;
2.409333333333334E+009;1.772953420877457E-001;-3.022565320134163E-002;3.754835575819016E-003;1.973219681531191E-003;
2.409500000000000E+009;1.776746064424515E-001;-3.166611865162849E-002;3.800081787630916E-003;1.564805163070560E-003;
2.409666666666667E+009;1.780709028244019E-001;-3.267131745815277E-002;3.841001074761152E-003;1.370728597976267E-003;
2.409833333333334E+009;1.785044968128204E-001;-3.371610864996910E-002;3.775368444621563E-003;1.144703128375113E-003;
2.410000000000000E+009;1.789423525333405E-001;-3.484302759170532E-002;3.749569877982140E-003;1.060197944752872E-003;
2.410166666666667E+009;1.795343160629273E-001;-3.554834797978401E-002;3.778094192966819E-003;6.728561129420996E-004;
2.410333333333334E+009;1.798751950263977E-001;-3.646004945039749E-002;3.729422343894839E-003;4.943747189827263E-004;
2.410500000000000E+009;1.803416609764099E-001;-3.723251819610596E-002;3.705281997099519E-003;2.114805247401819E-004;
2.410666666666667E+009;1.806483119726181E-001;-3.802985697984695E-002;3.618632908910513E-003;7.326517516048625E-005;
2.410833333333334E+009;1.811348348855972E-001;-3.858720138669014E-002;3.594313748180866E-003;-8.652204269310460E-005;
2.411000000000000E+009;1.813317835330963E-001;-3.908596187829971E-002;3.320729592815042E-003;-3.877988201566041E-004;
2.411166666666667E+009;1.814741790294647E-001;-3.966620936989784E-002;3.415552200749517E-003;-4.579393425956368E-004;
2.411333333333334E+009;1.818412691354752E-001;-4.019075259566307E-002;3.206693800166249E-003;-5.771935684606433E-004;
2.411500000000000E+009;1.818632632493973E-001;-4.073724150657654E-002;3.109973622485995E-003;-9.710359154269099E-004;
2.411666666666667E+009;1.820407360792160E-001;-4.120074212551117E-002;2.861605025827885E-003;-1.052972394973040E-003;
2.411833333333334E+009;1.817353963851929E-001;-4.146333783864975E-002;2.717911731451750E-003;-1.072464277967811E-003;
2.412000000000000E+009;1.816269606351852E-001;-4.191826656460762E-002;2.515564206987619E-003;-1.173502532765269E-003;
2.412166666666667E+009;1.811904162168503E-001;-4.233100265264511E-002;2.494281157851219E-003;-1.277715666219592E-003;
2.412333333333334E+009;1.811092346906662E-001;-4.241141676902771E-002;2.285492606461048E-003;-1.473860000260174E-003;
2.412500000000000E+009;1.805518269538879E-001;-4.266552254557610E-002;2.080172067508102E-003;-1.368442899547517E-003;
2.412666666666667E+009;1.798710972070694E-001;-4.316314682364464E-002;1.807015854865313E-003;-1.519572688266635E-003;
2.412833333333334E+009;1.794092953205109E-001;-4.365549981594086E-002;1.684389309957624E-003;-1.409593503922224E-003;
2.413000000000000E+009;1.787078082561493E-001;-4.406496509909630E-002;1.529554370790720E-003;-1.422098837792873E-003;
2.413166666666667E+009;1.778647899627686E-001;-4.448755085468292E-002;1.464016269892454E-003;-1.395333209075034E-003;
2.413333333333334E+009;1.769398599863052E-001;-4.494998604059219E-002;1.224918407388032E-003;-1.481384970247746E-003;
2.413500000000000E+009;1.760141849517822E-001;-4.537709429860115E-002;1.300296047702432E-003;-1.427689450792968E-003;
2.413666666666667E+009;1.751218438148499E-001;-4.590463265776634E-002;1.077342079952359E-003;-1.361588248983026E-003;
2.413833333333334E+009;1.739144325256348E-001;-4.644540697336197E-002;8.624219335615635E-004;-1.306154066696763E-003;
2.414000000000000E+009;1.727420240640640E-001;-4.715972021222115E-002;8.195001282729209E-004;-1.438641571439803E-003;
2.414166666666667E+009;1.715373694896698E-001;-4.789254069328308E-002;8.230572566390038E-004;-1.259795855730772E-003;
2.414333333333334E+009;1.703917533159256E-001;-4.874640703201294E-002;5.594441900029779E-004;-1.166210975497961E-003;
2.414500000000000E+009;1.695426851511002E-001;-4.935688525438309E-002;4.583730187732726E-004;-1.052360166795552E-003;
2.414666666666667E+009;1.682232469320297E-001;-5.044169351458550E-002;3.268903528805822E-004;-9.008883498609066E-004;
2.414833333333334E+009;1.669613122940064E-001;-5.155663937330246E-002;4.240962443873286E-004;-7.947040139697492E-004;
2.415000000000000E+009;1.658216863870621E-001;-5.262094363570213E-002;3.425485629122704E-004;-6.975919241085649E-004;
2.415166666666667E+009;1.645695418119431E-001;-5.380102246999741E-002;3.680756781250238E-004;-7.231379277072847E-004;
2.415333333333334E+009;1.634283065795898E-001;-5.519185215234757E-002;2.665353531483561E-004;-6.858084234409034E-004;
2.415500000000000E+009;1.622223258018494E-001;-5.655044317245483E-002;2.784557000268251E-004;-4.407366213854402E-004;
2.415666666666667E+009;1.611837893724442E-001;-5.799365416169167E-002;2.995490212924779E-004;-3.990262339357287E-004;
2.415833333333334E+009;1.600620895624161E-001;-5.976558849215508E-002;2.102070575347170E-004;-1.859535550465807E-004;
2.416000000000000E+009;1.588816940784454E-001;-6.129397824406624E-002;4.626616428140551E-004;-2.010789612540975E-004;
2.416166666666667E+009;1.580466777086258E-001;-6.313265115022659E-002;2.744812227319926E-004;-1.313577959081158E-004;
2.416333333333334E+009;1.569975465536118E-001;-6.469738483428955E-002;3.818253753706813E-004;3.614951128838584E-005;
2.416500000000000E+009;1.559837907552719E-001;-6.670112907886505E-002;6.705255364067853E-004;-6.137013406259939E-005;
2.416666666666667E+009;1.550876945257187E-001;-6.845439970493317E-002;5.075435619801283E-004;7.361400548688835E-006;
2.416833333333334E+009;1.543816924095154E-001;-7.049930095672607E-002;6.957673467695713E-004;2.835971645254176E-005;
2.417000000000000E+009;1.534112691879273E-001;-7.245325297117233E-002;6.660624057985842E-004;5.007731306250207E-005;
2.417166666666667E+009;1.527235507965088E-001;-7.430511713027954E-002;8.670398383401334E-004;2.151452099496964E-005;
2.417333333333334E+009;1.520893871784210E-001;-7.618999481201172E-002;9.466049959883094E-004;1.274628011742607E-004;
2.417500000000000E+009;1.515301614999771E-001;-7.823330163955689E-002;9.778030216693878E-004;2.454357172609889E-006;
2.417666666666667E+009;1.509547680616379E-001;-8.004936575889587E-002;1.015807618387044E-003;8.625940245110542E-005;
2.417833333333334E+009;1.505738794803619E-001;-8.173745870590210E-002;1.092647318728268E-003;-5.653451444231905E-005;
2.418000000000000E+009;1.502087563276291E-001;-8.363521844148636E-002;1.309324172325432E-003;-7.355176057899371E-005;
2.418166666666667E+009;1.497657597064972E-001;-8.532338589429855E-002;1.115471008233726E-003;-3.004255704581738E-004;
2.418333333333334E+009;1.498516052961350E-001;-8.702741563320160E-002;1.073031104169786E-003;-3.679945948533714E-004;
2.418500000000000E+009;1.495683491230011E-001;-8.856713026762009E-002;1.229495508596301E-003;-5.111937061883509E-004;
2.418666666666667E+009;1.496433317661285E-001;-9.010199457406998E-002;1.114329556003213E-003;-6.086018984206021E-004;
2.418833333333334E+009;1.493984013795853E-001;-9.162213653326035E-002;1.158222556114197E-003;-5.876140785403550E-004;
2.419000000000000E+009;1.494402587413788E-001;-9.288668632507324E-002;1.003238838165999E-003;-5.976176471449435E-004;
2.419166666666667E+009;1.495676934719086E-001;-9.411495178937912E-002;1.030923100188375E-003;-6.886030896566808E-004;
2.419333333333334E+009;1.494915783405304E-001;-9.505432099103928E-002;1.006842008791864E-003;-8.145305328071117E-004;
2.419500000000000E+009;1.496175825595856E-001;-9.619429707527161E-002;8.907723822630942E-004;-8.681740146130323E-004;
2.419666666666667E+009;1.499114930629730E-001;-9.704881906509399E-002;7.628686726093292E-004;-9.562310297042131E-004;
2.419833333333334E+009;1.501065790653229E-001;-9.777437895536423E-002;7.504774839617312E-004;-8.269880199804902E-004;
2.420000000000000E+009;1.503318995237351E-001;-9.851364791393280E-002;5.982488510198891E-004;-9.090510429814458E-004;
2.420166666666667E+009;1.507083922624588E-001;-9.898781776428223E-002;3.801689599640667E-004;-7.439267938025296E-004;
2.420333333333334E+009;1.510480791330338E-001;-9.954133629798889E-002;7.685190648771823E-004;-8.162950398400426E-004;
2.420500000000000E+009;1.511294990777969E-001;-9.965585917234421E-002;5.307712708599865E-004;-6.923074251972139E-004;
2.420666666666667E+009;1.514967978000641E-001;-9.990367293357849E-002;4.380603786557913E-004;-6.319948006421328E-004;
2.420833333333334E+009;1.518266499042511E-001;-1.003388613462448E-001;5.170474760234356E-004;-6.547530065290630E-004;
2.421000000000000E+009;1.520694047212601E-001;-1.004206463694572E-001;4.585707210935652E-004;-6.181084900163114E-004;
2.421166666666667E+009;1.522184163331986E-001;-1.002751365303993E-001;4.802151524927467E-004;-5.604168982245028E-004;
2.421333333333334E+009;1.524985432624817E-001;-1.004050597548485E-001;5.100696580484510E-004;-5.825673579238355E-004;
2.421500000000000E+009;1.524658799171448E-001;-1.002166122198105E-001;6.088457885198295E-004;-5.957247922196984E-004;
2.421666666666667E+009;1.526096612215042E-001;-9.999396651983261E-002;5.605031037703157E-004;-4.659810510929674E-004;
2.421833333333334E+009;1.525148302316666E-001;-9.994725137948990E-002;5.199443548917770E-004;-4.554259066935629E-004;
2.422000000000000E+009;1.522929519414902E-001;-9.972036629915237E-002;7.469537667930126E-004;-4.739604482892901E-004;
2.422166666666667E+009;1.520603746175766E-001;-9.965974837541580E-002;6.195940077304840E-004;-4.386189975775778E-004;
2.422333333333334E+009;1.516834050416946E-001;-9.918607026338577E-002;9.285554988309741E-004;-4.456896567717195E-004;
2.422500000000000E+009;1.512560397386551E-001;-9.895732998847961E-002;1.071112463250756E-003;-5.535003147087991E-004;
2.422666666666667E+009;1.506389826536179E-001;-9.863542020320892E-002;8.150291396304965E-004;-5.323915975168347E-004;
2.422833333333334E+009;1.500765979290009E-001;-9.832063317298889E-002;1.082588220015168E-003;-5.334214074537158E-004;
2.423000000000000E+009;1.490378379821777E-001;-9.804249554872513E-002;1.075392938219011E-003;-6.834607338532805E-004;
2.423166666666667E+009;1.482929736375809E-001;-9.779965877532959E-002;1.087894430384040E-003;-6.681947270408273E-004;
2.423333333333334E+009;1.473634541034699E-001;-9.726317226886749E-002;1.105364528484643E-003;-6.436211406253278E-004;
2.423500000000000E+009;1.463059633970261E-001;-9.714495390653610E-002;1.053118146955967E-003;-8.461358956992626E-004;
2.423666666666667E+009;1.448306739330292E-001;-9.689819067716599E-002;1.095703919418156E-003;-8.358912309631705E-004;
2.423833333333334E+009;1.437748968601227E-001;-9.659590572118759E-002;1.140271197073162E-003;-1.015605288557708E-003;
2.424000000000000E+009;1.424543410539627E-001;-9.637521952390671E-002;1.089233439415693E-003;-8.901864057406783E-004;
2.424166666666667E+009;1.409921199083328E-001;-9.618001431226730E-002;1.115887891501188E-003;-1.027820049785078E-003;
2.424333333333334E+009;1.398220062255859E-001;-9.598807990550995E-002;1.073652179911733E-003;-1.164771383628249E-003;
2.424500000000000E+009;1.383253782987595E-001;-9.622485935688019E-002;1.065853866748512E-003;-1.186106703244150E-003;
2.424666666666667E+009;1.371271610260010E-001;-9.617292881011963E-002;8.102856227196753E-004;-1.310759223997593E-003;
2.424833333333334E+009;1.353568583726883E-001;-9.629560261964798E-002;8.696217555552721E-004;-1.213474315591157E-003;
2.425000000000000E+009;1.340750157833099E-001;-9.669946134090424E-002;8.127252222038806E-004;-1.280742464587092E-003;
2.425166666666667E+009;1.323644071817398E-001;-9.706355631351471E-002;8.267492521554232E-004;-1.400660490617156E-003;
2.425333333333334E+009;1.310059726238251E-001;-9.765385091304779E-002;8.300423505716026E-004;-1.514854608103633E-003;
2.425500000000000E+009;1.295670121908188E-001;-9.828808903694153E-002;8.555596577934921E-004;-1.546111889183521E-003;
2.425666666666667E+009;1.280235946178436E-001;-9.901828318834305E-002;8.826307021081448E-004;-1.477307523600757E-003;
2.425833333333334E+009;1.266521960496903E-001;-9.980317205190659E-002;7.098081405274570E-004;-1.546286861412227E-003;
2.426000000000000E+009;1.252181529998779E-001;-1.008756086230278E-001;5.786104011349380E-004;-1.560648554004729E-003;
2.426166666666667E+009;1.240379288792610E-001;-1.019823625683785E-001;6.211521103978157E-004;-1.456064055673778E-003;
2.426333333333334E+009;1.225914061069489E-001;-1.030786633491516E-001;5.169646465219557E-004;-1.403775415383279E-003;
2.426500000000000E+009;1.214942857623100E-001;-1.044354885816574E-001;5.422267131507397E-004;-1.454290584661067E-003;
2.426666666666667E+009;1.204309538006783E-001;-1.056918725371361E-001;7.626331644132733E-004;-1.601979951374233E-003;
2.426833333333334E+009;1.191855072975159E-001;-1.071864217519760E-001;5.536740063689649E-004;-1.544269849546254E-003;
2.427000000000000E+009;1.180832907557488E-001;-1.088241562247276E-001;7.172045297920704E-004;-1.519848126918078E-003;
2.427166666666667E+009;1.171790584921837E-001;-1.101593077182770E-001;6.212579901330173E-004;-1.592605956830084E-003;
2.427333333333334E+009;1.161337494850159E-001;-1.119144335389137E-001;7.370525854639709E-004;-1.645840704441071E-003;
2.427500000000000E+009;1.154373735189438E-001;-1.135513707995415E-001;8.791931322775781E-004;-1.772701158188283E-003;
2.427666666666667E+009;1.146890670061112E-001;-1.153104230761528E-001;7.120313821360469E-004;-1.961731351912022E-003;
2.427833333333334E+009;1.140005514025688E-001;-1.169617325067520E-001;6.988911773078144E-004;-1.787352841347456E-003;
