# Version 1.00
#
freq[Hz];re:Trc1_S11;im:Trc1_S11;re:Trc2_S21;im:Trc2_S21;
2.400000000000000E+009;1.690755784511566E-001;4.579254239797592E-002;-2.570832846686244E-003;8.054019417613745E-004;
2.400166666666667E+009;1.701579988002777E-001;4.486647248268127E-002;-2.562334761023521E-003;9.036266710609198E-004;
2.400333333333334E+009;1.710318475961685E-001;4.363932088017464E-002;-2.589261392131448E-003;9.863796876743436E-004;
2.400500000000000E+009;1.721003502607346E-001;4.280261322855949E-002;-2.526735421270132E-003;9.320345707237721E-004;
2.400666666666667E+009;1.727818995714188E-001;4.187470301985741E-002;-2.448674757033587E-003;8.473235066048801E-004;
2.400833333333334E+009;1.739986389875412E-001;4.109616950154305E-002;-2.539310837164521E-003;8.501568809151650E-004;
2.401000000000000E+009;1.746363788843155E-001;4.020024091005325E-002;-2.447135280817747E-003;9.980770992115140E-004;
2.401166666666667E+009;1.752949059009552E-001;3.937818482518196E-002;-2.610136754810810E-003;1.043764757923782E-003;
2.401333333333334E+009;1.761390268802643E-001;3.875753283500671E-002;-2.555443672463298E-003;1.151577336713672E-003;
2.401500000000000E+009;1.767133474349976E-001;3.806983679533005E-002;-2.484997035935521E-003;1.284541329368949E-003;
2.401666666666667E+009;1.773540526628494E-001;3.756950423121452E-002;-2.725196070969105E-003;1.157837803475559E-003;
2.401833333333334E+009;1.779017895460129E-001;3.687056526541710E-002;-2.848151838406920E-003;1.370383892208338E-003;
2.402000000000000E+009;1.781055927276611E-001;3.635000064969063E-002;-2.842581132426858E-003;1.358880777843297E-003;
2.402166666666667E+009;1.787089705467224E-001;3.556287288665772E-002;-2.763805678114295E-003;1.743053318932653E-003;
2.402333333333334E+009;1.791694611310959E-001;3.503046929836273E-002;-2.659177640452981E-003;1.742642954923213E-003;
2.402500000000000E+009;1.794530749320984E-001;3.458609804511070E-002;-2.711656736209989E-003;1.825887360610068E-003;
2.402666666666667E+009;1.797183007001877E-001;3.395838662981987E-002;-2.577921841293573E-003;2.107195788994432E-003;
2.402833333333334E+009;1.798306405544281E-001;3.321766480803490E-002;-2.748893806710839E-003;2.191327046602964E-003;
2.403000000000000E+009;1.798742860555649E-001;3.252155706286430E-002;-2.532056067138910E-003;2.151526045054197E-003;
2.403166666666667E+009;1.798926889896393E-001;3.186875954270363E-002;-2.717904746532440E-003;2.274518599733710E-003;
2.403333333333334E+009;1.799135059118271E-001;3.102231770753861E-002;-2.676940290257335E-003;2.563896123319864E-003;
2.403500000000000E+009;1.796516925096512E-001;3.004855848848820E-002;-2.604673383757472E-003;2.670381683856249E-003;
2.403666666666667E+009;1.793675571680069E-001;2.898314595222473E-002;-2.408077940344811E-003;2.760459901764989E-003;
2.403833333333334E+009;1.793797612190247E-001;2.801491320133209E-002;-2.539563924074173E-003;2.949615009129047E-003;
2.404000000000000E+009;1.787555664777756E-001;2.691015973687172E-002;-2.428790088742971E-003;3.101465757936239E-003;
2.404166666666667E+009;1.784013509750366E-001;2.587781101465225E-002;-2.192102605476975E-003;3.397444961592555E-003;
2.404333333333334E+009;1.778688728809357E-001;2.458395622670651E-002;-2.194490283727646E-003;3.451973199844360E-003;
2.404500000000000E+009;1.775081157684326E-001;2.317701466381550E-002;-1.964125782251358E-003;3.593585919588804E-003;
2.404666666666667E+009;1.770715266466141E-001;2.184588275849819E-002;-1.920366426929832E-003;3.551892004907131E-003;
2.404833333333334E+009;1.763937324285507E-001;2.047832868993282E-002;-1.659752684645355E-003;3.817264921963215E-003;
2.405000000000000E+009;1.758836209774017E-001;1.894165016710758E-002;-1.595639390870929E-003;3.847962245345116E-003;
2.405166666666667E+009;1.754343658685684E-001;1.728313229978085E-002;-1.303660101257265E-003;3.872247179970145E-003;
2.405333333333334E+009;1.751096695661545E-001;1.569455489516258E-002;-1.141967135481536E-003;4.070709925144911E-003;
2.405500000000000E+009;1.746640205383301E-001;1.411514822393656E-002;-1.086881267838180E-003;4.231713712215424E-003;
2.405666666666667E+009;1.743059158325195E-001;1.238654181361198E-002;-8.880511159077287E-004;4.369377158582211E-003;
2.405833333333334E+009;1.738198697566986E-001;1.061819586902857E-002;-6.853335653431714E-004;4.310517571866512E-003;
2.406000000000000E+009;1.736115366220474E-001;8.751726709306240E-003;-3.562990168575198E-004;4.464575555175543E-003;
2.406166666666667E+009;1.731889545917511E-001;6.771736778318882E-003;-2.788983692880720E-004;4.501715302467346E-003;
2.406333333333334E+009;1.731534004211426E-001;4.848575219511986E-003;3.433955134823918E-005;4.589885007590056E-003;
2.406500000000000E+009;1.728816181421280E-001;2.900836523622274E-003;2.841534442268312E-004;4.746412392705679E-003;
2.406666666666667E+009;1.727248281240463E-001;8.141545695252717E-004;6.482273456640542E-004;4.633292555809021E-003;
2.406833333333334E+009;1.727436035871506E-001;-1.260832883417606E-003;8.094998192973435E-004;4.541736096143723E-003;
2.407000000000000E+009;1.728078424930573E-001;-3.258257173001766E-003;1.169389812275767E-003;4.602978471666575E-003;
2.407166666666667E+009;1.730268448591232E-001;-5.399160552769899E-003;1.405623625032604E-003;4.551388323307037E-003;
2.407333333333334E+009;1.730106174945831E-001;-7.461116183549166E-003;1.662690308876336E-003;4.441893193870783E-003;
2.407500000000000E+009;1.733605116605759E-001;-9.575200267136097E-003;1.838706666603684E-003;4.342841915786266E-003;
2.407666666666667E+009;1.736135929822922E-001;-1.166417356580496E-002;2.100167796015739E-003;4.264795221388340E-003;
2.407833333333334E+009;1.737498193979263E-001;-1.388627942651510E-002;2.410731045529246E-003;4.055382218211889E-003;
2.408000000000000E+009;1.741713285446167E-001;-1.594931073486805E-002;2.661321777850390E-003;3.927947487682104E-003;
2.408166666666667E+009;1.744391024112701E-001;-1.781244203448296E-002;3.155067563056946E-003;3.760368097573519E-003;
2.408333333333334E+009;1.750154942274094E-001;-1.986037008464336E-002;3.205486340448260E-003;3.468879731371999E-003;
2.408500000000000E+009;1.753025949001312E-001;-2.193898335099220E-002;3.299283562228084E-003;3.258441109210253E-003;
2.408666666666667E+009;1.758941560983658E-001;-2.368861436843872E-002;3.441255306825042E-003;2.958342200145125E-003;
2.408833333333334E+009;1.759864836931229E-001;-2.554297447204590E-002;3.682376816868782E-003;2.734117908403277E-003;
2.409000000000000E+009;1.764113754034042E-001;-2.712910436093807E-002;3.760737599804997E-003;2.442988101392984E-003;
2.409166666666667E+009;1.769512742757797E-001;-2.887238003313541E-002;3.901311894878745E-003;2.272099489346147E-003;
2.409333333333334E+009;1.772831529378891E-001;-3.022156842052937E-002;3.804141189903021E-003;1.846373546868563E-003;
2.409500000000000E+009;1.776052266359329E-001;-3.162608295679092E-002;3.860366297885776E-003;1.663477276451886E-003;
2.409666666666667E+009;1.781680136919022E-001;-3.270327672362328E-002;3.767110640183091E-003;1.419684384018183E-003;
2.409833333333334E+009;1.783747822046280E-001;-3.369959816336632E-002;3.907612059265375E-003;1.065618125721812E-003;
2.410000000000000E+009;1.790209263563156E-001;-3.485535085201263E-002;3.900194773450494E-003;1.000044401735067E-003;
2.410166666666667E+009;1.795410662889481E-001;-3.583712503314018E-002;3.758185775950551E-003;7.303280872292817E-004;
2.410333333333334E+009;1.799496561288834E-001;-3.657937049865723E-002;3.864961909130216E-003;5.708570242859423E-004;
2.410500000000000E+009;1.802419424057007E-001;-3.747630864381790E-002;3.756369464099407E-003;3.396347456146032E-004;
2.410666666666667E+009;1.806231886148453E-001;-3.826462477445602E-002;3.724185284227133E-003;2.073783980449662E-005;
2.410833333333334E+009;1.809495687484741E-001;-3.871050849556923E-002;3.578987438231707E-003;-1.919821806950495E-004;
2.411000000000000E+009;1.811946034431458E-001;-3.930196538567543E-002;3.446737304329872E-003;-2.473395434208214E-004;
2.411166666666667E+009;1.815454959869385E-001;-3.976843133568764E-002;3.360228845849633E-003;-4.846004885621369E-004;
2.411333333333334E+009;1.816882342100143E-001;-4.026001319289208E-002;3.421249100938439E-003;-6.508726510219276E-004;
2.411500000000000E+009;1.816268563270569E-001;-4.090684279799461E-002;3.057036083191633E-003;-8.558498229831457E-004;
2.411666666666667E+009;1.818695068359375E-001;-4.100842028856278E-002;2.912120195105672E-003;-9.549809619784355E-004;
2.411833333333334E+009;1.816464513540268E-001;-4.146116226911545E-002;2.954608295112848E-003;-1.065450138412416E-003;
2.412000000000000E+009;1.816684007644653E-001;-4.204975813627243E-002;2.745287260040641E-003;-1.191516057588160E-003;
2.412166666666667E+009;1.812957376241684E-001;-4.233323037624359E-002;2.414424670860171E-003;-1.231028116308153E-003;
2.412333333333334E+009;1.809148341417313E-001;-4.256251454353333E-002;2.424269681796432E-003;-1.425628317520022E-003;
2.412500000000000E+009;1.803633868694305E-001;-4.281500726938248E-002;2.067605964839459E-003;-1.434987178072333E-003;
2.412666666666667E+009;1.799994409084320E-001;-4.351561516523361E-002;2.137980191037059E-003;-1.425789203494787E-003;
2.412833333333334E+009;1.793383955955505E-001;-4.384071379899979E-002;1.778693054802716E-003;-1.396851264871657E-003;
2.413000000000000E+009;1.785297095775604E-001;-4.413230344653130E-002;1.827498548664153E-003;-1.580711221322417E-003;
2.413166666666667E+009;1.777161955833435E-001;-4.442802816629410E-002;1.583346165716648E-003;-1.580277225002646E-003;
2.413333333333334E+009;1.767149120569229E-001;-4.487143829464912E-002;1.568097155541182E-003;-1.563597703352571E-003;
2.413500000000000E+009;1.758651435375214E-001;-4.553982615470886E-002;1.358966459520161E-003;-1.537631615065038E-003;
2.413666666666667E+009;1.748305410146713E-001;-4.590664431452751E-002;1.218856079503894E-003;-1.422712812200189E-003;
2.413833333333334E+009;1.737252473831177E-001;-4.636648669838905E-002;1.011600717902184E-003;-1.457414124161005E-003;
2.414000000000000E+009;1.725807785987854E-001;-4.715321213006973E-002;9.901175508275628E-004;-1.373749575577676E-003;
2.414166666666667E+009;1.716244071722031E-001;-4.772553965449333E-002;7.820681203156710E-004;-1.186426263302565E-003;
2.414333333333334E+009;1.702951341867447E-001;-4.854791238903999E-002;8.913675555959344E-004;-1.344093587249517E-003;
2.414500000000000E+009;1.694165170192719E-001;-4.942389205098152E-002;6.165978848002851E-004;-1.213814015500248E-003;
2.414666666666667E+009;1.680488586425781E-001;-5.029186233878136E-002;6.732083274982870E-004;-9.727057185955346E-004;
2.414833333333334E+009;1.666801422834396E-001;-5.133249238133431E-002;5.467727896757424E-004;-1.032798900268972E-003;
2.415000000000000E+009;1.656667739152908E-001;-5.256825685501099E-002;5.173162790015340E-004;-9.120698086917400E-004;
2.415166666666667E+009;1.644500941038132E-001;-5.380739644169807E-002;2.637377474457026E-004;-6.638486520387232E-004;
2.415333333333334E+009;1.633377522230148E-001;-5.511607229709625E-002;3.327876620460302E-004;-7.338692666962743E-004;
2.415500000000000E+009;1.622015535831451E-001;-5.647634342312813E-002;3.908684011548758E-004;-5.316359456628561E-004;
2.415666666666667E+009;1.610537171363831E-001;-5.804726853966713E-002;3.881767333950847E-004;-5.764855886809528E-004;
2.415833333333334E+009;1.600175350904465E-001;-5.961297079920769E-002;4.247337637934834E-004;-4.672752693295479E-004;
2.416000000000000E+009;1.588682234287262E-001;-6.123842298984528E-002;3.867008199449629E-004;-2.713426947593689E-004;
2.416166666666667E+009;1.579677909612656E-001;-6.296712160110474E-002;3.208369307685643E-004;-3.372034116182476E-004;
2.416333333333334E+009;1.570121198892593E-001;-6.471330672502518E-002;5.428148433566093E-004;-3.119144821539521E-004;
2.416500000000000E+009;1.560034006834030E-001;-6.650056689977646E-002;4.658223479054868E-004;-8.458633237751201E-005;
2.416666666666667E+009;1.551301330327988E-001;-6.839422136545181E-002;5.714073195122182E-004;2.576988663349766E-005;
2.416833333333334E+009;1.543392986059189E-001;-7.038005441427231E-002;7.007024833001196E-004;-8.553296356694773E-005;
2.417000000000000E+009;1.535069644451141E-001;-7.239078730344772E-002;8.292838465422392E-004;-2.466328151058406E-004;
2.417166666666667E+009;1.526973247528076E-001;-7.423578202724457E-002;8.841473609209061E-004;-5.618119394057430E-005;
2.417333333333334E+009;1.521215736865997E-001;-7.607564330101013E-002;8.996782125905156E-004;-1.514048053650186E-004;
2.417500000000000E+009;1.515977680683136E-001;-7.820414006710053E-002;1.050750259310007E-003;-1.324746117461473E-004;
2.417666666666667E+009;1.511349380016327E-001;-7.982362806797028E-002;9.551446419209242E-004;-2.959536213893443E-004;
2.417833333333334E+009;1.507116109132767E-001;-8.177661150693893E-002;1.044233911670744E-003;-3.226237022317946E-004;
2.418000000000000E+009;1.501982510089874E-001;-8.351530879735947E-002;1.110517419874668E-003;-3.712312318384647E-004;
2.418166666666667E+009;1.498798131942749E-001;-8.517991751432419E-002;1.291347201913595E-003;-4.760389856528491E-004;
2.418333333333334E+009;1.499864012002945E-001;-8.690345287322998E-002;1.288729836232960E-003;-5.142867448739708E-004;
2.418500000000000E+009;1.496649533510208E-001;-8.851695060729981E-002;1.062415656633675E-003;-5.801867228001356E-004;
2.418666666666667E+009;1.496090590953827E-001;-9.011228382587433E-002;1.106131705455482E-003;-6.876048864796758E-004;
2.418833333333334E+009;1.493808031082153E-001;-9.152615815401077E-002;1.041894895024598E-003;-7.818769663572311E-004;
2.419000000000000E+009;1.494350582361221E-001;-9.286758303642273E-002;1.056696288287640E-003;-9.332928457297385E-004;
2.419166666666667E+009;1.493731737136841E-001;-9.397073835134506E-002;1.160695333965123E-003;-8.879156666807830E-004;
2.419333333333334E+009;1.493780910968781E-001;-9.496507048606873E-002;8.103462168946862E-004;-7.862516795285046E-004;
2.419500000000000E+009;1.495934277772903E-001;-9.614466130733490E-002;8.654846460558474E-004;-9.737726068124175E-004;
2.419666666666667E+009;1.499708741903305E-001;-9.699433296918869E-002;8.037342922762036E-004;-7.980298832990229E-004;
2.419833333333334E+009;1.500212401151657E-001;-9.779662638902664E-002;6.347991875372827E-004;-1.039934810250998E-003;
2.420000000000000E+009;1.503909677267075E-001;-9.846232831478119E-002;5.049459869042039E-004;-8.194333058781922E-004;
2.420166666666667E+009;1.505895107984543E-001;-9.892676770687103E-002;5.610624211840332E-004;-7.880327757447958E-004;
2.420333333333334E+009;1.508754789829254E-001;-9.932886809110642E-002;4.628786118701100E-004;-8.121345890685916E-004;
2.420500000000000E+009;1.513226032257080E-001;-9.967514872550964E-002;3.776255180127919E-004;-8.604535833001137E-004;
2.420666666666667E+009;1.516085118055344E-001;-9.996589273214340E-002;3.702819813042879E-004;-7.233646465465426E-004;
2.420833333333334E+009;1.517477035522461E-001;-1.001253724098206E-001;3.545407962519676E-004;-6.716381176374853E-004;
2.421000000000000E+009;1.521179527044296E-001;-1.003263369202614E-001;3.450909571256489E-004;-5.661777104251087E-004;
2.421166666666667E+009;1.523069739341736E-001;-1.003255546092987E-001;4.525589174591005E-004;-5.290681729093194E-004;
2.421333333333334E+009;1.525877267122269E-001;-1.004212126135826E-001;5.489314789883792E-004;-4.984757979400456E-004;
2.421500000000000E+009;1.525361984968185E-001;-1.001248657703400E-001;5.457562510855496E-004;-4.838309250771999E-004;
2.421666666666667E+009;1.526582092046738E-001;-1.000612825155258E-001;5.157294799573720E-004;-5.196543061174452E-004;
2.421833333333334E+009;1.526451259851456E-001;-9.988090395927429E-002;6.296850042417646E-004;-4.733609675895423E-004;
2.422000000000000E+009;1.523313522338867E-001;-9.964644908905029E-002;5.815117037855089E-004;-5.054445937275887E-004;
2.422166666666667E+009;1.521796435117722E-001;-9.962008893489838E-002;6.942732143215835E-004;-4.650043847505003E-004;
2.422333333333334E+009;1.518268585205078E-001;-9.917333722114563E-002;7.555554038845003E-004;-4.893251461908221E-004;
2.422500000000000E+009;1.513608843088150E-001;-9.880197048187256E-002;8.606524788774550E-004;-5.227276706136763E-004;
2.422666666666667E+009;1.506619751453400E-001;-9.850253164768219E-002;7.887703250162303E-004;-6.811473285779357E-004;
2.422833333333334E+009;1.500568240880966E-001;-9.843163192272186E-002;8.790463325567544E-004;-5.975449457764626E-004;
2.423000000000000E+009;1.491861939430237E-001;-9.802993386983872E-002;7.032757275737822E-004;-6.388315232470632E-004;
2.423166666666667E+009;1.483397185802460E-001;-9.790755808353424E-002;9.857317199930549E-004;-7.029276457615197E-004;
2.423333333333334E+009;1.473400741815567E-001;-9.723001718521118E-002;9.584153885953128E-004;-7.139964727684856E-004;
2.423500000000000E+009;1.462968140840530E-001;-9.709358215332031E-002;1.043823198415339E-003;-7.959989015944302E-004;
2.423666666666667E+009;1.450944095849991E-001;-9.700459241867065E-002;1.065433258190751E-003;-8.931557531468570E-004;
2.423833333333334E+009;1.439284533262253E-001;-9.659603983163834E-002;9.184264927171171E-004;-9.915528353303671E-004;
2.424000000000000E+009;1.424351334571838E-001;-9.631506353616715E-002;1.058395719155669E-003;-1.054976717568934E-003;
2.424166666666667E+009;1.411688476800919E-001;-9.620721638202667E-002;8.505631121806800E-004;-1.261489815078676E-003;
2.424333333333334E+009;1.398166567087174E-001;-9.611918777227402E-002;9.654751629568636E-004;-1.122661633417010E-003;
2.424500000000000E+009;1.384344696998596E-001;-9.614789485931397E-002;8.247905643656850E-004;-1.127778668887913E-003;
2.424666666666667E+009;1.371417194604874E-001;-9.610976278781891E-002;8.483690908178687E-004;-1.211117720231414E-003;
2.424833333333334E+009;1.355561167001724E-001;-9.624551236629486E-002;8.089304901659489E-004;-1.270220847800374E-003;
2.425000000000000E+009;1.341229528188705E-001;-9.678631275892258E-002;8.659581653773785E-004;-1.370489364489913E-003;
2.425166666666667E+009;1.324491500854492E-001;-9.700298309326172E-002;7.077273330651224E-004;-1.541798817925155E-003;
2.425333333333334E+009;1.310918629169464E-001;-9.760286659002304E-002;6.056428537704051E-004;-1.523549668490887E-003;
2.425500000000000E+009;1.296132802963257E-001;-9.839816391468048E-002;7.083590026013553E-004;-1.522670267149806E-003;
2.425666666666667E+009;1.280180811882019E-001;-9.900733083486557E-002;5.983285373076797E-004;-1.476133707910776E-003;
2.425833333333334E+009;1.266584992408752E-001;-9.989114850759506E-002;4.551956662908196E-004;-1.391019322909415E-003;
2.426000000000000E+009;1.252590268850327E-001;-1.009786427021027E-001;4.760634037666023E-004;-1.481636194512248E-003;
2.426166666666667E+009;1.241391003131867E-001;-1.021116301417351E-001;4.330579831730574E-004;-1.455531804822385E-003;
2.426333333333334E+009;1.227033585309982E-001;-1.031983196735382E-001;5.395247717387974E-004;-1.431561075150967E-003;
2.426500000000000E+009;1.215914711356163E-001;-1.045237705111504E-001;6.269495352171361E-004;-1.574442023411393E-003;
2.426666666666667E+009;1.204614415764809E-001;-1.057135537266731E-001;4.206365556456149E-004;-1.514776609838009E-003;
2.426833333333334E+009;1.191809922456741E-001;-1.072569042444229E-001;4.534134641289711E-004;-1.464955974370241E-003;
2.427000000000000E+009;1.181634888052940E-001;-1.088437959551811E-001;6.515700952149928E-004;-1.445557340048254E-003;
2.427166666666667E+009;1.172015592455864E-001;-1.102796345949173E-001;7.261965074576438E-004;-1.542984158731997E-003;
2.427333333333334E+009;1.162310838699341E-001;-1.119086593389511E-001;4.311550292186439E-004;-1.505916705355048E-003;
2.427500000000000E+009;1.155827417969704E-001;-1.137213036417961E-001;5.613073008134961E-004;-1.637572422623634E-003;
2.427666666666667E+009;1.147212088108063E-001;-1.152851507067680E-001;6.639171624556184E-004;-1.755265751853585E-003;
