# Version 1.00
#
freq[Hz];re:Trc1_S11;im:Trc1_S11;re:Trc2_S21;im:Trc2_S21;
2.400000000000000E+009;1.637480705976486E-001;5.193761736154556E-002;-1.657458633417264E-004;5.186771508306265E-003;
2.400166666666667E+009;1.636227518320084E-001;5.028420314192772E-002;-1.463076914660633E-004;5.372364073991776E-003;
2.400333333333334E+009;1.634636521339417E-001;4.855461791157723E-002;2.248357486678287E-004;5.380482878535986E-003;
2.400500000000000E+009;1.634432971477509E-001;4.681726917624474E-002;3.772510099224746E-004;5.520665552467108E-003;
2.400666666666667E+009;1.634472608566284E-001;4.490666836500168E-002;4.889935953542590E-004;5.503373220562935E-003;
2.400833333333334E+009;1.636064201593399E-001;4.293689876794815E-002;7.108987774699926E-004;5.503650754690170E-003;
2.401000000000000E+009;1.636528819799423E-001;4.091965779662132E-002;8.717503515072167E-004;5.615589208900929E-003;
2.401166666666667E+009;1.637323200702667E-001;3.919090330600739E-002;1.265821279957891E-003;5.584666039794684E-003;
2.401333333333334E+009;1.637223958969116E-001;3.709559887647629E-002;1.218512305058539E-003;5.629197694361210E-003;
2.401500000000000E+009;1.638782769441605E-001;3.513157367706299E-002;1.369557343423367E-003;5.619318224489689E-003;
2.401666666666667E+009;1.641062945127487E-001;3.316176310181618E-002;1.694180769845843E-003;5.597386974841356E-003;
2.401833333333334E+009;1.643155813217163E-001;3.120853751897812E-002;2.019185107201338E-003;5.555213429033756E-003;
2.402000000000000E+009;1.644926071166992E-001;2.914167754352093E-002;2.130062319338322E-003;5.428390577435494E-003;
2.402166666666667E+009;1.650047898292542E-001;2.733398601412773E-002;2.479211194440723E-003;5.473214201629162E-003;
2.402333333333334E+009;1.652867496013641E-001;2.539268508553505E-002;2.809367142617703E-003;5.287549458444119E-003;
2.402500000000000E+009;1.658694148063660E-001;2.377864345908165E-002;2.668244065716863E-003;5.155636463314295E-003;
2.402666666666667E+009;1.663245558738709E-001;2.201434783637524E-002;3.004348371177912E-003;5.087147001177073E-003;
2.402833333333334E+009;1.667656600475311E-001;2.031657472252846E-002;3.269006963819265E-003;4.832853563129902E-003;
2.403000000000000E+009;1.673375368118286E-001;1.853122562170029E-002;3.503889776766300E-003;4.834836348891258E-003;
2.403166666666667E+009;1.678177267313004E-001;1.697038672864437E-002;3.792681032791734E-003;4.559790249913931E-003;
2.403333333333334E+009;1.687838137149811E-001;1.558191049844027E-002;3.967144526541233E-003;4.634346347302198E-003;
2.403500000000000E+009;1.693126708269119E-001;1.408050488680601E-002;4.009733907878399E-003;4.337382968515158E-003;
2.403666666666667E+009;1.700463443994522E-001;1.251588948071003E-002;4.246762022376061E-003;4.234049469232559E-003;
2.403833333333334E+009;1.708711087703705E-001;1.131751108914614E-002;4.305568523705006E-003;3.940842114388943E-003;
2.404000000000000E+009;1.715118736028671E-001;1.000085473060608E-002;4.494754597544670E-003;3.911393228918314E-003;
2.404166666666667E+009;1.722319275140762E-001;8.787487633526325E-003;4.586583469063044E-003;3.774620592594147E-003;
2.404333333333334E+009;1.729853898286820E-001;7.775766309350729E-003;4.742422141134739E-003;3.320748219266534E-003;
2.404500000000000E+009;1.735309660434723E-001;6.558265537023544E-003;4.896561149507761E-003;3.230570349842310E-003;
2.404666666666667E+009;1.744398921728134E-001;5.713247228413820E-003;4.950447939336300E-003;3.140286775305867E-003;
2.404833333333334E+009;1.749484390020371E-001;4.945791792124510E-003;5.057745147496462E-003;2.775835571810603E-003;
2.405000000000000E+009;1.757138818502426E-001;3.956520464271307E-003;5.077601410448551E-003;2.470538718625903E-003;
2.405166666666667E+009;1.763295233249664E-001;3.249534638598561E-003;5.137625150382519E-003;2.436183625832200E-003;
2.405333333333334E+009;1.770821213722229E-001;2.665125997737050E-003;5.194908007979393E-003;2.343680476769805E-003;
2.405500000000000E+009;1.775088608264923E-001;2.074811141937971E-003;5.243071820586920E-003;1.873784814961255E-003;
2.405666666666667E+009;1.780408918857575E-001;1.572811277583242E-003;5.332547239959240E-003;1.833654707297683E-003;
2.405833333333334E+009;1.784317642450333E-001;1.197541714645922E-003;5.326796788722277E-003;1.660462585277855E-003;
2.406000000000000E+009;1.789391636848450E-001;6.078340811654925E-004;5.144998431205750E-003;1.347345998510718E-003;
2.406166666666667E+009;1.791447997093201E-001;3.717766667250544E-004;5.257743876427412E-003;1.298730145208538E-003;
2.406333333333334E+009;1.796741187572479E-001;-9.315009083366022E-005;5.227762740105391E-003;1.061531365849078E-003;
2.406500000000000E+009;1.798407435417175E-001;-4.744141770061106E-004;5.256429780274630E-003;8.355748141184449E-004;
2.406666666666667E+009;1.799635142087936E-001;-7.170304306782782E-004;5.300278309732676E-003;7.855541189201176E-004;
2.406833333333334E+009;1.800991296768189E-001;-1.107461168430746E-003;5.308023188263178E-003;5.176007398404181E-004;
2.407000000000000E+009;1.801509410142899E-001;-1.417374238371849E-003;5.209510680288076E-003;5.850809393450618E-004;
2.407166666666667E+009;1.802355945110321E-001;-1.830751425586641E-003;5.155807361006737E-003;1.968122378457338E-004;
2.407333333333334E+009;1.799698472023010E-001;-2.251518890261650E-003;5.201317369937897E-003;3.845865649054758E-005;
2.407500000000000E+009;1.798944026231766E-001;-2.563599264249206E-003;5.206834524869919E-003;3.750489850062877E-005;
2.407666666666667E+009;1.796120852231979E-001;-3.032112959772348E-003;5.089725367724896E-003;-2.669102686922997E-004;
2.407833333333334E+009;1.792348027229309E-001;-3.586764447391033E-003;5.170706193894148E-003;-4.792747495230287E-004;
2.408000000000000E+009;1.788324564695358E-001;-4.148966167122126E-003;5.110180936753750E-003;-5.037859082221985E-004;
2.408166666666667E+009;1.785021126270294E-001;-4.624478518962860E-003;4.992414731532335E-003;-6.272579194046557E-004;
2.408333333333334E+009;1.780433207750320E-001;-5.273706745356321E-003;5.116288084536791E-003;-8.755670278333128E-004;
2.408500000000000E+009;1.775296032428742E-001;-6.070798728615046E-003;4.935815930366516E-003;-1.029141130857170E-003;
2.408666666666667E+009;1.769143491983414E-001;-6.794462911784649E-003;4.834222141653299E-003;-1.177771366201341E-003;
2.408833333333334E+009;1.762626618146896E-001;-7.737435866147280E-003;4.867190029472113E-003;-1.137163722887635E-003;
2.409000000000000E+009;1.755254864692688E-001;-8.656796067953110E-003;4.784316755831242E-003;-1.320830662734807E-003;
2.409166666666667E+009;1.750156879425049E-001;-9.584981016814709E-003;4.739558324217796E-003;-1.529124565422535E-003;
2.409333333333334E+009;1.744273453950882E-001;-1.089678332209587E-002;4.618811421096325E-003;-1.695508719421923E-003;
2.409500000000000E+009;1.736190468072891E-001;-1.210630778223276E-002;4.543061833828688E-003;-1.882753451354802E-003;
2.409666666666667E+009;1.729425191879273E-001;-1.314366981387138E-002;4.374639596790075E-003;-1.842452213168144E-003;
2.409833333333334E+009;1.721641719341278E-001;-1.431020069867373E-002;4.371904302388430E-003;-1.908180885948241E-003;
2.410000000000000E+009;1.716576963663101E-001;-1.578268408775330E-002;4.233742598444223E-003;-2.118693431839347E-003;
2.410166666666667E+009;1.710752248764038E-001;-1.721543073654175E-002;4.136379342526197E-003;-2.212941180914640E-003;
2.410333333333334E+009;1.703639626502991E-001;-1.886420138180256E-002;4.172914661467075E-003;-2.195467706769705E-003;
2.410500000000000E+009;1.697029769420624E-001;-2.048052847385407E-002;4.193176515400410E-003;-2.223766874521971E-003;
2.410666666666667E+009;1.690495312213898E-001;-2.224685251712799E-002;3.951920662075281E-003;-2.447429113090038E-003;
2.410833333333334E+009;1.685394644737244E-001;-2.376976050436497E-002;3.937957808375359E-003;-2.472624182701111E-003;
2.411000000000000E+009;1.680568456649780E-001;-2.542239800095558E-002;3.880185773596168E-003;-2.340271370485425E-003;
2.411166666666667E+009;1.676872670650482E-001;-2.743855677545071E-002;3.939890302717686E-003;-2.587546361610293E-003;
2.411333333333334E+009;1.674386709928513E-001;-2.897176332771778E-002;3.885189536958933E-003;-2.675579860806465E-003;
2.411500000000000E+009;1.668685972690582E-001;-3.117714077234268E-002;3.527499735355377E-003;-2.765433862805367E-003;
2.411666666666667E+009;1.667199730873108E-001;-3.310982882976532E-002;3.756255144253373E-003;-2.765028970316052E-003;
2.411833333333334E+009;1.665282547473908E-001;-3.500843048095703E-002;3.667091485112906E-003;-3.100161906331778E-003;
2.412000000000000E+009;1.665243357419968E-001;-3.709644824266434E-002;3.617868525907397E-003;-3.103413153439760E-003;
2.412166666666667E+009;1.663506329059601E-001;-3.872096166014671E-002;3.409351687878370E-003;-3.417834173887968E-003;
2.412333333333334E+009;1.665202677249908E-001;-4.063530638813973E-002;3.475620411336422E-003;-3.372165840119124E-003;
2.412500000000000E+009;1.664124131202698E-001;-4.252360388636589E-002;3.497229190543294E-003;-3.547014202922583E-003;
2.412666666666667E+009;1.666087806224823E-001;-4.450001940131187E-002;3.312048269435763E-003;-3.689019475132227E-003;
2.412833333333334E+009;1.668250262737274E-001;-4.628976061940193E-002;3.151205368340015E-003;-3.786363406106830E-003;
2.413000000000000E+009;1.669415086507797E-001;-4.812119156122208E-002;3.145251190289855E-003;-3.840305376797915E-003;
2.413166666666667E+009;1.670877039432526E-001;-4.982991889119148E-002;2.941474551334977E-003;-4.012629389762878E-003;
2.413333333333334E+009;1.673317253589630E-001;-5.156658962368965E-002;2.833419712260366E-003;-4.326044116169214E-003;
2.413500000000000E+009;1.678477227687836E-001;-5.330372974276543E-002;2.678683958947659E-003;-4.254450555890799E-003;
2.413666666666667E+009;1.681793481111527E-001;-5.478068813681603E-002;2.481903880834580E-003;-4.411307163536549E-003;
2.413833333333334E+009;1.683532446622849E-001;-5.627300962805748E-002;2.246560296043754E-003;-4.642419982701540E-003;
2.414000000000000E+009;1.688446849584580E-001;-5.775726214051247E-002;2.105947118252516E-003;-4.621605388820171E-003;
2.414166666666667E+009;1.693639904260635E-001;-5.910597369074822E-002;1.947716227732599E-003;-4.676290787756443E-003;
2.414333333333334E+009;1.696853339672089E-001;-6.043412163853645E-002;1.743739121593535E-003;-4.781560506671667E-003;
2.414500000000000E+009;1.703990995883942E-001;-6.149708852171898E-002;1.458875485695899E-003;-4.820722155272961E-003;
2.414666666666667E+009;1.707424521446228E-001;-6.264425069093704E-002;1.214688410982490E-003;-4.797513596713543E-003;
2.414833333333334E+009;1.711444109678268E-001;-6.371062248945236E-002;1.102698966860771E-003;-4.765151068568230E-003;
2.415000000000000E+009;1.714682132005692E-001;-6.450614333152771E-002;8.586020558141172E-004;-4.938988015055656E-003;
2.415166666666667E+009;1.718807965517044E-001;-6.549034267663956E-002;6.109224632382393E-004;-4.806834738701582E-003;
2.415333333333334E+009;1.723250150680542E-001;-6.626746058464050E-002;5.177086568437517E-004;-4.905769135802984E-003;
2.415500000000000E+009;1.725985407829285E-001;-6.696261465549469E-002;4.086478729732335E-004;-4.875189624726772E-003;
2.415666666666667E+009;1.728964745998383E-001;-6.756047159433365E-002;9.859933197731152E-005;-4.843557253479958E-003;
2.415833333333334E+009;1.730684041976929E-001;-6.808529794216156E-002;-2.809809848258738E-005;-4.946632310748100E-003;
2.416000000000000E+009;1.731749027967453E-001;-6.854141503572464E-002;-1.238829863723368E-004;-4.724493250250816E-003;
2.416166666666667E+009;1.734119206666946E-001;-6.896366924047470E-002;-4.345388733781874E-004;-4.623709712177515E-003;
2.416333333333334E+009;1.733183264732361E-001;-6.939445436000824E-002;-5.841240053996444E-004;-4.623834043741226E-003;
2.416500000000000E+009;1.733369231224060E-001;-6.973322480916977E-002;-7.315758266486228E-004;-4.570737015455961E-003;
2.416666666666667E+009;1.730306893587112E-001;-6.985034793615341E-002;-8.669689414091408E-004;-4.532937426120043E-003;
2.416833333333334E+009;1.729260534048080E-001;-7.035761326551437E-002;-1.074471161700785E-003;-4.473024979233742E-003;
2.417000000000000E+009;1.723773032426834E-001;-7.056664675474167E-002;-1.227659638971090E-003;-4.459136631339788E-003;
2.417166666666667E+009;1.721652448177338E-001;-7.067056000232697E-002;-1.293498789891601E-003;-4.365511704236269E-003;
2.417333333333334E+009;1.716046780347824E-001;-7.079888880252838E-002;-1.419961685314775E-003;-4.261338617652655E-003;
2.417500000000000E+009;1.710047423839569E-001;-7.132740318775177E-002;-1.475074212066829E-003;-4.245752003043890E-003;
2.417666666666667E+009;1.703920215368271E-001;-7.124479860067368E-002;-1.599980168975890E-003;-3.987750504165888E-003;
2.417833333333334E+009;1.697356551885605E-001;-7.153138518333435E-002;-1.746972207911313E-003;-3.862427314743400E-003;
2.418000000000000E+009;1.688286662101746E-001;-7.201244682073593E-002;-1.788263791240752E-003;-3.871558932587504E-003;
2.418166666666667E+009;1.679216325283051E-001;-7.213624566793442E-002;-1.903525553643704E-003;-3.767960239201784E-003;
2.418333333333334E+009;1.673250049352646E-001;-7.241303473711014E-002;-1.985006500035524E-003;-3.751799697056413E-003;
2.418500000000000E+009;1.661017984151840E-001;-7.287297397851944E-002;-1.948505872860551E-003;-3.595080925151706E-003;
2.418666666666667E+009;1.650778651237488E-001;-7.337344437837601E-002;-2.057335339486599E-003;-3.556633600965142E-003;
2.418833333333334E+009;1.639230400323868E-001;-7.378268241882324E-002;-2.179552800953388E-003;-3.572827670723200E-003;
2.419000000000000E+009;1.626452356576920E-001;-7.411289215087891E-002;-2.333726035431027E-003;-3.471405943855643E-003;
2.419166666666667E+009;1.614593714475632E-001;-7.473246008157730E-002;-2.299882937222719E-003;-3.281069919466972E-003;
2.419333333333334E+009;1.602014601230621E-001;-7.518487423658371E-002;-2.407781546935439E-003;-3.243062179535627E-003;
2.419500000000000E+009;1.589861065149307E-001;-7.606936991214752E-002;-2.524846466258168E-003;-3.228018060326576E-003;
2.419666666666667E+009;1.579412370920181E-001;-7.691639661788940E-002;-2.620263723656535E-003;-3.106055781245232E-003;
2.419833333333334E+009;1.565821468830109E-001;-7.762103527784348E-002;-2.634015632793307E-003;-3.004135331138969E-003;
2.420000000000000E+009;1.554585099220276E-001;-7.858677208423615E-002;-2.830380341038108E-003;-2.813675673678517E-003;
2.420166666666667E+009;1.542098224163055E-001;-7.961510866880417E-002;-2.750026294961572E-003;-2.909238217398524E-003;
2.420333333333334E+009;1.530387550592423E-001;-8.079881221055985E-002;-2.892900025472045E-003;-2.746782032772899E-003;
2.420500000000000E+009;1.519271582365036E-001;-8.161727339029312E-002;-2.955241361632943E-003;-2.568401163443923E-003;
2.420666666666667E+009;1.509042978286743E-001;-8.309832215309143E-002;-3.024066565558314E-003;-2.627569250762463E-003;
2.420833333333334E+009;1.499006599187851E-001;-8.429072797298431E-002;-3.095783991739154E-003;-2.463681856170297E-003;
2.421000000000000E+009;1.487763226032257E-001;-8.574102818965912E-002;-3.149769501760602E-003;-2.255497965961695E-003;
2.421166666666667E+009;1.479709297418594E-001;-8.709385246038437E-002;-3.133567981421948E-003;-2.058397047221661E-003;
2.421333333333334E+009;1.470522880554199E-001;-8.871271461248398E-002;-3.297134535387158E-003;-2.030520234256983E-003;
2.421500000000000E+009;1.462806612253189E-001;-9.014762938022614E-002;-3.197897458449006E-003;-1.960746012628079E-003;
2.421666666666667E+009;1.455096453428268E-001;-9.179131686687470E-002;-3.288914449512959E-003;-1.738603808917105E-003;
2.421833333333334E+009;1.449075490236282E-001;-9.334789216518402E-002;-3.221336286514998E-003;-1.707229530438781E-003;
2.422000000000000E+009;1.443568468093872E-001;-9.495018422603607E-002;-3.247655928134918E-003;-1.695170649327338E-003;
2.422166666666667E+009;1.438820064067841E-001;-9.671656787395477E-002;-3.284144680947065E-003;-1.576095935888588E-003;
2.422333333333334E+009;1.437831372022629E-001;-9.840403497219086E-002;-3.221680410206318E-003;-1.220832462422550E-003;
2.422500000000000E+009;1.431054621934891E-001;-9.996575117111206E-002;-3.396742744371295E-003;-1.249208697117865E-003;
2.422666666666667E+009;1.430179327726364E-001;-1.017909571528435E-001;-3.297813702374697E-003;-1.345973578281701E-003;
2.422833333333334E+009;1.429821252822876E-001;-1.035652086138725E-001;-3.260950092226267E-003;-9.602266945876181E-004;
2.423000000000000E+009;1.428719758987427E-001;-1.051915809512138E-001;-3.264708211645484E-003;-9.288041619583964E-004;
2.423166666666667E+009;1.430068314075470E-001;-1.068551242351532E-001;-3.335772547870874E-003;-7.110366132110357E-004;
2.423333333333334E+009;1.429198980331421E-001;-1.083667427301407E-001;-3.241567872464657E-003;-6.992103299126029E-004;
2.423500000000000E+009;1.430194526910782E-001;-1.100973039865494E-001;-3.290749154984951E-003;-6.096691940911114E-004;
2.423666666666667E+009;1.430647820234299E-001;-1.116524338722229E-001;-3.396659158170223E-003;-5.385239492170513E-004;
2.423833333333334E+009;1.435136348009110E-001;-1.133206561207771E-001;-3.277129726484418E-003;-5.207941285334528E-004;
2.424000000000000E+009;1.436193287372589E-001;-1.145074069499970E-001;-3.359960159286857E-003;-3.789344627875835E-004;
2.424166666666667E+009;1.440764814615250E-001;-1.159833371639252E-001;-3.387546399608254E-003;-2.521950809750706E-004;
2.424333333333334E+009;1.443648487329483E-001;-1.172547414898872E-001;-3.226476488634944E-003;-2.432050387142226E-004;
2.424500000000000E+009;1.447307318449020E-001;-1.185433194041252E-001;-3.197799669578672E-003;-7.787628419464454E-005;
2.424666666666667E+009;1.452483534812927E-001;-1.194700375199318E-001;-3.109886078163981E-003;4.138049553148449E-005;
2.424833333333334E+009;1.455105990171433E-001;-1.206291317939758E-001;-3.196176839992404E-003;-5.704100112779997E-005;
2.425000000000000E+009;1.460222452878952E-001;-1.215895861387253E-001;-3.220614278689027E-003;1.435008161934093E-004;
2.425166666666667E+009;1.461092531681061E-001;-1.224720031023026E-001;-3.135734004899859E-003;2.896407386288047E-004;
2.425333333333334E+009;1.465079933404923E-001;-1.232565566897392E-001;-3.260446945205331E-003;1.340065209660679E-004;
2.425500000000000E+009;1.469430327415466E-001;-1.241009607911110E-001;-3.091852646321058E-003;5.491767078638077E-004;
2.425666666666667E+009;1.469891965389252E-001;-1.248274445533752E-001;-3.041183110326529E-003;5.236755241639912E-004;
2.425833333333334E+009;1.473602056503296E-001;-1.253188252449036E-001;-3.151596290990710E-003;6.565490039065480E-004;
2.426000000000000E+009;1.475468277931213E-001;-1.258210092782974E-001;-3.030519699677825E-003;7.959909853525460E-004;
2.426166666666667E+009;1.478795111179352E-001;-1.261978745460510E-001;-3.004699712619185E-003;8.208968210965395E-004;
2.426333333333334E+009;1.477734297513962E-001;-1.265618503093720E-001;-2.891744486987591E-003;8.224808843806386E-004;
2.426500000000000E+009;1.478522121906281E-001;-1.266891062259674E-001;-2.873348305001855E-003;9.511155076324940E-004;
2.426666666666667E+009;1.479770988225937E-001;-1.267852932214737E-001;-2.857098355889320E-003;9.799988474696875E-004;
2.426833333333334E+009;1.477430760860443E-001;-1.270854920148850E-001;-2.835261868312955E-003;1.106949173845351E-003;
2.427000000000000E+009;1.474813371896744E-001;-1.272070258855820E-001;-2.801738912239671E-003;1.280870987102389E-003;
2.427166666666667E+009;1.471326649188995E-001;-1.271239817142487E-001;-2.460090676322579E-003;1.464368076995015E-003;
2.427333333333334E+009;1.468437463045120E-001;-1.271040290594101E-001;-2.548662945628166E-003;1.143654109910131E-003;
2.427500000000000E+009;1.463449895381928E-001;-1.272211968898773E-001;-2.634829841554165E-003;1.383434748277068E-003;
2.427666666666667E+009;1.457485258579254E-001;-1.272048205137253E-001;-2.550044562667608E-003;1.526635955087841E-003;
