# Version 1.00
#
freq[Hz];re:Trc1_S11;im:Trc1_S11;re:Trc2_S21;im:Trc2_S21;
2.400000000000000E+009;1.550651043653488E-001;1.066931411623955E-001;1.426126342266798E-003;4.906231537461281E-003;
2.400166666666667E+009;1.547253429889679E-001;1.042842641472817E-001;1.546049374155700E-003;4.833954386413097E-003;
2.400333333333334E+009;1.549634784460068E-001;1.018707230687141E-001;1.541227684356272E-003;4.893355537205935E-003;
2.400500000000000E+009;1.547370404005051E-001;9.923666715621948E-002;1.746980473399162E-003;4.881653469055891E-003;
2.400666666666667E+009;1.547974795103073E-001;9.676415473222733E-002;1.700819935649633E-003;4.972221795469523E-003;
2.400833333333334E+009;1.546273231506348E-001;9.372333437204361E-002;1.728609669953585E-003;5.031851585954428E-003;
2.401000000000000E+009;1.549151837825775E-001;9.103498607873917E-002;1.985858427360654E-003;5.164267495274544E-003;
2.401166666666667E+009;1.548787057399750E-001;8.816888928413391E-002;2.193641616031528E-003;5.147024989128113E-003;
2.401333333333334E+009;1.552312821149826E-001;8.544816076755524E-002;2.469854662194848E-003;5.191287491470575E-003;
2.401500000000000E+009;1.557645946741104E-001;8.248911798000336E-002;2.712184330448508E-003;5.181289743632078E-003;
2.401666666666667E+009;1.560197025537491E-001;7.956583052873612E-002;3.034397494047880E-003;5.181845743209124E-003;
2.401833333333334E+009;1.563701480627060E-001;7.703336328268051E-002;3.468932816758752E-003;5.152739584445953E-003;
2.402000000000000E+009;1.573680490255356E-001;7.422076165676117E-002;3.666717559099197E-003;4.866967443376780E-003;
2.402166666666667E+009;1.580989658832550E-001;7.160799950361252E-002;3.863441757857800E-003;4.747644066810608E-003;
2.402333333333334E+009;1.590621024370194E-001;6.881874799728394E-002;4.210195969790220E-003;4.554798360913992E-003;
2.402500000000000E+009;1.603359282016754E-001;6.623668968677521E-002;4.399517085403204E-003;4.373131319880486E-003;
2.402666666666667E+009;1.612846404314041E-001;6.394100189208984E-002;4.614608827978373E-003;3.984341397881508E-003;
2.402833333333334E+009;1.626560389995575E-001;6.163528934121132E-002;4.587348084896803E-003;3.660264192149043E-003;
2.403000000000000E+009;1.639961600303650E-001;5.919747427105904E-002;4.768155980855227E-003;3.261937992647290E-003;
2.403166666666667E+009;1.659391671419144E-001;5.719608813524246E-002;4.779971670359373E-003;2.986491424962878E-003;
2.403333333333334E+009;1.672075986862183E-001;5.477202311158180E-002;4.820820875465870E-003;2.971643116325140E-003;
2.403500000000000E+009;1.689982116222382E-001;5.282174423336983E-002;4.933922551572323E-003;2.475536428391933E-003;
2.403666666666667E+009;1.708282381296158E-001;5.087253823876381E-002;4.756748210638762E-003;2.479287562891841E-003;
2.403833333333334E+009;1.723954081535339E-001;4.916658625006676E-002;4.727602470666170E-003;2.310227369889617E-003;
2.404000000000000E+009;1.740005612373352E-001;4.740931093692780E-002;4.745890852063894E-003;2.035268116742373E-003;
2.404166666666667E+009;1.757845133543015E-001;4.596525803208351E-002;4.599034786224365E-003;2.038602484390140E-003;
2.404333333333334E+009;1.774663478136063E-001;4.431517049670219E-002;4.630207084119320E-003;2.015908714383841E-003;
2.404500000000000E+009;1.790826618671417E-001;4.301242530345917E-002;4.635902587324381E-003;1.832163427025080E-003;
2.404666666666667E+009;1.806676685810089E-001;4.188749194145203E-002;4.621552303433418E-003;1.496904646046460E-003;
2.404833333333334E+009;1.824143975973129E-001;4.093056544661522E-002;4.466987680643797E-003;1.596677117049694E-003;
2.405000000000000E+009;1.836830526590347E-001;4.020544886589050E-002;4.733934067189694E-003;1.429399591870606E-003;
2.405166666666667E+009;1.852628886699677E-001;3.962406888604164E-002;4.719624295830727E-003;1.313380547799170E-003;
2.405333333333334E+009;1.868102997541428E-001;3.908587992191315E-002;4.883219953626394E-003;1.132799894548953E-003;
2.405500000000000E+009;1.882151067256928E-001;3.862686455249786E-002;4.804807715117931E-003;1.186484470963478E-003;
2.405666666666667E+009;1.893432885408402E-001;3.821210935711861E-002;4.929359070956707E-003;7.605635910294950E-004;
2.405833333333334E+009;1.906795799732208E-001;3.799970820546150E-002;4.870580509305000E-003;7.546968990936875E-004;
2.406000000000000E+009;1.915515214204788E-001;3.781707584857941E-002;4.929041024297476E-003;6.246312404982746E-004;
2.406166666666667E+009;1.927667111158371E-001;3.771447017788887E-002;4.825727082788944E-003;4.552809696178883E-004;
2.406333333333334E+009;1.937428861856461E-001;3.773684054613113E-002;4.835823550820351E-003;3.573722206056118E-004;
2.406500000000000E+009;1.943574547767639E-001;3.786316886544228E-002;4.734881687909365E-003;8.463804260827601E-005;
2.406666666666667E+009;1.949926167726517E-001;3.788229450583458E-002;4.958866164088249E-003;-1.248039334313944E-004;
2.406833333333334E+009;1.955543756484985E-001;3.790784999728203E-002;4.662795923650265E-003;-2.026529837166891E-004;
2.407000000000000E+009;1.959366351366043E-001;3.817174211144447E-002;4.815591964870691E-003;-1.521163358120248E-004;
2.407166666666667E+009;1.962305456399918E-001;3.796143457293510E-002;4.705721978098154E-003;-3.730943426489830E-004;
2.407333333333334E+009;1.962708234786987E-001;3.818557783961296E-002;4.704597406089306E-003;-5.686167860403657E-004;
2.407500000000000E+009;1.962384879589081E-001;3.832347691059113E-002;4.571504890918732E-003;-7.189052412286401E-004;
2.407666666666667E+009;1.963203102350235E-001;3.838381916284561E-002;4.512578248977661E-003;-9.370760526508093E-004;
2.407833333333334E+009;1.957985758781433E-001;3.817196190357208E-002;4.593720659613609E-003;-9.710603626444936E-004;
2.408000000000000E+009;1.957532614469528E-001;3.804576769471169E-002;4.651585128158331E-003;-1.090093865059316E-003;
2.408166666666667E+009;1.952046006917954E-001;3.775002807378769E-002;4.515014123171568E-003;-1.141348038800061E-003;
2.408333333333334E+009;1.947892606258392E-001;3.728840500116348E-002;4.403023049235344E-003;-1.387235592119396E-003;
2.408500000000000E+009;1.940719187259674E-001;3.710337728261948E-002;4.320389591157436E-003;-1.377366133965552E-003;
2.408666666666667E+009;1.934516578912735E-001;3.656531125307083E-002;4.244141746312380E-003;-1.573471934534609E-003;
2.408833333333334E+009;1.929272562265396E-001;3.583242744207382E-002;4.249253310263157E-003;-1.744586392305791E-003;
2.409000000000000E+009;1.920240819454193E-001;3.482656925916672E-002;4.113186150789261E-003;-1.813263981603086E-003;
2.409166666666667E+009;1.910119652748108E-001;3.397830203175545E-002;4.080436192452908E-003;-1.898031565360725E-003;
2.409333333333334E+009;1.900460571050644E-001;3.283980488777161E-002;3.935852088034153E-003;-1.937882741913199E-003;
2.409500000000000E+009;1.890383958816528E-001;3.144275024533272E-002;3.921666648238897E-003;-2.008462091907859E-003;
2.409666666666667E+009;1.880598515272141E-001;3.011267259716988E-002;3.873191075399518E-003;-2.135954331606627E-003;
2.409833333333334E+009;1.870190054178238E-001;2.862266451120377E-002;3.780398983508349E-003;-2.232009544968605E-003;
2.410000000000000E+009;1.859687715768814E-001;2.687420323491097E-002;3.658385248854756E-003;-2.266560215502977E-003;
2.410166666666667E+009;1.849273890256882E-001;2.495684660971165E-002;3.664033487439156E-003;-2.349810907617211E-003;
2.410333333333334E+009;1.840263456106186E-001;2.303891070187092E-002;3.403692506253719E-003;-2.478345995768905E-003;
2.410500000000000E+009;1.830658316612244E-001;2.127643115818501E-002;3.337783971801400E-003;-2.396253868937492E-003;
2.410666666666667E+009;1.821943223476410E-001;1.884325407445431E-002;3.162476699799299E-003;-2.424498088657856E-003;
2.410833333333334E+009;1.815102398395538E-001;1.669553108513355E-002;3.214501077309251E-003;-2.458991250023246E-003;
2.411000000000000E+009;1.806396991014481E-001;1.454107463359833E-002;3.254350973293185E-003;-2.489033387973905E-003;
2.411166666666667E+009;1.799980252981186E-001;1.218723598867655E-002;3.088224213570356E-003;-2.613784279674292E-003;
2.411333333333334E+009;1.795998811721802E-001;9.687741287052631E-003;3.179981140419841E-003;-2.598446793854237E-003;
2.411500000000000E+009;1.790726780891419E-001;7.126365322619677E-003;3.059595357626677E-003;-2.532670274376869E-003;
2.411666666666667E+009;1.788505166769028E-001;4.889007192105055E-003;2.976030111312866E-003;-2.753813751041889E-003;
2.411833333333334E+009;1.784924417734146E-001;2.497755922377110E-003;3.164434572681785E-003;-2.644291846081615E-003;
2.412000000000000E+009;1.786111444234848E-001;-2.142001467291266E-004;3.199859755113721E-003;-2.747418126091361E-003;
2.412166666666667E+009;1.787622720003128E-001;-2.386162523180246E-003;3.012988017871976E-003;-2.860349835827947E-003;
2.412333333333334E+009;1.788527369499207E-001;-4.958928562700748E-003;3.142643021419644E-003;-2.905567642301321E-003;
2.412500000000000E+009;1.794230639934540E-001;-7.516988553106785E-003;3.123659174889326E-003;-3.047501435503364E-003;
2.412666666666667E+009;1.797922402620316E-001;-1.006475556641817E-002;3.127331612631679E-003;-3.275361610576510E-003;
2.412833333333334E+009;1.805686950683594E-001;-1.235022395849228E-002;2.929718000814319E-003;-3.355061402544379E-003;
2.413000000000000E+009;1.812240332365036E-001;-1.481274981051683E-002;3.013792680576444E-003;-3.470375202596188E-003;
2.413166666666667E+009;1.821094304323196E-001;-1.691654324531555E-002;2.861276268959045E-003;-3.584725782275200E-003;
2.413333333333334E+009;1.830724626779556E-001;-1.937538199126720E-002;2.801342867314816E-003;-3.972962498664856E-003;
2.413500000000000E+009;1.839901357889175E-001;-2.167822793126106E-002;2.672926755622029E-003;-3.975657746195793E-003;
2.413666666666667E+009;1.850698888301849E-001;-2.392588369548321E-002;2.437797375023365E-003;-4.080956801772118E-003;
2.413833333333334E+009;1.861087977886200E-001;-2.584525570273399E-002;2.465060912072659E-003;-4.346727393567562E-003;
2.414000000000000E+009;1.873853057622910E-001;-2.800901979207993E-002;2.154157031327486E-003;-4.383478313684464E-003;
2.414166666666667E+009;1.885576546192169E-001;-2.969958446919918E-002;2.020854968577623E-003;-4.638063255697489E-003;
2.414333333333334E+009;1.896494030952454E-001;-3.168649598956108E-002;1.728250994347036E-003;-4.572832956910133E-003;
2.414500000000000E+009;1.908583045005798E-001;-3.317399695515633E-002;1.528930850327015E-003;-4.850624129176140E-003;
2.414666666666667E+009;1.921826601028442E-001;-3.476051613688469E-002;1.333595835603774E-003;-4.653827287256718E-003;
2.414833333333334E+009;1.932974904775620E-001;-3.608758375048637E-002;1.129763317294419E-003;-4.805980250239372E-003;
2.415000000000000E+009;1.943766772747040E-001;-3.742111101746559E-002;9.216772159561515E-004;-4.772202111780644E-003;
2.415166666666667E+009;1.956185251474381E-001;-3.849115967750549E-002;6.143322098068893E-004;-4.797847475856543E-003;
2.415333333333334E+009;1.967485994100571E-001;-3.937535360455513E-002;4.194180946797133E-004;-4.777710884809494E-003;
2.415500000000000E+009;1.978482306003571E-001;-4.018446058034897E-002;2.475086366757751E-004;-4.829285666346550E-003;
2.415666666666667E+009;1.988500654697418E-001;-4.100507870316505E-002;2.083122235490009E-004;-4.839957691729069E-003;
2.415833333333334E+009;1.996684968471527E-001;-4.168058559298515E-002;-2.893936834880151E-005;-4.708499647676945E-003;
2.416000000000000E+009;2.004758119583130E-001;-4.207289218902588E-002;-1.581690303282812E-004;-4.638367798179388E-003;
2.416166666666667E+009;2.010765373706818E-001;-4.273013398051262E-002;-2.149501669919118E-004;-4.619479179382324E-003;
2.416333333333334E+009;2.017837762832642E-001;-4.295299947261810E-002;-5.537791876122356E-004;-4.560381639748812E-003;
2.416500000000000E+009;2.021090090274811E-001;-4.319089278578758E-002;-5.681883776560426E-004;-4.501856863498688E-003;
2.416666666666667E+009;2.023972421884537E-001;-4.348989203572273E-002;-7.079900242388248E-004;-4.517213441431522E-003;
2.416833333333334E+009;2.026188522577286E-001;-4.342663288116455E-002;-9.155622101388872E-004;-4.614118020981550E-003;
2.417000000000000E+009;2.028721123933792E-001;-4.360229894518852E-002;-1.024323282763362E-003;-4.399467725306749E-003;
2.417166666666667E+009;2.024731636047363E-001;-4.342453554272652E-002;-1.191670424304903E-003;-4.337476566433907E-003;
2.417333333333334E+009;2.021840065717697E-001;-4.323471710085869E-002;-1.183496788144112E-003;-4.412211477756500E-003;
2.417500000000000E+009;2.019348740577698E-001;-4.330408945679665E-002;-1.396431936882436E-003;-4.269755911082029E-003;
2.417666666666667E+009;2.014657557010651E-001;-4.305575788021088E-002;-1.536614610813558E-003;-4.213393200188875E-003;
2.417833333333334E+009;2.010029554367065E-001;-4.285891726613045E-002;-1.622115727514029E-003;-4.213991574943066E-003;
2.418000000000000E+009;2.002754360437393E-001;-4.255953058600426E-002;-1.645792159251869E-003;-4.216562956571579E-003;
2.418166666666667E+009;1.994647085666657E-001;-4.235831275582314E-002;-1.919910544529557E-003;-3.941540606319904E-003;
2.418333333333334E+009;1.984919905662537E-001;-4.223978146910667E-002;-2.013066550716758E-003;-3.989345859736204E-003;
2.418500000000000E+009;1.974571943283081E-001;-4.227793216705322E-002;-2.032116055488586E-003;-3.796368138864636E-003;
2.418666666666667E+009;1.966030746698380E-001;-4.204416275024414E-002;-2.244854113087058E-003;-3.868533996865153E-003;
2.418833333333334E+009;1.952587366104126E-001;-4.225323349237442E-002;-2.291354816406965E-003;-3.710274584591389E-003;
2.419000000000000E+009;1.939455717802048E-001;-4.236822202801704E-002;-2.414552262052894E-003;-3.586203558370471E-003;
2.419166666666667E+009;1.926264017820358E-001;-4.266406968235970E-002;-2.536470070481300E-003;-3.490672912448645E-003;
2.419333333333334E+009;1.911894977092743E-001;-4.320189729332924E-002;-2.696675481274724E-003;-3.308141836896539E-003;
2.419500000000000E+009;1.897238194942474E-001;-4.359505325555801E-002;-2.691648434847593E-003;-3.282641060650349E-003;
2.419666666666667E+009;1.881774365901947E-001;-4.445299878716469E-002;-2.850777236744762E-003;-3.195010125637054E-003;
2.419833333333334E+009;1.865499317646027E-001;-4.497230052947998E-002;-2.722700824961066E-003;-3.031313885003328E-003;
2.420000000000000E+009;1.848639249801636E-001;-4.597718641161919E-002;-2.822587033733726E-003;-2.996419323608279E-003;
2.420166666666667E+009;1.833087503910065E-001;-4.685107618570328E-002;-2.911053830757737E-003;-2.930140588432550E-003;
2.420333333333334E+009;1.817977875471115E-001;-4.803449288010597E-002;-2.851604251191020E-003;-2.927306341007352E-003;
2.420500000000000E+009;1.799616813659668E-001;-4.928113520145416E-002;-3.088143654167652E-003;-2.945389132946730E-003;
2.420666666666667E+009;1.783594042062759E-001;-5.041657388210297E-002;-3.091914812102914E-003;-2.913909032940865E-003;
2.420833333333334E+009;1.767561584711075E-001;-5.203675851225853E-002;-3.045027144253254E-003;-2.716833027079701E-003;
2.421000000000000E+009;1.753655225038528E-001;-5.361601337790489E-002;-3.242993727326393E-003;-2.741814590990543E-003;
2.421166666666667E+009;1.739057898521423E-001;-5.523594841361046E-002;-3.289624117314816E-003;-2.747009042650461E-003;
2.421333333333334E+009;1.722190082073212E-001;-5.667278170585632E-002;-3.364102449268103E-003;-2.579431049525738E-003;
2.421500000000000E+009;1.709707230329514E-001;-5.875595286488533E-002;-3.473706543445587E-003;-2.494372660294175E-003;
2.421666666666667E+009;1.695383638143539E-001;-6.055377796292305E-002;-3.614088054746389E-003;-2.421907847747207E-003;
2.421833333333334E+009;1.684529036283493E-001;-6.233362853527069E-002;-3.899079980328679E-003;-2.121816389262676E-003;
2.422000000000000E+009;1.672802120447159E-001;-6.433743238449097E-002;-3.789345268160105E-003;-1.929785590618849E-003;
2.422166666666667E+009;1.665413230657578E-001;-6.651447713375092E-002;-3.919783513993025E-003;-1.857774099335074E-003;
2.422333333333334E+009;1.655142903327942E-001;-6.856078654527664E-002;-3.966507036238909E-003;-1.703938702121377E-003;
2.422500000000000E+009;1.648023128509522E-001;-7.035044580698013E-002;-3.927469253540039E-003;-1.570494263432920E-003;
2.422666666666667E+009;1.641031205654144E-001;-7.249150425195694E-002;-3.861218225210905E-003;-1.412546494975686E-003;
2.422833333333334E+009;1.636997312307358E-001;-7.454717904329300E-002;-3.867468563839793E-003;-1.239149132743478E-003;
2.423000000000000E+009;1.632659733295441E-001;-7.673933357000351E-002;-3.651487873867154E-003;-1.125767477788031E-003;
2.423166666666667E+009;1.628718525171280E-001;-7.867554575204849E-002;-3.829266410320997E-003;-9.830198250710964E-004;
2.423333333333334E+009;1.626525074243546E-001;-8.063003420829773E-002;-3.769071539863944E-003;-7.948497077450156E-004;
2.423500000000000E+009;1.624860614538193E-001;-8.236155658960342E-002;-3.816639306023717E-003;-7.666542078368366E-004;
2.423666666666667E+009;1.625311821699143E-001;-8.443122357130051E-002;-3.687000367790461E-003;-7.104526157490909E-004;
2.423833333333334E+009;1.625088453292847E-001;-8.610988408327103E-002;-3.823102684691548E-003;-6.432043737731874E-004;
2.424000000000000E+009;1.625793874263763E-001;-8.782535046339035E-002;-3.913947381079197E-003;-6.169368280097842E-004;
2.424166666666667E+009;1.627879589796066E-001;-8.950451761484146E-002;-3.796214004978538E-003;-4.100983496755362E-004;
2.424333333333334E+009;1.629068851470947E-001;-9.110401570796967E-002;-3.941873088479042E-003;-2.447661827318370E-004;
2.424500000000000E+009;1.633266210556030E-001;-9.279179573059082E-002;-3.975048195570707E-003;-2.465639263391495E-004;
2.424666666666667E+009;1.636116951704025E-001;-9.421249479055405E-002;-4.188215825706720E-003;-1.249760389328003E-004;
2.424833333333334E+009;1.640938818454742E-001;-9.549125283956528E-002;-3.961551468819380E-003;2.231262769782916E-004;
2.425000000000000E+009;1.646645516157150E-001;-9.673359990119934E-002;-4.098532255738974E-003;1.782505423761904E-004;
2.425166666666667E+009;1.648120135068893E-001;-9.774761646986008E-002;-4.029118455946446E-003;3.820279089268297E-004;
2.425333333333334E+009;1.653829813003540E-001;-9.876417368650436E-002;-4.009689204394817E-003;7.242708234116435E-004;
2.425500000000000E+009;1.657762974500656E-001;-9.969156235456467E-002;-4.043375141918659E-003;7.838778547011316E-004;
2.425666666666667E+009;1.661691218614578E-001;-1.004729941487312E-001;-3.961246460676193E-003;8.642309694550932E-004;
2.425833333333334E+009;1.664026528596878E-001;-1.012763679027557E-001;-3.855188144370914E-003;9.247843991033733E-004;
2.426000000000000E+009;1.670460999011993E-001;-1.016563698649406E-001;-3.826770465821028E-003;1.162052736617625E-003;
2.426166666666667E+009;1.673625856637955E-001;-1.021536588668823E-001;-3.687701188027859E-003;1.377147738821805E-003;
2.426333333333334E+009;1.673998385667801E-001;-1.027338430285454E-001;-3.672308521345258E-003;1.609847997315228E-003;
2.426500000000000E+009;1.678765714168549E-001;-1.029788702726364E-001;-3.510030219331384E-003;1.505127642303705E-003;
2.426666666666667E+009;1.681398451328278E-001;-1.032613664865494E-001;-3.423300106078386E-003;1.722270622849464E-003;
2.426833333333334E+009;1.683067083358765E-001;-1.034769862890244E-001;-3.298202296718955E-003;1.603771350346506E-003;
2.427000000000000E+009;1.682806015014648E-001;-1.036748439073563E-001;-3.085216507315636E-003;1.899926573969424E-003;
2.427166666666667E+009;1.683627516031265E-001;-1.036905497312546E-001;-3.193689510226250E-003;2.017820952460170E-003;
2.427333333333334E+009;1.681824326515198E-001;-1.039574518799782E-001;-3.013972193002701E-003;2.139410469681025E-003;
2.427500000000000E+009;1.679693013429642E-001;-1.039951294660568E-001;-2.935824217274785E-003;2.170355990529060E-003;
2.427666666666667E+009;1.676452308893204E-001;-1.041096374392510E-001;-2.688890788704157E-003;2.155574038624764E-003;
