# Version 1.00
#
freq[Hz];re:Trc1_S11;im:Trc1_S11;re:Trc2_S21;im:Trc2_S21;
2.400000000000000E+009;1.552008688449860E-001;1.066689565777779E-001;1.496890792623162E-003;4.968403838574886E-003;
2.400166666666667E+009;1.548654586076737E-001;1.043888702988625E-001;1.370442099869251E-003;4.902150016278029E-003;
2.400333333333334E+009;1.548809409141541E-001;1.021507382392883E-001;1.503481180407107E-003;4.977440461516380E-003;
2.400500000000000E+009;1.547717303037643E-001;9.934575855731964E-002;1.641104812733829E-003;4.964808933436871E-003;
2.400666666666667E+009;1.548108011484146E-001;9.670148789882660E-002;1.689880969934166E-003;5.059429910033941E-003;
2.400833333333334E+009;1.548601239919663E-001;9.393246471881867E-002;1.880259369499981E-003;5.035119131207466E-003;
2.401000000000000E+009;1.550367027521133E-001;9.103876352310181E-002;2.070284681394696E-003;5.155145656317473E-003;
2.401166666666667E+009;1.550343185663223E-001;8.830424398183823E-002;2.344155451282859E-003;5.118507426232100E-003;
2.401333333333334E+009;1.554351001977921E-001;8.532992750406265E-002;2.600091043859720E-003;5.194734781980515E-003;
2.401500000000000E+009;1.558604836463928E-001;8.250360190868378E-002;2.802392235025764E-003;5.242811050266028E-003;
2.401666666666667E+009;1.560740321874619E-001;7.966947555541992E-002;3.083202987909317E-003;5.100383423268795E-003;
2.401833333333334E+009;1.565730571746826E-001;7.699623703956604E-002;3.492004005238414E-003;5.081185605376959E-003;
2.402000000000000E+009;1.574692279100418E-001;7.411193847656250E-002;3.706735558807850E-003;4.975959192961454E-003;
2.402166666666667E+009;1.580489575862885E-001;7.171841710805893E-002;3.962914459407330E-003;4.745429847389460E-003;
2.402333333333334E+009;1.591253578662872E-001;6.887239962816238E-002;4.246206022799015E-003;4.468418657779694E-003;
2.402500000000000E+009;1.601830720901489E-001;6.634895503520966E-002;4.615800920873880E-003;4.046616610139608E-003;
2.402666666666667E+009;1.613438874483109E-001;6.400111317634583E-002;4.588623531162739E-003;3.799010766670108E-003;
2.402833333333334E+009;1.625894755125046E-001;6.158610060811043E-002;4.870101343840361E-003;3.517881268635392E-003;
2.403000000000000E+009;1.641945838928223E-001;5.933378636837006E-002;4.956224467605352E-003;3.274983260780573E-003;
2.403166666666667E+009;1.657514423131943E-001;5.710190907120705E-002;4.753741901367903E-003;2.930447226390243E-003;
2.403333333333334E+009;1.672235131263733E-001;5.481628328561783E-002;4.761662799865007E-003;2.570412121713162E-003;
2.403500000000000E+009;1.691500544548035E-001;5.303475260734558E-002;4.684082232415676E-003;2.530068159103394E-003;
2.403666666666667E+009;1.707238256931305E-001;5.085195228457451E-002;4.704696591943502E-003;2.338436432182789E-003;
2.403833333333334E+009;1.724113672971726E-001;4.903471842408180E-002;4.882010631263256E-003;1.998834544792771E-003;
2.404000000000000E+009;1.738586723804474E-001;4.721018671989441E-002;4.528660792857409E-003;1.986089395359159E-003;
2.404166666666667E+009;1.757473647594452E-001;4.594065621495247E-002;4.670660477131605E-003;1.886647893115878E-003;
2.404333333333334E+009;1.775005459785461E-001;4.437864571809769E-002;4.585607908666134E-003;1.714895130135119E-003;
2.404500000000000E+009;1.789900660514832E-001;4.305081441998482E-002;4.616674501448870E-003;1.626257319003344E-003;
2.404666666666667E+009;1.807895898818970E-001;4.180796071887016E-002;4.672776442021132E-003;1.558719784952700E-003;
2.404833333333334E+009;1.823873668909073E-001;4.083393886685371E-002;4.642664920538664E-003;1.479699625633657E-003;
2.405000000000000E+009;1.838070601224899E-001;4.016473516821861E-002;4.672715906053782E-003;1.406450057402253E-003;
2.405166666666667E+009;1.853590011596680E-001;3.942052647471428E-002;4.691509529948235E-003;1.249187276698649E-003;
2.405333333333334E+009;1.866706460714340E-001;3.903113678097725E-002;4.933436401188374E-003;1.183417160063982E-003;
2.405500000000000E+009;1.881176233291626E-001;3.850772231817246E-002;5.012196954339743E-003;9.239192586392164E-004;
2.405666666666667E+009;1.894163340330124E-001;3.810922428965569E-002;5.024107173085213E-003;7.580211968161166E-004;
2.405833333333334E+009;1.907699108123779E-001;3.790122643113136E-002;4.876993130892515E-003;7.108277059160173E-004;
2.406000000000000E+009;1.918376535177231E-001;3.775340691208839E-002;4.951010458171368E-003;4.386867803987116E-004;
2.406166666666667E+009;1.927506178617477E-001;3.748811036348343E-002;4.889486357569695E-003;2.858533698599786E-004;
2.406333333333334E+009;1.936285048723221E-001;3.759847581386566E-002;4.982030019164085E-003;1.735682308208197E-004;
2.406500000000000E+009;1.943996846675873E-001;3.770614415407181E-002;4.943719599395990E-003;2.374772884650156E-005;
2.406666666666667E+009;1.949322521686554E-001;3.775777295231819E-002;4.964577034115791E-003;-8.895200153347105E-005;
2.406833333333334E+009;1.955088526010513E-001;3.782413527369499E-002;4.911633208394051E-003;-2.399016957497224E-004;
2.407000000000000E+009;1.958236992359161E-001;3.816947340965271E-002;4.861317109316587E-003;-3.676544874906540E-004;
2.407166666666667E+009;1.962354332208633E-001;3.795366361737251E-002;4.791834857314825E-003;-4.929479327984154E-004;
2.407333333333334E+009;1.961650401353836E-001;3.819441050291061E-002;4.688662011176348E-003;-7.060156203806400E-004;
2.407500000000000E+009;1.962271481752396E-001;3.830226138234139E-002;4.648138768970966E-003;-8.485856815241277E-004;
2.407666666666667E+009;1.963134706020355E-001;3.822701051831245E-002;4.514948464930058E-003;-1.027020276524127E-003;
2.407833333333334E+009;1.957057714462280E-001;3.817110508680344E-002;4.530189558863640E-003;-8.961296407505870E-004;
2.408000000000000E+009;1.957031041383743E-001;3.808743134140968E-002;4.427125211805105E-003;-1.191940507851541E-003;
2.408166666666667E+009;1.951327472925186E-001;3.771682456135750E-002;4.541861824691296E-003;-1.259964774362743E-003;
2.408333333333334E+009;1.947165876626968E-001;3.742990642786026E-002;4.561444278806448E-003;-1.404929673299193E-003;
2.408500000000000E+009;1.940405070781708E-001;3.693639114499092E-002;4.219568800181150E-003;-1.509592519141734E-003;
2.408666666666667E+009;1.933913379907608E-001;3.647699207067490E-002;4.285468254238367E-003;-1.660672132857144E-003;
2.408833333333334E+009;1.926882565021515E-001;3.582911193370819E-002;4.283754155039787E-003;-1.782963518053293E-003;
2.409000000000000E+009;1.917667984962463E-001;3.493605554103851E-002;4.163287580013275E-003;-1.922805444337428E-003;
2.409166666666667E+009;1.910384595394135E-001;3.393898904323578E-002;4.063983913511038E-003;-1.974346349015832E-003;
2.409333333333334E+009;1.901465058326721E-001;3.288210555911064E-002;3.937718924134970E-003;-2.189935417845845E-003;
2.409500000000000E+009;1.889331787824631E-001;3.152909502387047E-002;3.906721249222755E-003;-2.000989159569144E-003;
2.409666666666667E+009;1.879214495420456E-001;3.008410893380642E-002;3.966295160353184E-003;-2.298207720741630E-003;
2.409833333333334E+009;1.868389397859573E-001;2.855215594172478E-002;3.584573976695538E-003;-2.321391366422176E-003;
2.410000000000000E+009;1.859054267406464E-001;2.696279808878899E-002;3.483672859147191E-003;-2.364540938287973E-003;
2.410166666666667E+009;1.849086284637451E-001;2.505719475448132E-002;3.532853908836842E-003;-2.535542938858271E-003;
2.410333333333334E+009;1.840328276157379E-001;2.329298295080662E-002;3.426698036491871E-003;-2.494220156222582E-003;
2.410500000000000E+009;1.830359101295471E-001;2.128239907324314E-002;3.196232253685594E-003;-2.476952970027924E-003;
2.410666666666667E+009;1.820255517959595E-001;1.889874227344990E-002;3.198881633579731E-003;-2.392683643847704E-003;
2.410833333333334E+009;1.814403533935547E-001;1.676412671804428E-002;3.244055435061455E-003;-2.564046764746308E-003;
2.411000000000000E+009;1.804751455783844E-001;1.449514739215374E-002;3.110146149992943E-003;-2.435093978419900E-003;
2.411166666666667E+009;1.799818873405457E-001;1.224676519632340E-002;3.010420594364405E-003;-2.506891964003444E-003;
2.411333333333334E+009;1.795351654291153E-001;9.655179455876350E-003;2.956455573439598E-003;-2.457970287650824E-003;
2.411500000000000E+009;1.789461076259613E-001;7.424659095704556E-003;3.087618388235569E-003;-2.535512670874596E-003;
2.411666666666667E+009;1.787322014570236E-001;4.899091087281704E-003;2.992670750245452E-003;-2.522267634049058E-003;
2.411833333333334E+009;1.784720569849014E-001;2.679098863154650E-003;2.927931491285563E-003;-2.798017580062151E-003;
2.412000000000000E+009;1.787112057209015E-001;-3.431827281019650E-005;3.134190104901791E-003;-2.811484504491091E-003;
2.412166666666667E+009;1.786888539791107E-001;-2.301246859133244E-003;3.042753785848618E-003;-2.832388039678335E-003;
2.412333333333334E+009;1.788956522941589E-001;-4.863112699240446E-003;3.010608954355121E-003;-2.945685060694814E-003;
2.412500000000000E+009;1.791254729032517E-001;-7.175634615123272E-003;3.017311217263341E-003;-3.047727048397064E-003;
2.412666666666667E+009;1.798216402530670E-001;-9.793056175112724E-003;3.012254834175110E-003;-3.206301713362336E-003;
2.412833333333334E+009;1.805631071329117E-001;-1.233023032546043E-002;2.971459180116653E-003;-3.485180903226137E-003;
2.413000000000000E+009;1.811614036560059E-001;-1.461582258343697E-002;2.857126062735915E-003;-3.576054470613599E-003;
2.413166666666667E+009;1.818773001432419E-001;-1.692335680127144E-002;2.816813532263041E-003;-3.788442816585302E-003;
2.413333333333334E+009;1.831342130899429E-001;-1.929543353617191E-002;2.672331640496850E-003;-3.993835300207138E-003;
2.413500000000000E+009;1.839504539966583E-001;-2.151220850646496E-002;2.448297338560224E-003;-4.184549674391747E-003;
2.413666666666667E+009;1.850581616163254E-001;-2.375775575637817E-002;2.261451678350568E-003;-4.298979882150888E-003;
2.413833333333334E+009;1.862406730651856E-001;-2.587973512709141E-002;2.277605468407273E-003;-4.347136244177818E-003;
2.414000000000000E+009;1.873524785041809E-001;-2.780923619866371E-002;2.083706902340055E-003;-4.397065844386816E-003;
2.414166666666667E+009;1.885561943054199E-001;-2.967546880245209E-002;1.722991000860930E-003;-4.513935651630163E-003;
2.414333333333334E+009;1.895689368247986E-001;-3.168435022234917E-002;1.833007670938969E-003;-4.673640243709087E-003;
2.414500000000000E+009;1.909551173448563E-001;-3.312092274427414E-002;1.539384247735143E-003;-4.652113653719425E-003;
2.414666666666667E+009;1.922487616539002E-001;-3.465644270181656E-002;1.256706193089485E-003;-4.827648866921663E-003;
2.414833333333334E+009;1.932367682456970E-001;-3.611863404512405E-002;1.078635104931891E-003;-4.827057942748070E-003;
2.415000000000000E+009;1.942515522241592E-001;-3.724466264247894E-002;8.692208793945611E-004;-4.847027361392975E-003;
2.415166666666667E+009;1.955450326204300E-001;-3.830329328775406E-002;6.379551487043500E-004;-4.871434532105923E-003;
2.415333333333334E+009;1.967426985502243E-001;-3.934630379080772E-002;4.012073331978172E-004;-4.791427403688431E-003;
2.415500000000000E+009;1.977646201848984E-001;-4.009203985333443E-002;2.557540719863027E-004;-4.797149449586868E-003;
2.415666666666667E+009;1.987430006265640E-001;-4.093161597847939E-002;1.395118015352637E-004;-4.747251514345408E-003;
2.415833333333334E+009;1.998047679662705E-001;-4.138729348778725E-002;-1.493800573371118E-005;-4.701911471784115E-003;
2.416000000000000E+009;2.005030661821365E-001;-4.209418222308159E-002;-2.722578065004200E-004;-4.654921125620604E-003;
2.416166666666667E+009;2.011853158473969E-001;-4.256910830736160E-002;-4.097646451555193E-004;-4.638726357370615E-003;
2.416333333333334E+009;2.018051594495773E-001;-4.274975135922432E-002;-5.813709576614201E-004;-4.464067053049803E-003;
2.416500000000000E+009;2.022061944007874E-001;-4.304168373346329E-002;-7.540203514508903E-004;-4.249760881066322E-003;
2.416666666666667E+009;2.026359736919403E-001;-4.335334524512291E-002;-7.086745463311672E-004;-4.528149962425232E-003;
2.416833333333334E+009;2.027072161436081E-001;-4.324530437588692E-002;-7.808983791619539E-004;-4.540466703474522E-003;
2.417000000000000E+009;2.027574479579926E-001;-4.345913976430893E-002;-1.103649148717523E-003;-4.441373050212860E-003;
2.417166666666667E+009;2.025492638349533E-001;-4.328795522451401E-002;-1.193709555082023E-003;-4.451439250260592E-003;
2.417333333333334E+009;2.023522853851318E-001;-4.314782097935677E-002;-1.145113026723266E-003;-4.228167235851288E-003;
2.417500000000000E+009;2.020352333784103E-001;-4.311771318316460E-002;-1.375771011225879E-003;-4.195143003016710E-003;
2.417666666666667E+009;2.015933096408844E-001;-4.294931888580322E-002;-1.449095783755183E-003;-4.096582531929016E-003;
2.417833333333334E+009;2.011328339576721E-001;-4.261093214154244E-002;-1.640118774957955E-003;-3.991515375673771E-003;
2.418000000000000E+009;2.003076672554016E-001;-4.242001846432686E-002;-1.780480728484690E-003;-4.087061155587435E-003;
2.418166666666667E+009;1.994781792163849E-001;-4.222528263926506E-002;-2.005495596677065E-003;-4.118841141462326E-003;
2.418333333333334E+009;1.985879391431809E-001;-4.215915128588677E-002;-1.961773028597236E-003;-3.914870321750641E-003;
2.418500000000000E+009;1.976619064807892E-001;-4.206880927085877E-002;-2.172406762838364E-003;-3.821189049631357E-003;
2.418666666666667E+009;1.966317445039749E-001;-4.194865375757217E-002;-2.181256888434291E-003;-3.741619875654578E-003;
2.418833333333334E+009;1.953250765800476E-001;-4.213128238916397E-002;-2.272530458867550E-003;-3.680396592244506E-003;
2.419000000000000E+009;1.940781772136688E-001;-4.240358993411064E-002;-2.410860499367118E-003;-3.581216791644692E-003;
2.419166666666667E+009;1.927748918533325E-001;-4.269396886229515E-002;-2.566278446465731E-003;-3.489403752610087E-003;
2.419333333333334E+009;1.912337690591812E-001;-4.305867850780487E-002;-2.679673722013831E-003;-3.385443473234773E-003;
2.419500000000000E+009;1.898263692855835E-001;-4.348311573266983E-002;-2.749247010797262E-003;-3.229703055694699E-003;
2.419666666666667E+009;1.882126182317734E-001;-4.430567473173142E-002;-2.715711249038577E-003;-3.141543827950954E-003;
2.419833333333334E+009;1.868161261081696E-001;-4.501073062419891E-002;-2.821585861966014E-003;-3.026527818292379E-003;
2.420000000000000E+009;1.850677281618118E-001;-4.592719301581383E-002;-2.712979679927230E-003;-2.994126873090863E-003;
2.420166666666667E+009;1.835080087184906E-001;-4.676594212651253E-002;-2.896574325859547E-003;-2.918786369264126E-003;
2.420333333333334E+009;1.818031817674637E-001;-4.784011840820313E-002;-2.819396089762449E-003;-2.905319444835186E-003;
2.420500000000000E+009;1.801742762327194E-001;-4.921686276793480E-002;-2.952891401946545E-003;-2.798204077407718E-003;
2.420666666666667E+009;1.785989850759506E-001;-5.051465332508087E-002;-2.980558667331934E-003;-2.625206485390663E-003;
2.420833333333334E+009;1.769679635763168E-001;-5.199588462710381E-002;-3.051931736990809E-003;-2.805683296173811E-003;
2.421000000000000E+009;1.753222197294235E-001;-5.351223051548004E-002;-3.239123383536935E-003;-2.747476799413562E-003;
2.421166666666667E+009;1.739507913589478E-001;-5.527188256382942E-002;-3.282648278400302E-003;-2.451267093420029E-003;
2.421333333333334E+009;1.723733544349670E-001;-5.691476166248322E-002;-3.399301320314407E-003;-2.375176176428795E-003;
2.421500000000000E+009;1.709719002246857E-001;-5.882021784782410E-002;-3.651890205219388E-003;-2.361671067774296E-003;
2.421666666666667E+009;1.698145866394043E-001;-6.051152944564819E-002;-3.625523764640093E-003;-2.153673209249973E-003;
2.421833333333334E+009;1.687446534633637E-001;-6.238020583987236E-002;-3.789910348132253E-003;-2.198889851570129E-003;
2.422000000000000E+009;1.674387156963348E-001;-6.440292298793793E-002;-3.893462475389242E-003;-1.961562549695373E-003;
2.422166666666667E+009;1.666207760572434E-001;-6.645292788743973E-002;-3.852830734103918E-003;-1.706977724097669E-003;
2.422333333333334E+009;1.656468510627747E-001;-6.856857240200043E-002;-3.996415063738823E-003;-1.615566899999976E-003;
2.422500000000000E+009;1.650197505950928E-001;-7.047473639249802E-002;-3.988003823906183E-003;-1.438571605831385E-003;
2.422666666666667E+009;1.642185300588608E-001;-7.263783365488052E-002;-3.897744696587324E-003;-1.316034817136824E-003;
2.422833333333334E+009;1.638169586658478E-001;-7.463124394416809E-002;-3.661237424239516E-003;-1.057179644703865E-003;
2.423000000000000E+009;1.631096899509430E-001;-7.665809988975525E-002;-3.940668422728777E-003;-1.082566683180630E-003;
2.423166666666667E+009;1.629490554332733E-001;-7.859119772911072E-002;-3.833021270111203E-003;-1.086756237782538E-003;
2.423333333333334E+009;1.625962555408478E-001;-8.066925406455994E-002;-3.813297953456640E-003;-7.497416809201241E-004;
2.423500000000000E+009;1.625790745019913E-001;-8.254446834325790E-002;-3.899655770510435E-003;-6.270551821216941E-004;
2.423666666666667E+009;1.626787632703781E-001;-8.441008627414703E-002;-3.861502744257450E-003;-6.785012665204704E-004;
2.423833333333334E+009;1.624993830919266E-001;-8.619781583547592E-002;-3.850065637379885E-003;-5.988495540805161E-004;
2.424000000000000E+009;1.627254486083984E-001;-8.813371509313583E-002;-3.926966339349747E-003;-4.759782750625163E-004;
2.424166666666667E+009;1.627020686864853E-001;-8.956953138113022E-002;-3.888221690431237E-003;-4.955166368745267E-004;
2.424333333333334E+009;1.631673425436020E-001;-9.112917631864548E-002;-3.910169005393982E-003;-2.836034982465208E-004;
2.424500000000000E+009;1.633699983358383E-001;-9.285801649093628E-002;-3.923199605196714E-003;-8.168138447217643E-005;
2.424666666666667E+009;1.637123227119446E-001;-9.418366104364395E-002;-3.956186585128307E-003;8.146378968376666E-005;
2.424833333333334E+009;1.642631888389587E-001;-9.563193470239639E-002;-3.934078384190798E-003;3.567007952369750E-004;
2.425000000000000E+009;1.646219640970230E-001;-9.658331423997879E-002;-3.934516571462154E-003;3.290946478955448E-004;
2.425166666666667E+009;1.649106442928314E-001;-9.783578664064407E-002;-4.060919862240553E-003;3.153915749862790E-004;
2.425333333333334E+009;1.652926504611969E-001;-9.885282069444656E-002;-3.941655158996582E-003;5.710094701498747E-004;
2.425500000000000E+009;1.658027470111847E-001;-9.965478628873825E-002;-3.791186492890120E-003;8.300242479890585E-004;
2.425666666666667E+009;1.661925017833710E-001;-1.004026979207993E-001;-3.855497809126973E-003;8.711105328984559E-004;
2.425833333333334E+009;1.665624529123306E-001;-1.012764424085617E-001;-3.823323640972376E-003;9.200326749123633E-004;
2.426000000000000E+009;1.669365614652634E-001;-1.016344577074051E-001;-3.779641352593899E-003;1.064889249391854E-003;
2.426166666666667E+009;1.673912405967712E-001;-1.020920500159264E-001;-3.600379452109337E-003;1.392332720570266E-003;
2.426333333333334E+009;1.675081849098206E-001;-1.026436462998390E-001;-3.547078464180231E-003;1.414116006344557E-003;
2.426500000000000E+009;1.679305732250214E-001;-1.028375253081322E-001;-3.570319153368473E-003;1.434701145626605E-003;
2.426666666666667E+009;1.681006997823715E-001;-1.030862480401993E-001;-3.492116462439299E-003;1.784857595339418E-003;
2.426833333333334E+009;1.684157103300095E-001;-1.035006567835808E-001;-3.230344736948609E-003;1.809991314075887E-003;
2.427000000000000E+009;1.682732254266739E-001;-1.036410406231880E-001;-3.213231684640050E-003;1.751786330714822E-003;
2.427166666666667E+009;1.685009747743607E-001;-1.037479266524315E-001;-3.054475411772728E-003;1.954687992110848E-003;
2.427333333333334E+009;1.682229638099670E-001;-1.039415523409843E-001;-2.987239276990295E-003;2.063831547275186E-003;
2.427500000000000E+009;1.679926067590714E-001;-1.041155532002449E-001;-2.863592933863401E-003;2.016935264691711E-003;
2.427666666666667E+009;1.675995439291000E-001;-1.041632667183876E-001;-2.793306484818459E-003;2.171900123357773E-003;
