# Version 1.00
#
freq[Hz];re:Trc1_S11;im:Trc1_S11;re:Trc2_S21;im:Trc2_S21;
2.400000000000000E+009;1.549456864595413E-001;1.068538650870323E-001;1.359631540253758E-003;4.864634480327368E-003;
2.400166666666667E+009;1.548588573932648E-001;1.044794097542763E-001;1.421329914592207E-003;4.972613882273436E-003;
2.400333333333334E+009;1.546614915132523E-001;1.019913852214813E-001;1.516679883934557E-003;5.085518583655357E-003;
2.400500000000000E+009;1.545869857072830E-001;9.924487769603729E-002;1.613698201254010E-003;5.002065096050501E-003;
2.400666666666667E+009;1.549120843410492E-001;9.692957997322083E-002;1.693140016868711E-003;5.111990496516228E-003;
2.400833333333334E+009;1.546437442302704E-001;9.403926134109497E-002;1.964563736692071E-003;5.222075153142214E-003;
2.401000000000000E+009;1.549282968044281E-001;9.122890233993530E-002;1.990816090255976E-003;5.220808554440737E-003;
2.401166666666667E+009;1.549704074859619E-001;8.839996159076691E-002;2.257340587675571E-003;5.340978037565947E-003;
2.401333333333334E+009;1.552028805017471E-001;8.550092577934265E-002;2.443153876811266E-003;5.342087242752314E-003;
2.401500000000000E+009;1.556239128112793E-001;8.246071636676788E-002;2.735635498538613E-003;5.364260170608759E-003;
2.401666666666667E+009;1.560629010200501E-001;7.968397438526154E-002;3.019780153408647E-003;5.214655771851540E-003;
2.401833333333334E+009;1.565038412809372E-001;7.708021998405457E-002;3.371227299794555E-003;5.119853653013706E-003;
2.402000000000000E+009;1.573462337255478E-001;7.408998906612396E-002;3.669034922495484E-003;4.998674616217613E-003;
2.402166666666667E+009;1.580140888690949E-001;7.167430967092514E-002;4.005888942629099E-003;4.821727983653545E-003;
2.402333333333334E+009;1.590186953544617E-001;6.909076124429703E-002;4.246344324201345E-003;4.660749807953835E-003;
2.402500000000000E+009;1.600220650434494E-001;6.641636788845062E-002;4.183537792414427E-003;4.362266045063734E-003;
2.402666666666667E+009;1.612123697996140E-001;6.409225612878799E-002;4.600069019943476E-003;3.943575546145439E-003;
2.402833333333334E+009;1.624867618083954E-001;6.158288195729256E-002;4.619925748556852E-003;3.697601146996021E-003;
2.403000000000000E+009;1.641897112131119E-001;6.004731357097626E-002;4.644527100026608E-003;3.494936740025878E-003;
2.403166666666667E+009;1.658444404602051E-001;5.742993950843811E-002;4.793849308043718E-003;3.302530385553837E-003;
2.403333333333334E+009;1.672035604715347E-001;5.534112825989723E-002;4.765367135405541E-003;3.001637523993850E-003;
2.403500000000000E+009;1.687667369842529E-001;5.304257199168205E-002;4.587315488606691E-003;2.557713771238923E-003;
2.403666666666667E+009;1.708200573921204E-001;5.161157622933388E-002;4.505610559135675E-003;2.341941930353642E-003;
2.403833333333334E+009;1.725225001573563E-001;4.939723387360573E-002;4.536517895758152E-003;2.236071508377791E-003;
2.404000000000000E+009;1.737643480300903E-001;4.759691283106804E-002;4.534129053354263E-003;2.056960482150316E-003;
2.404166666666667E+009;1.753366589546204E-001;4.616945609450340E-002;4.603602923452854E-003;1.896161818876863E-003;
2.404333333333334E+009;1.772990822792053E-001;4.449957236647606E-002;4.253215156495571E-003;1.620028633624315E-003;
2.404500000000000E+009;1.789119094610214E-001;4.307691752910614E-002;4.590477794408798E-003;1.681041321717203E-003;
2.404666666666667E+009;1.805853545665741E-001;4.191772639751434E-002;4.585227929055691E-003;1.645289827138186E-003;
2.404833333333334E+009;1.822970062494278E-001;4.079939424991608E-002;4.605952650308609E-003;1.736990991048515E-003;
2.405000000000000E+009;1.835708767175674E-001;4.013377428054810E-002;4.908836912363768E-003;1.540548284538090E-003;
2.405166666666667E+009;1.848048865795136E-001;3.953117877244949E-002;5.395940504968166E-003;1.108575728721917E-003;
2.405333333333334E+009;1.869305968284607E-001;3.927943482995033E-002;4.131472203880549E-003;1.003425335511565E-003;
2.405500000000000E+009;1.879518777132034E-001;3.835669159889221E-002;4.911660682410002E-003;1.474775839596987E-003;
2.405666666666667E+009;1.890900880098343E-001;3.804126754403114E-002;5.306458100676537E-003;9.816526435315609E-004;
2.405833333333334E+009;1.904610395431519E-001;3.797581046819687E-002;5.018734838813543E-003;7.439500186592341E-004;
2.406000000000000E+009;1.916002780199051E-001;3.788740932941437E-002;4.825883544981480E-003;5.353067535907030E-004;
2.406166666666667E+009;1.923691183328629E-001;3.751768544316292E-002;5.467187147587538E-003;8.427348802797496E-004;
2.406333333333334E+009;1.934650093317032E-001;3.782545030117035E-002;4.951498936861754E-003;3.547609667293727E-004;
2.406500000000000E+009;1.942576318979263E-001;3.777716681361198E-002;4.921328276395798E-003;1.530941954115406E-004;
2.406666666666667E+009;1.948712617158890E-001;3.787432238459587E-002;4.897823557257652E-003;3.877355084114242E-006;
2.406833333333334E+009;1.954238265752792E-001;3.802349045872688E-002;4.807190969586372E-003;-9.803913599171210E-006;
2.407000000000000E+009;1.958401054143906E-001;3.820390626788139E-002;4.834518767893314E-003;-2.503831929061562E-004;
2.407166666666667E+009;1.961538195610046E-001;3.802115097641945E-002;4.734757356345654E-003;-4.325518384575844E-004;
2.407333333333334E+009;1.961044371128082E-001;3.826566040515900E-002;4.677683115005493E-003;-5.229090456850827E-004;
2.407500000000000E+009;1.960240304470062E-001;3.842354193329811E-002;4.789850674569607E-003;-6.131647969596088E-004;
2.407666666666667E+009;1.962631642818451E-001;3.829196095466614E-002;4.680941347032785E-003;-8.314931765198708E-004;
2.407833333333334E+009;1.955721676349640E-001;3.817338868975639E-002;4.729340318590403E-003;-9.565110667608678E-004;
2.408000000000000E+009;1.956243366003037E-001;3.801247105002403E-002;4.697833210229874E-003;-1.147358445450664E-003;
2.408166666666667E+009;1.950721889734268E-001;3.787019476294518E-002;4.494812805205584E-003;-1.196546130813658E-003;
2.408333333333334E+009;1.946355253458023E-001;3.733593598008156E-002;4.630199633538723E-003;-1.262700418010354E-003;
2.408500000000000E+009;1.938288658857346E-001;3.713979572057724E-002;4.430993925780058E-003;-1.439993269741535E-003;
2.408666666666667E+009;1.934297084808350E-001;3.655926138162613E-002;4.521684255450964E-003;-1.566090853884816E-003;
2.408833333333334E+009;1.925918310880661E-001;3.581252694129944E-002;4.255263134837151E-003;-1.786502660252154E-003;
2.409000000000000E+009;1.917110979557037E-001;3.480700403451920E-002;4.321417771279812E-003;-1.814098563045263E-003;
2.409166666666667E+009;1.907960176467896E-001;3.381625562906265E-002;4.180081188678742E-003;-2.088189357891679E-003;
2.409333333333334E+009;1.899397224187851E-001;3.300345316529274E-002;4.071483388543129E-003;-1.941556576639414E-003;
2.409500000000000E+009;1.889179795980454E-001;3.160556033253670E-002;4.008737858384848E-003;-2.135810209438205E-003;
2.409666666666667E+009;1.879744827747345E-001;3.019546903669834E-002;3.876592032611370E-003;-2.245987299829722E-003;
2.409833333333334E+009;1.869459897279739E-001;2.872793562710285E-002;3.825354157015681E-003;-2.276355866342783E-003;
2.410000000000000E+009;1.859487295150757E-001;2.709426917135716E-002;3.665533615276218E-003;-2.375780371949077E-003;
2.410166666666667E+009;1.848982572555542E-001;2.498902380466461E-002;3.669956699013710E-003;-2.476357854902744E-003;
2.410333333333334E+009;1.840171813964844E-001;2.333560399711132E-002;3.459619591012597E-003;-2.476935507729650E-003;
2.410500000000000E+009;1.829690039157867E-001;2.128167264163494E-002;3.423537360504270E-003;-2.532820915803313E-003;
2.410666666666667E+009;1.820375174283981E-001;1.902727596461773E-002;3.277426818385720E-003;-2.389365807175636E-003;
2.410833333333334E+009;1.813671141862869E-001;1.682458817958832E-002;3.197602462023497E-003;-2.494155894964933E-003;
2.411000000000000E+009;1.805878281593323E-001;1.469085924327374E-002;3.105430863797665E-003;-2.466761972755194E-003;
2.411166666666667E+009;1.799053996801376E-001;1.257559470832348E-002;3.120449604466558E-003;-2.506623510271311E-003;
2.411333333333334E+009;1.794023364782333E-001;9.884972125291824E-003;3.231321927160025E-003;-2.577795879915357E-003;
2.411500000000000E+009;1.789613217115402E-001;7.448939606547356E-003;3.182795364409685E-003;-2.703215461224318E-003;
2.411666666666667E+009;1.787525862455368E-001;5.080259405076504E-003;3.305780934169889E-003;-2.560582710430026E-003;
2.411833333333334E+009;1.784639060497284E-001;2.696595853194594E-003;3.100354690104723E-003;-2.664403058588505E-003;
2.412000000000000E+009;1.784623861312866E-001;6.858157576061785E-005;3.260077908635140E-003;-2.736669033765793E-003;
2.412166666666667E+009;1.787833273410797E-001;-2.327703405171633E-003;3.280088538303971E-003;-2.852281555533409E-003;
2.412333333333334E+009;1.787524372339249E-001;-4.699971061199904E-003;3.254145616665483E-003;-2.989624859765172E-003;
2.412500000000000E+009;1.793870180845261E-001;-7.197418250143528E-003;3.146282630041242E-003;-3.119574394077063E-003;
2.412666666666667E+009;1.797973960638046E-001;-9.870523586869240E-003;3.113903105258942E-003;-3.264378989115357E-003;
2.412833333333334E+009;1.804092824459076E-001;-1.224418822675943E-002;3.052573418244720E-003;-3.512179013341665E-003;
2.413000000000000E+009;1.813324987888336E-001;-1.459507271647453E-002;3.005164675414562E-003;-3.398123197257519E-003;
2.413166666666667E+009;1.820974051952362E-001;-1.676497794687748E-002;3.026889869943261E-003;-3.779810853302479E-003;
2.413333333333334E+009;1.831030249595642E-001;-1.917031034827232E-002;2.757165115326643E-003;-3.825641004368663E-003;
2.413500000000000E+009;1.839209794998169E-001;-2.151618525385857E-002;2.684789011254907E-003;-4.146668594330549E-003;
2.413666666666667E+009;1.851679235696793E-001;-2.367598563432694E-002;2.592778299003840E-003;-4.296295344829559E-003;
2.413833333333334E+009;1.861800998449326E-001;-2.572457492351532E-002;2.397981239482760E-003;-4.411851521581411E-003;
2.414000000000000E+009;1.873710155487061E-001;-2.762563340365887E-002;2.205607015639544E-003;-4.472042433917522E-003;
2.414166666666667E+009;1.885724514722824E-001;-2.950230240821838E-002;2.180784475058317E-003;-4.641856066882610E-003;
2.414333333333334E+009;1.896954178810120E-001;-3.149518370628357E-002;1.852075685746968E-003;-4.696799442172051E-003;
2.414500000000000E+009;1.909993141889572E-001;-3.307404369115830E-002;1.561894197948277E-003;-4.878954496234655E-003;
2.414666666666667E+009;1.920519620180130E-001;-3.444870933890343E-002;1.396927982568741E-003;-4.842955153435469E-003;
2.414833333333334E+009;1.932675391435623E-001;-3.591200709342957E-002;1.206933986395598E-003;-5.094151012599468E-003;
2.415000000000000E+009;1.944099217653275E-001;-3.730534762144089E-002;8.799661882221699E-004;-4.908597562462091E-003;
2.415166666666667E+009;1.956462562084198E-001;-3.836145624518395E-002;7.682077703066170E-004;-4.965104628354311E-003;
2.415333333333334E+009;1.967404037714005E-001;-3.922843560576439E-002;5.803689127787948E-004;-4.942581988871098E-003;
2.415500000000000E+009;1.978377401828766E-001;-3.994378447532654E-002;3.567531530279666E-004;-4.894664511084557E-003;
2.415666666666667E+009;1.988075375556946E-001;-4.078992828726769E-002;1.775480050127953E-004;-4.901864565908909E-003;
2.415833333333334E+009;1.997005492448807E-001;-4.139734804630280E-002;-3.230912625440396E-005;-4.920488689094782E-003;
2.416000000000000E+009;2.003865838050842E-001;-4.196005687117577E-002;-2.769849961623550E-004;-4.699408542364836E-003;
2.416166666666667E+009;2.012882232666016E-001;-4.259602352976799E-002;-2.580742584541440E-004;-4.891647957265377E-003;
2.416333333333334E+009;2.018062621355057E-001;-4.271348193287849E-002;-7.067821570672095E-004;-4.743044730275869E-003;
2.416500000000000E+009;2.023281306028366E-001;-4.300142452120781E-002;-6.189524428918958E-004;-4.662379622459412E-003;
2.416666666666667E+009;2.026392221450806E-001;-4.322970286011696E-002;-8.041268447414041E-004;-4.421095829457045E-003;
2.416833333333334E+009;2.027839720249176E-001;-4.323037341237068E-002;-1.003622659482062E-003;-4.552647471427918E-003;
2.417000000000000E+009;2.028337419033051E-001;-4.329692572355270E-002;-1.000782358460128E-003;-4.562714602798224E-003;
2.417166666666667E+009;2.025600671768189E-001;-4.331622645258904E-002;-1.194696757011116E-003;-4.554907325655222E-003;
2.417333333333334E+009;2.023897916078568E-001;-4.307884350419045E-002;-1.323744654655457E-003;-4.471584688872099E-003;
2.417500000000000E+009;2.020945399999619E-001;-4.306989908218384E-002;-1.425362308509648E-003;-4.395605530589819E-003;
2.417666666666667E+009;2.015462070703507E-001;-4.271981492638588E-002;-1.502575469203293E-003;-4.274480044841766E-003;
2.417833333333334E+009;2.011509537696838E-001;-4.262033849954605E-002;-1.656281645409763E-003;-4.271461628377438E-003;
2.418000000000000E+009;2.005296349525452E-001;-4.225590825080872E-002;-1.729584881104529E-003;-4.118468612432480E-003;
2.418166666666667E+009;1.996888220310211E-001;-4.219029471278191E-002;-1.968540251255035E-003;-4.135557916015387E-003;
2.418333333333334E+009;1.986198276281357E-001;-4.199725762009621E-002;-2.123729093000293E-003;-4.066873807460070E-003;
2.418500000000000E+009;1.976089626550674E-001;-4.203201830387116E-002;-2.259301720187068E-003;-3.979896660894156E-003;
2.418666666666667E+009;1.966699063777924E-001;-4.195516929030418E-002;-2.249075565487146E-003;-3.790173213928938E-003;
2.418833333333334E+009;1.954046934843063E-001;-4.205936193466187E-002;-2.463666955009103E-003;-3.833219641819596E-003;
2.419000000000000E+009;1.940520554780960E-001;-4.229151085019112E-002;-2.479857066646218E-003;-3.597252070903778E-003;
2.419166666666667E+009;1.928297579288483E-001;-4.261637479066849E-002;-2.657684031873941E-003;-3.542177146300674E-003;
2.419333333333334E+009;1.914146244525909E-001;-4.300040751695633E-002;-2.627811394631863E-003;-3.521897830069065E-003;
2.419500000000000E+009;1.901096254587174E-001;-4.352178052067757E-002;-2.652696100994945E-003;-3.356663510203362E-003;
2.419666666666667E+009;1.883223354816437E-001;-4.438374936580658E-002;-2.793601481243968E-003;-3.213397227227688E-003;
2.419833333333334E+009;1.867305934429169E-001;-4.491428285837174E-002;-2.812903840094805E-003;-3.203056054189801E-003;
2.420000000000000E+009;1.850720793008804E-001;-4.582955688238144E-002;-2.863167552277446E-003;-3.037337213754654E-003;
2.420166666666667E+009;1.835903227329254E-001;-4.674760252237320E-002;-2.857583109289408E-003;-2.944641513749957E-003;
2.420333333333334E+009;1.818662434816361E-001;-4.792978987097740E-002;-2.848063129931688E-003;-2.909369068220258E-003;
2.420500000000000E+009;1.802225559949875E-001;-4.927013814449310E-002;-3.086557611823082E-003;-2.946202410385013E-003;
2.420666666666667E+009;1.785432696342468E-001;-5.034364759922028E-002;-3.040893934667110E-003;-2.763956785202026E-003;
2.420833333333334E+009;1.767989397048950E-001;-5.199692770838738E-002;-3.141410183161497E-003;-2.766895573586226E-003;
2.421000000000000E+009;1.753520965576172E-001;-5.331106483936310E-002;-3.259837161749601E-003;-2.828614553436637E-003;
2.421166666666667E+009;1.741688400506973E-001;-5.520656332373619E-002;-3.278356743976474E-003;-2.686034888029099E-003;
2.421333333333334E+009;1.724404841661453E-001;-5.669936537742615E-002;-3.512790892273188E-003;-2.592405071482062E-003;
2.421500000000000E+009;1.710839420557022E-001;-5.870513990521431E-002;-3.532278817147017E-003;-2.355671022087336E-003;
2.421666666666667E+009;1.697624474763870E-001;-6.046162545681000E-002;-3.726116148754954E-003;-2.372513990849257E-003;
2.421833333333334E+009;1.687216609716415E-001;-6.231304630637169E-002;-3.782053710892797E-003;-2.250293269753456E-003;
2.422000000000000E+009;1.675128489732742E-001;-6.426162272691727E-002;-3.911227453500032E-003;-1.937707769684494E-003;
2.422166666666667E+009;1.667377054691315E-001;-6.644064188003540E-002;-3.866068320348859E-003;-1.903024152852595E-003;
2.422333333333334E+009;1.656612455844879E-001;-6.841327995061874E-002;-3.928944934159517E-003;-1.604397897608578E-003;
2.422500000000000E+009;1.649519801139832E-001;-7.053128629922867E-002;-4.024023655802012E-003;-1.530412235297263E-003;
2.422666666666667E+009;1.644109785556793E-001;-7.258486747741699E-002;-4.023568704724312E-003;-1.285992562770844E-003;
2.422833333333334E+009;1.638647019863129E-001;-7.456877827644348E-002;-4.001513123512268E-003;-1.232324400916696E-003;
2.423000000000000E+009;1.633186340332031E-001;-7.668435573577881E-002;-4.037092905491591E-003;-1.010193838737905E-003;
2.423166666666667E+009;1.629080027341843E-001;-7.866232097148895E-002;-4.035480786114931E-003;-9.194764425046742E-004;
2.423333333333334E+009;1.628093421459198E-001;-8.068447560071945E-002;-4.013135097920895E-003;-8.742511272430420E-004;
2.423500000000000E+009;1.628120094537735E-001;-8.255360275506973E-002;-3.980977926403284E-003;-7.314214599318802E-004;
2.423666666666667E+009;1.627296358346939E-001;-8.438777923583984E-002;-3.875751746818423E-003;-6.559066241607070E-004;
2.423833333333334E+009;1.625643372535706E-001;-8.614818751811981E-002;-4.022409673780203E-003;-8.401234517805278E-004;
2.424000000000000E+009;1.627754569053650E-001;-8.787003904581070E-002;-4.040888044983149E-003;-5.569055210798979E-004;
2.424166666666667E+009;1.629267334938049E-001;-8.963561803102493E-002;-4.044715315103531E-003;-3.077272558584809E-004;
2.424333333333334E+009;1.631136387586594E-001;-9.110045433044434E-002;-4.043604247272015E-003;-1.792161492630839E-004;
2.424500000000000E+009;1.635972857475281E-001;-9.283941984176636E-002;-4.177895840257406E-003;-1.188718160847202E-004;
2.424666666666667E+009;1.635824143886566E-001;-9.416341781616211E-002;-4.146715626120567E-003;1.096382329706103E-004;
2.424833333333334E+009;1.643510460853577E-001;-9.557174891233444E-002;-4.120321944355965E-003;2.722742792684585E-004;
2.425000000000000E+009;1.646507978439331E-001;-9.672935307025909E-002;-4.111486952751875E-003;3.443940076977015E-004;
2.425166666666667E+009;1.650308817625046E-001;-9.771469235420227E-002;-4.013039637356997E-003;3.996548184659332E-004;
2.425333333333334E+009;1.653090864419937E-001;-9.885957092046738E-002;-4.117575008422136E-003;7.248689653351903E-004;
2.425500000000000E+009;1.657780557870865E-001;-9.967614710330963E-002;-4.080933518707752E-003;9.090296807698906E-004;
2.425666666666667E+009;1.662865728139877E-001;-1.004115194082260E-001;-4.087216686457396E-003;1.092982827685773E-003;
2.425833333333334E+009;1.665621846914291E-001;-1.012937873601914E-001;-3.890368388965726E-003;1.101003959774971E-003;
2.426000000000000E+009;1.669483184814453E-001;-1.016851738095284E-001;-3.900138428434730E-003;1.371006714180112E-003;
2.426166666666667E+009;1.673581749200821E-001;-1.021898612380028E-001;-3.747187089174986E-003;1.375277759507299E-003;
2.426333333333334E+009;1.675103306770325E-001;-1.026473566889763E-001;-3.794049844145775E-003;1.604160410352051E-003;
2.426500000000000E+009;1.679511666297913E-001;-1.030619814991951E-001;-3.490728326141834E-003;1.612530671991408E-003;
2.426666666666667E+009;1.680812537670136E-001;-1.032114326953888E-001;-3.664290066808462E-003;1.728623057715595E-003;
2.426833333333334E+009;1.684326231479645E-001;-1.035418361425400E-001;-3.268185304477811E-003;1.842761761508882E-003;
2.427000000000000E+009;1.683750599622726E-001;-1.036731898784638E-001;-3.168091876432300E-003;1.967635005712509E-003;
2.427166666666667E+009;1.684616506099701E-001;-1.037179082632065E-001;-3.104000817984343E-003;2.091889036819339E-003;
2.427333333333334E+009;1.683239638805389E-001;-1.039519011974335E-001;-3.064716467633843E-003;2.050278708338738E-003;
2.427500000000000E+009;1.679642200469971E-001;-1.041149199008942E-001;-2.987023442983627E-003;2.150923945009708E-003;
2.427666666666667E+009;1.675441265106201E-001;-1.040620878338814E-001;-2.883927198126912E-003;2.164162462577224E-003;
