# Version 1.00
#
freq[Hz];re:Trc1_S11;im:Trc1_S11;re:Trc2_S21;im:Trc2_S21;
2.400000000000000E+009;1.552225649356842E-001;1.067098155617714E-001;1.481454935856164E-003;4.905214067548513E-003;
2.400166666666667E+009;1.548554748296738E-001;1.043667569756508E-001;1.368700875900686E-003;4.836983978748322E-003;
2.400333333333334E+009;1.548226177692413E-001;1.020963415503502E-001;1.530537381768227E-003;4.968287423253059E-003;
2.400500000000000E+009;1.549160331487656E-001;9.917522221803665E-002;1.708730240352452E-003;4.897274542599917E-003;
2.400666666666667E+009;1.549728363752365E-001;9.675438702106476E-002;1.685988623648882E-003;5.062452983111143E-003;
2.400833333333334E+009;1.548733264207840E-001;9.399766474962235E-002;1.783430692739785E-003;5.040304735302925E-003;
2.401000000000000E+009;1.549770385026932E-001;9.106720238924027E-002;2.049380913376808E-003;5.143566988408566E-003;
2.401166666666667E+009;1.550141721963882E-001;8.810456097126007E-002;2.348588313907385E-003;5.162101238965988E-003;
2.401333333333334E+009;1.554752886295319E-001;8.542807400226593E-002;2.322077285498381E-003;5.175908096134663E-003;
2.401500000000000E+009;1.558056920766830E-001;8.252280205488205E-002;2.684086095541716E-003;5.255029071122408E-003;
2.401666666666667E+009;1.562831252813339E-001;7.965292781591415E-002;3.031024476513267E-003;5.261727143079042E-003;
2.401833333333334E+009;1.567386090755463E-001;7.697025686502457E-002;3.277339506894350E-003;5.253392737358809E-003;
2.402000000000000E+009;1.574891954660416E-001;7.417452335357666E-002;3.470153314992786E-003;4.866509698331356E-003;
2.402166666666667E+009;1.582282036542893E-001;7.157268375158310E-002;3.827194916084409E-003;4.892788827419281E-003;
2.402333333333334E+009;1.592813581228256E-001;6.891494244337082E-002;4.222362302243710E-003;4.721590317785740E-003;
2.402500000000000E+009;1.602558344602585E-001;6.630874425172806E-002;4.414379131048918E-003;4.116534721106291E-003;
2.402666666666667E+009;1.616024971008301E-001;6.422365456819534E-002;4.456083290278912E-003;4.020565189421177E-003;
2.402833333333334E+009;1.628311425447464E-001;6.158684939146042E-002;4.758405033499003E-003;3.611253341659904E-003;
2.403000000000000E+009;1.642235219478607E-001;5.918719246983528E-002;4.863303620368242E-003;3.483868669718504E-003;
2.403166666666667E+009;1.659431159496307E-001;5.703096836805344E-002;4.876470658928156E-003;3.128940938040614E-003;
2.403333333333334E+009;1.673912405967712E-001;5.490788444876671E-002;4.761653486639261E-003;2.883236156776547E-003;
2.403500000000000E+009;1.690215766429901E-001;5.284937471151352E-002;4.737530834972858E-003;2.523940522223711E-003;
2.403666666666667E+009;1.709175407886505E-001;5.095209181308746E-002;4.739322233945131E-003;2.355589531362057E-003;
2.403833333333334E+009;1.724863499403000E-001;4.917387664318085E-002;4.699860233813524E-003;2.285402268171310E-003;
2.404000000000000E+009;1.737774461507797E-001;4.721759259700775E-002;4.602897912263870E-003;2.098065335303545E-003;
2.404166666666667E+009;1.757187843322754E-001;4.588246718049049E-002;4.612864460796118E-003;1.966360723599792E-003;
2.404333333333334E+009;1.775376051664352E-001;4.434408247470856E-002;4.458934068679810E-003;1.855437527410686E-003;
2.404500000000000E+009;1.791102886199951E-001;4.290459305047989E-002;4.526231437921524E-003;1.713510951958597E-003;
2.404666666666667E+009;1.807412505149841E-001;4.188622906804085E-002;4.674742929637432E-003;1.578675932250917E-003;
2.404833333333334E+009;1.824883669614792E-001;4.067278280854225E-002;4.820296540856361E-003;1.706345938146114E-003;
2.405000000000000E+009;1.837030947208405E-001;4.010296612977982E-002;4.780685529112816E-003;1.373090315610170E-003;
2.405166666666667E+009;1.851330250501633E-001;3.931587189435959E-002;4.610500764101744E-003;1.436598249711096E-003;
2.405333333333334E+009;1.866889297962189E-001;3.884628415107727E-002;4.777731373906136E-003;1.320969080552459E-003;
2.405500000000000E+009;1.881683468818665E-001;3.848645463585854E-002;4.823240917176008E-003;8.325872477144003E-004;
2.405666666666667E+009;1.893200278282166E-001;3.806225955486298E-002;4.879564046859741E-003;9.581347694620490E-004;
2.405833333333334E+009;1.906299144029617E-001;3.781167790293694E-002;4.995041526854038E-003;6.828306941315532E-004;
2.406000000000000E+009;1.915983557701111E-001;3.781211748719215E-002;4.779895301908255E-003;7.139664958231151E-004;
2.406166666666667E+009;1.927654892206192E-001;3.763103857636452E-002;4.897673148661852E-003;5.045771249569953E-004;
2.406333333333334E+009;1.936527490615845E-001;3.768653795123100E-002;4.966652486473322E-003;2.095125673804432E-004;
2.406500000000000E+009;1.944046467542648E-001;3.765458241105080E-002;4.751219879835844E-003;1.278398576687323E-005;
2.406666666666667E+009;1.949924677610397E-001;3.779561445116997E-002;4.688861779868603E-003;-1.832422498182496E-007;
2.406833333333334E+009;1.955158859491348E-001;3.780082985758781E-002;4.805321805179119E-003;-1.019123519654386E-004;
2.407000000000000E+009;1.958192139863968E-001;3.805381804704666E-002;4.848584067076445E-003;-2.390562149230391E-004;
2.407166666666667E+009;1.962750405073166E-001;3.788257390260696E-002;4.749296698719263E-003;-3.532602568157017E-004;
2.407333333333334E+009;1.961312741041184E-001;3.803998976945877E-002;4.743140190839768E-003;-6.086241337470710E-004;
2.407500000000000E+009;1.960889399051666E-001;3.822663798928261E-002;4.604531917721033E-003;-6.652027950622141E-004;
2.407666666666667E+009;1.961323618888855E-001;3.811502456665039E-002;4.560730885714293E-003;-7.243169820867479E-004;
2.407833333333334E+009;1.957059055566788E-001;3.801282495260239E-002;4.611864686012268E-003;-9.885865729302168E-004;
2.408000000000000E+009;1.956488341093063E-001;3.797757998108864E-002;4.350227303802967E-003;-9.872076334431768E-004;
2.408166666666667E+009;1.950179487466812E-001;3.767026588320732E-002;4.560505039989948E-003;-1.286550192162395E-003;
2.408333333333334E+009;1.944924145936966E-001;3.713879734277725E-002;4.490657709538937E-003;-1.334971981123090E-003;
2.408500000000000E+009;1.940040737390518E-001;3.693229705095291E-002;4.416648764163256E-003;-1.324692275375128E-003;
2.408666666666667E+009;1.934554427862167E-001;3.636839985847473E-002;4.358658101409674E-003;-1.583986799232662E-003;
2.408833333333334E+009;1.926118582487106E-001;3.579468652606010E-002;4.204777535051107E-003;-1.654095365665853E-003;
2.409000000000000E+009;1.918419897556305E-001;3.478054329752922E-002;4.240678623318672E-003;-1.827619154937565E-003;
2.409166666666667E+009;1.908786892890930E-001;3.379899263381958E-002;4.060747101902962E-003;-2.017529681324959E-003;
2.409333333333334E+009;1.899199038743973E-001;3.273141011595726E-002;4.076224286109209E-003;-1.908989157527685E-003;
2.409500000000000E+009;1.888460516929627E-001;3.130427747964859E-002;4.043443594127893E-003;-2.183073665946722E-003;
2.409666666666667E+009;1.880085617303848E-001;2.996512502431870E-002;3.883510129526258E-003;-2.196768531575799E-003;
2.409833333333334E+009;1.869098842144013E-001;2.851234562695026E-002;3.904085373505950E-003;-2.402712358161807E-003;
2.410000000000000E+009;1.858854293823242E-001;2.680110745131970E-002;3.773204516619444E-003;-2.306162845343351E-003;
2.410166666666667E+009;1.848377436399460E-001;2.489413321018219E-002;3.624987555667758E-003;-2.490198239684105E-003;
2.410333333333334E+009;1.839194595813751E-001;2.311054244637489E-002;3.552270820364356E-003;-2.540498506277800E-003;
2.410500000000000E+009;1.829390078783035E-001;2.114375308156014E-002;3.380697453394532E-003;-2.575434744358063E-003;
2.410666666666667E+009;1.820387393236160E-001;1.858145557343960E-002;3.334317822009325E-003;-2.579103689640760E-003;
2.410833333333334E+009;1.813350915908814E-001;1.661170274019241E-002;3.176011145114899E-003;-2.532840939238668E-003;
2.411000000000000E+009;1.804831027984619E-001;1.442812569439411E-002;3.236690768972039E-003;-2.352204406633973E-003;
2.411166666666667E+009;1.798797547817230E-001;1.227186992764473E-002;3.220891579985619E-003;-2.552211284637451E-003;
2.411333333333334E+009;1.793558001518250E-001;9.546491317451000E-003;3.134630387648940E-003;-2.552921418100596E-003;
2.411500000000000E+009;1.789590716362000E-001;7.358241826295853E-003;3.162756795063615E-003;-2.616003621369600E-003;
2.411666666666667E+009;1.785926073789597E-001;4.982003476470709E-003;3.054896136745811E-003;-2.560269087553024E-003;
2.411833333333334E+009;1.781134307384491E-001;2.461518393829465E-003;3.131280420348048E-003;-2.568061696365476E-003;
2.412000000000000E+009;1.783548444509506E-001;-2.304274239577353E-004;3.176189027726650E-003;-2.800446702167392E-003;
2.412166666666667E+009;1.784395277500153E-001;-2.406568033620715E-003;3.138530533760786E-003;-2.807413227856159E-003;
2.412333333333334E+009;1.786449551582336E-001;-5.014738533645868E-003;3.210213966667652E-003;-3.059010719880462E-003;
2.412500000000000E+009;1.791097819805145E-001;-7.522828876972199E-003;3.104341914877296E-003;-3.061027266085148E-003;
2.412666666666667E+009;1.796818226575851E-001;-9.854437783360481E-003;3.179283114150167E-003;-3.375831758603454E-003;
2.412833333333334E+009;1.802598685026169E-001;-1.241327170282602E-002;2.996079390868545E-003;-3.422064008191228E-003;
2.413000000000000E+009;1.811747997999191E-001;-1.460540015250444E-002;2.923073014244437E-003;-3.638222580775619E-003;
2.413166666666667E+009;1.819393485784531E-001;-1.699336431920528E-002;2.879156265407801E-003;-3.799622179940343E-003;
2.413333333333334E+009;1.829193234443665E-001;-1.933137513697147E-002;2.736103255301714E-003;-3.942269366234541E-003;
2.413500000000000E+009;1.837673932313919E-001;-2.175725251436234E-002;2.728309016674757E-003;-3.954584244638681E-003;
2.413666666666667E+009;1.850164532661438E-001;-2.379477210342884E-002;2.598688006401062E-003;-4.271813202649355E-003;
2.413833333333334E+009;1.860748082399368E-001;-2.589788474142551E-002;2.374324016273022E-003;-4.284941125661135E-003;
2.414000000000000E+009;1.871925890445709E-001;-2.794669382274151E-002;2.192553598433733E-003;-4.514035303145647E-003;
2.414166666666667E+009;1.883681118488312E-001;-2.959234826266766E-002;1.909711631014943E-003;-4.554409999400377E-003;
2.414333333333334E+009;1.895993500947952E-001;-3.163488209247589E-002;1.847312552854419E-003;-4.787551239132881E-003;
2.414500000000000E+009;1.907682865858078E-001;-3.310586884617806E-002;1.560094999149442E-003;-4.616666119545698E-003;
2.414666666666667E+009;1.920081675052643E-001;-3.457470238208771E-002;1.376603613607585E-003;-4.744691308587790E-003;
2.414833333333334E+009;1.931434720754623E-001;-3.587646409869194E-002;1.059018308296800E-003;-4.826702177524567E-003;
2.415000000000000E+009;1.941996663808823E-001;-3.722548484802246E-002;9.313993505202234E-004;-4.896242171525955E-003;
2.415166666666667E+009;1.954842507839203E-001;-3.833202272653580E-002;8.192074601538479E-004;-4.793902859091759E-003;
2.415333333333334E+009;1.965226829051971E-001;-3.919414058327675E-002;4.399393219500780E-004;-4.828665871173143E-003;
2.415500000000000E+009;1.976870000362396E-001;-3.992199525237083E-002;4.005391965620220E-004;-4.733436275273562E-003;
2.415666666666667E+009;1.987143605947495E-001;-4.078959301114082E-002;8.571193757234141E-005;-4.781262017786503E-003;
2.415833333333334E+009;1.996195018291473E-001;-4.145778715610504E-002;-9.986132499761879E-005;-4.699185956269503E-003;
2.416000000000000E+009;2.002550661563873E-001;-4.199660196900368E-002;-1.574670313857496E-004;-4.782424774020910E-003;
2.416166666666667E+009;2.010503709316254E-001;-4.247299209237099E-002;-2.049946924671531E-004;-4.572201985865831E-003;
2.416333333333334E+009;2.016015350818634E-001;-4.272022470831871E-002;-4.941271618008614E-004;-4.640188999474049E-003;
2.416500000000000E+009;2.021211087703705E-001;-4.303060472011566E-002;-6.865725154057145E-004;-4.580778535455465E-003;
2.416666666666667E+009;2.023255378007889E-001;-4.327668622136116E-002;-6.714992341585457E-004;-4.637355450540781E-003;
2.416833333333334E+009;2.025941014289856E-001;-4.327255487442017E-002;-8.347402326762676E-004;-4.472419619560242E-003;
2.417000000000000E+009;2.026267349720001E-001;-4.326704517006874E-002;-9.918417781591415E-004;-4.402895458042622E-003;
2.417166666666667E+009;2.023899704217911E-001;-4.324419423937798E-002;-1.201506820507348E-003;-4.564273636788130E-003;
2.417333333333334E+009;2.022657394409180E-001;-4.297438263893127E-002;-1.208416651934385E-003;-4.457638133317232E-003;
2.417500000000000E+009;2.019382268190384E-001;-4.291208460927010E-002;-1.458206446841359E-003;-4.277936648577452E-003;
2.417666666666667E+009;2.013507634401321E-001;-4.278449341654778E-002;-1.556134549900889E-003;-4.335440229624510E-003;
2.417833333333334E+009;2.009267061948776E-001;-4.264358803629875E-002;-1.634867861866951E-003;-4.330915398895741E-003;
2.418000000000000E+009;2.002228349447250E-001;-4.227971285581589E-002;-1.774668344296515E-003;-4.265374504029751E-003;
2.418166666666667E+009;1.993820369243622E-001;-4.216798394918442E-002;-1.904960488900542E-003;-4.171074368059635E-003;
2.418333333333334E+009;1.983919739723206E-001;-4.197868332266808E-002;-2.126629231497645E-003;-4.023256246000528E-003;
2.418500000000000E+009;1.974490582942963E-001;-4.203107208013535E-002;-2.164157805964351E-003;-3.978739026933909E-003;
2.418666666666667E+009;1.965618431568146E-001;-4.193054139614105E-002;-2.266867784783244E-003;-3.773673204705119E-003;
2.418833333333334E+009;1.953095346689224E-001;-4.210033640265465E-002;-2.343259518966079E-003;-3.753954079002142E-003;
2.419000000000000E+009;1.939938664436340E-001;-4.221035540103912E-002;-2.435827860608697E-003;-3.626743797212839E-003;
2.419166666666667E+009;1.927205026149750E-001;-4.245191812515259E-002;-2.568967174738646E-003;-3.568429034203291E-003;
2.419333333333334E+009;1.911984980106354E-001;-4.287486895918846E-002;-2.638720441609621E-003;-3.492993535473943E-003;
2.419500000000000E+009;1.897795647382736E-001;-4.345235601067543E-002;-2.681821817532182E-003;-3.178030252456665E-003;
2.419666666666667E+009;1.882137507200241E-001;-4.412720352411270E-002;-2.796277171000838E-003;-3.112181555479765E-003;
2.419833333333334E+009;1.866030991077423E-001;-4.482725635170937E-002;-2.856998704373837E-003;-3.061422379687429E-003;
2.420000000000000E+009;1.850493997335434E-001;-4.566285759210587E-002;-2.843147143721581E-003;-3.069009399041534E-003;
2.420166666666667E+009;1.834481954574585E-001;-4.664084315299988E-002;-2.868690062314272E-003;-3.145988797768951E-003;
2.420333333333334E+009;1.816026270389557E-001;-4.776772856712341E-002;-2.911855932325125E-003;-3.095082938671112E-003;
2.420500000000000E+009;1.802364289760590E-001;-4.918889328837395E-002;-2.969100372865796E-003;-2.881623106077313E-003;
2.420666666666667E+009;1.784869283437729E-001;-5.026258528232575E-002;-3.101183567196131E-003;-2.862779190763831E-003;
2.420833333333334E+009;1.768209487199783E-001;-5.176359042525291E-002;-3.178441198542714E-003;-2.781148999929428E-003;
2.421000000000000E+009;1.752339601516724E-001;-5.333685129880905E-002;-3.296583425253630E-003;-2.680996898561716E-003;
2.421166666666667E+009;1.740457713603973E-001;-5.502643063664436E-002;-3.287511644884944E-003;-2.716735005378723E-003;
2.421333333333334E+009;1.723939627408981E-001;-5.658052861690521E-002;-3.396167652681470E-003;-2.502641873434186E-003;
2.421500000000000E+009;1.708687841892242E-001;-5.855955183506012E-002;-3.644886426627636E-003;-2.367620356380940E-003;
2.421666666666667E+009;1.697428375482559E-001;-6.026952341198921E-002;-3.682279493659735E-003;-2.398636424914002E-003;
2.421833333333334E+009;1.686275899410248E-001;-6.218525767326355E-002;-3.706587478518486E-003;-2.125331433489919E-003;
2.422000000000000E+009;1.675806194543839E-001;-6.422197073698044E-002;-3.851039335131645E-003;-1.849006745032966E-003;
2.422166666666667E+009;1.666748076677322E-001;-6.632537394762039E-002;-3.890538355335593E-003;-1.843147096224129E-003;
2.422333333333334E+009;1.658493727445602E-001;-6.842165440320969E-002;-3.881873795762658E-003;-1.752059441059828E-003;
2.422500000000000E+009;1.648950129747391E-001;-7.026062905788422E-002;-3.947381861507893E-003;-1.417126273736358E-003;
2.422666666666667E+009;1.641698330640793E-001;-7.247757911682129E-002;-3.925610799342394E-003;-1.458404818549752E-003;
2.422833333333334E+009;1.637812405824661E-001;-7.452709972858429E-002;-3.886789549142122E-003;-1.065424177795649E-003;
2.423000000000000E+009;1.631549447774887E-001;-7.657307386398315E-002;-3.848915221169591E-003;-1.096254447475076E-003;
2.423166666666667E+009;1.630527526140213E-001;-7.849617302417755E-002;-3.867460880428553E-003;-9.099316666834056E-004;
2.423333333333334E+009;1.627230942249298E-001;-8.061674982309341E-002;-3.891118336468935E-003;-9.954628767445684E-004;
2.423500000000000E+009;1.626756191253662E-001;-8.231542259454727E-002;-3.760074032470584E-003;-7.748637581244111E-004;
2.423666666666667E+009;1.627250164747238E-001;-8.425240963697434E-002;-3.858536481857300E-003;-6.263572722673416E-004;
2.423833333333334E+009;1.626621186733246E-001;-8.607888966798782E-002;-3.847322892397642E-003;-6.558512104675174E-004;
2.424000000000000E+009;1.628024876117706E-001;-8.785633742809296E-002;-4.062973894178867E-003;-5.715776351280510E-004;
2.424166666666667E+009;1.628176122903824E-001;-8.938522636890411E-002;-3.882232820615172E-003;-3.540670149959624E-004;
2.424333333333334E+009;1.630660295486450E-001;-9.105022251605988E-002;-4.018343985080719E-003;-3.348484169691801E-004;
2.424500000000000E+009;1.634851396083832E-001;-9.274061024188995E-002;-4.096848890185356E-003;-2.203395997639746E-004;
2.424666666666667E+009;1.638285666704178E-001;-9.396862238645554E-002;-4.040875006467104E-003;-1.351729151792824E-004;
2.424833333333334E+009;1.643357723951340E-001;-9.532519429922104E-002;-4.080892540514469E-003;9.629553824197501E-005;
2.425000000000000E+009;1.647137403488159E-001;-9.652622044086456E-002;-4.141988698393107E-003;2.209651138400659E-004;
2.425166666666667E+009;1.650292277336121E-001;-9.766785800457001E-002;-4.186870995908976E-003;4.175538779236376E-004;
2.425333333333334E+009;1.654055565595627E-001;-9.858802706003189E-002;-4.189618863165379E-003;7.691762875765562E-004;
2.425500000000000E+009;1.658898144960403E-001;-9.950456768274307E-002;-3.950780257582665E-003;8.355019963346422E-004;
2.425666666666667E+009;1.663027703762054E-001;-1.002181470394135E-001;-4.024701658636332E-003;1.003114273771644E-003;
2.425833333333334E+009;1.665920913219452E-001;-1.010921299457550E-001;-3.828656161203980E-003;1.232747919857502E-003;
2.426000000000000E+009;1.670148521661758E-001;-1.016711369156838E-001;-3.836379852145910E-003;1.425348105840385E-003;
2.426166666666667E+009;1.675533801317215E-001;-1.021138504147530E-001;-3.638693597167730E-003;1.407363568432629E-003;
2.426333333333334E+009;1.676636934280396E-001;-1.024870425462723E-001;-3.651445964351296E-003;1.643675030209124E-003;
2.426500000000000E+009;1.679851263761520E-001;-1.027536541223526E-001;-3.620183328166604E-003;1.567457220517099E-003;
2.426666666666667E+009;1.682445704936981E-001;-1.030671596527100E-001;-3.476316574960947E-003;1.729371957480907E-003;
2.426833333333334E+009;1.685094684362412E-001;-1.034422293305397E-001;-3.411871846765280E-003;1.724138623103499E-003;
2.427000000000000E+009;1.684507578611374E-001;-1.036417409777641E-001;-3.301081247627735E-003;1.899842289276421E-003;
2.427166666666667E+009;1.685034036636353E-001;-1.036631911993027E-001;-3.231396898627281E-003;1.977089559659362E-003;
2.427333333333334E+009;1.684633195400238E-001;-1.038834378123283E-001;-3.054015105590224E-003;2.071381080895662E-003;
2.427500000000000E+009;1.681463271379471E-001;-1.039942577481270E-001;-3.025698475539684E-003;2.247274853289127E-003;
2.427666666666667E+009;1.678506582975388E-001;-1.040657982230187E-001;-2.738610608503223E-003;2.161886775866151E-003;
