# Version 1.00
#
freq[Hz];re:Trc1_S11;im:Trc1_S11;re:Trc2_S21;im:Trc2_S21;
2.400000000000000E+009;1.587274372577667E-001;6.304317712783814E-002;2.880911633837968E-004;-7.725204923190177E-004;
2.400166666666667E+009;1.585239470005035E-001;6.144181638956070E-002;3.522012848407030E-004;-7.456292514689267E-004;
2.400333333333334E+009;1.583725512027741E-001;5.969544500112534E-002;4.646274901460856E-004;-8.454258786514401E-004;
2.400500000000000E+009;1.584125012159348E-001;5.776468664407730E-002;5.915735964663327E-004;-8.723017526790500E-004;
2.400666666666667E+009;1.581321060657501E-001;5.556643009185791E-002;4.081277875229716E-004;-9.216279140673578E-004;
2.400833333333334E+009;1.581780016422272E-001;5.370615050196648E-002;4.974832409061492E-004;-9.723884868435562E-004;
2.401000000000000E+009;1.582859456539154E-001;5.170680955052376E-002;6.878433632664383E-004;-9.641874348744750E-004;
2.401166666666667E+009;1.584708839654923E-001;4.970258474349976E-002;5.016632494516671E-004;-1.052971463650465E-003;
2.401333333333334E+009;1.587106287479401E-001;4.753474518656731E-002;6.364028085954487E-004;-1.068099169060588E-003;
2.401500000000000E+009;1.589279323816299E-001;4.542781785130501E-002;5.040588439442217E-004;-1.309147570282221E-003;
2.401666666666667E+009;1.591047048568726E-001;4.338189959526062E-002;4.418214375618845E-004;-1.378087210468948E-003;
2.401833333333334E+009;1.594346463680267E-001;4.143268615007401E-002;4.564561240840703E-004;-1.506095286458731E-003;
2.402000000000000E+009;1.596797555685043E-001;3.944532200694084E-002;5.579206626862288E-004;-1.549407490529120E-003;
2.402166666666667E+009;1.602441519498825E-001;3.729632496833801E-002;4.805124772246927E-004;-1.641257666051388E-003;
2.402333333333334E+009;1.606846153736115E-001;3.533826023340225E-002;5.464196437969804E-004;-1.727568684145808E-003;
2.402500000000000E+009;1.614665687084198E-001;3.349458426237106E-002;4.123834951315075E-004;-1.817155163735151E-003;
2.402666666666667E+009;1.619811505079269E-001;3.180748596787453E-002;3.595128655433655E-004;-1.786634675227106E-003;
2.402833333333334E+009;1.627188622951508E-001;2.996996603906155E-002;3.693492617458105E-004;-1.976653002202511E-003;
2.403000000000000E+009;1.634947657585144E-001;2.822727523744106E-002;7.825311331544071E-005;-2.269478980451822E-003;
2.403166666666667E+009;1.644987314939499E-001;2.662395127117634E-002;2.074490621453151E-004;-2.079649595543742E-003;
2.403333333333334E+009;1.652047634124756E-001;2.515442110598087E-002;-6.830129859736189E-005;-2.173057291656733E-003;
2.403500000000000E+009;1.659778654575348E-001;2.356783114373684E-002;-8.236897701863200E-005;-2.228137571364641E-003;
2.403666666666667E+009;1.669805794954300E-001;2.217352017760277E-002;-2.980261342599988E-004;-2.160879084840417E-003;
2.403833333333334E+009;1.680442541837692E-001;2.085362933576107E-002;-2.666141372174025E-004;-2.265892922878265E-003;
2.404000000000000E+009;1.690207868814468E-001;1.956172659993172E-002;-3.924621851183474E-004;-2.182204043492675E-003;
2.404166666666667E+009;1.698734164237976E-001;1.836117543280125E-002;-4.333821416366845E-004;-2.244924893602729E-003;
2.404333333333334E+009;1.708047837018967E-001;1.730974763631821E-002;-5.023706471547484E-004;-2.133911009877920E-003;
2.404500000000000E+009;1.717270463705063E-001;1.629947125911713E-002;-7.219445542432368E-004;-2.251012250781059E-003;
2.404666666666667E+009;1.727229356765747E-001;1.531295385211706E-002;-7.211192860268056E-004;-2.195902634412050E-003;
2.404833333333334E+009;1.737195402383804E-001;1.457221060991287E-002;-9.060011361725628E-004;-2.230484969913960E-003;
2.405000000000000E+009;1.744139492511749E-001;1.395052857697010E-002;-8.332108263857663E-004;-2.269458724185824E-003;
2.405166666666667E+009;1.754370480775833E-001;1.296724844723940E-002;-1.039691735059023E-003;-2.382495906203985E-003;
2.405333333333334E+009;1.763461977243424E-001;1.243439782410860E-002;-1.098734326660633E-003;-2.070618793368340E-003;
2.405500000000000E+009;1.770906150341034E-001;1.201276015490294E-002;-1.130492892116308E-003;-2.048525726422668E-003;
2.405666666666667E+009;1.779325753450394E-001;1.159506756812334E-002;-1.181127969175577E-003;-2.082815859466791E-003;
2.405833333333334E+009;1.784210503101349E-001;1.108914799988270E-002;-1.239608158357441E-003;-1.926603959873319E-003;
2.406000000000000E+009;1.789701133966446E-001;1.057925075292587E-002;-1.360740046948195E-003;-1.968707423657179E-003;
2.406166666666667E+009;1.794788837432861E-001;1.042091473937035E-002;-1.423672772943974E-003;-1.974510494619608E-003;
2.406333333333334E+009;1.799920350313187E-001;9.913218207657337E-003;-1.516458694823086E-003;-2.161099808290601E-003;
2.406500000000000E+009;1.804582625627518E-001;9.586240164935589E-003;-1.574378111399710E-003;-1.915766391903162E-003;
2.406666666666667E+009;1.803649067878723E-001;9.373940527439117E-003;-1.694791717454791E-003;-2.090480644255877E-003;
2.406833333333334E+009;1.807470768690109E-001;9.124192409217358E-003;-1.883645192719996E-003;-1.923072850331664E-003;
2.407000000000000E+009;1.808135360479355E-001;8.654049597680569E-003;-1.925553195178509E-003;-1.903583994135261E-003;
2.407166666666667E+009;1.810890138149262E-001;8.372507058084011E-003;-1.982068642973900E-003;-1.867478247731924E-003;
2.407333333333334E+009;1.808325052261353E-001;8.006840012967587E-003;-2.244159346446395E-003;-1.842368859797716E-003;
2.407500000000000E+009;1.807244420051575E-001;7.631246931850910E-003;-2.110310597345233E-003;-1.638865564018488E-003;
2.407666666666667E+009;1.806763261556625E-001;7.342038676142693E-003;-2.237248932942748E-003;-1.486981636844575E-003;
2.407833333333334E+009;1.801336407661438E-001;6.735947448760271E-003;-2.183140954002738E-003;-1.592379878275096E-003;
2.408000000000000E+009;1.799654513597488E-001;6.048946175724268E-003;-2.228311263024807E-003;-1.536904484964907E-003;
2.408166666666667E+009;1.794853210449219E-001;5.675836466252804E-003;-2.419831929728389E-003;-1.525981584563851E-003;
2.408333333333334E+009;1.792499125003815E-001;5.058390088379383E-003;-2.413015346974134E-003;-1.270098495297134E-003;
2.408500000000000E+009;1.785858422517777E-001;4.143209662288427E-003;-2.413537120446563E-003;-1.127563882619143E-003;
2.408666666666667E+009;1.780868917703629E-001;3.216616809368134E-003;-2.357649151235819E-003;-1.166753703728318E-003;
2.408833333333334E+009;1.773407757282257E-001;2.496944740414619E-003;-2.598709426820278E-003;-1.039732364006341E-003;
2.409000000000000E+009;1.764653474092484E-001;1.401569810695946E-003;-2.509723650291562E-003;-9.675122564658523E-004;
2.409166666666667E+009;1.760882139205933E-001;4.169989551883191E-004;-2.635132288560271E-003;-9.514581761322916E-004;
2.409333333333334E+009;1.754478514194489E-001;-7.245038868859410E-004;-2.547470387071371E-003;-8.997449185699225E-004;
2.409500000000000E+009;1.746389418840408E-001;-2.243482042104006E-003;-2.621240448206663E-003;-7.133083418011665E-004;
2.409666666666667E+009;1.739406734704971E-001;-3.290161956101656E-003;-2.652081893756986E-003;-6.783310673199594E-004;
2.409833333333334E+009;1.731662005186081E-001;-4.621385131031275E-003;-2.564500784501433E-003;-6.071965908631682E-004;
2.410000000000000E+009;1.725192815065384E-001;-6.093706469982863E-003;-2.688077976927161E-003;-6.272672908380628E-004;
2.410166666666667E+009;1.718922406435013E-001;-7.789046037942171E-003;-2.727245679125190E-003;-5.581926088780165E-004;
2.410333333333334E+009;1.711657941341400E-001;-9.479513391852379E-003;-2.819164423272014E-003;-5.692726699635387E-004;
2.410500000000000E+009;1.707327812910080E-001;-1.105572655797005E-002;-2.776553621515632E-003;-5.631065578199923E-004;
2.410666666666667E+009;1.700855940580368E-001;-1.282038632780314E-002;-2.730313921347261E-003;-5.646450445055962E-004;
2.410833333333334E+009;1.697283983230591E-001;-1.447757985442877E-002;-2.859384519979358E-003;-3.359251713845879E-004;
2.411000000000000E+009;1.692075282335281E-001;-1.625166647136211E-002;-2.878895960748196E-003;-4.217237874399871E-004;
2.411166666666667E+009;1.688238382339478E-001;-1.819850876927376E-002;-2.992907539010048E-003;-2.526638272684068E-004;
2.411333333333334E+009;1.685775369405747E-001;-2.007484808564186E-002;-2.999272430315614E-003;-7.760462722217199E-006;
2.411500000000000E+009;1.682774871587753E-001;-2.217555418610573E-002;-3.110165242105722E-003;-1.240409037563950E-004;
2.411666666666667E+009;1.681919991970062E-001;-2.393531613051891E-002;-3.047712380066514E-003;3.526542786858045E-005;
2.411833333333334E+009;1.680909991264343E-001;-2.580994367599487E-002;-3.278170479461551E-003;2.853812475223094E-004;
2.412000000000000E+009;1.681475192308426E-001;-2.796726487576962E-002;-3.125909948721528E-003;2.458423259668052E-004;
2.412166666666667E+009;1.682471334934235E-001;-2.966315858066082E-002;-3.307133680209518E-003;4.171473847236484E-004;
2.412333333333334E+009;1.683283001184464E-001;-3.166822716593742E-002;-3.335105953738093E-003;5.427203141152859E-004;
2.412500000000000E+009;1.683946847915649E-001;-3.339930623769760E-002;-3.262108191847801E-003;5.599496071226895E-004;
2.412666666666667E+009;1.688783317804337E-001;-3.562701493501663E-002;-3.408211050555110E-003;8.269225945696235E-004;
2.412833333333334E+009;1.691526621580124E-001;-3.734027594327927E-002;-3.359466558322310E-003;1.098340260796249E-003;
2.413000000000000E+009;1.694693714380264E-001;-3.917502611875534E-002;-3.229154739528894E-003;1.209221663884819E-003;
2.413166666666667E+009;1.698381900787354E-001;-4.089798405766487E-002;-3.266127780079842E-003;1.174612203612924E-003;
2.413333333333334E+009;1.702070832252502E-001;-4.267479851841927E-002;-3.341372823342681E-003;1.297315582633019E-003;
2.413500000000000E+009;1.707971543073654E-001;-4.434445872902870E-002;-3.067248733714223E-003;1.427396549843252E-003;
2.413666666666667E+009;1.713069826364517E-001;-4.601063206791878E-002;-3.154167905449867E-003;1.757521415129304E-003;
2.413833333333334E+009;1.718676686286926E-001;-4.747112840414047E-002;-3.098856424912810E-003;1.748179201968014E-003;
2.414000000000000E+009;1.721601933240891E-001;-4.895287007093430E-002;-3.016854170709848E-003;1.845482503995299E-003;
2.414166666666667E+009;1.728487163782120E-001;-5.030248314142227E-002;-2.880221465602517E-003;2.051673131063581E-003;
2.414333333333334E+009;1.733100414276123E-001;-5.172093212604523E-002;-2.804605755954981E-003;2.130969660356641E-003;
2.414500000000000E+009;1.741540133953095E-001;-5.292506515979767E-002;-2.622970845550299E-003;2.356120618060231E-003;
2.414666666666667E+009;1.745177209377289E-001;-5.379164218902588E-002;-2.492900472134352E-003;2.343606203794479E-003;
2.414833333333334E+009;1.750319898128510E-001;-5.503661930561066E-002;-2.479954622685909E-003;2.442309632897377E-003;
2.415000000000000E+009;1.754933297634125E-001;-5.583260580897331E-002;-2.360086655244231E-003;2.411118941381574E-003;
2.415166666666667E+009;1.757761985063553E-001;-5.660350620746613E-002;-2.233680570498109E-003;2.533088671043515E-003;
2.415333333333334E+009;1.763543188571930E-001;-5.751524120569229E-002;-2.286989474669099E-003;2.728552790358663E-003;
2.415500000000000E+009;1.767026484012604E-001;-5.815251171588898E-002;-1.981777371838689E-003;2.649182686582208E-003;
2.415666666666667E+009;1.768311113119125E-001;-5.858749896287918E-002;-1.959569286555052E-003;2.851338125765324E-003;
2.415833333333334E+009;1.772019565105438E-001;-5.922745168209076E-002;-1.758696860633791E-003;2.969759982079268E-003;
2.416000000000000E+009;1.772693097591400E-001;-5.958895385265350E-002;-1.673728926107287E-003;2.870538039132953E-003;
2.416166666666667E+009;1.775444149971008E-001;-6.002693995833397E-002;-1.575384754687548E-003;3.059787210077047E-003;
2.416333333333334E+009;1.776116192340851E-001;-6.040963530540466E-002;-1.483037834987044E-003;2.830774988979101E-003;
2.416500000000000E+009;1.774108707904816E-001;-6.077367812395096E-002;-1.238766126334667E-003;2.981493482366204E-003;
2.416666666666667E+009;1.771776825189591E-001;-6.093206256628037E-002;-1.359065878205001E-003;3.043972887098789E-003;
2.416833333333334E+009;1.769624054431915E-001;-6.128890439867973E-002;-1.136413076892495E-003;3.127045929431915E-003;
2.417000000000000E+009;1.765651702880859E-001;-6.154215335845947E-002;-1.160281244665384E-003;3.037737216800451E-003;
2.417166666666667E+009;1.762539446353912E-001;-6.156684458255768E-002;-1.109113567508757E-003;3.165572881698608E-003;
2.417333333333334E+009;1.757081001996994E-001;-6.182727962732315E-002;-9.747542790137231E-004;3.108828561380506E-003;
2.417500000000000E+009;1.750439256429672E-001;-6.227186322212219E-002;-9.774484205991030E-004;3.064038464799523E-003;
2.417666666666667E+009;1.746239066123962E-001;-6.241339445114136E-002;-7.315633120015264E-004;3.244083607569337E-003;
2.417833333333334E+009;1.737330406904221E-001;-6.246687471866608E-002;-7.326800259761512E-004;3.207674017176032E-003;
2.418000000000000E+009;1.729672998189926E-001;-6.286407262086868E-002;-5.893830675631762E-004;3.160111373290420E-003;
2.418166666666667E+009;1.719906479120255E-001;-6.305237114429474E-002;-5.121074500493705E-004;3.209615359082818E-003;
2.418333333333334E+009;1.713395863771439E-001;-6.354622542858124E-002;-4.285056493245065E-004;3.132487414404750E-003;
2.418500000000000E+009;1.700419336557388E-001;-6.378074735403061E-002;-3.328513121232390E-004;3.121911780908704E-003;
2.418666666666667E+009;1.691997349262238E-001;-6.437458097934723E-002;-2.771445433609188E-004;3.168195718899369E-003;
2.418833333333334E+009;1.679580211639404E-001;-6.480555236339569E-002;-1.548264262964949E-004;3.176360623911023E-003;
2.419000000000000E+009;1.666840761899948E-001;-6.536301225423813E-002;-1.364610852760961E-005;3.104137722402811E-003;
2.419166666666667E+009;1.655632406473160E-001;-6.594304740428925E-002;1.226772001245990E-004;3.120032371953130E-003;
2.419333333333334E+009;1.643349975347519E-001;-6.641092896461487E-002;3.524070780258626E-005;3.143950831145048E-003;
2.419500000000000E+009;1.632531583309174E-001;-6.757695972919464E-002;1.605389552423731E-004;3.328861435875297E-003;
2.419666666666667E+009;1.620856523513794E-001;-6.833260506391525E-002;2.242102636955679E-004;3.144026966765523E-003;
2.419833333333334E+009;1.608320027589798E-001;-6.907545030117035E-002;2.858529333025217E-004;3.210569964721799E-003;
2.420000000000000E+009;1.597752124071121E-001;-7.020480930805206E-002;3.678751818370074E-004;3.131120931357145E-003;
2.420166666666667E+009;1.585875898599625E-001;-7.130972295999527E-002;3.320997348055244E-004;2.960925223305821E-003;
2.420333333333334E+009;1.576246917247772E-001;-7.258344441652298E-002;5.953744985163212E-004;3.112921491265297E-003;
2.420500000000000E+009;1.566408127546310E-001;-7.350941002368927E-002;5.083378055132926E-004;3.093587234616280E-003;
2.420666666666667E+009;1.556254625320435E-001;-7.479584962129593E-002;5.971771315671504E-004;3.041042713448405E-003;
2.420833333333334E+009;1.547237932682037E-001;-7.630102336406708E-002;6.989979883655906E-004;3.017871873453260E-003;
2.421000000000000E+009;1.538334488868713E-001;-7.780544459819794E-002;7.264745654538274E-004;3.037570742890239E-003;
2.421166666666667E+009;1.532506197690964E-001;-7.914399355649948E-002;8.732933783903718E-004;2.925602486357093E-003;
2.421333333333334E+009;1.524786204099655E-001;-8.068725466728210E-002;8.748708642087877E-004;2.881377004086971E-003;
2.421500000000000E+009;1.515358984470367E-001;-8.220402896404266E-002;1.020094379782677E-003;2.884575398638845E-003;
2.421666666666667E+009;1.510558575391769E-001;-8.379706740379334E-002;1.006495556794107E-003;2.844652859494090E-003;
2.421833333333334E+009;1.506778746843338E-001;-8.552316576242447E-002;1.004758873023093E-003;2.847576281055808E-003;
2.422000000000000E+009;1.501401960849762E-001;-8.732251077890396E-002;1.086100819520652E-003;2.876110840588808E-003;
2.422166666666667E+009;1.498422324657440E-001;-8.914137631654739E-002;1.044365228153765E-003;2.915326505899429E-003;
2.422333333333334E+009;1.498594135046005E-001;-9.080507606267929E-002;1.200143247842789E-003;2.966567175462842E-003;
2.422500000000000E+009;1.493918448686600E-001;-9.237912297248840E-002;1.460883766412735E-003;2.866321243345738E-003;
2.422666666666667E+009;1.493905186653137E-001;-9.413263201713562E-002;1.370988087728620E-003;2.998245880007744E-003;
2.422833333333334E+009;1.493935585021973E-001;-9.597873687744141E-002;1.721968990750611E-003;2.944984706118703E-003;
2.423000000000000E+009;1.495207697153091E-001;-9.751456975936890E-002;1.475994358770549E-003;2.827338874340057E-003;
2.423166666666667E+009;1.497716605663300E-001;-9.910836815834045E-002;1.730796764604747E-003;2.893244614824653E-003;
2.423333333333334E+009;1.501433104276657E-001;-1.007102578878403E-001;1.786520122550428E-003;2.937484066933394E-003;
2.423500000000000E+009;1.502003222703934E-001;-1.023450270295143E-001;1.868705032393336E-003;2.919759601354599E-003;
2.423666666666667E+009;1.505205482244492E-001;-1.037782281637192E-001;1.908998121507466E-003;2.862951951101422E-003;
2.423833333333334E+009;1.509950160980225E-001;-1.053919643163681E-001;2.078630495816469E-003;2.867216942831874E-003;
2.424000000000000E+009;1.512791514396668E-001;-1.065369322896004E-001;2.355915028601885E-003;2.859235508367419E-003;
2.424166666666667E+009;1.516553461551666E-001;-1.080860197544098E-001;2.384724095463753E-003;2.593442099168897E-003;
2.424333333333334E+009;1.522746533155441E-001;-1.091783121228218E-001;2.593657933175564E-003;2.763824770227075E-003;
2.424500000000000E+009;1.527623236179352E-001;-1.104720309376717E-001;2.711851382628083E-003;2.699326490983367E-003;
2.424666666666667E+009;1.532804518938065E-001;-1.113778054714203E-001;2.653350355103612E-003;2.577866660431027E-003;
2.424833333333334E+009;1.535857766866684E-001;-1.124570071697235E-001;2.746349200606346E-003;2.507291967049241E-003;
2.425000000000000E+009;1.541908234357834E-001;-1.133945286273956E-001;2.978212898597121E-003;2.464378951117396E-003;
2.425166666666667E+009;1.544356048107147E-001;-1.142649948596954E-001;2.970932284370065E-003;2.438274445012212E-003;
2.425333333333334E+009;1.548449844121933E-001;-1.150670275092125E-001;3.175521036610007E-003;2.206720644608140E-003;
2.425500000000000E+009;1.553887724876404E-001;-1.157795637845993E-001;3.415087470784783E-003;2.152002416551113E-003;
2.425666666666667E+009;1.555204838514328E-001;-1.163664162158966E-001;3.273491747677326E-003;2.116113668307662E-003;
2.425833333333334E+009;1.558025628328323E-001;-1.169515550136566E-001;3.410853678360581E-003;1.962587237358093E-003;
2.426000000000000E+009;1.559758484363556E-001;-1.175341457128525E-001;3.638375550508499E-003;1.675368519499898E-003;
2.426166666666667E+009;1.563918888568878E-001;-1.179569512605667E-001;3.570465138182044E-003;1.786028267815709E-003;
2.426333333333334E+009;1.562904566526413E-001;-1.182841807603836E-001;3.767039394006133E-003;1.514429459348321E-003;
2.426500000000000E+009;1.564193814992905E-001;-1.184757798910141E-001;3.735029604285955E-003;1.445948146283627E-003;
2.426666666666667E+009;1.564844995737076E-001;-1.187636852264404E-001;3.932301886379719E-003;1.331267645582557E-003;
2.426833333333334E+009;1.562040597200394E-001;-1.190154850482941E-001;3.975093830376864E-003;1.185501459985972E-003;
2.427000000000000E+009;1.559330224990845E-001;-1.193229928612709E-001;4.146217834204435E-003;9.949506493285298E-004;
2.427166666666667E+009;1.555132418870926E-001;-1.192085891962051E-001;3.986135125160217E-003;9.587690001353622E-004;
2.427333333333334E+009;1.552088409662247E-001;-1.194504871964455E-001;4.105439409613609E-003;7.525119581259787E-004;
2.427500000000000E+009;1.547345370054245E-001;-1.193908527493477E-001;4.179132636636496E-003;5.704349023289979E-004;
2.427666666666667E+009;1.539967656135559E-001;-1.197028830647469E-001;4.167617764323950E-003;4.029887204524130E-004;
