# Version 1.00
#
freq[Hz];re:Trc1_S11;im:Trc1_S11;re:Trc2_S21;im:Trc2_S21;
2.400000000000000E+009;1.584464609622955E-001;6.313511729240418E-002;2.390521549386904E-004;-7.717649568803608E-004;
2.400166666666667E+009;1.584087908267975E-001;6.161532923579216E-002;2.662112528923899E-004;-9.765053982846439E-004;
2.400333333333334E+009;1.582185328006744E-001;5.954726040363312E-002;3.336943045724183E-004;-9.094199631363154E-004;
2.400500000000000E+009;1.580908596515656E-001;5.779070034623146E-002;3.110786492470652E-004;-9.202586370520294E-004;
2.400666666666667E+009;1.579286456108093E-001;5.560570582747459E-002;4.333586548455060E-004;-8.901393739506602E-004;
2.400833333333334E+009;1.583058238029480E-001;5.383331328630447E-002;4.522108065430075E-004;-9.546757792122662E-004;
2.401000000000000E+009;1.582298874855042E-001;5.195252597332001E-002;3.764870634768158E-004;-1.111026736907661E-003;
2.401166666666667E+009;1.584137082099915E-001;4.965393245220184E-002;5.253727431409061E-004;-1.155901583842933E-003;
2.401333333333334E+009;1.583659797906876E-001;4.752004891633987E-002;5.290115950629115E-004;-1.276571536436677E-003;
2.401500000000000E+009;1.588207781314850E-001;4.546951875090599E-002;5.223547341302037E-004;-1.235274132341147E-003;
2.401666666666667E+009;1.591839641332626E-001;4.350312799215317E-002;5.876465002074838E-004;-1.282817567698658E-003;
2.401833333333334E+009;1.594060659408569E-001;4.145810753107071E-002;7.437995518557727E-004;-1.428356743417680E-003;
2.402000000000000E+009;1.597793698310852E-001;3.941998630762100E-002;5.501650157384574E-004;-1.547521678730846E-003;
2.402166666666667E+009;1.601968854665756E-001;3.738964349031448E-002;4.278290143702179E-004;-1.671175821684301E-003;
2.402333333333334E+009;1.606404632329941E-001;3.535493090748787E-002;2.580960281193256E-004;-1.773509779013693E-003;
2.402500000000000E+009;1.613004654645920E-001;3.352088853716850E-002;2.870738389901817E-004;-1.862711273133755E-003;
2.402666666666667E+009;1.619083881378174E-001;3.180749341845512E-002;2.491415070835501E-004;-1.813602633774281E-003;
2.402833333333334E+009;1.625577956438065E-001;2.998373843729496E-002;2.174184919567779E-004;-1.877314061857760E-003;
2.403000000000000E+009;1.634541153907776E-001;2.831332944333553E-002;3.021833981620148E-005;-2.081394195556641E-003;
2.403166666666667E+009;1.643646210432053E-001;2.675101533532143E-002;1.845412916736677E-004;-2.017973223701119E-003;
2.403333333333334E+009;1.652387082576752E-001;2.517156675457954E-002;1.249805645784363E-004;-2.195541979745030E-003;
2.403500000000000E+009;1.660626083612442E-001;2.360202372074127E-002;-4.392947084852494E-005;-2.197657478973270E-003;
2.403666666666667E+009;1.670302301645279E-001;2.211808972060680E-002;-3.578044997993857E-004;-2.188470913097262E-003;
2.403833333333334E+009;1.680326014757156E-001;2.081217803061009E-002;-3.976831503678113E-004;-2.173793269321322E-003;
2.404000000000000E+009;1.689702272415161E-001;1.959382183849812E-002;-3.841786237899214E-004;-2.277698833495379E-003;
2.404166666666667E+009;1.700015366077423E-001;1.853563264012337E-002;-6.315268692560494E-004;-2.200837479904294E-003;
2.404333333333334E+009;1.707854568958283E-001;1.723377965390682E-002;-7.051313295960426E-004;-2.240673173218966E-003;
2.404500000000000E+009;1.718852519989014E-001;1.623988710343838E-002;-8.119486737996340E-004;-2.167685888707638E-003;
2.404666666666667E+009;1.727591753005981E-001;1.540159899741411E-002;-9.092131513170898E-004;-2.249400131404400E-003;
2.404833333333334E+009;1.736589223146439E-001;1.449786778539419E-002;-8.684231434017420E-004;-2.314321696758270E-003;
2.405000000000000E+009;1.745319068431854E-001;1.373926550149918E-002;-1.238188706338406E-003;-2.064699074253440E-003;
2.405166666666667E+009;1.754516512155533E-001;1.309237070381641E-002;-1.096227439120412E-003;-2.180810319259763E-003;
2.405333333333334E+009;1.762396842241287E-001;1.236431859433651E-002;-1.239335746504366E-003;-2.149393549188972E-003;
2.405500000000000E+009;1.770579665899277E-001;1.180813647806644E-002;-1.254971139132977E-003;-2.051223302260041E-003;
2.405666666666667E+009;1.777251809835434E-001;1.151232887059450E-002;-1.358117093332112E-003;-1.995575381442905E-003;
2.405833333333334E+009;1.782286465167999E-001;1.097667496651411E-002;-1.514872652478516E-003;-2.014313358813524E-003;
2.406000000000000E+009;1.789382249116898E-001;1.051749195903540E-002;-1.519250334240496E-003;-2.038516569882631E-003;
2.406166666666667E+009;1.793229430913925E-001;1.044590119272471E-002;-1.480552018620074E-003;-1.948304940015078E-003;
2.406333333333334E+009;1.799465417861939E-001;9.986075572669506E-003;-1.714247278869152E-003;-1.946982927620411E-003;
2.406500000000000E+009;1.802154183387756E-001;9.761109016835690E-003;-1.641893875785172E-003;-1.832359470427036E-003;
2.406666666666667E+009;1.804075390100479E-001;9.518177248537540E-003;-1.854575704783201E-003;-1.822554739192128E-003;
2.406833333333334E+009;1.807123720645905E-001;9.157233871519566E-003;-2.031627576798201E-003;-1.753875170834363E-003;
2.407000000000000E+009;1.807361394166946E-001;8.841075003147125E-003;-2.029706723988056E-003;-1.630340702831745E-003;
2.407166666666667E+009;1.809574812650681E-001;8.526374585926533E-003;-2.207677112892270E-003;-1.619270653463900E-003;
2.407333333333334E+009;1.808199733495712E-001;8.121026679873467E-003;-2.208855003118515E-003;-1.459179096855223E-003;
2.407500000000000E+009;1.806377768516541E-001;7.730345241725445E-003;-2.215554937720299E-003;-1.537355245091021E-003;
2.407666666666667E+009;1.804880201816559E-001;7.377769332379103E-003;-2.193789230659604E-003;-1.338315196335316E-003;
2.407833333333334E+009;1.801493614912033E-001;6.784836295992136E-003;-2.294541103765369E-003;-1.209035981446505E-003;
2.408000000000000E+009;1.797685772180557E-001;6.016823928803206E-003;-2.418626798316836E-003;-1.281051547266543E-003;
2.408166666666667E+009;1.793972104787827E-001;5.858056712895632E-003;-2.471357583999634E-003;-1.159243751317263E-003;
2.408333333333334E+009;1.791632175445557E-001;4.901397973299027E-003;-2.366828732192516E-003;-1.137768733315170E-003;
2.408500000000000E+009;1.786296516656876E-001;4.275633022189140E-003;-2.513450337573886E-003;-1.029524719342589E-003;
2.408666666666667E+009;1.778395920991898E-001;3.314986592158675E-003;-2.544547198340297E-003;-9.802806889638305E-004;
2.408833333333334E+009;1.772748529911041E-001;2.393105300143361E-003;-2.509503159672022E-003;-1.006758771836758E-003;
2.409000000000000E+009;1.766711771488190E-001;1.569255837239325E-003;-2.520237350836396E-003;-8.596261031925678E-004;
2.409166666666667E+009;1.759163141250610E-001;4.045126261189580E-004;-2.499556867405772E-003;-7.288975175470114E-004;
2.409333333333334E+009;1.754187792539597E-001;-7.964742835611105E-004;-2.527492120862007E-003;-6.804390577599406E-004;
2.409500000000000E+009;1.745388954877853E-001;-1.978871412575245E-003;-2.386192558333278E-003;-6.117931916378439E-004;
2.409666666666667E+009;1.740292757749558E-001;-3.265656065195799E-003;-2.536619547754526E-003;-5.266293301247060E-004;
2.409833333333334E+009;1.731360852718353E-001;-4.667165689170361E-003;-2.547927433624864E-003;-4.862057685386390E-004;
2.410000000000000E+009;1.725324094295502E-001;-6.087377667427063E-003;-2.719118958339095E-003;-4.456535680219531E-004;
2.410166666666667E+009;1.720078736543655E-001;-7.540761493146420E-003;-2.680929843336344E-003;-3.985079238191247E-004;
2.410333333333334E+009;1.712200492620468E-001;-9.135622531175613E-003;-2.560230903327465E-003;-4.790849634446204E-004;
2.410500000000000E+009;1.705905050039291E-001;-1.092740520834923E-002;-2.763719996437430E-003;-3.558083553798497E-004;
2.410666666666667E+009;1.701823621988297E-001;-1.281104329973459E-002;-2.844846341758966E-003;-2.039526589214802E-004;
2.410833333333334E+009;1.698452383279800E-001;-1.443026494234800E-002;-2.827704884111881E-003;-2.053749485639855E-004;
2.411000000000000E+009;1.690872907638550E-001;-1.622990146279335E-002;-2.848896663635969E-003;-1.537218049634248E-004;
2.411166666666667E+009;1.688235402107239E-001;-1.819380000233650E-002;-2.877407008782029E-003;-2.281682827742770E-004;
2.411333333333334E+009;1.686078608036041E-001;-1.989743672311306E-002;-2.956724725663662E-003;-5.669146412401460E-005;
2.411500000000000E+009;1.683692634105682E-001;-2.187407575547695E-002;-3.000841243192554E-003;8.807366975815967E-005;
2.411666666666667E+009;1.682107001543045E-001;-2.383145317435265E-002;-3.122832858934999E-003;1.911381696118042E-004;
2.411833333333334E+009;1.681614667177200E-001;-2.566491439938545E-002;-2.998420502990484E-003;2.272914134664461E-004;
2.412000000000000E+009;1.682088524103165E-001;-2.774305082857609E-002;-3.077061846852303E-003;3.945523640140891E-004;
2.412166666666667E+009;1.681697517633438E-001;-2.970357239246368E-002;-3.198498627170920E-003;5.345639074221253E-004;
2.412333333333334E+009;1.684963703155518E-001;-3.166880458593369E-002;-2.884329995140433E-003;5.916535155847669E-004;
2.412500000000000E+009;1.686159670352936E-001;-3.361742943525314E-002;-3.094778396189213E-003;7.332419045269489E-004;
2.412666666666667E+009;1.687367856502533E-001;-3.561310470104218E-002;-3.256661118939519E-003;9.044936741702259E-004;
2.412833333333334E+009;1.691121160984039E-001;-3.737659007310867E-002;-3.207204630598426E-003;1.042107818648219E-003;
2.413000000000000E+009;1.694010347127914E-001;-3.921729698777199E-002;-3.173282835632563E-003;1.334059983491898E-003;
2.413166666666667E+009;1.697031110525131E-001;-4.107115045189858E-002;-3.341333009302616E-003;1.262478181160986E-003;
2.413333333333334E+009;1.703348606824875E-001;-4.261794686317444E-002;-3.236486343666911E-003;1.395309926010668E-003;
2.413500000000000E+009;1.707664728164673E-001;-4.437885060906410E-002;-3.009752603247762E-003;1.661842106841505E-003;
2.413666666666667E+009;1.713136136531830E-001;-4.607164487242699E-002;-3.080043708905578E-003;1.763582695275545E-003;
2.413833333333334E+009;1.717446297407150E-001;-4.753504693508148E-002;-2.972616814076901E-003;1.884535886347294E-003;
2.414000000000000E+009;1.721988916397095E-001;-4.888000711798668E-002;-2.939086174592376E-003;2.022166503593326E-003;
2.414166666666667E+009;1.728982627391815E-001;-5.024016648530960E-002;-2.804392483085394E-003;2.253549871966243E-003;
2.414333333333334E+009;1.733414083719254E-001;-5.158273503184319E-002;-2.720155986025930E-003;2.375036710873246E-003;
2.414500000000000E+009;1.740248799324036E-001;-5.270017310976982E-002;-2.641430590301752E-003;2.321510110050440E-003;
2.414666666666667E+009;1.744511127471924E-001;-5.379114672541618E-002;-2.521687187254429E-003;2.492258325219154E-003;
2.414833333333334E+009;1.749411076307297E-001;-5.498497560620308E-002;-2.433054847642779E-003;2.727672690525651E-003;
2.415000000000000E+009;1.753775030374527E-001;-5.570821091532707E-002;-2.278273925185204E-003;2.811818383634090E-003;
2.415166666666667E+009;1.758274883031845E-001;-5.657447874546051E-002;-2.043024171143770E-003;2.800739370286465E-003;
2.415333333333334E+009;1.763919442892075E-001;-5.733099579811096E-002;-1.932794228196144E-003;2.886283444240689E-003;
2.415500000000000E+009;1.766477525234222E-001;-5.792900174856186E-002;-1.700074761174619E-003;2.812712686136365E-003;
2.415666666666667E+009;1.769610345363617E-001;-5.843472853302956E-002;-1.655470114201307E-003;2.855372615158558E-003;
2.415833333333334E+009;1.772650480270386E-001;-5.910950899124146E-002;-1.720607164315879E-003;3.042732365429401E-003;
2.416000000000000E+009;1.771913468837738E-001;-5.965196713805199E-002;-1.696131774224341E-003;3.013253211975098E-003;
2.416166666666667E+009;1.776044964790344E-001;-6.001828238368034E-002;-1.340269343927503E-003;3.039384493604302E-003;
2.416333333333334E+009;1.774889379739761E-001;-6.022699549794197E-002;-1.349882804788649E-003;3.186095505952835E-003;
2.416500000000000E+009;1.774442940950394E-001;-6.069220975041390E-002;-1.338358619250357E-003;3.074487904086709E-003;
2.416666666666667E+009;1.772893965244293E-001;-6.095448881387711E-002;-1.130288001149893E-003;2.969812601804733E-003;
2.416833333333334E+009;1.771553754806519E-001;-6.124899163842201E-002;-1.192927360534668E-003;3.091390011832118E-003;
2.417000000000000E+009;1.765446811914444E-001;-6.146282330155373E-002;-8.989349589683116E-004;3.064839635044336E-003;
2.417166666666667E+009;1.763055622577667E-001;-6.156900525093079E-002;-8.767296676523984E-004;3.198759397491813E-003;
2.417333333333334E+009;1.757492870092392E-001;-6.177067011594772E-002;-6.505803903564811E-004;3.176283556967974E-003;
2.417500000000000E+009;1.751346737146378E-001;-6.218393519520760E-002;-7.985000265762210E-004;3.142675152048469E-003;
2.417666666666667E+009;1.745897978544235E-001;-6.220686808228493E-002;-7.137464126572013E-004;3.187288064509630E-003;
2.417833333333334E+009;1.738864034414291E-001;-6.247884780168533E-002;-4.240029375068843E-004;3.096587490290403E-003;
2.418000000000000E+009;1.729192137718201E-001;-6.290423870086670E-002;-3.798095567617565E-004;3.134181955829263E-003;
2.418166666666667E+009;1.719836145639420E-001;-6.301651895046234E-002;-3.252121096011251E-004;3.242518287152052E-003;
2.418333333333334E+009;1.712764054536820E-001;-6.343682110309601E-002;-3.168850962538272E-004;3.138025524094701E-003;
2.418500000000000E+009;1.701856553554535E-001;-6.387467682361603E-002;-1.726288755889982E-004;3.210068447515369E-003;
2.418666666666667E+009;1.691739708185196E-001;-6.430461257696152E-002;-1.179476093966514E-004;3.149563912302256E-003;
2.418833333333334E+009;1.679623723030090E-001;-6.481634825468063E-002;1.589148305356503E-004;3.013422247022390E-003;
2.419000000000000E+009;1.667045354843140E-001;-6.541723757982254E-002;6.097917867009528E-005;3.059990005567670E-003;
2.419166666666667E+009;1.656959950923920E-001;-6.609670072793961E-002;2.158815623261035E-004;3.097062464803457E-003;
2.419333333333334E+009;1.643584668636322E-001;-6.650699675083160E-002;1.281718286918476E-004;3.096778178587556E-003;
2.419500000000000E+009;1.631003767251968E-001;-6.747186183929443E-002;3.220271901227534E-004;3.000479191541672E-003;
2.419666666666667E+009;1.621065735816956E-001;-6.837589293718338E-002;3.778505779337138E-004;3.120484529063106E-003;
2.419833333333334E+009;1.609926819801331E-001;-6.919685751199722E-002;2.160674048354849E-004;2.945597050711513E-003;
2.420000000000000E+009;1.598904281854630E-001;-7.026909291744232E-002;3.547800879459828E-004;3.016792004927993E-003;
2.420166666666667E+009;1.585792303085327E-001;-7.136206328868866E-002;4.374221316538751E-004;2.974103670567274E-003;
2.420333333333334E+009;1.575656831264496E-001;-7.242856919765472E-002;7.728972123004496E-004;2.991689136251807E-003;
2.420500000000000E+009;1.565652489662170E-001;-7.357867062091827E-002;6.363293505273759E-004;3.013951238244772E-003;
2.420666666666667E+009;1.554998159408569E-001;-7.479651272296906E-002;7.153811748139560E-004;2.974767005071044E-003;
2.420833333333334E+009;1.547156423330307E-001;-7.615511119365692E-002;7.203268469311297E-004;2.863637171685696E-003;
2.421000000000000E+009;1.538204997777939E-001;-7.769908010959625E-002;7.120765512809157E-004;2.991246059536934E-003;
2.421166666666667E+009;1.529550105333328E-001;-7.911132276058197E-002;9.426508331671357E-004;2.924374537542462E-003;
2.421333333333334E+009;1.523515880107880E-001;-8.076979964971542E-002;9.608698310330510E-004;2.843918977305293E-003;
2.421500000000000E+009;1.516790241003037E-001;-8.222749829292297E-002;9.176357998512685E-004;2.715885872021318E-003;
2.421666666666667E+009;1.511006206274033E-001;-8.391228318214417E-002;1.069858553819358E-003;2.779878210276365E-003;
2.421833333333334E+009;1.505624353885651E-001;-8.553829044103622E-002;1.167155336588621E-003;3.004016587510705E-003;
2.422000000000000E+009;1.500994414091110E-001;-8.715455979108810E-002;1.164054265245795E-003;2.897606929764152E-003;
2.422166666666667E+009;1.498540639877319E-001;-8.914607018232346E-002;1.168713090009987E-003;2.860240172594786E-003;
2.422333333333334E+009;1.495544910430908E-001;-9.063416719436646E-002;1.229520887136459E-003;2.878458006307483E-003;
2.422500000000000E+009;1.494068056344986E-001;-9.224485605955124E-002;1.361167524009943E-003;2.915185876190662E-003;
2.422666666666667E+009;1.492716670036316E-001;-9.407719224691391E-002;1.404234906658530E-003;2.801144262775779E-003;
2.422833333333334E+009;1.494384109973908E-001;-9.592279791831970E-002;1.570518361404538E-003;2.903935499489307E-003;
2.423000000000000E+009;1.493185013532639E-001;-9.730629622936249E-002;1.652632025070489E-003;2.811354584991932E-003;
2.423166666666667E+009;1.496624499559403E-001;-9.907495975494385E-002;1.727710710838437E-003;2.898881211876869E-003;
2.423333333333334E+009;1.500372141599655E-001;-1.005685925483704E-001;1.749643939547241E-003;2.780724316835403E-003;
2.423500000000000E+009;1.501591950654984E-001;-1.022411659359932E-001;1.977908657863736E-003;2.803358482196927E-003;
2.423666666666667E+009;1.503574401140213E-001;-1.038039475679398E-001;2.049246337264776E-003;2.822294132784009E-003;
2.423833333333334E+009;1.508579254150391E-001;-1.053190752863884E-001;2.197566209360957E-003;2.802798757329583E-003;
2.424000000000000E+009;1.512596905231476E-001;-1.064327657222748E-001;2.288399497047067E-003;2.743213204666972E-003;
2.424166666666667E+009;1.515677273273468E-001;-1.079506203532219E-001;2.404642291367054E-003;2.726260805502534E-003;
2.424333333333334E+009;1.521708071231842E-001;-1.090862900018692E-001;2.428956562653184E-003;2.441751537844539E-003;
2.424500000000000E+009;1.527182459831238E-001;-1.102705970406532E-001;2.665980253368616E-003;2.794257597997785E-003;
2.424666666666667E+009;1.531922221183777E-001;-1.112234145402908E-001;2.647382207214832E-003;2.532623009756208E-003;
2.424833333333334E+009;1.536173224449158E-001;-1.123631596565247E-001;2.811877289786935E-003;2.654900075867772E-003;
2.425000000000000E+009;1.541194170713425E-001;-1.133792921900749E-001;2.826364245265722E-003;2.417476382106543E-003;
2.425166666666667E+009;1.543854773044586E-001;-1.143555939197540E-001;3.016223432496190E-003;2.230360638350248E-003;
2.425333333333334E+009;1.549025326967239E-001;-1.149982288479805E-001;3.107082098722458E-003;2.285268623381853E-003;
2.425500000000000E+009;1.553708314895630E-001;-1.157807931303978E-001;3.310695989057422E-003;2.170199062675238E-003;
2.425666666666667E+009;1.555185765028000E-001;-1.163539737462997E-001;3.270157147198916E-003;1.952120452187955E-003;
2.425833333333334E+009;1.558957248926163E-001;-1.169605776667595E-001;3.575612092390657E-003;1.833418267779052E-003;
2.426000000000000E+009;1.560364514589310E-001;-1.175066754221916E-001;3.560017328709364E-003;1.723730005323887E-003;
2.426166666666667E+009;1.563977003097534E-001;-1.178888529539108E-001;3.709240583702922E-003;1.711627934128046E-003;
2.426333333333334E+009;1.562995612621307E-001;-1.183389574289322E-001;3.660787828266621E-003;1.419684384018183E-003;
2.426500000000000E+009;1.563705056905747E-001;-1.185820102691650E-001;3.886018181219697E-003;1.404744805768132E-003;
2.426666666666667E+009;1.566017419099808E-001;-1.187053471803665E-001;3.921003546565771E-003;1.305700861848891E-003;
2.426833333333334E+009;1.562536954879761E-001;-1.189960017800331E-001;3.938369452953339E-003;1.070775906555355E-003;
2.427000000000000E+009;1.559920012950897E-001;-1.192714348435402E-001;3.953461535274983E-003;1.106029725633562E-003;
2.427166666666667E+009;1.555987000465393E-001;-1.192310005426407E-001;3.980133216828108E-003;8.949071052484214E-004;
2.427333333333334E+009;1.551488786935806E-001;-1.193763613700867E-001;3.954854793846607E-003;6.924890913069248E-004;
2.427500000000000E+009;1.547436714172363E-001;-1.195088848471642E-001;4.026285838335753E-003;6.241596420295537E-004;
2.427666666666667E+009;1.540684700012207E-001;-1.196627691388130E-001;4.164576996117830E-003;4.028601106256247E-004;
