# Version 1.00
#
freq[Hz];re:Trc1_S11;im:Trc1_S11;re:Trc2_S21;im:Trc2_S21;
2.400000000000000E+009;1.586300879716873E-001;6.304368376731873E-002;2.295606682309881E-004;-7.700456189922988E-004;
2.400166666666667E+009;1.586081832647324E-001;6.149253994226456E-002;4.385696665849537E-004;-8.757601608522236E-004;
2.400333333333334E+009;1.584029644727707E-001;5.961931496858597E-002;5.413161125034094E-004;-7.019756012596190E-004;
2.400500000000000E+009;1.582097262144089E-001;5.779037252068520E-002;4.419618053361774E-004;-9.543046471662819E-004;
2.400666666666667E+009;1.581801176071167E-001;5.569143965840340E-002;3.927554062101990E-004;-8.515387889929116E-004;
2.400833333333334E+009;1.582077145576477E-001;5.392090976238251E-002;5.775244790129364E-004;-8.094415534287691E-004;
2.401000000000000E+009;1.581750959157944E-001;5.158826336264610E-002;4.785840574186295E-004;-9.829858317971230E-004;
2.401166666666667E+009;1.584694385528565E-001;4.967926442623138E-002;6.155380979180336E-004;-9.413603693246841E-004;
2.401333333333334E+009;1.584203392267227E-001;4.752257093787193E-002;5.949260084889829E-004;-1.080460147932172E-003;
2.401500000000000E+009;1.589595079421997E-001;4.547860473394394E-002;5.092796054668725E-004;-9.987265802919865E-004;
2.401666666666667E+009;1.589970588684082E-001;4.351480677723885E-002;7.141288369894028E-004;-1.244527869857848E-003;
2.401833333333334E+009;1.593364626169205E-001;4.147621616721153E-002;5.135828396305442E-004;-1.427902723662555E-003;
2.402000000000000E+009;1.595430970191956E-001;3.944985941052437E-002;5.813138559460640E-004;-1.447175047360361E-003;
2.402166666666667E+009;1.601600795984268E-001;3.723899275064468E-002;5.450731259770691E-004;-1.508948160335422E-003;
2.402333333333334E+009;1.606245934963226E-001;3.537916392087936E-002;5.933821666985750E-004;-1.712784520350397E-003;
2.402500000000000E+009;1.615488380193710E-001;3.367940336465836E-002;3.612257714848965E-004;-1.708004041574895E-003;
2.402666666666667E+009;1.621346175670624E-001;3.178158029913902E-002;3.227613051421940E-004;-1.949900877662003E-003;
2.402833333333334E+009;1.626776009798050E-001;3.002904914319515E-002;4.147842118982226E-004;-1.958568580448628E-003;
2.403000000000000E+009;1.636302620172501E-001;2.835809439420700E-002;2.269136748509482E-004;-1.982798101380467E-003;
2.403166666666667E+009;1.645084470510483E-001;2.671533450484276E-002;1.543823018437251E-004;-1.985934562981129E-003;
2.403333333333334E+009;1.652251631021500E-001;2.523726969957352E-002;1.101020025089383E-004;-2.212189137935638E-003;
2.403500000000000E+009;1.660327315330505E-001;2.372538484632969E-002;-7.473198820662219E-006;-2.178861759603024E-003;
2.403666666666667E+009;1.669479906558991E-001;2.219196408987045E-002;-1.606110745342448E-004;-2.325747162103653E-003;
2.403833333333334E+009;1.681402176618576E-001;2.085818350315094E-002;-1.623671269044280E-004;-2.076329430565238E-003;
2.404000000000000E+009;1.689572930335999E-001;1.969707012176514E-002;-3.429593052715063E-004;-2.151308115571737E-003;
2.404166666666667E+009;1.699904501438141E-001;1.835100352764130E-002;-2.464500139467418E-004;-2.282771747559309E-003;
2.404333333333334E+009;1.707898229360580E-001;1.742490194737911E-002;-3.754659555852413E-004;-2.168548991903663E-003;
2.404500000000000E+009;1.718265563249588E-001;1.629166677594185E-002;-5.326818209141493E-004;-2.121866680681706E-003;
2.404666666666667E+009;1.728421151638031E-001;1.536860503256321E-002;-6.129651446826756E-004;-2.179740229621530E-003;
2.404833333333334E+009;1.735730022192001E-001;1.456170063465834E-002;-7.923808298073709E-004;-2.218736335635185E-003;
2.405000000000000E+009;1.746505796909332E-001;1.384781952947378E-002;-7.620276301167905E-004;-2.201599767431617E-003;
2.405166666666667E+009;1.754106283187866E-001;1.297959871590138E-002;-9.812207426875830E-004;-2.041800878942013E-003;
2.405333333333334E+009;1.763530224561691E-001;1.241250056773424E-002;-1.029084902256727E-003;-2.308707684278488E-003;
2.405500000000000E+009;1.770903617143631E-001;1.194235123693943E-002;-1.189655624330044E-003;-2.063805703073740E-003;
2.405666666666667E+009;1.778039038181305E-001;1.146792620420456E-002;-1.179626793600619E-003;-1.949926256202161E-003;
2.405833333333334E+009;1.783361881971359E-001;1.116126868873835E-002;-1.327543519437313E-003;-2.090652240440249E-003;
2.406000000000000E+009;1.789878606796265E-001;1.058082096278667E-002;-1.377766602672637E-003;-2.082414459437132E-003;
2.406166666666667E+009;1.793960779905319E-001;1.023581717163324E-002;-1.368183526210487E-003;-1.963421236723661E-003;
2.406333333333334E+009;1.801025271415710E-001;9.947123937308788E-003;-1.593794557265937E-003;-2.080464269965887E-003;
2.406500000000000E+009;1.802219152450562E-001;9.663756005465984E-003;-1.569266663864255E-003;-2.042828127741814E-003;
2.406666666666667E+009;1.804292052984238E-001;9.411724284291267E-003;-1.602266333065927E-003;-1.965575618669391E-003;
2.406833333333334E+009;1.807483285665512E-001;9.032600559294224E-003;-1.830810680985451E-003;-1.995995640754700E-003;
2.407000000000000E+009;1.808471530675888E-001;8.673063479363918E-003;-1.782635226845741E-003;-1.915009343065321E-003;
2.407166666666667E+009;1.810459196567535E-001;8.532064035534859E-003;-1.911389525048435E-003;-1.601231866516173E-003;
2.407333333333334E+009;1.807977110147476E-001;8.064013905823231E-003;-1.958968816325069E-003;-1.633289735764265E-003;
2.407500000000000E+009;1.808257699012756E-001;7.800378371030092E-003;-1.966560259461403E-003;-1.748141949065030E-003;
2.407666666666667E+009;1.805610358715057E-001;7.234464399516583E-003;-2.116543008014560E-003;-1.441613887436688E-003;
2.407833333333334E+009;1.801722198724747E-001;6.643814034759998E-003;-2.152277389541268E-003;-1.497794408351183E-003;
2.408000000000000E+009;1.799625605344772E-001;6.114463321864605E-003;-2.191297244280577E-003;-1.417608582414687E-003;
2.408166666666667E+009;1.794378757476807E-001;5.680868402123451E-003;-2.250801539048553E-003;-1.378926564939320E-003;
2.408333333333334E+009;1.792128831148148E-001;4.949548281729221E-003;-2.221133559942246E-003;-1.337618101388216E-003;
2.408500000000000E+009;1.785506010055542E-001;4.210441373288631E-003;-2.288073068484664E-003;-1.205424545332789E-003;
2.408666666666667E+009;1.780444979667664E-001;3.312901360914111E-003;-2.464295132085681E-003;-1.156477490440011E-003;
2.408833333333334E+009;1.773655116558075E-001;2.392073627561331E-003;-2.501239068806171E-003;-1.198749523609877E-003;
2.409000000000000E+009;1.765723675489426E-001;1.416478771716356E-003;-2.377148950472474E-003;-1.014280132949352E-003;
2.409166666666667E+009;1.761287152767181E-001;2.804542600642890E-004;-2.455289941281080E-003;-1.033509033732116E-003;
2.409333333333334E+009;1.754945814609528E-001;-8.214666158892214E-004;-2.456237096339464E-003;-9.242483647540212E-004;
2.409500000000000E+009;1.745457500219345E-001;-2.169220242649317E-003;-2.445344580337405E-003;-9.621977224014700E-004;
2.409666666666667E+009;1.738016307353973E-001;-3.385504242032766E-003;-2.521435031667352E-003;-9.934128029271960E-004;
2.409833333333334E+009;1.731333434581757E-001;-4.703509155660868E-003;-2.619305858388543E-003;-7.329494110308588E-004;
2.410000000000000E+009;1.726659834384918E-001;-6.182213313877583E-003;-2.452050568535924E-003;-7.173581398092210E-004;
2.410166666666667E+009;1.720484048128128E-001;-7.554289419203997E-003;-2.748482627794147E-003;-6.254069157876074E-004;
2.410333333333334E+009;1.712107807397842E-001;-9.204651229083538E-003;-2.727090148255229E-003;-5.455612554214895E-004;
2.410500000000000E+009;1.706880480051041E-001;-1.091473083943129E-002;-2.647058106958866E-003;-5.595139227807522E-004;
2.410666666666667E+009;1.702345460653305E-001;-1.276150345802307E-002;-2.793499967083335E-003;-4.544825351331383E-004;
2.410833333333334E+009;1.696791946887970E-001;-1.452492456883192E-002;-2.741660457104445E-003;-4.736311093438417E-004;
2.411000000000000E+009;1.692479103803635E-001;-1.619582809507847E-002;-2.981024794280529E-003;-3.333921486046165E-004;
2.411166666666667E+009;1.688367873430252E-001;-1.813098601996899E-002;-3.017601091414690E-003;-1.252746151294559E-004;
2.411333333333334E+009;1.685541868209839E-001;-1.997809670865536E-002;-2.975438954308629E-003;-7.758698484394699E-005;
2.411500000000000E+009;1.683149784803391E-001;-2.206773869693279E-002;-3.056200454011560E-003;9.093531843973324E-006;
2.411666666666667E+009;1.681922078132629E-001;-2.400285378098488E-002;-3.101873677223921E-003;4.083304884261452E-005;
2.411833333333334E+009;1.681104898452759E-001;-2.586651220917702E-002;-3.036996582522988E-003;-2.745069832599256E-005;
2.412000000000000E+009;1.681062430143356E-001;-2.802573144435883E-002;-3.173585981130600E-003;1.533296453999355E-004;
2.412166666666667E+009;1.681010872125626E-001;-2.974834665656090E-002;-3.175452817231417E-003;2.269328251713887E-004;
2.412333333333334E+009;1.684281080961227E-001;-3.162302821874619E-002;-3.328107995912433E-003;6.062420434318483E-004;
2.412500000000000E+009;1.685074269771576E-001;-3.343159332871437E-002;-3.241800004616380E-003;5.104423617012799E-004;
2.412666666666667E+009;1.688390523195267E-001;-3.568702936172485E-002;-3.208976006135345E-003;8.681281469762325E-004;
2.412833333333334E+009;1.691763699054718E-001;-3.737847506999970E-002;-3.344344673678279E-003;9.598424658179283E-004;
2.413000000000000E+009;1.695696562528610E-001;-3.919313475489616E-002;-3.242956474423409E-003;1.028345897793770E-003;
2.413166666666667E+009;1.697113066911697E-001;-4.102639481425285E-002;-3.159273881465197E-003;1.154946745373309E-003;
2.413333333333334E+009;1.701039224863052E-001;-4.270059242844582E-002;-3.310498548671603E-003;1.426271279342473E-003;
2.413500000000000E+009;1.708150655031204E-001;-4.437675699591637E-002;-3.246596781536937E-003;1.469823182560504E-003;
2.413666666666667E+009;1.712912321090698E-001;-4.608015716075897E-002;-3.095961408689618E-003;1.755198347382247E-003;
2.413833333333334E+009;1.717908531427383E-001;-4.750484228134155E-002;-3.052804386243224E-003;1.873436616733670E-003;
2.414000000000000E+009;1.721592396497726E-001;-4.910366609692574E-002;-2.968527376651764E-003;2.023848472163081E-003;
2.414166666666667E+009;1.729689538478851E-001;-5.012629553675652E-002;-2.887235255911946E-003;2.038434147834778E-003;
2.414333333333334E+009;1.732187122106552E-001;-5.169457197189331E-002;-2.895587589591742E-003;2.047562971711159E-003;
2.414500000000000E+009;1.740665286779404E-001;-5.278584733605385E-002;-2.733568428084254E-003;2.323494059965015E-003;
2.414666666666667E+009;1.744546145200729E-001;-5.384760722517967E-002;-2.727608429268003E-003;2.362243831157684E-003;
2.414833333333334E+009;1.749569624662399E-001;-5.496418103575707E-002;-2.490980317816138E-003;2.551674842834473E-003;
2.415000000000000E+009;1.754072606563568E-001;-5.567806214094162E-002;-2.328882925212383E-003;2.525286516174674E-003;
2.415166666666667E+009;1.758727729320526E-001;-5.658126622438431E-002;-2.201672876253724E-003;2.572682453319430E-003;
2.415333333333334E+009;1.762446314096451E-001;-5.747823044657707E-002;-2.158944495022297E-003;2.749106613919139E-003;
2.415500000000000E+009;1.766720712184906E-001;-5.803563073277473E-002;-2.023380948230624E-003;2.747587859630585E-003;
2.415666666666667E+009;1.769690662622452E-001;-5.851522833108902E-002;-1.847066101618111E-003;2.791489707306027E-003;
2.415833333333334E+009;1.772728711366653E-001;-5.924422666430473E-002;-1.879374729469419E-003;2.938720164820552E-003;
2.416000000000000E+009;1.772090345621109E-001;-5.968524888157845E-002;-1.713417354039848E-003;2.884628484025598E-003;
2.416166666666667E+009;1.776244342327118E-001;-6.003832444548607E-002;-1.494533149525523E-003;2.895117038860917E-003;
2.416333333333334E+009;1.774009615182877E-001;-6.039002537727356E-002;-1.553084002807736E-003;3.093284089118242E-003;
2.416500000000000E+009;1.773077994585037E-001;-6.077034026384354E-002;-1.475243829190731E-003;3.003114601597190E-003;
2.416666666666667E+009;1.772209405899048E-001;-6.102433428168297E-002;-1.427992479875684E-003;2.998739946633577E-003;
2.416833333333334E+009;1.770931631326675E-001;-6.139028817415237E-002;-1.235173782333732E-003;2.932280534878373E-003;
2.417000000000000E+009;1.766174435615540E-001;-6.158063188195229E-002;-1.125501585192978E-003;3.136805957183242E-003;
2.417166666666667E+009;1.762761026620865E-001;-6.160192936658859E-002;-9.392909705638886E-004;3.140894696116447E-003;
2.417333333333334E+009;1.756642013788223E-001;-6.185964494943619E-002;-9.115308057516813E-004;3.119347617030144E-003;
2.417500000000000E+009;1.751981079578400E-001;-6.216662004590035E-002;-8.532591164112091E-004;3.103113500401378E-003;
2.417666666666667E+009;1.745842099189758E-001;-6.232792139053345E-002;-8.009948651306331E-004;3.194298129528761E-003;
2.417833333333334E+009;1.737429350614548E-001;-6.252202391624451E-002;-6.376178935170174E-004;2.872746903449297E-003;
2.418000000000000E+009;1.728833317756653E-001;-6.293192505836487E-002;-5.502386484295130E-004;3.062747651711106E-003;
2.418166666666667E+009;1.720988899469376E-001;-6.310205161571503E-002;-4.702123405877501E-004;3.120550420135260E-003;
2.418333333333334E+009;1.712773591279984E-001;-6.346243619918823E-002;-4.444039077498019E-004;3.125150455161929E-003;
2.418500000000000E+009;1.701594889163971E-001;-6.380337476730347E-002;-3.139313776046038E-004;3.154951613396406E-003;
2.418666666666667E+009;1.692260205745697E-001;-6.436594575643539E-002;-3.091233375016600E-004;3.039160277694464E-003;
2.418833333333334E+009;1.679171323776245E-001;-6.482369452714920E-002;-1.475574827054516E-004;3.254020120948553E-003;
2.419000000000000E+009;1.667812168598175E-001;-6.544142961502075E-002;-3.945868229493499E-005;3.171681892126799E-003;
2.419166666666667E+009;1.656643748283386E-001;-6.596316397190094E-002;-1.589854946359992E-005;3.133093472570181E-003;
2.419333333333334E+009;1.643919050693512E-001;-6.648808717727661E-002;-1.488133857492358E-004;3.279390046373010E-003;
2.419500000000000E+009;1.633497774600983E-001;-6.736616045236588E-002;2.681798650883138E-004;3.114911727607250E-003;
2.419666666666667E+009;1.620789021253586E-001;-6.832452863454819E-002;1.765343040460721E-004;3.072083927690983E-003;
2.419833333333334E+009;1.608388274908066E-001;-6.916921585798264E-002;3.469396324362606E-004;3.184396773576737E-003;
2.420000000000000E+009;1.597926616668701E-001;-7.016769051551819E-002;2.471638727001846E-004;3.150417702272534E-003;
2.420166666666667E+009;1.586405336856842E-001;-7.128489017486572E-002;4.363521293271333E-004;3.124160226434469E-003;
2.420333333333334E+009;1.577074378728867E-001;-7.254862040281296E-002;6.592987338081002E-004;2.997797215357423E-003;
2.420500000000000E+009;1.566792279481888E-001;-7.355143129825592E-002;7.355021662078798E-004;3.124923678115010E-003;
2.420666666666667E+009;1.555898636579514E-001;-7.482034713029862E-002;6.012674421072006E-004;3.095149761065841E-003;
2.420833333333334E+009;1.546797901391983E-001;-7.618335634469986E-002;6.770938634872437E-004;3.026200225576758E-003;
2.421000000000000E+009;1.538284420967102E-001;-7.767843455076218E-002;7.933822926133871E-004;2.993182512000203E-003;
2.421166666666667E+009;1.530420631170273E-001;-7.919445633888245E-002;9.311515023000538E-004;2.913000294938684E-003;
2.421333333333334E+009;1.522975564002991E-001;-8.084154874086380E-002;9.061757009476423E-004;2.999926684424281E-003;
2.421500000000000E+009;1.516234576702118E-001;-8.216144889593124E-002;1.120770582929254E-003;2.906740410253406E-003;
2.421666666666667E+009;1.511261016130447E-001;-8.382830023765564E-002;9.489339427091181E-004;2.934520365670323E-003;
2.421833333333334E+009;1.507493108510971E-001;-8.564154058694840E-002;1.075628446415067E-003;2.962726866826415E-003;
2.422000000000000E+009;1.503598839044571E-001;-8.739732205867767E-002;1.053995918482542E-003;2.960716839879751E-003;
2.422166666666667E+009;1.498408168554306E-001;-8.916507661342621E-002;1.117009902372956E-003;2.866517985239625E-003;
2.422333333333334E+009;1.497912108898163E-001;-9.067600220441818E-002;1.192695577628911E-003;2.897111233323813E-003;
2.422500000000000E+009;1.493336707353592E-001;-9.243832528591156E-002;1.406294759362936E-003;2.923729363828898E-003;
2.422666666666667E+009;1.493761390447617E-001;-9.404027462005615E-002;1.424713525921106E-003;2.972784452140331E-003;
2.422833333333334E+009;1.496159583330154E-001;-9.589219838380814E-002;1.439810497686267E-003;2.986765466630459E-003;
2.423000000000000E+009;1.494926661252976E-001;-9.755031019449234E-002;1.697078580036759E-003;3.054530592635274E-003;
2.423166666666667E+009;1.497965455055237E-001;-9.926718473434448E-002;1.780395512469113E-003;2.963583217933774E-003;
2.423333333333334E+009;1.501123160123825E-001;-1.006098091602325E-001;1.824100851081312E-003;3.004111815243959E-003;
2.423500000000000E+009;1.502642482519150E-001;-1.023774966597557E-001;1.927643548697233E-003;2.764316974207759E-003;
2.423666666666667E+009;1.504732966423035E-001;-1.039067506790161E-001;2.039076993241906E-003;2.746854908764362E-003;
2.423833333333334E+009;1.509320288896561E-001;-1.053206175565720E-001;2.256878651678562E-003;2.856816863641143E-003;
2.424000000000000E+009;1.511830240488052E-001;-1.067348346114159E-001;2.155833877623081E-003;2.793217776343226E-003;
2.424166666666667E+009;1.516061574220657E-001;-1.079606413841248E-001;2.502010669559240E-003;2.814503386616707E-003;
2.424333333333334E+009;1.522592157125473E-001;-1.092644631862640E-001;2.501267008483410E-003;2.600290579721332E-003;
2.424500000000000E+009;1.526344716548920E-001;-1.104616820812225E-001;2.631652634590864E-003;2.639848040416837E-003;
2.424666666666667E+009;1.533441692590714E-001;-1.112449690699577E-001;2.823759568855166E-003;2.638869686052203E-003;
2.424833333333334E+009;1.536027640104294E-001;-1.124585866928101E-001;2.854570280760527E-003;2.469436032697558E-003;
2.425000000000000E+009;1.541569232940674E-001;-1.134520992636681E-001;3.067505778744817E-003;2.440941054373980E-003;
2.425166666666667E+009;1.544573158025742E-001;-1.142611578106880E-001;3.116075415164232E-003;2.417466137558222E-003;
2.425333333333334E+009;1.549282521009445E-001;-1.150485053658485E-001;3.279368625953794E-003;2.325112000107765E-003;
2.425500000000000E+009;1.553601771593094E-001;-1.158113405108452E-001;3.468498587608337E-003;2.137699862942100E-003;
2.425666666666667E+009;1.555219292640686E-001;-1.163927540183067E-001;3.417365718632937E-003;2.131773624569178E-003;
2.425833333333334E+009;1.558350175619125E-001;-1.169603019952774E-001;3.415743587538600E-003;1.949373981915414E-003;
2.426000000000000E+009;1.559328138828278E-001;-1.174515783786774E-001;3.597307251766324E-003;1.867436338216066E-003;
2.426166666666667E+009;1.562920659780502E-001;-1.179348155856133E-001;3.704194445163012E-003;1.673966296948493E-003;
2.426333333333334E+009;1.563297063112259E-001;-1.183120533823967E-001;3.852507099509239E-003;1.539228134788573E-003;
2.426500000000000E+009;1.564308851957321E-001;-1.184765100479126E-001;3.845567349344492E-003;1.389243640005589E-003;
2.426666666666667E+009;1.564036309719086E-001;-1.187044084072113E-001;3.840570570901036E-003;1.340734888799489E-003;
2.426833333333334E+009;1.562084555625916E-001;-1.189195960760117E-001;3.900281619280577E-003;1.097955158911645E-003;
2.427000000000000E+009;1.560124158859253E-001;-1.192017570137978E-001;3.946573939174414E-003;1.159304170869291E-003;
2.427166666666667E+009;1.556149870157242E-001;-1.191618889570236E-001;4.078288096934557E-003;8.416741038672626E-004;
2.427333333333334E+009;1.551318913698196E-001;-1.193709746003151E-001;4.084997344762087E-003;7.226528832688928E-004;
2.427500000000000E+009;1.546794176101685E-001;-1.195002123713493E-001;4.144895356148481E-003;6.263290997594595E-004;
2.427666666666667E+009;1.540345698595047E-001;-1.196071356534958E-001;3.976574167609215E-003;4.569229495245963E-004;
