# Version 1.00
#
freq[Hz];re:Trc1_S11;im:Trc1_S11;re:Trc2_S21;im:Trc2_S21;
2.400000000000000E+009;1.585755944252014E-001;6.300972402095795E-002;3.712176403496414E-004;-8.966310997493565E-004;
2.400166666666667E+009;1.584623754024506E-001;6.140045076608658E-002;2.547534531913698E-004;-8.454294293187559E-004;
2.400333333333334E+009;1.583458185195923E-001;5.966170504689217E-002;3.440888540353626E-004;-8.184947655536234E-004;
2.400500000000000E+009;1.583817452192307E-001;5.774405598640442E-002;2.200455928687006E-004;-7.879306795075536E-004;
2.400666666666667E+009;1.581736207008362E-001;5.570656806230545E-002;4.325715999584645E-004;-1.054766937159002E-003;
2.400833333333334E+009;1.582123935222626E-001;5.389798060059547E-002;3.192584263160825E-004;-9.209918207488954E-004;
2.401000000000000E+009;1.583043336868286E-001;5.171837657690048E-002;4.109220462851226E-004;-1.068550744093955E-003;
2.401166666666667E+009;1.583002060651779E-001;4.963736981153488E-002;5.381872178986669E-004;-1.191591261886060E-003;
2.401333333333334E+009;1.583860963582993E-001;4.755573719739914E-002;5.971514619886875E-004;-1.229061861522496E-003;
2.401500000000000E+009;1.587898880243301E-001;4.546590894460678E-002;5.722884088754654E-004;-1.126809860579670E-003;
2.401666666666667E+009;1.591755300760269E-001;4.330250993371010E-002;5.972306244075298E-004;-1.365238334983587E-003;
2.401833333333334E+009;1.593862324953079E-001;4.141874983906746E-002;5.242900224402547E-004;-1.533136004582048E-003;
2.402000000000000E+009;1.594950556755066E-001;3.926772251725197E-002;5.639414303004742E-004;-1.488057896494865E-003;
2.402166666666667E+009;1.601501703262329E-001;3.725648298859596E-002;4.895529709756374E-004;-1.745196175761521E-003;
2.402333333333334E+009;1.607181876897812E-001;3.540273383259773E-002;5.161752924323082E-004;-1.769495778717101E-003;
2.402500000000000E+009;1.613797098398209E-001;3.357376903295517E-002;4.696767427958548E-004;-1.861565513536334E-003;
2.402666666666667E+009;1.619955897331238E-001;3.168287500739098E-002;2.247121592517942E-004;-1.807596650905907E-003;
2.402833333333334E+009;1.625804901123047E-001;2.987344376742840E-002;1.230793423019350E-004;-2.038806444033980E-003;
2.403000000000000E+009;1.635937690734863E-001;2.827316522598267E-002;1.115394770749845E-004;-2.063866704702377E-003;
2.403166666666667E+009;1.643943339586258E-001;2.657117322087288E-002;8.101486309897155E-005;-2.191448351368308E-003;
2.403333333333334E+009;1.653468757867813E-001;2.518158033490181E-002;4.008743417216465E-005;-2.112757880240679E-003;
2.403500000000000E+009;1.660248935222626E-001;2.360896952450275E-002;-1.129864394897595E-004;-2.166906371712685E-003;
2.403666666666667E+009;1.670073568820953E-001;2.207160368561745E-002;-1.745140616549179E-004;-2.203585579991341E-003;
2.403833333333334E+009;1.680061072111130E-001;2.084537968039513E-002;-4.978556535206735E-004;-2.294853795319796E-003;
2.404000000000000E+009;1.688815653324127E-001;1.961559616029263E-002;-4.454572917893529E-004;-2.298711100593209E-003;
2.404166666666667E+009;1.698738932609558E-001;1.845292001962662E-002;-7.266895263455808E-004;-2.216500230133534E-003;
2.404333333333334E+009;1.708320379257202E-001;1.730249263346195E-002;-5.422055255621672E-004;-2.458350732922554E-003;
2.404500000000000E+009;1.716991961002350E-001;1.615833304822445E-002;-8.348611881956458E-004;-2.424056874588132E-003;
2.404666666666667E+009;1.727269589900971E-001;1.545813679695129E-002;-9.231545263901353E-004;-2.279755426570773E-003;
2.404833333333334E+009;1.735880225896835E-001;1.458857208490372E-002;-9.379020193591714E-004;-2.279529580846429E-003;
2.405000000000000E+009;1.745568960905075E-001;1.372661814093590E-002;-1.023862627334893E-003;-2.396873431280255E-003;
2.405166666666667E+009;1.754263639450073E-001;1.315087638795376E-002;-1.139361876994371E-003;-2.135957824066281E-003;
2.405333333333334E+009;1.763325482606888E-001;1.242068596184254E-002;-1.035972381941974E-003;-2.083534142002463E-003;
2.405500000000000E+009;1.769369244575501E-001;1.187772583216429E-002;-1.469372771680355E-003;-2.134368289262056E-003;
2.405666666666667E+009;1.776046752929688E-001;1.151401735842228E-002;-1.401208457536995E-003;-2.115372568368912E-003;
2.405833333333334E+009;1.783331036567688E-001;1.118710916489363E-002;-1.417232910171151E-003;-2.101497957482934E-003;
2.406000000000000E+009;1.788841485977173E-001;1.058665011078119E-002;-1.607847283594310E-003;-1.836231560446322E-003;
2.406166666666667E+009;1.793246567249298E-001;1.033650711178780E-002;-1.701382570900023E-003;-1.845380989834666E-003;
2.406333333333334E+009;1.798794120550156E-001;9.967760182917118E-003;-1.640263129957020E-003;-1.908035017549992E-003;
2.406500000000000E+009;1.801013499498367E-001;9.805538691580296E-003;-1.750838360749185E-003;-1.672733575105667E-003;
2.406666666666667E+009;1.803689599037170E-001;9.403485804796219E-003;-1.913429121486843E-003;-1.771726994775236E-003;
2.406833333333334E+009;1.806501746177673E-001;9.029651992022991E-003;-1.961777685210109E-003;-1.801538746803999E-003;
2.407000000000000E+009;1.808337867259979E-001;8.846830576658249E-003;-1.999170985072851E-003;-1.664443523623049E-003;
2.407166666666667E+009;1.809753626585007E-001;8.491958491504192E-003;-2.226556418463588E-003;-1.604737713932991E-003;
2.407333333333334E+009;1.807879507541657E-001;8.070868439972401E-003;-2.155303256586194E-003;-1.728867180645466E-003;
2.407500000000000E+009;1.807008236646652E-001;7.694071624428034E-003;-2.144838217645884E-003;-1.434109872207046E-003;
2.407666666666667E+009;1.805201917886734E-001;7.342807482928038E-003;-2.202932955697179E-003;-1.460152561776340E-003;
2.407833333333334E+009;1.800778061151505E-001;6.636292207986116E-003;-2.313424833118916E-003;-1.325190882198513E-003;
2.408000000000000E+009;1.798959076404572E-001;6.111709866672754E-003;-2.301759552210569E-003;-1.272281864657998E-003;
2.408166666666667E+009;1.794757544994354E-001;5.666872020810843E-003;-2.415385097265244E-003;-1.266166917048395E-003;
2.408333333333334E+009;1.790851354598999E-001;4.987481981515884E-003;-2.405820880085230E-003;-1.112129190005362E-003;
2.408500000000000E+009;1.785961538553238E-001;4.202683921903372E-003;-2.417990239337087E-003;-1.026841928251088E-003;
2.408666666666667E+009;1.779123246669769E-001;3.285318380221725E-003;-2.493154257535934E-003;-1.100874622352421E-003;
2.408833333333334E+009;1.773154735565186E-001;2.364855259656906E-003;-2.522299299016595E-003;-9.906907798722386E-004;
2.409000000000000E+009;1.766581535339356E-001;1.521563390269876E-003;-2.563023939728737E-003;-7.214273209683597E-004;
2.409166666666667E+009;1.759759485721588E-001;5.019642994739115E-004;-2.520605223253369E-003;-7.842577178962529E-004;
2.409333333333334E+009;1.754543483257294E-001;-8.396884077228606E-004;-2.525989199057221E-003;-6.819279515184462E-004;
2.409500000000000E+009;1.747870296239853E-001;-2.165145473554730E-003;-2.564224181696773E-003;-7.188121089711785E-004;
2.409666666666667E+009;1.739383637905121E-001;-3.462952561676502E-003;-2.500854898244143E-003;-6.798775866627693E-004;
2.409833333333334E+009;1.730142086744309E-001;-4.664036910980940E-003;-2.664316445589066E-003;-5.263423081487417E-004;
2.410000000000000E+009;1.725236028432846E-001;-6.145340390503407E-003;-2.570278942584992E-003;-4.334277473390102E-004;
2.410166666666667E+009;1.718714982271195E-001;-7.667960599064827E-003;-2.767153782770038E-003;-3.643801901489496E-004;
2.410333333333334E+009;1.712479889392853E-001;-9.393138810992241E-003;-2.903055399656296E-003;-4.157403018325567E-004;
2.410500000000000E+009;1.706597805023193E-001;-1.111837942153215E-002;-2.824752125889063E-003;-4.412643611431122E-004;
2.410666666666667E+009;1.699993163347244E-001;-1.280197780579329E-002;-2.755194203928113E-003;-3.498629957903177E-004;
2.410833333333334E+009;1.695452034473419E-001;-1.450065616518259E-002;-2.795630833134055E-003;-1.934506872203201E-004;
2.411000000000000E+009;1.692027449607849E-001;-1.634263806045055E-002;-2.810634672641754E-003;-1.074793472071178E-004;
2.411166666666667E+009;1.686840355396271E-001;-1.813588291406632E-002;-2.970700152218342E-003;-8.512136992067099E-005;
2.411333333333334E+009;1.685538291931152E-001;-2.009323984384537E-002;-3.024265868589282E-003;3.982601811003406E-006;
2.411500000000000E+009;1.681574732065201E-001;-2.202101796865463E-002;-3.086655633524060E-003;-2.192380816268269E-005;
2.411666666666667E+009;1.680883765220642E-001;-2.396835386753082E-002;-3.109902841970325E-003;1.882333017420024E-004;
2.411833333333334E+009;1.680344343185425E-001;-2.577334269881249E-002;-3.009612439200282E-003;3.277330833952874E-004;
2.412000000000000E+009;1.681659221649170E-001;-2.760201692581177E-002;-3.337429603561759E-003;4.006923700217158E-004;
2.412166666666667E+009;1.682352870702744E-001;-2.960443496704102E-002;-3.080585040152073E-003;5.425087292678654E-004;
2.412333333333334E+009;1.684320271015167E-001;-3.158560395240784E-002;-3.280264791101217E-003;7.081017829477787E-004;
2.412500000000000E+009;1.684077680110931E-001;-3.347582370042801E-002;-3.109327750280500E-003;8.649252122268081E-004;
2.412666666666667E+009;1.687422841787338E-001;-3.551058098673821E-002;-3.249939996749163E-003;8.562672301195562E-004;
2.412833333333334E+009;1.690801233053207E-001;-3.744053095579147E-002;-3.262930084019899E-003;1.121973851695657E-003;
2.413000000000000E+009;1.695125550031662E-001;-3.920922800898552E-002;-3.015859285369515E-003;1.221987069584429E-003;
2.413166666666667E+009;1.697589606046677E-001;-4.092221707105637E-002;-3.204139182344079E-003;1.442876877263188E-003;
2.413333333333334E+009;1.701496690511704E-001;-4.268362745642662E-002;-3.190028015524149E-003;1.548550557345152E-003;
2.413500000000000E+009;1.708405613899231E-001;-4.435294121503830E-002;-3.054786706343293E-003;1.586505561135709E-003;
2.413666666666667E+009;1.713061928749085E-001;-4.590688645839691E-002;-2.847070107236505E-003;1.797178643755615E-003;
2.413833333333334E+009;1.716549545526505E-001;-4.746274277567864E-002;-3.080026246607304E-003;1.978412037715316E-003;
2.414000000000000E+009;1.721793264150620E-001;-4.898867011070252E-002;-2.780429087579250E-003;2.219329588115215E-003;
2.414166666666667E+009;1.728750318288803E-001;-5.026787891983986E-002;-2.835197141394019E-003;2.242796588689089E-003;
2.414333333333334E+009;1.734209507703781E-001;-5.164123326539993E-002;-2.806792268529534E-003;2.152575412765145E-003;
2.414500000000000E+009;1.740710437297821E-001;-5.266694352030754E-002;-2.767810598015785E-003;2.389987930655479E-003;
2.414666666666667E+009;1.744152754545212E-001;-5.373777449131012E-002;-2.509294776245952E-003;2.445956692099571E-003;
2.414833333333334E+009;1.749286651611328E-001;-5.481581017374992E-002;-2.373847877606750E-003;2.512686187401414E-003;
2.415000000000000E+009;1.755720973014832E-001;-5.587846413254738E-002;-2.126984531059861E-003;2.572874771431088E-003;
2.415166666666667E+009;1.758086085319519E-001;-5.657475441694260E-002;-2.043840941041708E-003;2.591544063761830E-003;
2.415333333333334E+009;1.762791126966476E-001;-5.760717764496803E-002;-2.177829388529062E-003;2.896912163123488E-003;
2.415500000000000E+009;1.767605245113373E-001;-5.798069760203362E-002;-2.044053981080651E-003;2.793336985632777E-003;
2.415666666666667E+009;1.768762916326523E-001;-5.860260501503944E-002;-1.897995825856924E-003;2.882651984691620E-003;
2.415833333333334E+009;1.772790253162384E-001;-5.921193584799767E-002;-1.807065214961767E-003;2.900272607803345E-003;
2.416000000000000E+009;1.772300004959106E-001;-5.958771333098412E-002;-1.624382799491286E-003;2.830045996233821E-003;
2.416166666666667E+009;1.774807125329971E-001;-6.004967913031578E-002;-1.544292201288045E-003;3.029717132449150E-003;
2.416333333333334E+009;1.775174140930176E-001;-6.039458513259888E-002;-1.445494708605111E-003;2.963587641716003E-003;
2.416500000000000E+009;1.773847788572311E-001;-6.077531352639198E-002;-1.282733399420977E-003;2.956434618681669E-003;
2.416666666666667E+009;1.771914511919022E-001;-6.096799671649933E-002;-1.152889570221305E-003;3.154049627482891E-003;
2.416833333333334E+009;1.771619021892548E-001;-6.140438094735146E-002;-1.187858288176358E-003;3.058729926124215E-003;
2.417000000000000E+009;1.765360683202744E-001;-6.160067394375801E-002;-1.049188897013664E-003;3.025934798642993E-003;
2.417166666666667E+009;1.762510985136032E-001;-6.168906018137932E-002;-1.044259872287512E-003;3.083925694227219E-003;
2.417333333333334E+009;1.758142262697220E-001;-6.185396015644074E-002;-9.049752843566239E-004;3.085369942709804E-003;
2.417500000000000E+009;1.750963032245636E-001;-6.217685341835022E-002;-7.068442646414042E-004;3.124325769022107E-003;
2.417666666666667E+009;1.745402812957764E-001;-6.229971721768379E-002;-7.463031215593219E-004;3.077670931816101E-003;
2.417833333333334E+009;1.738034486770630E-001;-6.252074986696243E-002;-5.616089911200106E-004;3.110030433163047E-003;
2.418000000000000E+009;1.729192882776260E-001;-6.291703134775162E-002;-3.218690690118820E-004;3.091337857767940E-003;
2.418166666666667E+009;1.719962209463120E-001;-6.300073117017746E-002;-3.802630526479334E-004;3.293185029178858E-003;
2.418333333333334E+009;1.713362187147141E-001;-6.352613866329193E-002;-3.251083835493773E-004;3.057686379179359E-003;
2.418500000000000E+009;1.701175272464752E-001;-6.387457251548767E-002;-1.679084234638140E-004;3.057560883462429E-003;
2.418666666666667E+009;1.691493242979050E-001;-6.444583833217621E-002;-1.397329615429044E-004;3.025007667019963E-003;
2.418833333333334E+009;1.679236739873886E-001;-6.488867849111557E-002;-7.537647616118193E-005;3.161232685670257E-003;
2.419000000000000E+009;1.667919605970383E-001;-6.526568531990051E-002;-5.289886394166388E-005;3.185649635270238E-003;
2.419166666666667E+009;1.655626893043518E-001;-6.611294299364090E-002;3.934184860554524E-005;3.052986692637205E-003;
2.419333333333334E+009;1.643738746643066E-001;-6.642038375139237E-002;1.132660618168302E-004;3.076964756473899E-003;
2.419500000000000E+009;1.632377207279205E-001;-6.755241751670837E-002;1.233159418916330E-004;2.932045608758926E-003;
2.419666666666667E+009;1.622446328401566E-001;-6.836205720901489E-002;2.151540538761765E-004;3.036734415218234E-003;
2.419833333333334E+009;1.608052998781204E-001;-6.929162144660950E-002;4.137695650570095E-004;3.013497684150934E-003;
2.420000000000000E+009;1.598387360572815E-001;-7.021403312683106E-002;5.071346531622112E-004;3.103674622252584E-003;
2.420166666666667E+009;1.587890088558197E-001;-7.134450227022171E-002;6.950481911189854E-004;2.896306803449988E-003;
2.420333333333334E+009;1.576703339815140E-001;-7.255637645721436E-002;6.409543566405773E-004;3.061342053115368E-003;
2.420500000000000E+009;1.566515713930130E-001;-7.355600595474243E-002;5.988790653645992E-004;3.020739415660501E-003;
2.420666666666667E+009;1.554591953754425E-001;-7.471170276403427E-002;6.728394655510783E-004;2.894083503633738E-003;
2.420833333333334E+009;1.545425057411194E-001;-7.630219310522080E-002;7.264951709657908E-004;2.898248378187418E-003;
2.421000000000000E+009;1.536728441715241E-001;-7.763582468032837E-002;8.477056981064379E-004;2.960704034194350E-003;
2.421166666666667E+009;1.529706120491028E-001;-7.923229783773422E-002;8.043596753850579E-004;2.930841874331236E-003;
2.421333333333334E+009;1.522372066974640E-001;-8.082655817270279E-002;8.959337137639523E-004;2.834300044924021E-003;
2.421500000000000E+009;1.515138894319534E-001;-8.230856060981751E-002;9.741661488078535E-004;2.836657688021660E-003;
2.421666666666667E+009;1.511398553848267E-001;-8.383480459451675E-002;1.041744370013475E-003;2.794933738186956E-003;
2.421833333333334E+009;1.508039832115173E-001;-8.561405539512634E-002;1.116247382014990E-003;2.954026916995645E-003;
2.422000000000000E+009;1.500376760959625E-001;-8.731063455343247E-002;1.094107748940587E-003;3.039754694327712E-003;
2.422166666666667E+009;1.497466266155243E-001;-8.915120363235474E-002;1.223178813233972E-003;2.911754418164492E-003;
2.422333333333334E+009;1.495748311281204E-001;-9.056793153285980E-002;1.358159817755222E-003;3.009189618751407E-003;
2.422500000000000E+009;1.495266705751419E-001;-9.232868999242783E-002;1.430848031304777E-003;2.894113073125482E-003;
2.422666666666667E+009;1.493045836687088E-001;-9.407470375299454E-002;1.305801677517593E-003;2.890729578211904E-003;
2.422833333333334E+009;1.493503749370575E-001;-9.586196392774582E-002;1.633261097595096E-003;2.902826759964228E-003;
2.423000000000000E+009;1.494644880294800E-001;-9.748434275388718E-002;1.689874567091465E-003;2.859796863049269E-003;
2.423166666666667E+009;1.496548652648926E-001;-9.901559352874756E-002;1.705451169982553E-003;2.853237325325608E-003;
2.423333333333334E+009;1.500547081232071E-001;-1.006532311439514E-001;1.827465486712754E-003;2.913498086854816E-003;
2.423500000000000E+009;1.501853466033936E-001;-1.023282110691071E-001;1.904832199215889E-003;2.911277581006289E-003;
2.423666666666667E+009;1.503407508134842E-001;-1.038496643304825E-001;2.003335393965244E-003;2.857270417734981E-003;
2.423833333333334E+009;1.509264260530472E-001;-1.052890643477440E-001;2.164606237784028E-003;2.892715157940984E-003;
2.424000000000000E+009;1.513019204139710E-001;-1.065233498811722E-001;2.080011414363980E-003;2.837884239852428E-003;
2.424166666666667E+009;1.516100466251373E-001;-1.079208552837372E-001;2.358970232307911E-003;2.677586395293474E-003;
2.424333333333334E+009;1.521250009536743E-001;-1.091341525316238E-001;2.410872606560588E-003;2.679846948012710E-003;
2.424500000000000E+009;1.526503413915634E-001;-1.103539019823074E-001;2.464426448568702E-003;2.530183875933290E-003;
2.424666666666667E+009;1.532867103815079E-001;-1.113916188478470E-001;2.859491156414151E-003;2.394131850451231E-003;
2.424833333333334E+009;1.535261422395706E-001;-1.124820411205292E-001;2.770301885902882E-003;2.410907531157136E-003;
2.425000000000000E+009;1.542406380176544E-001;-1.133997365832329E-001;2.910321811214089E-003;2.386078005656600E-003;
2.425166666666667E+009;1.543960422277451E-001;-1.143265664577484E-001;2.985914703458548E-003;2.275024307891727E-003;
2.425333333333334E+009;1.547422856092453E-001;-1.150854751467705E-001;3.191084368154407E-003;2.205195603892207E-003;
2.425500000000000E+009;1.553501635789871E-001;-1.158083975315094E-001;3.313552821055055E-003;2.128924243152142E-003;
2.425666666666667E+009;1.554093509912491E-001;-1.164642199873924E-001;3.332032356411219E-003;2.035395242273808E-003;
2.425833333333334E+009;1.558201909065247E-001;-1.170888096094132E-001;3.515237942337990E-003;1.917239627800882E-003;
2.426000000000000E+009;1.559933274984360E-001;-1.175867915153503E-001;3.406942589208484E-003;1.888560596853495E-003;
2.426166666666667E+009;1.562995016574860E-001;-1.180489808320999E-001;3.651845734566450E-003;1.707382616586983E-003;
2.426333333333334E+009;1.562700122594833E-001;-1.183725520968437E-001;3.564768936485052E-003;1.536720083095133E-003;
2.426500000000000E+009;1.563016474246979E-001;-1.186418905854225E-001;3.907412290573120E-003;1.371706021018326E-003;
2.426666666666667E+009;1.563480794429779E-001;-1.187597140669823E-001;3.690311219543219E-003;1.250941189937294E-003;
2.426833333333334E+009;1.561491638422012E-001;-1.191604733467102E-001;3.878197399899364E-003;1.258270698599517E-003;
2.427000000000000E+009;1.558999866247177E-001;-1.193041279911995E-001;3.923900425434113E-003;1.162690110504627E-003;
2.427166666666667E+009;1.554505378007889E-001;-1.192969828844070E-001;3.856811905279756E-003;8.424613042734563E-004;
2.427333333333334E+009;1.549910455942154E-001;-1.194313615560532E-001;3.960688132792711E-003;8.044586866162717E-004;
2.427500000000000E+009;1.546013057231903E-001;-1.195187047123909E-001;4.050449468195438E-003;6.201849901117384E-004;
2.427666666666667E+009;1.538805812597275E-001;-1.197310984134674E-001;4.035989288240671E-003;4.987575812265277E-004;
