# Version 1.00
#
freq[Hz];re:Trc1_S11;im:Trc1_S11;re:Trc2_S21;im:Trc2_S21;
2.400000000000000E+009;1.585706174373627E-001;6.297635287046433E-002;2.308781113242731E-004;-8.462629630230367E-004;
2.400166666666667E+009;1.584282666444778E-001;6.147927045822144E-002;2.696689334698021E-004;-8.227305952459574E-004;
2.400333333333334E+009;1.583335697650909E-001;5.958265438675880E-002;3.046887868549675E-004;-9.088147198781371E-004;
2.400500000000000E+009;1.582367271184921E-001;5.768308788537979E-002;4.961522645317018E-004;-8.963000727817416E-004;
2.400666666666667E+009;1.581316888332367E-001;5.567575618624687E-002;5.053054774180055E-004;-9.898514254018664E-004;
2.400833333333334E+009;1.582224071025848E-001;5.378149449825287E-002;6.207054830156267E-004;-9.327031439170241E-004;
2.401000000000000E+009;1.583576500415802E-001;5.155133083462715E-002;4.221405251882970E-004;-1.109863864257932E-003;
2.401166666666667E+009;1.583299040794373E-001;4.970111697912216E-002;5.797699559479952E-004;-1.212025177665055E-003;
2.401333333333334E+009;1.583230048418045E-001;4.740347340703011E-002;6.580810295417905E-004;-1.245944527909160E-003;
2.401500000000000E+009;1.587530821561813E-001;4.554747790098190E-002;5.207000067457557E-004;-1.330014318227768E-003;
2.401666666666667E+009;1.590765118598938E-001;4.360849782824516E-002;4.601434629876167E-004;-1.423931214958429E-003;
2.401833333333334E+009;1.594688743352890E-001;4.152658954262734E-002;6.033323588781059E-004;-1.370540470816195E-003;
2.402000000000000E+009;1.596851646900177E-001;3.949568420648575E-002;6.627383409067988E-004;-1.554831513203681E-003;
2.402166666666667E+009;1.601444333791733E-001;3.733610361814499E-002;4.769774677697569E-004;-1.596043701283634E-003;
2.402333333333334E+009;1.605535149574280E-001;3.554952144622803E-002;4.108684661332518E-004;-1.752967014908791E-003;
2.402500000000000E+009;1.613988280296326E-001;3.373282775282860E-002;4.532693710643798E-004;-1.829445012845099E-003;
2.402666666666667E+009;1.619493663311005E-001;3.187365084886551E-002;3.423841262701899E-004;-1.812525559216738E-003;
2.402833333333334E+009;1.628095060586929E-001;3.002111427485943E-002;2.639608283061534E-004;-1.961455214768648E-003;
2.403000000000000E+009;1.637327969074249E-001;2.832720428705216E-002;3.337657835800201E-004;-1.871790620498359E-003;
2.403166666666667E+009;1.644195765256882E-001;2.665782533586025E-002;1.816403091652319E-004;-2.150987973436713E-003;
2.403333333333334E+009;1.653095036745071E-001;2.540863864123821E-002;-1.630586302781012E-005;-2.138193231076002E-003;
2.403500000000000E+009;1.660365462303162E-001;2.364564128220081E-002;-1.421665510861203E-004;-2.133165020495653E-003;
2.403666666666667E+009;1.670270413160324E-001;2.206109650433064E-002;-1.136505961767398E-004;-2.325334353372455E-003;
2.403833333333334E+009;1.682053506374359E-001;2.092686668038368E-002;-2.811148006003350E-004;-2.214744919911027E-003;
2.404000000000000E+009;1.689572185277939E-001;1.961726136505604E-002;-5.213088006712496E-004;-2.229445613920689E-003;
2.404166666666667E+009;1.698800474405289E-001;1.851159334182739E-002;-3.791902563534677E-004;-2.356794662773609E-003;
2.404333333333334E+009;1.709621846675873E-001;1.749583519995213E-002;-4.611267650034279E-004;-2.286066999658942E-003;
2.404500000000000E+009;1.718923300504684E-001;1.634472608566284E-002;-6.947665242478252E-004;-2.225288189947605E-003;
2.404666666666667E+009;1.726956218481064E-001;1.547277066856623E-002;-7.598752854391933E-004;-2.326290588825941E-003;
2.404833333333334E+009;1.737064719200134E-001;1.461127121001482E-002;-9.822282008826733E-004;-2.165365731343627E-003;
2.405000000000000E+009;1.745037585496903E-001;1.371361128985882E-002;-9.936676360666752E-004;-2.236804692074657E-003;
2.405166666666667E+009;1.755523532629013E-001;1.318780519068241E-002;-1.027088612318039E-003;-2.209593309089541E-003;
2.405333333333334E+009;1.762125492095947E-001;1.241252012550831E-002;-1.271913992241025E-003;-2.130960114300251E-003;
2.405500000000000E+009;1.769845336675644E-001;1.198058575391769E-002;-1.146136899478734E-003;-2.128110267221928E-003;
2.405666666666667E+009;1.776935309171677E-001;1.160378754138947E-002;-1.280084485188127E-003;-2.323513617739081E-003;
2.405833333333334E+009;1.781699210405350E-001;1.113565359264612E-002;-1.370333950035274E-003;-2.155064372345805E-003;
2.406000000000000E+009;1.790368556976318E-001;1.059214957058430E-002;-1.414980040863156E-003;-1.906530349515379E-003;
2.406166666666667E+009;1.793038696050644E-001;1.040751300752163E-002;-1.573880203068256E-003;-2.055443823337555E-003;
2.406333333333334E+009;1.798709034919739E-001;1.004790980368853E-002;-1.567669445648789E-003;-1.867636805400252E-003;
2.406500000000000E+009;1.803040206432343E-001;9.737273678183556E-003;-1.690081087872386E-003;-1.941658905707300E-003;
2.406666666666667E+009;1.803910881280899E-001;9.475157596170902E-003;-1.784458174370229E-003;-1.895396038889885E-003;
2.406833333333334E+009;1.807931959629059E-001;9.213009849190712E-003;-1.828761422075331E-003;-1.768883783370256E-003;
2.407000000000000E+009;1.809092462062836E-001;8.746581152081490E-003;-1.902850577607751E-003;-1.774172298610210E-003;
2.407166666666667E+009;1.809051930904388E-001;8.534550666809082E-003;-2.016172511503100E-003;-1.787137938663364E-003;
2.407333333333334E+009;1.807851940393448E-001;8.009268902242184E-003;-2.062265994027257E-003;-1.757698017172515E-003;
2.407500000000000E+009;1.807183325290680E-001;7.793952710926533E-003;-2.268014242872596E-003;-1.641495851799846E-003;
2.407666666666667E+009;1.804878264665604E-001;7.345142308622599E-003;-2.237930428236723E-003;-1.424983725883067E-003;
2.407833333333334E+009;1.801846325397492E-001;6.746135652065277E-003;-2.287200884893537E-003;-1.417328021489084E-003;
2.408000000000000E+009;1.797482967376709E-001;6.171189248561859E-003;-2.202131319791079E-003;-1.362213632091880E-003;
2.408166666666667E+009;1.794507503509522E-001;5.802685860544443E-003;-2.401408739387989E-003;-1.454216893762350E-003;
2.408333333333334E+009;1.791773438453674E-001;4.942886065691710E-003;-2.423721831291914E-003;-1.250917091965675E-003;
2.408500000000000E+009;1.784809380769730E-001;4.157679621130228E-003;-2.437155228108168E-003;-1.097267260774970E-003;
2.408666666666667E+009;1.779996156692505E-001;3.330224426463246E-003;-2.490931656211615E-003;-1.119555323384702E-003;
2.408833333333334E+009;1.773077696561813E-001;2.635631943121553E-003;-2.574975136667490E-003;-9.462037705816329E-004;
2.409000000000000E+009;1.766971647739410E-001;1.521967351436615E-003;-2.500458620488644E-003;-9.157541207969189E-004;
2.409166666666667E+009;1.759577691555023E-001;3.410506760701537E-004;-2.640553051605821E-003;-9.605495142750442E-004;
2.409333333333334E+009;1.754611283540726E-001;-7.158161024563015E-004;-2.493825275450945E-003;-7.418593741022050E-004;
2.409500000000000E+009;1.746176630258560E-001;-2.218366134911776E-003;-2.647948917001486E-003;-7.124318508431315E-004;
2.409666666666667E+009;1.738375425338745E-001;-3.360057482495904E-003;-2.561334753409028E-003;-6.539793685078621E-004;
2.409833333333334E+009;1.731843054294586E-001;-4.573467653244734E-003;-2.687759464606643E-003;-6.925108027644455E-004;
2.410000000000000E+009;1.726433485746384E-001;-6.121279206126928E-003;-2.671618945896626E-003;-6.355515215545893E-004;
2.410166666666667E+009;1.719519197940826E-001;-7.619717624038458E-003;-2.814629347994924E-003;-6.187743856571615E-004;
2.410333333333334E+009;1.711168885231018E-001;-9.290764108300209E-003;-2.626441884785891E-003;-6.222891388460994E-004;
2.410500000000000E+009;1.707096993923187E-001;-1.097582001239061E-002;-2.665387466549873E-003;-3.718696534633637E-004;
2.410666666666667E+009;1.701167970895767E-001;-1.266602333635092E-002;-2.775796689093113E-003;-4.139230877626687E-004;
2.410833333333334E+009;1.697798967361450E-001;-1.438463013619185E-002;-2.858989173546433E-003;-3.659535432234407E-004;
2.411000000000000E+009;1.692950725555420E-001;-1.633779518306255E-002;-2.869577612727881E-003;-1.644567528273910E-004;
2.411166666666667E+009;1.688327789306641E-001;-1.817134022712708E-002;-2.875361591577530E-003;-2.823289250954986E-004;
2.411333333333334E+009;1.684973537921906E-001;-1.984923705458641E-002;-3.020423231646419E-003;-1.001836499199271E-004;
2.411500000000000E+009;1.682012081146240E-001;-2.192746847867966E-002;-3.081139875575900E-003;1.644700091674167E-007;
2.411666666666667E+009;1.681657582521439E-001;-2.390759252011776E-002;-3.119018161669374E-003;1.819027966121212E-004;
2.411833333333334E+009;1.681172698736191E-001;-2.580030634999275E-002;-2.958479337394238E-003;3.529265522956848E-004;
2.412000000000000E+009;1.680915057659149E-001;-2.788349986076355E-002;-3.128469223156571E-003;3.477470600046217E-004;
2.412166666666667E+009;1.680872589349747E-001;-2.962693572044373E-002;-3.136800136417151E-003;2.520619600545615E-004;
2.412333333333334E+009;1.685821712017059E-001;-3.166380897164345E-002;-3.230734029784799E-003;6.265174015425146E-004;
2.412500000000000E+009;1.684904992580414E-001;-3.356212005019188E-002;-3.181236563250423E-003;6.021059234626591E-004;
2.412666666666667E+009;1.687876135110855E-001;-3.552675619721413E-002;-3.247540676966310E-003;8.702116901986301E-004;
2.412833333333334E+009;1.692185699939728E-001;-3.739880770444870E-002;-3.243987914174795E-003;9.807222522795200E-004;
2.413000000000000E+009;1.694765537977219E-001;-3.913302347064018E-002;-3.165350295603275E-003;1.044918783009052E-003;
2.413166666666667E+009;1.698713302612305E-001;-4.103688150644302E-002;-3.213284770026803E-003;1.230172114446759E-003;
2.413333333333334E+009;1.702772229909897E-001;-4.281698912382126E-002;-3.245587693527341E-003;1.377918641082943E-003;
2.413500000000000E+009;1.707033962011337E-001;-4.434391111135483E-002;-3.037661546841264E-003;1.563110505230725E-003;
2.413666666666667E+009;1.713290810585022E-001;-4.602248594164848E-002;-3.105995012447238E-003;1.536917407065630E-003;
2.413833333333334E+009;1.718678772449493E-001;-4.747470840811729E-002;-2.959151985123754E-003;1.823124126531184E-003;
2.414000000000000E+009;1.722852289676666E-001;-4.901890829205513E-002;-2.972176764160395E-003;1.926747849211097E-003;
2.414166666666667E+009;1.729676425457001E-001;-5.022684484720230E-002;-2.935635158792138E-003;2.116531366482377E-003;
2.414333333333334E+009;1.734087020158768E-001;-5.159188061952591E-002;-2.704961458221078E-003;2.211302053183317E-003;
2.414500000000000E+009;1.740546971559525E-001;-5.280597507953644E-002;-2.662492217496038E-003;2.202295465394855E-003;
2.414666666666667E+009;1.745866537094116E-001;-5.384619906544685E-002;-2.448191866278648E-003;2.615940291434526E-003;
2.414833333333334E+009;1.749891191720963E-001;-5.496029183268547E-002;-2.516162581741810E-003;2.538213506340981E-003;
2.415000000000000E+009;1.754399389028549E-001;-5.591066554188728E-002;-2.338971477001905E-003;2.647206652909517E-003;
2.415166666666667E+009;1.757928133010864E-001;-5.659494921565056E-002;-2.241736976429820E-003;2.667178632691503E-003;
2.415333333333334E+009;1.762589514255524E-001;-5.741685256361961E-002;-2.197470283135772E-003;2.634657081216574E-003;
2.415500000000000E+009;1.765845268964768E-001;-5.810601264238358E-002;-1.936206361278892E-003;2.691018860787153E-003;
2.415666666666667E+009;1.768814325332642E-001;-5.866666510701180E-002;-1.915614004246891E-003;2.827620832249522E-003;
2.415833333333334E+009;1.771708875894547E-001;-5.922659486532211E-002;-1.834922004491091E-003;2.827976597473025E-003;
2.416000000000000E+009;1.772792041301727E-001;-5.967110022902489E-002;-1.753894495777786E-003;2.849718788638711E-003;
2.416166666666667E+009;1.774573028087616E-001;-6.007513031363487E-002;-1.699153333902359E-003;2.902532462030649E-003;
2.416333333333334E+009;1.774664074182510E-001;-6.046404317021370E-002;-1.532838563434780E-003;3.026965539902449E-003;
2.416500000000000E+009;1.774705350399017E-001;-6.071466952562332E-002;-1.409786520525813E-003;3.089369041845202E-003;
2.416666666666667E+009;1.772086322307587E-001;-6.091103702783585E-002;-1.306555815972388E-003;3.131818259134889E-003;
2.416833333333334E+009;1.770848184823990E-001;-6.126952543854713E-002;-1.158405211754143E-003;3.067741170525551E-003;
2.417000000000000E+009;1.766170412302017E-001;-6.147661060094833E-002;-1.119123888202012E-003;3.102218499407172E-003;
2.417166666666667E+009;1.762817800045013E-001;-6.154730916023254E-002;-9.680717485025525E-004;3.192702075466514E-003;
2.417333333333334E+009;1.757299900054932E-001;-6.161922961473465E-002;-7.640845724381506E-004;3.271458903327584E-003;
2.417500000000000E+009;1.751668900251389E-001;-6.216702982783318E-002;-7.535422337241471E-004;3.138084197416902E-003;
2.417666666666667E+009;1.746119260787964E-001;-6.217523291707039E-002;-7.749313954263926E-004;3.113130107522011E-003;
2.417833333333334E+009;1.739958673715591E-001;-6.250292807817459E-002;-7.002170314081013E-004;3.006350714713335E-003;
2.418000000000000E+009;1.729691922664642E-001;-6.290564686059952E-002;-4.450515552889556E-004;3.081490285694599E-003;
2.418166666666667E+009;1.720746606588364E-001;-6.301566213369370E-002;-3.748312010429800E-004;3.077857661992312E-003;
2.418333333333334E+009;1.712811738252640E-001;-6.343499571084976E-002;-2.499773690942675E-004;3.160055493935943E-003;
2.418500000000000E+009;1.702458858489990E-001;-6.376303732395172E-002;-2.958372060675174E-004;3.235836746171117E-003;
2.418666666666667E+009;1.692329198122025E-001;-6.431756913661957E-002;-1.620323746465147E-004;3.136185696348548E-003;
2.418833333333334E+009;1.679805070161820E-001;-6.484021246433258E-002;-4.300729779060930E-005;3.100059460848570E-003;
2.419000000000000E+009;1.668556630611420E-001;-6.525816023349762E-002;4.354449993115850E-005;3.064167918637395E-003;
2.419166666666667E+009;1.657257229089737E-001;-6.597391515970230E-002;-9.151055564871058E-006;2.994795795530081E-003;
2.419333333333334E+009;1.644126623868942E-001;-6.650758534669876E-002;3.134614380542189E-004;3.146478207781911E-003;
2.419500000000000E+009;1.632793992757797E-001;-6.747925281524658E-002;1.811481924960390E-004;3.076095599681139E-003;
2.419666666666667E+009;1.622644215822220E-001;-6.846351176500320E-002;3.947399090975523E-004;3.036252455785871E-003;
2.419833333333334E+009;1.609444469213486E-001;-6.901140511035919E-002;1.344378397334367E-004;3.010042710229754E-003;
2.420000000000000E+009;1.598280817270279E-001;-7.018204033374786E-002;3.750275936909020E-004;3.011072752997279E-003;
2.420166666666667E+009;1.587255597114563E-001;-7.136861234903336E-002;5.172187811695039E-004;3.123068483546376E-003;
2.420333333333334E+009;1.577262729406357E-001;-7.246177643537521E-002;3.618193150032312E-004;3.014624817296863E-003;
2.420500000000000E+009;1.565238535404205E-001;-7.359144091606140E-002;6.051606032997370E-004;3.101644106209278E-003;
2.420666666666667E+009;1.554855555295944E-001;-7.481931895017624E-002;4.954613978043199E-004;3.029405139386654E-003;
2.420833333333334E+009;1.546005308628082E-001;-7.616054266691208E-002;6.497928407043219E-004;2.935548778623343E-003;
2.421000000000000E+009;1.538382768630981E-001;-7.776446640491486E-002;7.551657035946846E-004;3.076476976275444E-003;
2.421166666666667E+009;1.529591381549835E-001;-7.911825180053711E-002;8.531165658496320E-004;3.010113257914782E-003;
2.421333333333334E+009;1.524239927530289E-001;-8.069963008165360E-002;6.741425022482872E-004;2.912708558142185E-003;
2.421500000000000E+009;1.516084969043732E-001;-8.221781998872757E-002;1.013084314763546E-003;2.810412785038352E-003;
2.421666666666667E+009;1.510991752147675E-001;-8.398994058370590E-002;1.009675208479166E-003;2.847029129043222E-003;
2.421833333333334E+009;1.504780650138855E-001;-8.542932569980621E-002;9.314775816164911E-004;2.836350817233324E-003;
2.422000000000000E+009;1.501688957214356E-001;-8.704717457294464E-002;1.082319184206426E-003;3.070194739848375E-003;
2.422166666666667E+009;1.497710496187210E-001;-8.913969248533249E-002;1.276459195651114E-003;2.896040445193648E-003;
2.422333333333334E+009;1.497441679239273E-001;-9.073229134082794E-002;1.284404774196446E-003;3.002433571964502E-003;
2.422500000000000E+009;1.495174467563629E-001;-9.227279573678970E-002;1.435203710570931E-003;2.937169047072530E-003;
2.422666666666667E+009;1.493664085865021E-001;-9.400533884763718E-002;1.524402061477304E-003;2.854664810001850E-003;
2.422833333333334E+009;1.493617743253708E-001;-9.580253809690476E-002;1.556929782964289E-003;2.882383065298200E-003;
2.423000000000000E+009;1.493408381938934E-001;-9.747210144996643E-002;1.651631668210030E-003;2.989987609907985E-003;
2.423166666666667E+009;1.497557163238525E-001;-9.915956854820252E-002;1.671028207056224E-003;2.949392423033714E-003;
2.423333333333334E+009;1.500655859708786E-001;-1.005305796861649E-001;1.806644373573363E-003;2.952635753899813E-003;
2.423500000000000E+009;1.501911580562592E-001;-1.022599935531616E-001;2.015379257500172E-003;3.031802130863071E-003;
2.423666666666667E+009;1.504153013229370E-001;-1.037847399711609E-001;1.998803811147809E-003;2.705976134166122E-003;
2.423833333333334E+009;1.508945673704147E-001;-1.052775532007217E-001;2.006007591262460E-003;2.950596623122692E-003;
2.424000000000000E+009;1.511882096529007E-001;-1.064931303262711E-001;2.210229635238648E-003;2.829435048624873E-003;
2.424166666666667E+009;1.515833437442780E-001;-1.079370453953743E-001;2.428565640002489E-003;2.885536057874560E-003;
2.424333333333334E+009;1.522122025489807E-001;-1.092005968093872E-001;2.502958290278912E-003;2.620801795274019E-003;
2.424500000000000E+009;1.526181846857071E-001;-1.103336885571480E-001;2.598879858851433E-003;2.654098905622959E-003;
2.424666666666667E+009;1.532277315855026E-001;-1.112590953707695E-001;2.688469598069787E-003;2.708822023123503E-003;
2.424833333333334E+009;1.535198986530304E-001;-1.124167740345001E-001;2.963455161079764E-003;2.645323751494288E-003;
2.425000000000000E+009;1.540991216897965E-001;-1.133268252015114E-001;3.043287666514516E-003;2.488787518814206E-003;
2.425166666666667E+009;1.543250232934952E-001;-1.143099740147591E-001;2.950500929728150E-003;2.291586250066757E-003;
2.425333333333334E+009;1.548348218202591E-001;-1.149212047457695E-001;3.108083736151457E-003;2.454481553286314E-003;
2.425500000000000E+009;1.553469449281693E-001;-1.157587096095085E-001;3.277113428339362E-003;2.186065306887031E-003;
2.425666666666667E+009;1.554207950830460E-001;-1.163793206214905E-001;3.218696452677250E-003;2.078508026897907E-003;
2.425833333333334E+009;1.558237969875336E-001;-1.169400587677956E-001;3.493995405733585E-003;1.771018258295953E-003;
2.426000000000000E+009;1.560250371694565E-001;-1.175283044576645E-001;3.631168510764837E-003;1.931122038513422E-003;
2.426166666666667E+009;1.563298106193543E-001;-1.180039048194885E-001;3.693590173497796E-003;1.803706865757704E-003;
2.426333333333334E+009;1.563373506069183E-001;-1.182751432061195E-001;3.845979692414403E-003;1.509652589447796E-003;
2.426500000000000E+009;1.564217209815979E-001;-1.185558736324310E-001;3.878204151988030E-003;1.411363831721246E-003;
2.426666666666667E+009;1.564238518476486E-001;-1.186858564615250E-001;3.796188859269023E-003;1.380517845973373E-003;
2.426833333333334E+009;1.561926603317261E-001;-1.190035268664360E-001;3.976411186158657E-003;1.149563468061388E-003;
2.427000000000000E+009;1.559334844350815E-001;-1.191698163747788E-001;4.089388065040112E-003;1.166210742667317E-003;
2.427166666666667E+009;1.555749475955963E-001;-1.192272603511810E-001;4.069999326020479E-003;9.195068851113319E-004;
2.427333333333334E+009;1.551348567008972E-001;-1.193936169147492E-001;4.155259579420090E-003;9.458043496124446E-004;
2.427500000000000E+009;1.546880155801773E-001;-1.194964200258255E-001;4.103924147784710E-003;6.568224634975195E-004;
2.427666666666667E+009;1.540152132511139E-001;-1.196612492203713E-001;4.129149951040745E-003;6.260325317271054E-004;
