# Version 1.00
#
freq[Hz];re:Trc1_S11;im:Trc1_S11;re:Trc2_S21;im:Trc2_S21;
2.400000000000000E+009;1.687580943107605E-001;3.920803591609001E-002;1.133614685386419E-003;1.230393885634840E-003;
2.400166666666667E+009;1.695653796195984E-001;3.871512040495873E-002;1.036777044646442E-003;1.338661648333073E-003;
2.400333333333334E+009;1.702207326889038E-001;3.785951435565949E-002;1.145590678788722E-003;1.181954983621836E-003;
2.400500000000000E+009;1.709481626749039E-001;3.698515519499779E-002;1.015856745652854E-003;1.146489172242582E-003;
2.400666666666667E+009;1.713332086801529E-001;3.628279268741608E-002;7.614867645315826E-004;1.082166680134833E-003;
2.400833333333334E+009;1.720386147499085E-001;3.569549694657326E-002;7.236225064843893E-004;1.075244857929647E-003;
2.401000000000000E+009;1.726327687501907E-001;3.490382805466652E-002;8.246051147580147E-004;1.332875574007630E-003;
2.401166666666667E+009;1.730241626501083E-001;3.399923816323280E-002;6.764407153241336E-004;1.257068244740367E-003;
2.401333333333334E+009;1.733857542276382E-001;3.336822614073753E-002;6.003584712743759E-004;1.428649993613362E-003;
2.401500000000000E+009;1.736862510442734E-001;3.265780210494995E-002;5.684248171746731E-004;1.445279573090375E-003;
2.401666666666667E+009;1.740159690380096E-001;3.206883370876312E-002;6.526068900711834E-004;1.475568511523306E-003;
2.401833333333334E+009;1.742528527975082E-001;3.130189329385757E-002;7.360035087913275E-004;1.558174262754619E-003;
2.402000000000000E+009;1.742906272411346E-001;3.066154941916466E-002;5.210251547396183E-004;1.631818595342338E-003;
2.402166666666667E+009;1.742008775472641E-001;2.979291230440140E-002;5.800897488370538E-004;1.771064358763397E-003;
2.402333333333334E+009;1.742614507675171E-001;2.915744110941887E-002;6.488194339908660E-004;1.690834644250572E-003;
2.402500000000000E+009;1.745324730873108E-001;2.852224931120873E-002;8.868599543347955E-004;1.891424413770437E-003;
2.402666666666667E+009;1.744751185178757E-001;2.773386985063553E-002;6.232668529264629E-004;1.926748314872384E-003;
2.402833333333334E+009;1.741829663515091E-001;2.706205099821091E-002;7.891885470598936E-004;2.144158119335771E-003;
2.403000000000000E+009;1.739993691444397E-001;2.604253031313419E-002;1.047415542416275E-003;2.144764410331845E-003;
2.403166666666667E+009;1.739620119333267E-001;2.502464689314365E-002;1.146256108768284E-003;2.075695432722569E-003;
2.403333333333334E+009;1.738227158784866E-001;2.418707311153412E-002;1.174632459878922E-003;2.240214496850967E-003;
2.403500000000000E+009;1.734765470027924E-001;2.307360246777535E-002;1.354480162262917E-003;2.304061083123088E-003;
2.403666666666667E+009;1.731367260217667E-001;2.199678868055344E-002;1.495574251748622E-003;2.154155867174268E-003;
2.403833333333334E+009;1.731782555580139E-001;2.087431401014328E-002;1.700728200376034E-003;2.285175025463104E-003;
2.404000000000000E+009;1.726705431938171E-001;1.989723555743694E-002;2.011826727539301E-003;2.260116394609213E-003;
2.404166666666667E+009;1.723087579011917E-001;1.848232373595238E-002;2.007418312132359E-003;2.301681553944945E-003;
2.404333333333334E+009;1.721263378858566E-001;1.742303185164928E-002;2.253141952678561E-003;2.161954762414098E-003;
2.404500000000000E+009;1.717223823070526E-001;1.583104208111763E-002;2.385196508839726E-003;2.066602231934667E-003;
2.404666666666667E+009;1.715347021818161E-001;1.458317972719669E-002;2.330834744498134E-003;2.099694916978478E-003;
2.404833333333334E+009;1.711855232715607E-001;1.315675862133503E-002;2.570381620898843E-003;2.041915664449334E-003;
2.405000000000000E+009;1.709586977958679E-001;1.160995662212372E-002;2.901799976825714E-003;2.105178777128458E-003;
2.405166666666667E+009;1.708229780197144E-001;9.974652901291847E-003;3.012422705069184E-003;1.839062897488475E-003;
2.405333333333334E+009;1.704894006252289E-001;8.271063677966595E-003;3.159132320433855E-003;1.850785920396447E-003;
2.405500000000000E+009;1.701503545045853E-001;6.711038295179606E-003;3.191814757883549E-003;1.628062804229558E-003;
2.405666666666667E+009;1.699558794498444E-001;5.025020800530911E-003;3.556316252797842E-003;1.509703579358757E-003;
2.405833333333334E+009;1.696756929159164E-001;3.372643375769258E-003;3.642268013209105E-003;1.159138046205044E-003;
2.406000000000000E+009;1.693979650735855E-001;1.558339456096292E-003;3.777550067752600E-003;1.094886451028287E-003;
2.406166666666667E+009;1.689968407154083E-001;-1.082035523722880E-004;4.001404158771038E-003;7.756940904073417E-004;
2.406333333333334E+009;1.688744723796845E-001;-1.910676248371601E-003;3.869806183502078E-003;5.999992717988789E-004;
2.406500000000000E+009;1.685647368431091E-001;-3.635393222793937E-003;3.980786539614201E-003;3.888812789227814E-004;
2.406666666666667E+009;1.681141406297684E-001;-5.420886911451817E-003;4.119962919503450E-003;7.532917152275331E-006;
2.406833333333334E+009;1.679166257381439E-001;-7.117638364434242E-003;4.123303107917309E-003;-2.551472571212798E-004;
2.407000000000000E+009;1.676792055368424E-001;-8.799667470157147E-003;3.969068173319101E-003;-5.614907131530345E-004;
2.407166666666667E+009;1.675830632448196E-001;-1.035652961581945E-002;3.911344334483147E-003;-7.190835312940180E-004;
2.407333333333334E+009;1.673487275838852E-001;-1.212131604552269E-002;3.625306300818920E-003;-1.091586425900459E-003;
2.407500000000000E+009;1.670847237110138E-001;-1.347623113542795E-002;3.569761523976922E-003;-1.323290169239044E-003;
2.407666666666667E+009;1.671413183212280E-001;-1.482606958597899E-002;3.542177611961961E-003;-1.491246162913740E-003;
2.407833333333334E+009;1.667218357324600E-001;-1.638224348425865E-002;3.167137969285250E-003;-1.532625989057124E-003;
2.408000000000000E+009;1.669272780418396E-001;-1.773832924664021E-002;3.040368668735027E-003;-1.685180584900081E-003;
2.408166666666667E+009;1.666619181632996E-001;-1.873151212930679E-002;2.809860045090318E-003;-1.713616540655494E-003;
2.408333333333334E+009;1.670077145099640E-001;-1.998250372707844E-002;2.814294304698706E-003;-1.797145931050181E-003;
2.408500000000000E+009;1.670742481946945E-001;-2.117748372256756E-002;2.696802606806159E-003;-1.840438344515860E-003;
2.408666666666667E+009;1.672210693359375E-001;-2.228039130568504E-002;2.425261307507753E-003;-1.829147106036544E-003;
2.408833333333334E+009;1.674367934465408E-001;-2.333110570907593E-002;2.477716421708465E-003;-1.913709798827767E-003;
2.409000000000000E+009;1.675835549831390E-001;-2.422329410910606E-002;2.315087942406535E-003;-1.970077399164438E-003;
2.409166666666667E+009;1.680973917245865E-001;-2.528044208884239E-002;2.203178592026234E-003;-1.961019821465015E-003;
2.409333333333334E+009;1.684962362051010E-001;-2.631027810275555E-002;2.137538976967335E-003;-1.959419343620539E-003;
2.409500000000000E+009;1.687270104885101E-001;-2.727627009153366E-002;1.946162083186209E-003;-2.041735919192433E-003;
2.409666666666667E+009;1.691546887159348E-001;-2.829191461205483E-002;1.723754801787436E-003;-2.031418029218912E-003;
2.409833333333334E+009;1.693536043167114E-001;-2.906784787774086E-002;1.664665876887739E-003;-1.916563604027033E-003;
2.410000000000000E+009;1.696058362722397E-001;-2.994897589087486E-002;1.544478116557002E-003;-1.877255039289594E-003;
2.410166666666667E+009;1.700447946786881E-001;-3.078719973564148E-002;1.569740707054734E-003;-1.991927623748779E-003;
2.410333333333334E+009;1.701855063438416E-001;-3.174329176545143E-002;1.549040549434722E-003;-1.720456406474114E-003;
2.410500000000000E+009;1.703802943229675E-001;-3.261183947324753E-002;1.621819101274014E-003;-1.889623235911131E-003;
2.410666666666667E+009;1.704876422882080E-001;-3.349770978093147E-002;1.642370247282088E-003;-1.612495514564216E-003;
2.410833333333334E+009;1.707437634468079E-001;-3.418574109673500E-002;1.538284472189844E-003;-1.626543467864394E-003;
2.411000000000000E+009;1.708023101091385E-001;-3.493299335241318E-002;1.595129258930683E-003;-1.613557687960565E-003;
2.411166666666667E+009;1.708102524280548E-001;-3.577188029885292E-002;1.538829761557281E-003;-1.665657153353095E-003;
2.411333333333334E+009;1.707494407892227E-001;-3.665127977728844E-002;1.741003012284637E-003;-1.604202785529196E-003;
2.411500000000000E+009;1.707867980003357E-001;-3.738696128129959E-002;1.693498925305903E-003;-1.591657637618482E-003;
2.411666666666667E+009;1.707270443439484E-001;-3.800313547253609E-002;1.864181132987142E-003;-1.773023395799100E-003;
2.411833333333334E+009;1.705952137708664E-001;-3.859868645668030E-002;1.745140762068331E-003;-1.765431021340191E-003;
2.412000000000000E+009;1.704344451427460E-001;-3.925402089953423E-002;1.708885538391769E-003;-1.904916483908892E-003;
2.412166666666667E+009;1.703539192676544E-001;-4.015422984957695E-002;1.882588258013129E-003;-2.108111046254635E-003;
2.412333333333334E+009;1.702373027801514E-001;-4.088526964187622E-002;1.776118180714548E-003;-2.087655942887068E-003;
2.412500000000000E+009;1.699315160512924E-001;-4.142655059695244E-002;1.839657546952367E-003;-2.361469203606248E-003;
2.412666666666667E+009;1.696103066205978E-001;-4.250605776906014E-002;1.819374854676426E-003;-2.477142494171858E-003;
2.412833333333334E+009;1.691236346960068E-001;-4.311106726527214E-002;1.757078687660396E-003;-2.457337221130729E-003;
2.413000000000000E+009;1.684605479240418E-001;-4.404430463910103E-002;1.585569116286933E-003;-2.648793160915375E-003;
2.413166666666667E+009;1.680747270584106E-001;-4.484796524047852E-002;1.616025809198618E-003;-2.864696551114321E-003;
2.413333333333334E+009;1.675413399934769E-001;-4.571519792079926E-002;1.566389808431268E-003;-2.990178298205137E-003;
2.413500000000000E+009;1.670012623071671E-001;-4.657781869173050E-002;1.394471619278193E-003;-3.121671266853809E-003;
2.413666666666667E+009;1.663866043090820E-001;-4.727846756577492E-002;1.460225903429091E-003;-3.229266265407205E-003;
2.413833333333334E+009;1.656773388385773E-001;-4.810291156172752E-002;1.161228865385056E-003;-3.332454478368163E-003;
2.414000000000000E+009;1.649942100048065E-001;-4.899417981505394E-002;1.025851350277662E-003;-3.595631802454591E-003;
2.414166666666667E+009;1.644102931022644E-001;-4.972115159034729E-002;1.054854830726981E-003;-3.632831852883101E-003;
2.414333333333334E+009;1.639219969511032E-001;-5.064431205391884E-002;9.072693646885455E-004;-3.871956840157509E-003;
2.414500000000000E+009;1.635249704122543E-001;-5.142196640372276E-002;7.295822142623365E-004;-3.870270447805524E-003;
2.414666666666667E+009;1.630018055438995E-001;-5.228321254253388E-002;5.503409192897379E-004;-4.111960530281067E-003;
2.414833333333334E+009;1.622567921876907E-001;-5.331991240382195E-002;3.531131369527429E-004;-4.065747838467360E-003;
2.415000000000000E+009;1.619476974010468E-001;-5.429862812161446E-002;-3.262255268055014E-005;-4.321252927184105E-003;
2.415166666666667E+009;1.615656614303589E-001;-5.536931380629540E-002;-1.651009952183813E-004;-4.281288012862206E-003;
2.415333333333334E+009;1.612270623445511E-001;-5.656884238123894E-002;-6.644977838732302E-004;-4.372082185000181E-003;
2.415500000000000E+009;1.609460562467575E-001;-5.755114555358887E-002;-9.189182310365140E-004;-4.538387525826693E-003;
2.415666666666667E+009;1.604102849960327E-001;-5.871253833174706E-002;-1.190748997032642E-003;-4.181815776973963E-003;
2.415833333333334E+009;1.601109504699707E-001;-6.000229343771935E-002;-1.499095116741955E-003;-4.047995433211327E-003;
2.416000000000000E+009;1.596229225397110E-001;-6.130431592464447E-002;-1.769304741173983E-003;-3.952740691602230E-003;
2.416166666666667E+009;1.594609320163727E-001;-6.251346319913864E-002;-2.003244357183576E-003;-3.750296309590340E-003;
2.416333333333334E+009;1.589553654193878E-001;-6.384897232055664E-002;-2.241221955046058E-003;-3.515556221827865E-003;
2.416500000000000E+009;1.585733890533447E-001;-6.535946577787399E-002;-2.369969151914120E-003;-3.145015100017190E-003;
2.416666666666667E+009;1.581358313560486E-001;-6.664566695690155E-002;-2.429398242384195E-003;-3.117435378953815E-003;
2.416833333333334E+009;1.577719449996948E-001;-6.809013336896896E-002;-2.474883571267128E-003;-2.783488016575575E-003;
2.417000000000000E+009;1.571587622165680E-001;-6.938765943050385E-002;-2.562014153227210E-003;-2.643813611939549E-003;
2.417166666666667E+009;1.567544341087341E-001;-7.050136476755142E-002;-2.656115917488933E-003;-2.341539133340120E-003;
2.417333333333334E+009;1.564166694879532E-001;-7.173038274049759E-002;-2.558106323704124E-003;-2.289566444233060E-003;
2.417500000000000E+009;1.561300456523895E-001;-7.323777675628662E-002;-2.629247028380632E-003;-2.207722514867783E-003;
2.417666666666667E+009;1.557711809873581E-001;-7.404033094644547E-002;-2.482337877154350E-003;-2.024118090048432E-003;
2.417833333333334E+009;1.555262058973312E-001;-7.523743063211441E-002;-2.521034330129623E-003;-1.911452622152865E-003;
2.418000000000000E+009;1.551417112350464E-001;-7.648013532161713E-002;-2.600163454189897E-003;-1.821487443521619E-003;
2.418166666666667E+009;1.549689918756485E-001;-7.734113186597824E-002;-2.716565737500787E-003;-1.747314003296197E-003;
2.418333333333334E+009;1.550278514623642E-001;-7.859732955694199E-002;-2.637699013575912E-003;-1.693782396614552E-003;
2.418500000000000E+009;1.547784507274628E-001;-7.946099340915680E-002;-2.688293810933828E-003;-1.425759401172400E-003;
2.418666666666667E+009;1.545082181692123E-001;-8.039957284927368E-002;-2.574000507593155E-003;-1.467639114707708E-003;
2.418833333333334E+009;1.541910767555237E-001;-8.147880434989929E-002;-2.827531658113003E-003;-1.336806570179761E-003;
2.419000000000000E+009;1.539843082427979E-001;-8.227727562189102E-002;-2.773644635453820E-003;-1.258318428881466E-003;
2.419166666666667E+009;1.539212018251419E-001;-8.316803723573685E-002;-2.789615420624614E-003;-1.136684091761708E-003;
2.419333333333334E+009;1.535126715898514E-001;-8.384437859058380E-002;-2.700632438063622E-003;-8.973204530775547E-004;
2.419500000000000E+009;1.535430848598480E-001;-8.479698747396469E-002;-2.737760310992599E-003;-9.914354886859655E-004;
2.419666666666667E+009;1.534470766782761E-001;-8.551932871341705E-002;-2.580402884632349E-003;-9.415372624062002E-004;
2.419833333333334E+009;1.531690508127213E-001;-8.621409535408020E-002;-2.886424539610744E-003;-6.673210300505161E-004;
2.420000000000000E+009;1.531497836112976E-001;-8.691222220659256E-002;-2.605488756671548E-003;-5.321070202626288E-004;
2.420166666666667E+009;1.530845016241074E-001;-8.751899749040604E-002;-2.594479359686375E-003;-6.250556907616556E-004;
2.420333333333334E+009;1.529258191585541E-001;-8.811280131340027E-002;-2.654138719663024E-003;-5.600494332611561E-004;
2.420500000000000E+009;1.527217179536820E-001;-8.859987556934357E-002;-2.490049228072166E-003;-2.748207480181009E-004;
2.420666666666667E+009;1.526795327663422E-001;-8.927791565656662E-002;-2.559073502197862E-003;-1.498552737757564E-004;
2.420833333333334E+009;1.524670720100403E-001;-8.987409621477127E-002;-2.548011718317866E-003;-2.252738922834396E-004;
2.421000000000000E+009;1.521439999341965E-001;-9.038197249174118E-002;-2.543069189414382E-003;-1.762057509040460E-004;
2.421166666666667E+009;1.521246135234833E-001;-9.090369939804077E-002;-2.567774616181850E-003;-4.207513484288938E-005;
2.421333333333334E+009;1.518453657627106E-001;-9.168741106987000E-002;-2.453711815178394E-003;1.822956692194566E-004;
2.421500000000000E+009;1.513450443744659E-001;-9.226938337087631E-002;-2.296865917742252E-003;1.020677955239080E-004;
2.421666666666667E+009;1.510284245014191E-001;-9.282561391592026E-002;-2.310294192284346E-003;6.416669202735648E-005;
2.421833333333334E+009;1.507303565740585E-001;-9.348288923501968E-002;-2.198814647272229E-003;2.253006969112903E-004;
2.422000000000000E+009;1.501527577638626E-001;-9.399802982807159E-002;-2.049855189397931E-003;2.746056707110256E-004;
2.422166666666667E+009;1.496748328208923E-001;-9.472132474184036E-002;-2.049451228231192E-003;1.325650955550373E-004;
2.422333333333334E+009;1.491741538047791E-001;-9.511705487966538E-002;-1.991680590435863E-003;2.097179822158068E-004;
2.422500000000000E+009;1.485544890165329E-001;-9.562385082244873E-002;-1.859680283814669E-003;2.359255304327235E-004;
2.422666666666667E+009;1.479090750217438E-001;-9.639474749565125E-002;-2.050450770184398E-003;9.310075256507844E-005;
2.422833333333334E+009;1.473832428455353E-001;-9.704100340604782E-002;-1.818403019569814E-003;-2.907380257965997E-005;
2.423000000000000E+009;1.466834247112274E-001;-9.776628762483597E-002;-1.937835011631250E-003;-9.553300333209336E-005;
2.423166666666667E+009;1.459792107343674E-001;-9.836261719465256E-002;-1.927507459186018E-003;-2.044375432888046E-004;
2.423333333333334E+009;1.453494578599930E-001;-9.889964014291763E-002;-1.972637372091413E-003;-1.584438723511994E-004;
2.423500000000000E+009;1.446826457977295E-001;-9.971094876527786E-002;-2.077219076454639E-003;-1.992525940295309E-004;
2.423666666666667E+009;1.438405215740204E-001;-1.004541218280792E-001;-2.248502336442471E-003;-1.586397847859189E-004;
2.423833333333334E+009;1.431944817304611E-001;-1.011944636702538E-001;-2.301402390003204E-003;-8.354816964128986E-005;
2.424000000000000E+009;1.421604156494141E-001;-1.018713936209679E-001;-2.317147795110941E-003;-5.300364864524454E-005;
2.424166666666667E+009;1.414765715599060E-001;-1.026109680533409E-001;-2.565782982856035E-003;4.800927490578033E-005;
2.424333333333334E+009;1.406589746475220E-001;-1.034277901053429E-001;-2.599952043965459E-003;5.962841169093736E-005;
2.424500000000000E+009;1.398376822471619E-001;-1.042770370841026E-001;-2.769187791272998E-003;1.748400827636942E-004;
2.424666666666667E+009;1.392036825418472E-001;-1.049236431717873E-001;-2.730544889345765E-003;3.339398535899818E-004;
2.424833333333334E+009;1.381367295980454E-001;-1.058288812637329E-001;-2.726902952417731E-003;4.228013276588172E-004;
2.425000000000000E+009;1.375957578420639E-001;-1.068031638860703E-001;-2.706012222915888E-003;6.831336067989469E-004;
2.425166666666667E+009;1.366724818944931E-001;-1.077347397804260E-001;-2.834951505064964E-003;5.558255943469703E-004;
2.425333333333334E+009;1.360976397991180E-001;-1.085339039564133E-001;-2.725035883486271E-003;8.463988779112697E-004;
2.425500000000000E+009;1.353910714387894E-001;-1.094781532883644E-001;-2.814217703416944E-003;1.138568040914834E-003;
2.425666666666667E+009;1.345456838607788E-001;-1.104664579033852E-001;-2.560939174145460E-003;1.084723626263440E-003;
2.425833333333334E+009;1.339321136474609E-001;-1.113654151558876E-001;-2.620979910716415E-003;1.213103998452425E-003;
2.426000000000000E+009;1.332082450389862E-001;-1.124423965811729E-001;-2.696532523259521E-003;1.372597878798842E-003;
2.426166666666667E+009;1.327075362205505E-001;-1.135490238666534E-001;-2.493988722562790E-003;1.507023000158370E-003;
2.426333333333334E+009;1.320576369762421E-001;-1.145264282822609E-001;-2.656900556758046E-003;1.605934463441372E-003;
2.426500000000000E+009;1.314654797315598E-001;-1.154774725437164E-001;-2.587908180430532E-003;1.641681417822838E-003;
2.426666666666667E+009;1.309390366077423E-001;-1.162979379296303E-001;-2.549013821408153E-003;1.897134818136692E-003;
2.426833333333334E+009;1.302872598171234E-001;-1.173642203211784E-001;-2.326446585357189E-003;1.846884842962027E-003;
2.427000000000000E+009;1.297861337661743E-001;-1.183267012238503E-001;-2.289025112986565E-003;2.013061195611954E-003;
2.427166666666667E+009;1.292841583490372E-001;-1.190426945686340E-001;-2.230562968179584E-003;2.221412723883987E-003;
2.427333333333334E+009;1.287792474031448E-001;-1.200998872518539E-001;-2.224264200776815E-003;2.358398865908384E-003;
2.427500000000000E+009;1.285054385662079E-001;-1.209745779633522E-001;-1.945951487869024E-003;2.308372408151627E-003;
2.427666666666667E+009;1.280836760997772E-001;-1.218161433935165E-001;-2.028920920565724E-003;2.375391311943531E-003;
