# Version 1.00
#
freq[Hz];re:Trc1_S11;im:Trc1_S11;re:Trc2_S21;im:Trc2_S21;
2.400000000000000E+009;1.619314700365067E-001;5.659965425729752E-002;1.287705264985561E-003;3.219484351575375E-003;
2.400166666666667E+009;1.620588600635529E-001;5.524651706218720E-002;1.481723855249584E-003;3.278519725427032E-003;
2.400333333333334E+009;1.620355099439621E-001;5.352914705872536E-002;1.484001288190484E-003;3.346457146108151E-003;
2.400500000000000E+009;1.620358079671860E-001;5.172387138009071E-002;1.622747862711549E-003;3.451624885201454E-003;
2.400666666666667E+009;1.622146815061569E-001;4.983599111437798E-002;1.650749356485903E-003;3.369673388078809E-003;
2.400833333333334E+009;1.623953431844711E-001;4.831860214471817E-002;1.939006964676082E-003;3.314602188766003E-003;
2.401000000000000E+009;1.624234616756439E-001;4.645889624953270E-002;2.062452025711536E-003;3.407907905057073E-003;
2.401166666666667E+009;1.626894026994705E-001;4.473152756690979E-002;2.168252831324935E-003;3.364600241184235E-003;
2.401333333333334E+009;1.628874987363815E-001;4.289095103740692E-002;2.399071818217635E-003;3.351565450429916E-003;
2.401500000000000E+009;1.631771922111511E-001;4.116735607385635E-002;2.652216469869018E-003;3.438923275098205E-003;
2.401666666666667E+009;1.633922010660172E-001;3.947871923446655E-002;2.637577475979924E-003;3.354573156684637E-003;
2.401833333333334E+009;1.637761145830154E-001;3.774077445268631E-002;2.890390576794744E-003;3.323485376313329E-003;
2.402000000000000E+009;1.640805453062058E-001;3.612224385142326E-002;3.081657225266099E-003;3.244545543566346E-003;
2.402166666666667E+009;1.643153727054596E-001;3.420860320329666E-002;3.439720487222076E-003;3.128523007035255E-003;
2.402333333333334E+009;1.648100614547730E-001;3.270025178790093E-002;3.418365493416786E-003;2.943143481388688E-003;
2.402500000000000E+009;1.654162257909775E-001;3.108544088900089E-002;3.750079078599811E-003;2.905567642301321E-003;
2.402666666666667E+009;1.658713519573212E-001;2.965161204338074E-002;3.897758200764656E-003;2.761059207841754E-003;
2.402833333333334E+009;1.662864536046982E-001;2.823334001004696E-002;4.074379801750183E-003;2.595312194898725E-003;
2.403000000000000E+009;1.669939309358597E-001;2.679132856428623E-002;4.079282749444246E-003;2.473452361300588E-003;
2.403166666666667E+009;1.675910651683807E-001;2.520402707159519E-002;4.211300052702427E-003;2.168178558349609E-003;
2.403333333333334E+009;1.680505871772766E-001;2.387122437357903E-002;4.677318967878819E-003;1.990350894629955E-003;
2.403500000000000E+009;1.688034683465958E-001;2.287611924111843E-002;4.585104063153267E-003;1.708804396912456E-003;
2.403666666666667E+009;1.693468242883682E-001;2.138569764792919E-002;4.841737914830446E-003;1.422533649019897E-003;
2.403833333333334E+009;1.702045202255249E-001;2.015389688313007E-002;4.898744169622660E-003;1.157225109636784E-003;
2.404000000000000E+009;1.708587110042572E-001;1.916947588324547E-002;4.954483360052109E-003;9.841031860560179E-004;
2.404166666666667E+009;1.714570522308350E-001;1.785932295024395E-002;5.002844613045454E-003;6.336712976917625E-004;
2.404333333333334E+009;1.721177250146866E-001;1.693800650537014E-002;5.078617483377457E-003;4.726984188891947E-004;
2.404500000000000E+009;1.725375801324844E-001;1.596256345510483E-002;5.039817653596401E-003;-9.075042180484161E-005;
2.404666666666667E+009;1.733026057481766E-001;1.514099165797234E-002;4.940992221236229E-003;-1.867935352493078E-004;
2.404833333333334E+009;1.736691594123840E-001;1.418367493897677E-002;4.311286378651857E-003;-2.159414143534377E-004;
2.405000000000000E+009;1.744546294212341E-001;1.341368444263935E-002;5.079797003418207E-003;-5.535785458050668E-004;
2.405166666666667E+009;1.750360280275345E-001;1.276180241256952E-002;4.624780267477036E-003;-1.525583793409169E-003;
2.405333333333334E+009;1.755311787128449E-001;1.193348411470652E-002;4.778945818543434E-003;-1.044771168380976E-003;
2.405500000000000E+009;1.761512309312820E-001;1.135279703885317E-002;3.934758715331554E-003;-1.779271988198161E-003;
2.405666666666667E+009;1.763723045587540E-001;1.092327199876308E-002;4.208442289382219E-003;-1.637133536860347E-003;
2.405833333333334E+009;1.766564697027206E-001;1.045676972717047E-002;3.968378528952599E-003;-1.825812272727490E-003;
2.406000000000000E+009;1.772348880767822E-001;9.781441651284695E-003;4.154752474278212E-003;-2.433313988149166E-003;
2.406166666666667E+009;1.774745285511017E-001;9.387220256030560E-003;3.928733058273792E-003;-2.771598054096103E-003;
2.406333333333334E+009;1.777057200670242E-001;8.868079632520676E-003;4.002060741186142E-003;-2.347110072150827E-003;
2.406500000000000E+009;1.777538061141968E-001;8.307109586894512E-003;3.457817947492003E-003;-2.353798830881715E-003;
2.406666666666667E+009;1.779555976390839E-001;7.665178272873163E-003;3.057601395994425E-003;-2.957907505333424E-003;
2.406833333333334E+009;1.779890358448029E-001;7.336090318858624E-003;3.343774704262614E-003;-2.606293419376016E-003;
2.407000000000000E+009;1.780745387077332E-001;6.655763834714890E-003;2.900764578953385E-003;-2.568613970652223E-003;
2.407166666666667E+009;1.781557202339172E-001;6.215632427483797E-003;2.771878847852349E-003;-2.601688727736473E-003;
2.407333333333334E+009;1.779552698135376E-001;5.449980031698942E-003;2.308370778337121E-003;-2.951796399429441E-003;
2.407500000000000E+009;1.778550446033478E-001;4.934094846248627E-003;2.314188284799457E-003;-2.887378679588437E-003;
2.407666666666667E+009;1.776859313249588E-001;4.410535562783480E-003;2.629039343446493E-003;-2.732045948505402E-003;
2.407833333333334E+009;1.771263629198074E-001;3.391158767044544E-003;2.150155836716294E-003;-2.792372368276119E-003;
2.408000000000000E+009;1.770417094230652E-001;2.712211571633816E-003;2.066210843622685E-003;-2.755461027845740E-003;
2.408166666666667E+009;1.766797155141830E-001;1.972673460841179E-003;1.880686730146408E-003;-2.731100656092167E-003;
2.408333333333334E+009;1.765126883983612E-001;1.153165940195322E-003;1.680958201177418E-003;-2.813945990055800E-003;
2.408500000000000E+009;1.758922636508942E-001;1.415787264704704E-004;1.617415226064622E-003;-2.742744982242584E-003;
2.408666666666667E+009;1.755094230175018E-001;-9.306315914727747E-004;1.416672370396555E-003;-2.770631806924939E-003;
2.408833333333334E+009;1.749686896800995E-001;-1.889156410470605E-003;1.287184422835708E-003;-2.675716299563646E-003;
2.409000000000000E+009;1.745205521583557E-001;-2.786684781312943E-003;1.184516586363316E-003;-2.806526143103838E-003;
2.409166666666667E+009;1.740601807832718E-001;-4.195787012577057E-003;9.053252870216966E-004;-2.700982382521033E-003;
2.409333333333334E+009;1.735348999500275E-001;-5.456934683024883E-003;9.247811394743621E-004;-2.594941761344671E-003;
2.409500000000000E+009;1.731521040201187E-001;-6.780366413295269E-003;8.400866063311696E-004;-2.557690022513270E-003;
2.409666666666667E+009;1.725297272205353E-001;-8.110168389976025E-003;8.231526589952409E-004;-2.408426720649004E-003;
2.409833333333334E+009;1.719862222671509E-001;-9.514728561043739E-003;7.410669932141900E-004;-2.375765005126596E-003;
2.410000000000000E+009;1.716813594102860E-001;-1.099408324807882E-002;8.012588950805366E-004;-2.488952595740557E-003;
2.410166666666667E+009;1.710521429777145E-001;-1.254060026258230E-002;6.649483693763614E-004;-2.183543285354972E-003;
2.410333333333334E+009;1.707521080970764E-001;-1.409179065376520E-002;6.300666136667132E-004;-2.193197375163436E-003;
2.410500000000000E+009;1.702643334865570E-001;-1.570008695125580E-002;5.999586428515613E-004;-2.072774106636643E-003;
2.410666666666667E+009;1.699754893779755E-001;-1.746196672320366E-002;6.192127475515008E-004;-2.034450881183147E-003;
2.410833333333334E+009;1.695910543203354E-001;-1.899513788521290E-002;6.448220228776336E-004;-2.127512590959668E-003;
2.411000000000000E+009;1.694780737161636E-001;-2.068083547055721E-002;7.044722442515194E-004;-1.878483337350190E-003;
2.411166666666667E+009;1.691586077213287E-001;-2.260163053870201E-002;6.860140711069107E-004;-1.949344063177705E-003;
2.411333333333334E+009;1.690021306276321E-001;-2.429451979696751E-002;6.949712405912578E-004;-1.919791218824685E-003;
2.411500000000000E+009;1.688362061977387E-001;-2.609452232718468E-002;7.257342804223299E-004;-1.908801263198257E-003;
2.411666666666667E+009;1.688690036535263E-001;-2.799378335475922E-002;6.054660771042109E-004;-1.904722885228694E-003;
2.411833333333334E+009;1.689458489418030E-001;-2.968479692935944E-002;6.746025756001473E-004;-1.799318823032081E-003;
2.412000000000000E+009;1.692221760749817E-001;-3.163783624768257E-002;7.614871719852090E-004;-1.921759336255491E-003;
2.412166666666667E+009;1.689309179782867E-001;-3.344297036528587E-002;7.721995352767408E-004;-2.036333549767733E-003;
2.412333333333334E+009;1.693884581327438E-001;-3.494162485003471E-002;8.512761560268700E-004;-2.077400917187333E-003;
2.412500000000000E+009;1.694281697273254E-001;-3.669319301843643E-002;6.801976705901325E-004;-2.140730852261186E-003;
2.412666666666667E+009;1.696212887763977E-001;-3.864252194762230E-002;8.609424112364650E-004;-2.164258854463697E-003;
2.412833333333334E+009;1.699206978082657E-001;-4.033505544066429E-002;7.809666567482054E-004;-2.107839100062847E-003;
2.413000000000000E+009;1.703429967164993E-001;-4.204518347978592E-002;8.117613615468144E-004;-2.155587542802095E-003;
2.413166666666667E+009;1.705577820539475E-001;-4.345360398292542E-002;5.441210232675076E-004;-2.258461434394121E-003;
2.413333333333334E+009;1.709315776824951E-001;-4.498104006052017E-002;5.885089631192386E-004;-2.266224706545472E-003;
2.413500000000000E+009;1.713652759790421E-001;-4.643407464027405E-002;5.487407906912267E-004;-2.360248006880283E-003;
2.413666666666667E+009;1.716301292181015E-001;-4.814970865845680E-002;6.200104253366590E-004;-2.351793693378568E-003;
2.413833333333334E+009;1.719987243413925E-001;-4.929744452238083E-002;5.453527555800974E-004;-2.288989489898086E-003;
2.414000000000000E+009;1.723002493381500E-001;-5.056442320346832E-002;5.134177044965327E-004;-2.484628465026617E-003;
2.414166666666667E+009;1.728506237268448E-001;-5.176186934113503E-002;3.947165387216955E-004;-2.448979998007417E-003;
2.414333333333334E+009;1.732452213764191E-001;-5.297910794615746E-002;3.187632828485221E-004;-2.588390139862895E-003;
2.414500000000000E+009;1.738436222076416E-001;-5.397748574614525E-002;2.851323806680739E-004;-2.427140483632684E-003;
2.414666666666667E+009;1.741910576820374E-001;-5.492058768868446E-002;1.332481770077720E-004;-2.586547285318375E-003;
2.414833333333334E+009;1.743638962507248E-001;-5.607789754867554E-002;3.245884436182678E-004;-2.626001369208098E-003;
2.415000000000000E+009;1.748631298542023E-001;-5.683197453618050E-002;5.147502088220790E-005;-2.673465991392732E-003;
2.415166666666667E+009;1.750535219907761E-001;-5.753912776708603E-002;2.228549419669434E-005;-2.621128922328353E-003;
2.415333333333334E+009;1.754354387521744E-001;-5.835589393973351E-002;-4.239303962094709E-005;-2.759144874289632E-003;
2.415500000000000E+009;1.754723340272903E-001;-5.888786539435387E-002;-1.618213427718729E-004;-2.654167590662837E-003;
2.415666666666667E+009;1.757043004035950E-001;-5.941765382885933E-002;-1.432915596524254E-004;-2.715612296015024E-003;
2.415833333333334E+009;1.758120059967041E-001;-6.005558744072914E-002;-3.276964416727424E-004;-2.827561926096678E-003;
2.416000000000000E+009;1.757502555847168E-001;-6.056650727987289E-002;-3.530859830789268E-004;-2.768341684713960E-003;
2.416166666666667E+009;1.759476512670517E-001;-6.088479980826378E-002;-4.227423632983118E-004;-2.927784109488130E-003;
2.416333333333334E+009;1.758509874343872E-001;-6.124613061547279E-002;-6.547439843416214E-004;-2.812205115333200E-003;
2.416500000000000E+009;1.756438314914703E-001;-6.172407045960426E-002;-7.084788521751761E-004;-2.841827459633350E-003;
2.416666666666667E+009;1.753678023815155E-001;-6.199340149760246E-002;-8.336596074514091E-004;-2.700059209018946E-003;
2.416833333333334E+009;1.751744449138641E-001;-6.247331574559212E-002;-7.863805512897670E-004;-2.660271478816867E-003;
2.417000000000000E+009;1.745650768280029E-001;-6.260149925947189E-002;-9.266355191357434E-004;-2.643096493557096E-003;
2.417166666666667E+009;1.741759926080704E-001;-6.298313289880753E-002;-1.046946388669312E-003;-2.643891610205174E-003;
2.417333333333334E+009;1.737069487571716E-001;-6.320037692785263E-002;-9.968042140826583E-004;-2.621699357405305E-003;
2.417500000000000E+009;1.729574501514435E-001;-6.365177035331726E-002;-1.309803919866681E-003;-2.663657302036881E-003;
2.417666666666667E+009;1.724720895290375E-001;-6.381100416183472E-002;-1.183159532956779E-003;-2.482775365933776E-003;
2.417833333333334E+009;1.717136800289154E-001;-6.420229375362396E-002;-1.181111088953912E-003;-2.498850459232926E-003;
2.418000000000000E+009;1.708830744028091E-001;-6.470279395580292E-002;-1.299088937230408E-003;-2.518303226679564E-003;
2.418166666666667E+009;1.699065268039703E-001;-6.485586613416672E-002;-1.418753061443567E-003;-2.441942924633622E-003;
2.418333333333334E+009;1.693074703216553E-001;-6.544932723045349E-002;-1.317296642810106E-003;-2.386481035500765E-003;
2.418500000000000E+009;1.682285815477371E-001;-6.584042310714722E-002;-1.527269487269223E-003;-2.321616979315877E-003;
2.418666666666667E+009;1.671383976936340E-001;-6.635791063308716E-002;-1.468268688768148E-003;-2.360481768846512E-003;
2.418833333333334E+009;1.659318506717682E-001;-6.700497120618820E-002;-1.505471416749060E-003;-2.293272176757455E-003;
2.419000000000000E+009;1.647573560476303E-001;-6.758119910955429E-002;-1.573756453581154E-003;-2.216489054262638E-003;
2.419166666666667E+009;1.637235134840012E-001;-6.819770485162735E-002;-1.621122471988201E-003;-2.154210815206170E-003;
2.419333333333334E+009;1.625840514898300E-001;-6.877608597278595E-002;-1.622517942450941E-003;-2.224856754764915E-003;
2.419500000000000E+009;1.616009026765823E-001;-6.981218606233597E-002;-1.781428465619683E-003;-2.083861036226153E-003;
2.419666666666667E+009;1.605224907398224E-001;-7.071948796510696E-002;-1.815496361814439E-003;-2.205176278948784E-003;
2.419833333333334E+009;1.591603308916092E-001;-7.152386009693146E-002;-1.781318569555879E-003;-2.071214374154806E-003;
2.420000000000000E+009;1.582295149564743E-001;-7.261462509632111E-002;-1.820914563722909E-003;-2.137177856639028E-003;
2.420166666666667E+009;1.571101248264313E-001;-7.370557636022568E-002;-1.952551538124681E-003;-2.023122971877456E-003;
2.420333333333334E+009;1.562259942293167E-001;-7.472429424524307E-002;-2.011353615671396E-003;-1.919234055094421E-003;
2.420500000000000E+009;1.552498340606690E-001;-7.579962164163590E-002;-1.995948376134038E-003;-2.063090214505792E-003;
2.420666666666667E+009;1.540570557117462E-001;-7.708679884672165E-002;-2.243924187496305E-003;-1.995730679482222E-003;
2.420833333333334E+009;1.530909836292267E-001;-7.849626243114471E-002;-2.199200447648764E-003;-1.931761973537505E-003;
2.421000000000000E+009;1.523069888353348E-001;-7.982347160577774E-002;-2.101908903568983E-003;-1.932481653057039E-003;
2.421166666666667E+009;1.514386087656021E-001;-8.137136697769165E-002;-2.314999699592590E-003;-1.866069505922496E-003;
2.421333333333334E+009;1.509275436401367E-001;-8.269747346639633E-002;-2.463687211275101E-003;-1.772827003151178E-003;
2.421500000000000E+009;1.500203460454941E-001;-8.416759222745895E-002;-2.416419563814998E-003;-1.835257746279240E-003;
2.421666666666667E+009;1.494018882513046E-001;-8.576611429452896E-002;-2.472673775628209E-003;-1.808022847399116E-003;
2.421833333333334E+009;1.489364355802536E-001;-8.725946396589279E-002;-2.485659439116716E-003;-1.619277754798532E-003;
2.422000000000000E+009;1.483226269483566E-001;-8.900538086891174E-002;-2.652666764333844E-003;-1.693167258054018E-003;
2.422166666666667E+009;1.480247974395752E-001;-9.056559205055237E-002;-2.669826848432422E-003;-1.688064774498344E-003;
2.422333333333334E+009;1.478612720966339E-001;-9.225933998823166E-002;-2.720521297305822E-003;-1.590918749570847E-003;
2.422500000000000E+009;1.474784314632416E-001;-9.387728571891785E-002;-2.752244239673019E-003;-1.549276756122708E-003;
2.422666666666667E+009;1.472667604684830E-001;-9.560324251651764E-002;-3.032037988305092E-003;-1.502962200902402E-003;
2.422833333333334E+009;1.472629457712174E-001;-9.705224633216858E-002;-3.097240347415209E-003;-1.425873255357146E-003;
2.423000000000000E+009;1.471626162528992E-001;-9.870973974466324E-002;-3.062093630433083E-003;-1.408441341482103E-003;
2.423166666666667E+009;1.472092717885971E-001;-1.002474576234818E-001;-3.231445094570518E-003;-1.151690026745200E-003;
2.423333333333334E+009;1.472652852535248E-001;-1.017719805240631E-001;-3.273768117651343E-003;-1.101760193705559E-003;
2.423500000000000E+009;1.473547667264938E-001;-1.033842936158180E-001;-3.245618892833591E-003;-1.076553133316338E-003;
2.423666666666667E+009;1.472686827182770E-001;-1.049059256911278E-001;-3.409896977245808E-003;-9.751769830472767E-004;
2.423833333333334E+009;1.476973295211792E-001;-1.063777431845665E-001;-3.370748134329915E-003;-8.421079255640507E-004;
2.424000000000000E+009;1.478188931941986E-001;-1.076862588524818E-001;-3.362873569130898E-003;-8.418627548962832E-004;
2.424166666666667E+009;1.480083912611008E-001;-1.090825572609901E-001;-3.445903770625591E-003;-7.669187034480274E-004;
2.424333333333334E+009;1.483857482671738E-001;-1.102451905608177E-001;-3.614209359511733E-003;-5.959158297628164E-004;
2.424500000000000E+009;1.487656384706497E-001;-1.114882156252861E-001;-3.668561344966292E-003;-5.031192558817565E-004;
2.424666666666667E+009;1.491764485836029E-001;-1.125309914350510E-001;-3.682547947391868E-003;-3.326740115880966E-004;
2.424833333333334E+009;1.492263674736023E-001;-1.136098578572273E-001;-3.653863444924355E-003;-1.698775740806013E-004;
2.425000000000000E+009;1.496742069721222E-001;-1.146767437458038E-001;-3.700606990605593E-003;-1.803373161237687E-004;
2.425166666666667E+009;1.497560590505600E-001;-1.155517399311066E-001;-3.636779496446252E-003;6.631689757341519E-005;
2.425333333333334E+009;1.500678509473801E-001;-1.163115873932838E-001;-3.849474480375648E-003;1.325153571087867E-004;
2.425500000000000E+009;1.504175662994385E-001;-1.171087920665741E-001;-3.641682909801602E-003;2.457863010931760E-004;
2.425666666666667E+009;1.503963768482208E-001;-1.178125739097595E-001;-3.739523701369762E-003;4.386749933473766E-004;
2.425833333333334E+009;1.506941765546799E-001;-1.183497160673142E-001;-3.884672885760665E-003;5.998515407554805E-004;
2.426000000000000E+009;1.507134586572647E-001;-1.190716698765755E-001;-3.731716424226761E-003;8.272046688944101E-004;
2.426166666666667E+009;1.510367989540100E-001;-1.195496991276741E-001;-3.701637731865048E-003;8.526111487299204E-004;
2.426333333333334E+009;1.509638577699661E-001;-1.199985668063164E-001;-3.744707442820072E-003;1.009065541438758E-003;
2.426500000000000E+009;1.509513556957245E-001;-1.204072013497353E-001;-3.891838248819113E-003;1.158415921963751E-003;
2.426666666666667E+009;1.508954614400864E-001;-1.203949004411697E-001;-3.491537878289819E-003;1.258553704246879E-003;
2.426833333333334E+009;1.506788283586502E-001;-1.208240464329720E-001;-3.588035935536027E-003;1.560970791615546E-003;
2.427000000000000E+009;1.504514366388321E-001;-1.211911961436272E-001;-3.452724777162075E-003;1.632674597203732E-003;
2.427166666666667E+009;1.501590758562088E-001;-1.213304176926613E-001;-3.421890549361706E-003;1.707369112409651E-003;
2.427333333333334E+009;1.496512889862061E-001;-1.214993447065353E-001;-3.395868698135018E-003;1.789206638932228E-003;
2.427500000000000E+009;1.493881791830063E-001;-1.217413097620010E-001;-3.190794494003058E-003;1.895174151286483E-003;
2.427666666666667E+009;1.486421227455139E-001;-1.219546422362328E-001;-3.092646831646562E-003;2.105498919263482E-003;
