# Version 1.00
#
freq[Hz];re:Trc1_S11;im:Trc1_S11;re:Trc2_S21;im:Trc2_S21;
2.400000000000000E+009;1.617173850536346E-001;5.663194879889488E-002;1.269354252144694E-003;3.210943657904863E-003;
2.400166666666667E+009;1.620500385761261E-001;5.507061257958412E-002;1.428008661605418E-003;3.238249570131302E-003;
2.400333333333334E+009;1.617962121963501E-001;5.331381037831307E-002;1.571938977576792E-003;3.258247859776020E-003;
2.400500000000000E+009;1.619635224342346E-001;5.179322138428688E-002;1.664793118834496E-003;3.399017034098506E-003;
2.400666666666667E+009;1.619994938373566E-001;4.998463764786720E-002;1.775717944838107E-003;3.284816630184650E-003;
2.400833333333334E+009;1.623189896345139E-001;4.837048053741455E-002;1.931081642396748E-003;3.364922245964408E-003;
2.401000000000000E+009;1.625667959451675E-001;4.656903445720673E-002;2.138137584552169E-003;3.260856959968805E-003;
2.401166666666667E+009;1.625779718160629E-001;4.478515684604645E-002;2.267519244924188E-003;3.413132159039378E-003;
2.401333333333334E+009;1.627640426158905E-001;4.296119138598442E-002;2.531085629016161E-003;3.297179238870740E-003;
2.401500000000000E+009;1.631784588098526E-001;4.109778255224228E-002;2.734763082116842E-003;3.279360011219978E-003;
2.401666666666667E+009;1.634740829467773E-001;3.962901234626770E-002;2.792649669572711E-003;3.344869473949075E-003;
2.401833333333334E+009;1.637033224105835E-001;3.768421709537506E-002;2.839292632415891E-003;3.365732030943036E-003;
2.402000000000000E+009;1.639197319746018E-001;3.614598512649536E-002;3.225998254492879E-003;3.111404599621892E-003;
2.402166666666667E+009;1.643426567316055E-001;3.429959714412689E-002;3.301122225821018E-003;3.064282471314073E-003;
2.402333333333334E+009;1.647211015224457E-001;3.276464343070984E-002;3.556923475116491E-003;3.051924984902144E-003;
2.402500000000000E+009;1.653139889240265E-001;3.121857345104218E-002;3.761016996577382E-003;2.755029592663050E-003;
2.402666666666667E+009;1.657548397779465E-001;2.962865307927132E-002;3.988220356404781E-003;2.771834842860699E-003;
2.402833333333334E+009;1.662409156560898E-001;2.816685847938061E-002;4.108681343495846E-003;2.633342519402504E-003;
2.403000000000000E+009;1.668964773416519E-001;2.679410576820374E-002;4.210990387946367E-003;2.501902636140585E-003;
2.403166666666667E+009;1.674256324768066E-001;2.537862956523895E-002;4.390694200992584E-003;2.139609772711992E-003;
2.403333333333334E+009;1.680565476417542E-001;2.406753972172737E-002;4.579828120768070E-003;1.920917420648038E-003;
2.403500000000000E+009;1.687001585960388E-001;2.262554317712784E-002;4.613934084773064E-003;1.635887892916799E-003;
2.403666666666667E+009;1.694115996360779E-001;2.142523601651192E-002;4.896646365523338E-003;1.405045273713768E-003;
2.403833333333334E+009;1.702136695384979E-001;2.023771218955517E-002;5.002123303711414E-003;1.216066535562277E-003;
2.404000000000000E+009;1.707836985588074E-001;1.922857761383057E-002;4.916889593005180E-003;1.039877999573946E-003;
2.404166666666667E+009;1.714115291833878E-001;1.787662133574486E-002;5.122092552483082E-003;6.652718875557184E-004;
2.404333333333334E+009;1.719801723957062E-001;1.698969863355160E-002;5.064732860773802E-003;3.453592071309686E-004;
2.404500000000000E+009;1.725907772779465E-001;1.594470068812370E-002;5.085723940283060E-003;-2.121283796441276E-005;
2.404666666666667E+009;1.732806414365768E-001;1.525428704917431E-002;4.982617683708668E-003;-2.952848153654486E-004;
2.404833333333334E+009;1.738163679838181E-001;1.422350481152535E-002;5.185544025152922E-003;-5.937368841841817E-004;
2.405000000000000E+009;1.743408590555191E-001;1.356509607285261E-002;4.905413370579481E-003;-7.747974013909698E-004;
2.405166666666667E+009;1.749358624219894E-001;1.275865454226732E-002;4.689291585236788E-003;-1.049857935868204E-003;
2.405333333333334E+009;1.756146997213364E-001;1.202611252665520E-002;4.655049648135901E-003;-1.301428535953164E-003;
2.405500000000000E+009;1.760524809360504E-001;1.153314765542746E-002;4.534059669822455E-003;-1.364591415040195E-003;
2.405666666666667E+009;1.763850897550583E-001;1.091781072318554E-002;4.412950482219458E-003;-1.672859420068562E-003;
2.405833333333334E+009;1.766846925020218E-001;1.044691074639559E-002;4.205837845802307E-003;-1.727225841023028E-003;
2.406000000000000E+009;1.771724373102188E-001;9.763078764081001E-003;3.947783727198839E-003;-1.979539636522532E-003;
2.406166666666667E+009;1.772363632917404E-001;9.420735761523247E-003;3.887754166498780E-003;-2.182699972763658E-003;
2.406333333333334E+009;1.776567250490189E-001;8.869587443768978E-003;3.759413026273251E-003;-2.346185268834233E-003;
2.406500000000000E+009;1.778451651334763E-001;8.224993944168091E-003;3.672077320516110E-003;-2.264597686007619E-003;
2.406666666666667E+009;1.778278946876526E-001;7.832579314708710E-003;3.485124558210373E-003;-2.516256179660559E-003;
2.406833333333334E+009;1.779696643352509E-001;7.213448639959097E-003;3.095843130722642E-003;-2.571647986769676E-003;
2.407000000000000E+009;1.780506372451782E-001;6.574344355612993E-003;3.116611856967211E-003;-2.688221866264939E-003;
2.407166666666667E+009;1.781309396028519E-001;6.204391829669476E-003;2.820281777530909E-003;-2.723508281633258E-003;
2.407333333333334E+009;1.779284924268723E-001;5.487588234245777E-003;2.611540723592043E-003;-2.793798688799143E-003;
2.407500000000000E+009;1.777806580066681E-001;4.936337005347014E-003;2.477880567312241E-003;-2.831871388480067E-003;
2.407666666666667E+009;1.776101738214493E-001;4.406480584293604E-003;2.274624072015286E-003;-2.890506759285927E-003;
2.407833333333334E+009;1.772584021091461E-001;3.473149379715323E-003;2.192166633903980E-003;-2.775360830128193E-003;
2.408000000000000E+009;1.769406348466873E-001;2.712769201025367E-003;1.961482223123312E-003;-2.832147292792797E-003;
2.408166666666667E+009;1.766396760940552E-001;2.071171533316374E-003;2.038143109530211E-003;-2.909942762926221E-003;
2.408333333333334E+009;1.764382123947144E-001;1.259646844118834E-003;1.841113669797778E-003;-2.845577895641327E-003;
2.408500000000000E+009;1.758942753076553E-001;2.477667876519263E-004;1.866773003712297E-003;-2.880190266296268E-003;
2.408666666666667E+009;1.755200326442719E-001;-7.929150597192347E-004;1.459062448702753E-003;-2.728210762143135E-003;
2.408833333333334E+009;1.749598830938339E-001;-1.855124486610293E-003;1.390553894452751E-003;-2.809274708852172E-003;
2.409000000000000E+009;1.743408739566803E-001;-2.915923716500402E-003;1.115472638048232E-003;-2.703928854316473E-003;
2.409166666666667E+009;1.739816665649414E-001;-4.127540159970522E-003;1.099434331990778E-003;-2.721852855756879E-003;
2.409333333333334E+009;1.735585480928421E-001;-5.273716989904642E-003;1.124016707763076E-003;-2.681418322026730E-003;
2.409500000000000E+009;1.729339957237244E-001;-6.753158289939165E-003;9.655249305069447E-004;-2.480715047568083E-003;
2.409666666666667E+009;1.724226325750351E-001;-8.136166259646416E-003;6.776591180823743E-004;-2.474834909662604E-003;
2.409833333333334E+009;1.718721985816956E-001;-9.391821920871735E-003;6.768309976905584E-004;-2.463205019012094E-003;
2.410000000000000E+009;1.716782152652741E-001;-1.091100648045540E-002;7.296277326531708E-004;-2.341005019843578E-003;
2.410166666666667E+009;1.710341125726700E-001;-1.235669199377298E-002;7.192190969362855E-004;-2.277406398206949E-003;
2.410333333333334E+009;1.706502139568329E-001;-1.407672837376595E-002;6.986593361943960E-004;-2.164340578019619E-003;
2.410500000000000E+009;1.703018546104431E-001;-1.568906009197235E-002;5.872114561498165E-004;-2.058000303804874E-003;
2.410666666666667E+009;1.698577553033829E-001;-1.742969267070293E-002;6.832411163486540E-004;-2.023230772465468E-003;
2.410833333333334E+009;1.696799546480179E-001;-1.904437318444252E-002;6.340689724311233E-004;-2.031884854659438E-003;
2.411000000000000E+009;1.694142520427704E-001;-2.074519731104374E-002;8.119383128359914E-004;-1.863136771135032E-003;
2.411166666666667E+009;1.691751927137375E-001;-2.266175486147404E-002;7.020263001322746E-004;-1.944752293638885E-003;
2.411333333333334E+009;1.689490824937820E-001;-2.428572624921799E-002;8.042120025493205E-004;-1.986897084861994E-003;
2.411500000000000E+009;1.689192354679108E-001;-2.614933438599110E-002;6.637512124143541E-004;-2.012118231505156E-003;
2.411666666666667E+009;1.689167618751526E-001;-2.799510769546032E-002;7.795571000315249E-004;-1.940815360285342E-003;
2.411833333333334E+009;1.690074056386948E-001;-2.975710108876228E-002;7.927603437565267E-004;-1.888068043626845E-003;
2.412000000000000E+009;1.689992398023605E-001;-3.158563375473023E-002;7.907507824711502E-004;-1.938131521455944E-003;
2.412166666666667E+009;1.690226346254349E-001;-3.332486003637314E-002;7.404794450849295E-004;-2.175586996600032E-003;
2.412333333333334E+009;1.692991852760315E-001;-3.502888232469559E-002;8.771024295128882E-004;-1.961459871381521E-003;
2.412500000000000E+009;1.692163050174713E-001;-3.657865896821022E-002;8.291795966215432E-004;-1.952247228473425E-003;
2.412666666666667E+009;1.696429103612900E-001;-3.869793191552162E-002;6.546176155097783E-004;-2.089170506224036E-003;
2.412833333333334E+009;1.699682027101517E-001;-4.026240855455399E-002;6.959872553125024E-004;-2.269404241815209E-003;
2.413000000000000E+009;1.700386106967926E-001;-4.187600314617157E-002;6.319923559203744E-004;-2.168369013816118E-003;
2.413166666666667E+009;1.705444008111954E-001;-4.337811470031738E-002;6.312442710623145E-004;-2.217114670202136E-003;
2.413333333333334E+009;1.708479225635529E-001;-4.499714076519013E-002;6.928738439455628E-004;-2.257257699966431E-003;
2.413500000000000E+009;1.713193058967590E-001;-4.657318443059921E-002;5.828640423715115E-004;-2.270341850817204E-003;
2.413666666666667E+009;1.716285794973373E-001;-4.795241728425026E-002;5.759900086559355E-004;-2.412816509604454E-003;
2.413833333333334E+009;1.719567775726318E-001;-4.933334887027741E-002;5.531203350983560E-004;-2.336986828595400E-003;
2.414000000000000E+009;1.722721755504608E-001;-5.066486075520515E-002;3.974663559347391E-004;-2.335748635232449E-003;
2.414166666666667E+009;1.728410571813583E-001;-5.171931535005570E-002;2.678367018233985E-004;-2.348305890336633E-003;
2.414333333333334E+009;1.731925010681152E-001;-5.295227840542793E-002;3.977049491368234E-004;-2.363059669733048E-003;
2.414500000000000E+009;1.737111061811447E-001;-5.386706069111824E-002;2.227832883363590E-004;-2.680708188563585E-003;
2.414666666666667E+009;1.740598231554031E-001;-5.483133718371391E-002;3.369121404830366E-004;-2.539057983085513E-003;
2.414833333333334E+009;1.743920296430588E-001;-5.588741973042488E-002;9.459721331950277E-005;-2.285283058881760E-003;
2.415000000000000E+009;1.745989173650742E-001;-5.668196082115173E-002;1.868740073405206E-004;-2.504443749785423E-003;
2.415166666666667E+009;1.750257760286331E-001;-5.749636143445969E-002;3.691329402499832E-005;-2.686734544113278E-003;
2.415333333333334E+009;1.753967702388763E-001;-5.825144052505493E-002;-2.300792766618542E-005;-2.811042126268148E-003;
2.415500000000000E+009;1.754980534315109E-001;-5.888172611594200E-002;-2.918090831371956E-005;-2.665668493136764E-003;
2.415666666666667E+009;1.756540238857269E-001;-5.935245752334595E-002;-1.066611639544135E-005;-2.807398093864322E-003;
2.415833333333334E+009;1.758387982845306E-001;-5.992895737290382E-002;-2.269453543704003E-004;-2.696366980671883E-003;
2.416000000000000E+009;1.757067292928696E-001;-6.035579368472099E-002;-1.598456437932327E-004;-2.854576800018549E-003;
2.416166666666667E+009;1.758804023265839E-001;-6.088257953524590E-002;-5.323407240211964E-004;-2.821395406499505E-003;
2.416333333333334E+009;1.758637577295303E-001;-6.109689548611641E-002;-5.370387225411832E-004;-2.731419866904616E-003;
2.416500000000000E+009;1.755897700786591E-001;-6.163701787590981E-002;-6.075134151615202E-004;-2.753177657723427E-003;
2.416666666666667E+009;1.752738654613495E-001;-6.190133467316628E-002;-6.944728083908558E-004;-2.677797805517912E-003;
2.416833333333334E+009;1.751901358366013E-001;-6.226708367466927E-002;-7.336870767176151E-004;-2.636919729411602E-003;
2.417000000000000E+009;1.745986342430115E-001;-6.273867189884186E-002;-8.382977102883160E-004;-2.595397178083658E-003;
2.417166666666667E+009;1.742184311151505E-001;-6.281427294015884E-002;-9.825361194089055E-004;-2.713166642934084E-003;
2.417333333333334E+009;1.737166345119476E-001;-6.303789466619492E-002;-1.000823336653411E-003;-2.599689876660705E-003;
2.417500000000000E+009;1.730307638645172E-001;-6.357862055301666E-002;-1.167209935374558E-003;-2.640180289745331E-003;
2.417666666666667E+009;1.723980903625488E-001;-6.373001635074616E-002;-1.052141771651804E-003;-2.457123016938567E-003;
2.417833333333334E+009;1.716567724943161E-001;-6.406317651271820E-002;-1.370420213788748E-003;-2.412995090708137E-003;
2.418000000000000E+009;1.708106398582459E-001;-6.459395587444305E-002;-1.295732217840850E-003;-2.509474987164140E-003;
2.418166666666667E+009;1.699680089950562E-001;-6.469472497701645E-002;-1.323331031017005E-003;-2.451326465234160E-003;
2.418333333333334E+009;1.692579239606857E-001;-6.533931195735931E-002;-1.450686249881983E-003;-2.460931194946170E-003;
2.418500000000000E+009;1.681818068027496E-001;-6.577856093645096E-002;-1.409086049534380E-003;-2.413986017927527E-003;
2.418666666666667E+009;1.672231703996658E-001;-6.636419147253037E-002;-1.466205460019410E-003;-2.337843878194690E-003;
2.418833333333334E+009;1.660640239715576E-001;-6.682371348142624E-002;-1.483533997088671E-003;-2.406061161309481E-003;
2.419000000000000E+009;1.648158878087997E-001;-6.740865856409073E-002;-1.508652116172016E-003;-2.228781115263701E-003;
2.419166666666667E+009;1.636851429939270E-001;-6.829481571912766E-002;-1.517218770459294E-003;-2.305877162143588E-003;
2.419333333333334E+009;1.625725775957108E-001;-6.876156479120255E-002;-1.757506164722145E-003;-2.156953560188413E-003;
2.419500000000000E+009;1.614733785390854E-001;-6.973189115524292E-002;-1.758391852490604E-003;-2.235186519101262E-003;
2.419666666666667E+009;1.604080945253372E-001;-7.061511278152466E-002;-1.863705925643444E-003;-2.243518596515060E-003;
2.419833333333334E+009;1.592446416616440E-001;-7.153800129890442E-002;-1.775668002665043E-003;-2.229972276836634E-003;
2.420000000000000E+009;1.582390367984772E-001;-7.258797436952591E-002;-1.942229690030217E-003;-2.180680632591248E-003;
2.420166666666667E+009;1.570322364568710E-001;-7.350199669599533E-002;-1.957910368219018E-003;-2.020211191847920E-003;
2.420333333333334E+009;1.561450064182282E-001;-7.474914193153381E-002;-1.892449101433158E-003;-2.181433606892824E-003;
2.420500000000000E+009;1.551047414541245E-001;-7.575156539678574E-002;-1.967490185052156E-003;-2.019222360104322E-003;
2.420666666666667E+009;1.540946960449219E-001;-7.708559185266495E-002;-2.060528611764312E-003;-1.954267732799053E-003;
2.420833333333334E+009;1.532532572746277E-001;-7.846640050411224E-002;-2.213132567703724E-003;-1.898447982966900E-003;
2.421000000000000E+009;1.521654576063156E-001;-7.992016524076462E-002;-2.216803841292858E-003;-1.913953805342317E-003;
2.421166666666667E+009;1.514684259891510E-001;-8.124257624149323E-002;-2.123087877407670E-003;-1.924428157508373E-003;
2.421333333333334E+009;1.508803367614746E-001;-8.278535306453705E-002;-2.307656221091747E-003;-1.806184183806181E-003;
2.421500000000000E+009;1.500182151794434E-001;-8.432375639677048E-002;-2.471951302140951E-003;-1.750139868818224E-003;
2.421666666666667E+009;1.494970470666885E-001;-8.568773418664932E-002;-2.378174336627126E-003;-1.782873761840165E-003;
2.421833333333334E+009;1.489661782979965E-001;-8.733589202165604E-002;-2.526746829971671E-003;-1.605985802598298E-003;
2.422000000000000E+009;1.484740078449249E-001;-8.900332450866699E-002;-2.496692119166255E-003;-1.486732508055866E-003;
2.422166666666667E+009;1.481466293334961E-001;-9.055676311254501E-002;-2.569586271420121E-003;-1.732543925754726E-003;
2.422333333333334E+009;1.477167457342148E-001;-9.232838451862335E-002;-2.841662382707000E-003;-1.446318579837680E-003;
2.422500000000000E+009;1.473126411437988E-001;-9.379087388515472E-002;-2.828983590006828E-003;-1.565717742778361E-003;
2.422666666666667E+009;1.469613760709763E-001;-9.533305466175079E-002;-2.915560500696302E-003;-1.469237264245749E-003;
2.422833333333334E+009;1.470983177423477E-001;-9.724293649196625E-002;-3.043936565518379E-003;-1.315317698754370E-003;
2.423000000000000E+009;1.470275819301605E-001;-9.859509021043778E-002;-2.808177145197988E-003;-1.365919946692884E-003;
2.423166666666667E+009;1.471053361892700E-001;-1.002605110406876E-001;-3.001559292897582E-003;-1.257630530744791E-003;
2.423333333333334E+009;1.471931636333466E-001;-1.016772985458374E-001;-3.104042261838913E-003;-1.214166986756027E-003;
2.423500000000000E+009;1.473664790391922E-001;-1.033263057470322E-001;-2.946096472442150E-003;-1.066072145476937E-003;
2.423666666666667E+009;1.472855210304260E-001;-1.048269867897034E-001;-3.204307984560728E-003;-9.251052397303283E-004;
2.423833333333334E+009;1.476326137781143E-001;-1.064186319708824E-001;-3.333066590130329E-003;-1.006904756650329E-003;
2.424000000000000E+009;1.476748138666153E-001;-1.074689179658890E-001;-3.335260553285480E-003;-6.983968778513372E-004;
2.424166666666667E+009;1.480073779821396E-001;-1.089279353618622E-001;-3.391564823687077E-003;-9.037605486810207E-004;
2.424333333333334E+009;1.483860462903976E-001;-1.100558564066887E-001;-3.479729173704982E-003;-6.056046695448458E-004;
2.424500000000000E+009;1.486902683973312E-001;-1.114500537514687E-001;-3.517916426062584E-003;-5.554856033995748E-004;
2.424666666666667E+009;1.490692198276520E-001;-1.123916581273079E-001;-3.679736983031035E-003;-4.738681309390813E-004;
2.424833333333334E+009;1.492715775966644E-001;-1.134707555174828E-001;-3.708669682964683E-003;-1.979657245101407E-004;
2.425000000000000E+009;1.496112644672394E-001;-1.144498363137245E-001;-3.638464258983731E-003;-3.322440170450136E-005;
2.425166666666667E+009;1.497048288583756E-001;-1.154572889208794E-001;-3.850233042612672E-003;6.465511432907078E-006;
2.425333333333334E+009;1.500753760337830E-001;-1.161113604903221E-001;-3.874560119584203E-003;2.227292279712856E-004;
2.425500000000000E+009;1.504504233598709E-001;-1.170535087585449E-001;-3.804257605224848E-003;3.400930727366358E-004;
2.425666666666667E+009;1.504728645086289E-001;-1.176882535219193E-001;-3.836434800177813E-003;3.005702747032046E-004;
2.425833333333334E+009;1.506891697645187E-001;-1.184322386980057E-001;-3.771522548049688E-003;7.003219216130674E-004;
2.426000000000000E+009;1.507872492074966E-001;-1.189803853631020E-001;-3.754820208996534E-003;7.319939904846251E-004;
2.426166666666667E+009;1.510633826255798E-001;-1.194538474082947E-001;-3.862633835524321E-003;9.916112758219242E-004;
2.426333333333334E+009;1.508307307958603E-001;-1.198727786540985E-001;-3.845335682854056E-003;1.044479431584477E-003;
2.426500000000000E+009;1.509743034839630E-001;-1.202904582023621E-001;-3.763234708458185E-003;1.187936402857304E-003;
2.426666666666667E+009;1.509454250335693E-001;-1.205245703458786E-001;-3.609966952353716E-003;1.425978494808078E-003;
2.426833333333334E+009;1.507058292627335E-001;-1.208065003156662E-001;-3.634816501289606E-003;1.493473537266254E-003;
2.427000000000000E+009;1.504421532154083E-001;-1.210940778255463E-001;-3.436471801251173E-003;1.625365926884115E-003;
2.427166666666667E+009;1.501204967498779E-001;-1.212643980979919E-001;-3.331802319735289E-003;1.665259129367769E-003;
2.427333333333334E+009;1.496565937995911E-001;-1.215140223503113E-001;-3.342167474329472E-003;1.932725077494979E-003;
2.427500000000000E+009;1.495044529438019E-001;-1.216119751334190E-001;-3.357487963512540E-003;2.019312931224704E-003;
2.427666666666667E+009;1.486959457397461E-001;-1.219349801540375E-001;-3.204059321433306E-003;2.150673419237137E-003;
