# Version 1.00
#
freq[Hz];re:Trc1_S11;im:Trc1_S11;re:Trc2_S21;im:Trc2_S21;
2.400000000000000E+009;1.577999591827393E-001;1.114479824900627E-001;-3.763052867725492E-003;-8.822217583656311E-003;
2.400166666666667E+009;1.572072952985764E-001;1.092157885432243E-001;-3.970243968069553E-003;-8.676026016473770E-003;
2.400333333333334E+009;1.569537967443466E-001;1.070088818669319E-001;-4.136793315410614E-003;-8.537037298083305E-003;
2.400500000000000E+009;1.564138680696487E-001;1.044384613633156E-001;-4.257102031260729E-003;-8.374893106520176E-003;
2.400666666666667E+009;1.560902744531632E-001;1.019658222794533E-001;-4.379285965114832E-003;-8.377294056117535E-003;
2.400833333333334E+009;1.556857675313950E-001;9.909860789775848E-002;-4.562742076814175E-003;-8.162226527929306E-003;
2.401000000000000E+009;1.556095331907272E-001;9.652221947908402E-002;-4.761462565511465E-003;-8.287835866212845E-003;
2.401166666666667E+009;1.550389230251312E-001;9.350139647722244E-002;-4.922473337501288E-003;-8.197852410376072E-003;
2.401333333333334E+009;1.552796512842178E-001;9.061095863580704E-002;-5.101937800645828E-003;-7.969041354954243E-003;
2.401500000000000E+009;1.552270799875259E-001;8.749959617853165E-002;-5.399371497333050E-003;-8.001007139682770E-003;
2.401666666666667E+009;1.551497280597687E-001;8.441828936338425E-002;-5.671306978911161E-003;-7.867536507546902E-003;
2.401833333333334E+009;1.551751643419266E-001;8.152738213539124E-002;-5.985561758279800E-003;-7.635630667209625E-003;
2.402000000000000E+009;1.556278020143509E-001;7.852230966091156E-002;-6.333955097943544E-003;-7.486928254365921E-003;
2.402166666666667E+009;1.560704410076141E-001;7.560119777917862E-002;-6.559635978192091E-003;-7.302219979465008E-003;
2.402333333333334E+009;1.566192209720612E-001;7.267072051763535E-002;-7.281966507434845E-003;-7.180937100201845E-003;
2.402500000000000E+009;1.576526761054993E-001;6.974324584007263E-002;-7.073997054249048E-003;-6.735610309988260E-003;
2.402666666666667E+009;1.586623042821884E-001;6.713013350963593E-002;-7.892311550676823E-003;-6.300619337707758E-003;
2.402833333333334E+009;1.596395075321198E-001;6.427493691444397E-002;-7.553808391094208E-003;-6.495761219412088E-003;
2.403000000000000E+009;1.609206795692444E-001;6.177257746458054E-002;-8.171844296157360E-003;-5.762195680290461E-003;
2.403166666666667E+009;1.625489145517349E-001;5.916932970285416E-002;-8.776872418820858E-003;-6.021389737725258E-003;
2.403333333333334E+009;1.640938669443131E-001;5.648274719715118E-002;-8.440917357802391E-003;-4.879802931100130E-003;
2.403500000000000E+009;1.654712408781052E-001;5.414219573140144E-002;-8.435722440481186E-003;-5.387444980442524E-003;
2.403666666666667E+009;1.673980355262756E-001;5.196470767259598E-002;-8.620279841125011E-003;-3.941140603274107E-003;
2.403833333333334E+009;1.689258515834808E-001;4.950468614697456E-002;-8.222776465117931E-003;-4.138996358960867E-003;
2.404000000000000E+009;1.705445051193237E-001;4.750439152121544E-002;-8.561049588024616E-003;-3.884478006511927E-003;
2.404166666666667E+009;1.724547147750855E-001;4.569908604025841E-002;-8.546282537281513E-003;-3.550737630575895E-003;
2.404333333333334E+009;1.742736101150513E-001;4.391831904649735E-002;-8.803893812000752E-003;-3.332905005663633E-003;
2.404500000000000E+009;1.759836375713348E-001;4.207812622189522E-002;-8.721660822629929E-003;-2.884583082050085E-003;
2.404666666666667E+009;1.778337806463242E-001;4.085588827729225E-002;-8.747896179556847E-003;-2.498082118108869E-003;
2.404833333333334E+009;1.797698140144348E-001;3.946981206536293E-002;-8.822387084364891E-003;-2.071589231491089E-003;
2.405000000000000E+009;1.815132051706314E-001;3.850342333316803E-002;-8.802406489849091E-003;-2.013684948906303E-003;
2.405166666666667E+009;1.832761764526367E-001;3.773106262087822E-002;-8.650863543152809E-003;-1.524245599284768E-003;
2.405333333333334E+009;1.850086897611618E-001;3.683809936046600E-002;-8.610331453382969E-003;-1.329296384938061E-003;
2.405500000000000E+009;1.866773664951325E-001;3.625785186886787E-002;-8.575178682804108E-003;-1.231607166118920E-003;
2.405666666666667E+009;1.883521825075150E-001;3.570180013775826E-002;-8.603603579103947E-003;-8.980124257504940E-004;
2.405833333333334E+009;1.898587346076965E-001;3.542138636112213E-002;-8.480001240968704E-003;-5.061023985035718E-004;
2.406000000000000E+009;1.913028210401535E-001;3.502287343144417E-002;-8.455635048449040E-003;-4.292835074011236E-004;
2.406166666666667E+009;1.926419585943222E-001;3.495614603161812E-002;-8.386958390474320E-003;-1.640668633626774E-004;
2.406333333333334E+009;1.939607113599777E-001;3.502891212701798E-002;-8.290104568004608E-003;2.997068986587692E-005;
2.406500000000000E+009;1.951197385787964E-001;3.520680963993073E-002;-8.321185596287251E-003;8.361382060684264E-005;
2.406666666666667E+009;1.961442530155182E-001;3.530136123299599E-002;-8.315017446875572E-003;5.421653622761369E-004;
2.406833333333334E+009;1.969471573829651E-001;3.531973809003830E-002;-8.115480653941631E-003;7.766594062559307E-004;
2.407000000000000E+009;1.976483166217804E-001;3.575944155454636E-002;-8.189188316464424E-003;8.540871203877032E-004;
2.407166666666667E+009;1.983851492404938E-001;3.586425632238388E-002;-8.064920082688332E-003;1.006671576760709E-003;
2.407333333333334E+009;1.986805498600006E-001;3.614418953657150E-002;-8.010915480554104E-003;1.163650769740343E-003;
2.407500000000000E+009;1.987843066453934E-001;3.650486841797829E-002;-8.062740787863731E-003;1.282688463106751E-003;
2.407666666666667E+009;1.991124302148819E-001;3.685172274708748E-002;-7.877223193645477E-003;1.519590383395553E-003;
2.407833333333334E+009;1.988060027360916E-001;3.711081668734551E-002;-7.904036901891232E-003;1.768829883076251E-003;
2.408000000000000E+009;1.989697366952896E-001;3.733284771442413E-002;-7.782216649502516E-003;1.873103319667280E-003;
2.408166666666667E+009;1.985995471477509E-001;3.738581016659737E-002;-7.967191748321056E-003;2.025549532845616E-003;
2.408333333333334E+009;1.983317285776138E-001;3.744132816791534E-002;-7.682621013373137E-003;2.195053268224001E-003;
2.408500000000000E+009;1.977568864822388E-001;3.753428533673286E-002;-7.815761491656303E-003;2.411209745332599E-003;
2.408666666666667E+009;1.970180869102478E-001;3.748007863759995E-002;-7.669694721698761E-003;2.599029801785946E-003;
2.408833333333334E+009;1.962566524744034E-001;3.712892904877663E-002;-7.648216094821692E-003;2.789659891277552E-003;
2.409000000000000E+009;1.955020129680634E-001;3.673245757818222E-002;-7.555682212114334E-003;3.072317223995924E-003;
2.409166666666667E+009;1.945183724164963E-001;3.613692149519920E-002;-7.480420172214508E-003;3.189190523698926E-003;
2.409333333333334E+009;1.934015601873398E-001;3.576586768031120E-002;-7.461231667548418E-003;3.446155227720738E-003;
2.409500000000000E+009;1.923111230134964E-001;3.479148447513580E-002;-7.412361912429333E-003;3.625821089372039E-003;
2.409666666666667E+009;1.910421848297119E-001;3.383231908082962E-002;-7.161288522183895E-003;3.788384143263102E-003;
2.409833333333334E+009;1.897589266300201E-001;3.273820504546166E-002;-7.124408148229122E-003;4.173809662461281E-003;
2.410000000000000E+009;1.886932104825974E-001;3.133522719144821E-002;-7.062399759888649E-003;4.408554174005985E-003;
2.410166666666667E+009;1.875289380550385E-001;2.980266325175762E-002;-6.768796592950821E-003;4.551330581307411E-003;
2.410333333333334E+009;1.861425787210465E-001;2.856140770018101E-002;-6.723138038069010E-003;4.681000951677561E-003;
2.410500000000000E+009;1.847414225339890E-001;2.667498402297497E-002;-6.627155467867851E-003;4.806555341929197E-003;
2.410666666666667E+009;1.837602704763413E-001;2.462922222912312E-002;-6.406982894986868E-003;4.923576023429632E-003;
2.410833333333334E+009;1.826176494359970E-001;2.276596240699291E-002;-6.374089978635311E-003;5.107771139591932E-003;
2.411000000000000E+009;1.816206425428391E-001;2.076510339975357E-002;-6.067330483347178E-003;5.238953512161970E-003;
2.411166666666667E+009;1.805615276098251E-001;1.856423541903496E-002;-6.005960982292891E-003;5.414023529738188E-003;
2.411333333333334E+009;1.797631680965424E-001;1.603174954652786E-002;-5.956272128969431E-003;5.450623109936714E-003;
2.411500000000000E+009;1.790751069784164E-001;1.387642510235310E-002;-5.770385265350342E-003;5.694718565791845E-003;
2.411666666666667E+009;1.783659756183624E-001;1.149332989007235E-002;-5.589173641055822E-003;5.898002069443464E-003;
2.411833333333334E+009;1.778299510478973E-001;9.023524820804596E-003;-5.475406069308519E-003;5.865878891199827E-003;
2.412000000000000E+009;1.775780618190765E-001;6.313776597380638E-003;-5.415452178567648E-003;6.073473021388054E-003;
2.412166666666667E+009;1.774202287197113E-001;4.114991053938866E-003;-5.281707737594843E-003;6.279039196670055E-003;
2.412333333333334E+009;1.772131174802780E-001;1.212611328810453E-003;-5.229016765952110E-003;6.352670025080442E-003;
2.412500000000000E+009;1.774555295705795E-001;-1.522442093119025E-003;-5.034379661083221E-003;6.614031735807657E-003;
2.412666666666667E+009;1.777013689279556E-001;-4.162386059761047E-003;-5.022739060223103E-003;6.657409481704235E-003;
2.412833333333334E+009;1.781670302152634E-001;-6.730106659233570E-003;-4.836617968976498E-003;6.940395105630159E-003;
2.413000000000000E+009;1.787289530038834E-001;-9.457484818994999E-003;-4.521710332483053E-003;7.128269411623478E-003;
2.413166666666667E+009;1.794227957725525E-001;-1.186162978410721E-002;-4.354613367468119E-003;7.352030836045742E-003;
2.413333333333334E+009;1.802744567394257E-001;-1.459325104951859E-002;-4.077676218003035E-003;7.610812783241272E-003;
2.413500000000000E+009;1.811484545469284E-001;-1.712774112820625E-002;-3.980430774390698E-003;7.721368689090014E-003;
2.413666666666667E+009;1.822428256273270E-001;-1.968944631516933E-002;-3.616812638938427E-003;7.883872836828232E-003;
2.413833333333334E+009;1.832753270864487E-001;-2.200981974601746E-002;-3.270936431363225E-003;8.077257312834263E-003;
2.414000000000000E+009;1.843463927507401E-001;-2.422084100544453E-002;-3.153744153678417E-003;8.262730203568935E-003;
2.414166666666667E+009;1.856685876846314E-001;-2.634984254837036E-002;-2.764012198895216E-003;8.457859978079796E-003;
2.414333333333334E+009;1.868734061717987E-001;-2.876974269747734E-002;-2.473469125106931E-003;8.457121439278126E-003;
2.414500000000000E+009;1.881653517484665E-001;-3.053893521428108E-002;-2.137889387086034E-003;8.520063944160938E-003;
2.414666666666667E+009;1.895024925470352E-001;-3.248155862092972E-002;-1.935526961460710E-003;8.705898188054562E-003;
2.414833333333334E+009;1.906901597976685E-001;-3.408321365714073E-002;-1.521809492260218E-003;8.741366676986218E-003;
2.415000000000000E+009;1.920598447322846E-001;-3.550528362393379E-002;-1.145204529166222E-003;8.752468973398209E-003;
2.415166666666667E+009;1.936119049787521E-001;-3.691158816218376E-002;-8.469495223835111E-004;8.763158693909645E-003;
2.415333333333334E+009;1.949236243963242E-001;-3.806200623512268E-002;-5.840385565534234E-004;8.828387595713139E-003;
2.415500000000000E+009;1.963518857955933E-001;-3.901015222072601E-002;-7.915983587736264E-005;8.747613988816738E-003;
2.415666666666667E+009;1.977378875017166E-001;-4.007271677255631E-002;1.236302196048200E-004;8.534138090908527E-003;
2.415833333333334E+009;1.989334076642990E-001;-4.081216454505920E-002;3.222739906050265E-004;8.698847144842148E-003;
2.416000000000000E+009;1.999767422676086E-001;-4.157361015677452E-002;8.345509995706379E-004;8.440811187028885E-003;
2.416166666666667E+009;2.010925859212875E-001;-4.237373918294907E-002;9.780937107279897E-004;8.440734818577766E-003;
2.416333333333334E+009;2.020953744649887E-001;-4.264715686440468E-002;1.257275347597897E-003;8.398263715207577E-003;
2.416500000000000E+009;2.029573619365692E-001;-4.285994172096252E-002;1.426339265890420E-003;8.267916738986969E-003;
2.416666666666667E+009;2.035775035619736E-001;-4.327261820435524E-002;1.756535377353430E-003;8.258202113211155E-003;
2.416833333333334E+009;2.040907591581345E-001;-4.330417886376381E-002;1.979283289983869E-003;8.312535472214222E-003;
2.417000000000000E+009;2.046701163053513E-001;-4.335189610719681E-002;2.201766707003117E-003;8.087494410574436E-003;
2.417166666666667E+009;2.047372907400131E-001;-4.322126880288124E-002;2.607424277812243E-003;8.073231205344200E-003;
2.417333333333334E+009;2.048073410987854E-001;-4.291561245918274E-002;2.896670950576663E-003;7.949672639369965E-003;
2.417500000000000E+009;2.048898190259934E-001;-4.271078109741211E-002;3.087730379775167E-003;7.824270986020565E-003;
2.417666666666667E+009;2.047480493783951E-001;-4.239900782704353E-002;3.308993298560381E-003;7.489908486604691E-003;
2.417833333333334E+009;2.046979665756226E-001;-4.198375716805458E-002;3.567995969206095E-003;7.513734512031078E-003;
2.418000000000000E+009;2.041818052530289E-001;-4.147340729832649E-002;3.666738746687770E-003;7.314096204936504E-003;
2.418166666666667E+009;2.036837190389633E-001;-4.116314277052879E-002;3.960726782679558E-003;7.099301554262638E-003;
2.418333333333334E+009;2.030518352985382E-001;-4.074149206280708E-002;4.214276559650898E-003;7.031463086605072E-003;
2.418500000000000E+009;2.022572308778763E-001;-4.047255590558052E-002;4.363141953945160E-003;6.744111888110638E-003;
2.418666666666667E+009;2.014802694320679E-001;-4.005302488803864E-002;4.507386591285467E-003;6.600933149456978E-003;
2.418833333333334E+009;2.003609985113144E-001;-3.987284749746323E-002;4.684107378125191E-003;6.441266741603613E-003;
2.419000000000000E+009;1.992981582880020E-001;-3.974423930048943E-002;4.757572431117296E-003;6.194099783897400E-003;
2.419166666666667E+009;1.979169547557831E-001;-3.976985439658165E-002;4.863534122705460E-003;6.004782393574715E-003;
2.419333333333334E+009;1.966542452573776E-001;-3.996245563030243E-002;5.046554841101170E-003;5.795152857899666E-003;
2.419500000000000E+009;1.951842606067658E-001;-3.995393961668015E-002;5.003219470381737E-003;5.602683871984482E-003;
2.419666666666667E+009;1.935182660818100E-001;-4.048256203532219E-002;5.225873552262783E-003;5.447380244731903E-003;
2.419833333333334E+009;1.919897794723511E-001;-4.085965454578400E-002;5.178357940167189E-003;5.304993130266666E-003;
2.420000000000000E+009;1.901010572910309E-001;-4.145040735602379E-002;5.197884514927864E-003;5.095495842397213E-003;
2.420166666666667E+009;1.885395050048828E-001;-4.211926460266113E-002;5.352896172553301E-003;5.056683905422688E-003;
2.420333333333334E+009;1.867677420377731E-001;-4.291574656963348E-002;5.358686670660973E-003;4.955998156219721E-003;
2.420500000000000E+009;1.848676055669785E-001;-4.412155598402023E-002;5.479957908391953E-003;4.791842307895422E-003;
2.420666666666667E+009;1.831830888986588E-001;-4.498759284615517E-002;5.579543765634298E-003;4.730863030999899E-003;
2.420833333333334E+009;1.813376396894455E-001;-4.631169140338898E-002;5.632378160953522E-003;4.589842632412911E-003;
2.421000000000000E+009;1.795530766248703E-001;-4.763024300336838E-002;5.848405882716179E-003;4.513836465775967E-003;
2.421166666666667E+009;1.778205186128616E-001;-4.924467206001282E-002;5.851551890373230E-003;4.451757762581110E-003;
2.421333333333334E+009;1.759661436080933E-001;-5.085745453834534E-002;6.075770594179630E-003;4.271881654858589E-003;
2.421500000000000E+009;1.742625236511231E-001;-5.287595093250275E-002;6.118065211921930E-003;4.203871823847294E-003;
2.421666666666667E+009;1.728791147470474E-001;-5.458559840917587E-002;6.382447667419910E-003;3.946033306419849E-003;
2.421833333333334E+009;1.713541001081467E-001;-5.662140250205994E-002;6.313662044703960E-003;3.913888242095709E-003;
2.422000000000000E+009;1.699523776769638E-001;-5.854702740907669E-002;6.501472555100918E-003;3.610781393945217E-003;
2.422166666666667E+009;1.686689257621765E-001;-6.080975756049156E-002;6.417412776499987E-003;3.480119630694389E-003;
2.422333333333334E+009;1.675964295864105E-001;-6.299281865358353E-002;6.564341485500336E-003;3.344279713928700E-003;
2.422500000000000E+009;1.663837581872940E-001;-6.510452181100845E-002;6.561485119163990E-003;3.006064565852284E-003;
2.422666666666667E+009;1.654302924871445E-001;-6.738571822643280E-002;6.632188335061073E-003;2.941319718956947E-003;
2.422833333333334E+009;1.647011041641235E-001;-6.983125209808350E-002;6.858283653855324E-003;2.783855423331261E-003;
2.423000000000000E+009;1.639338731765747E-001;-7.204645127058029E-002;6.903336849063635E-003;2.601548098027706E-003;
2.423166666666667E+009;1.633332669734955E-001;-7.430380582809448E-002;6.885031703859568E-003;2.491990337148309E-003;
2.423333333333334E+009;1.627575755119324E-001;-7.666905969381332E-002;7.019727956503630E-003;2.467609476298094E-003;
2.423500000000000E+009;1.627329289913178E-001;-7.880922406911850E-002;7.074609864503145E-003;2.185404766350985E-003;
2.423666666666667E+009;1.625636070966721E-001;-8.111270517110825E-002;7.125630974769592E-003;1.970623852685094E-003;
2.423833333333334E+009;1.624668389558792E-001;-8.312205970287323E-002;7.269578520208597E-003;1.939741894602776E-003;
2.424000000000000E+009;1.625305712223053E-001;-8.530620485544205E-002;7.248491980135441E-003;1.782614504918456E-003;
2.424166666666667E+009;1.625929325819016E-001;-8.726878464221954E-002;7.368055637925863E-003;1.550852204672992E-003;
2.424333333333334E+009;1.628177762031555E-001;-8.917184174060822E-002;7.455409504473209E-003;1.256307936273515E-003;
2.424500000000000E+009;1.631475538015366E-001;-9.140029549598694E-002;7.610749918967485E-003;9.917707648128271E-004;
2.424666666666667E+009;1.633736044168472E-001;-9.301004558801651E-002;7.671682164072990E-003;9.386236197315157E-004;
2.424833333333334E+009;1.640015244483948E-001;-9.475755691528320E-002;7.762299384921789E-003;6.474451511166990E-004;
2.425000000000000E+009;1.644913554191589E-001;-9.621495753526688E-002;7.708216086030006E-003;3.369301557540894E-004;
2.425166666666667E+009;1.650642305612564E-001;-9.762206673622131E-002;7.834387011826038E-003;8.313701255246997E-005;
2.425333333333334E+009;1.654923558235169E-001;-9.897139668464661E-002;7.826847955584526E-003;-7.263560837600380E-005;
2.425500000000000E+009;1.662494540214539E-001;-1.002373248338699E-001;7.755622733384371E-003;-4.370632814243436E-004;
2.425666666666667E+009;1.668406426906586E-001;-1.011355593800545E-001;7.697264663875103E-003;-6.574090803042054E-004;
2.425833333333334E+009;1.672620028257370E-001;-1.022712215781212E-001;7.646339479833841E-003;-9.657809860073030E-004;
2.426000000000000E+009;1.680628061294556E-001;-1.028868257999420E-001;7.588388863950968E-003;-1.178058562800288E-003;
2.426166666666667E+009;1.688026487827301E-001;-1.036589071154594E-001;7.558363024145365E-003;-1.364817610010505E-003;
2.426333333333334E+009;1.691534966230393E-001;-1.042675822973251E-001;7.815510034561157E-003;-1.496518729254603E-003;
2.426500000000000E+009;1.698364764451981E-001;-1.047087535262108E-001;7.471184711903334E-003;-1.896625850349665E-003;
2.426666666666667E+009;1.704083085060120E-001;-1.051415055990219E-001;7.445376366376877E-003;-2.076877979561687E-003;
2.426833333333334E+009;1.709173023700714E-001;-1.053840219974518E-001;7.348637562245131E-003;-2.319354331120849E-003;
2.427000000000000E+009;1.712625324726105E-001;-1.057760193943977E-001;7.341840770095587E-003;-2.358624245971441E-003;
2.427166666666667E+009;1.716444194316864E-001;-1.057936400175095E-001;7.316242903470993E-003;-2.684675622731447E-003;
2.427333333333334E+009;1.719084084033966E-001;-1.060963869094849E-001;7.296844385564327E-003;-3.084085648879409E-003;
2.427500000000000E+009;1.718823164701462E-001;-1.061837226152420E-001;7.221521809697151E-003;-3.185786539688706E-003;
2.427666666666667E+009;1.719460040330887E-001;-1.060597971081734E-001;7.216834463179112E-003;-3.450731048360467E-003;
2.427833333333334E+009;1.719360947608948E-001;-1.060189008712769E-001;6.936094257980585E-003;-3.601675853133202E-003;
