# Version 1.00
#
freq[Hz];re:Trc1_S11;im:Trc1_S11;re:Trc2_S21;im:Trc2_S21;
2.400000000000000E+009;1.578245759010315E-001;1.113367825746536E-001;-3.921961411833763E-003;-8.951910771429539E-003;
2.400166666666667E+009;1.572084128856659E-001;1.090593636035919E-001;-4.030202049762011E-003;-8.650259114801884E-003;
2.400333333333334E+009;1.569420099258423E-001;1.070041060447693E-001;-4.298180341720581E-003;-8.429691195487976E-003;
2.400500000000000E+009;1.564014106988907E-001;1.044792830944061E-001;-4.468969069421291E-003;-8.439471013844013E-003;
2.400666666666667E+009;1.560671329498291E-001;1.020027622580528E-001;-4.449858795851469E-003;-8.279985748231411E-003;
2.400833333333334E+009;1.557382047176361E-001;9.919233620166779E-002;-4.622384440153837E-003;-8.103726431727409E-003;
2.401000000000000E+009;1.554932296276093E-001;9.628905355930328E-002;-4.892192780971527E-003;-8.130677044391632E-003;
2.401166666666667E+009;1.551483422517777E-001;9.348043054342270E-002;-4.967490676790476E-003;-7.972220890223980E-003;
2.401333333333334E+009;1.550242453813553E-001;9.046977758407593E-002;-5.311805754899979E-003;-7.919972762465477E-003;
2.401500000000000E+009;1.551926881074905E-001;8.755616098642349E-002;-5.532523617148399E-003;-7.831950671970844E-003;
2.401666666666667E+009;1.551512926816940E-001;8.449390530586243E-002;-5.833207629621029E-003;-7.884414866566658E-003;
2.401833333333334E+009;1.553349196910858E-001;8.163273334503174E-002;-6.143967155367136E-003;-7.542834151536226E-003;
2.402000000000000E+009;1.558831185102463E-001;7.836081087589264E-002;-6.387814879417419E-003;-7.427021861076355E-003;
2.402166666666667E+009;1.562880277633667E-001;7.569872587919235E-002;-6.855790503323078E-003;-7.162406574934721E-003;
2.402333333333334E+009;1.569353044033051E-001;7.259454578161240E-002;-7.046265527606010E-003;-6.833124440163374E-003;
2.402500000000000E+009;1.578382104635239E-001;6.996951997280121E-002;-7.332832086831331E-003;-6.716103758662939E-003;
2.402666666666667E+009;1.584566682577133E-001;6.714541465044022E-002;-7.525519002228975E-003;-6.419673096388578E-003;
2.402833333333334E+009;1.597442477941513E-001;6.436695158481598E-002;-7.785945665091276E-003;-6.019469350576401E-003;
2.403000000000000E+009;1.609982401132584E-001;6.144613027572632E-002;-7.949767634272575E-003;-5.819250363856554E-003;
2.403166666666667E+009;1.624967157840729E-001;5.905009433627129E-002;-8.208301849663258E-003;-5.310712382197380E-003;
2.403333333333334E+009;1.638129204511643E-001;5.657358840107918E-002;-8.402741514146328E-003;-5.028927698731422E-003;
2.403500000000000E+009;1.654669791460037E-001;5.401883274316788E-002;-8.459054864943028E-003;-4.685713443905115E-003;
2.403666666666667E+009;1.673446148633957E-001;5.186862498521805E-002;-8.464793674647808E-003;-4.320836625993252E-003;
2.403833333333334E+009;1.688379049301148E-001;4.964904114603996E-002;-8.594835177063942E-003;-4.091811832040548E-003;
2.404000000000000E+009;1.703904122114182E-001;4.754029586911202E-002;-8.649915456771851E-003;-3.718464402481914E-003;
2.404166666666667E+009;1.724617630243301E-001;4.570626467466354E-002;-8.809548802673817E-003;-3.401767695322633E-003;
2.404333333333334E+009;1.742869317531586E-001;4.382687807083130E-002;-8.821558207273483E-003;-3.161083674058318E-003;
2.404500000000000E+009;1.761000156402588E-001;4.220984876155853E-002;-8.930716663599014E-003;-2.742337994277477E-003;
2.404666666666667E+009;1.780249476432800E-001;4.069099947810173E-002;-8.845393545925617E-003;-2.514991443604231E-003;
2.404833333333334E+009;1.799123734235764E-001;3.932791575789452E-002;-8.847101591527462E-003;-2.113987226039171E-003;
2.405000000000000E+009;1.814753264188767E-001;3.835668042302132E-002;-8.824493736028671E-003;-1.569888205267489E-003;
2.405166666666667E+009;1.832758933305740E-001;3.738163039088249E-002;-8.668458089232445E-003;-1.601092750206590E-003;
2.405333333333334E+009;1.849998831748962E-001;3.680418431758881E-002;-8.785204961895943E-003;-1.290693413466215E-003;
2.405500000000000E+009;1.868310868740082E-001;3.596914932131767E-002;-8.503071032464504E-003;-9.507494978606701E-004;
2.405666666666667E+009;1.882822066545487E-001;3.554939478635788E-002;-8.507872931659222E-003;-7.529283757321537E-004;
2.405833333333334E+009;1.899080872535706E-001;3.528353199362755E-002;-8.576648309826851E-003;-4.822395567316562E-004;
2.406000000000000E+009;1.912965923547745E-001;3.498592600226402E-002;-8.451304398477078E-003;-1.780537131708115E-004;
2.406166666666667E+009;1.926395595073700E-001;3.489640355110169E-002;-8.462115190923214E-003;1.582906043040566E-005;
2.406333333333334E+009;1.939935237169266E-001;3.476446121931076E-002;-8.339238353073597E-003;1.468782284064218E-004;
2.406500000000000E+009;1.951341480016708E-001;3.498155623674393E-002;-8.245962671935558E-003;4.528840945567936E-004;
2.406666666666667E+009;1.960966885089874E-001;3.510374948382378E-002;-8.224615827202797E-003;6.080497987568378E-004;
2.406833333333334E+009;1.970311552286148E-001;3.533853963017464E-002;-8.153392001986504E-003;7.386890938505530E-004;
2.407000000000000E+009;1.975723356008530E-001;3.574520349502564E-002;-8.210377767682076E-003;9.819058468565345E-004;
2.407166666666667E+009;1.983953863382340E-001;3.568403050303459E-002;-8.129906840622425E-003;1.115532824769616E-003;
2.407333333333334E+009;1.986021846532822E-001;3.636036068201065E-002;-7.804428227245808E-003;1.465658191591501E-003;
2.407500000000000E+009;1.988491415977478E-001;3.650864213705063E-002;-7.838464342057705E-003;1.472271396778524E-003;
2.407666666666667E+009;1.990180015563965E-001;3.683569654822350E-002;-7.864537648856640E-003;1.765494002029300E-003;
2.407833333333334E+009;1.988833397626877E-001;3.705719858407974E-002;-7.825949229300022E-003;1.984783913940191E-003;
2.408000000000000E+009;1.989600658416748E-001;3.742240741848946E-002;-7.801169529557228E-003;2.071650698781014E-003;
2.408166666666667E+009;1.984677016735077E-001;3.743959218263626E-002;-7.846743799746037E-003;2.308939816430211E-003;
2.408333333333334E+009;1.982294023036957E-001;3.741852194070816E-002;-7.713196799159050E-003;2.507984638214111E-003;
2.408500000000000E+009;1.977021545171738E-001;3.749764710664749E-002;-7.779166102409363E-003;2.672989852726460E-003;
2.408666666666667E+009;1.969351470470429E-001;3.737480193376541E-002;-7.644190918654203E-003;2.764143515378237E-003;
2.408833333333334E+009;1.961538642644882E-001;3.697938844561577E-002;-7.606960833072662E-003;2.925370587036014E-003;
2.409000000000000E+009;1.953860074281693E-001;3.667030856013298E-002;-7.573741953819990E-003;3.567943116649985E-003;
2.409166666666667E+009;1.944828480482101E-001;3.608013316988945E-002;-7.488240022212267E-003;3.554265014827251E-003;
2.409333333333334E+009;1.934233158826828E-001;3.556355834007263E-002;-7.408257573843002E-003;3.659975482150912E-003;
2.409500000000000E+009;1.919250339269638E-001;3.464130312204361E-002;-7.332472130656242E-003;3.642783034592867E-003;
2.409666666666667E+009;1.909532546997070E-001;3.371138870716095E-002;-6.931699346750975E-003;4.238258581608534E-003;
2.409833333333334E+009;1.897271871566773E-001;3.256656974554062E-002;-7.025433704257011E-003;4.141186829656363E-003;
2.410000000000000E+009;1.886195093393326E-001;3.137298673391342E-002;-6.856818683445454E-003;4.777373746037483E-003;
2.410166666666667E+009;1.872876137495041E-001;2.978373132646084E-002;-6.852175574749708E-003;4.610490519553423E-003;
2.410333333333334E+009;1.862373352050781E-001;2.832250483334065E-002;-6.682112812995911E-003;4.826548974961042E-003;
2.410500000000000E+009;1.848495602607727E-001;2.676038444042206E-002;-6.432116962969303E-003;4.974460229277611E-003;
2.410666666666667E+009;1.838060766458511E-001;2.472782321274281E-002;-6.391063798218966E-003;5.309179890900850E-003;
2.410833333333334E+009;1.826519668102264E-001;2.284102328121662E-002;-6.264360621571541E-003;5.406418349593878E-003;
2.411000000000000E+009;1.817957013845444E-001;2.059306390583515E-002;-6.087293848395348E-003;5.512879230082035E-003;
2.411166666666667E+009;1.805945783853531E-001;1.866507902741432E-002;-5.903564393520355E-003;5.519866477698088E-003;
2.411333333333334E+009;1.798208057880402E-001;1.610904186964035E-002;-5.812131334096193E-003;5.685973912477493E-003;
2.411500000000000E+009;1.790122836828232E-001;1.377101428806782E-002;-5.657702684402466E-003;5.857945419847965E-003;
2.411666666666667E+009;1.785554736852646E-001;1.142512168735266E-002;-5.505549721419811E-003;5.817588418722153E-003;
2.411833333333334E+009;1.779486089944840E-001;8.961919695138931E-003;-5.375488195568323E-003;6.064253393560648E-003;
2.412000000000000E+009;1.775921732187271E-001;6.370309740304947E-003;-5.306866019964218E-003;6.166655570268631E-003;
2.412166666666667E+009;1.772821396589279E-001;3.877745708450675E-003;-5.302689503878355E-003;6.234663072973490E-003;
2.412333333333334E+009;1.772663444280624E-001;1.105103990994394E-003;-5.099382717162371E-003;6.587430834770203E-003;
2.412500000000000E+009;1.774106025695801E-001;-1.383087132126093E-003;-4.974773153662682E-003;6.645339541137219E-003;
2.412666666666667E+009;1.776624917984009E-001;-4.161928314715624E-003;-4.833483137190342E-003;6.935438141226769E-003;
2.412833333333334E+009;1.781735718250275E-001;-6.918880157172680E-003;-4.744260106235743E-003;7.156891748309135E-003;
2.413000000000000E+009;1.787855327129364E-001;-9.451305493712425E-003;-4.424850456416607E-003;7.295910269021988E-003;
2.413166666666667E+009;1.792617440223694E-001;-1.198600511997938E-002;-4.234892316162586E-003;7.520146667957306E-003;
2.413333333333334E+009;1.803168505430222E-001;-1.464550569653511E-002;-3.928246907889843E-003;7.689184509217739E-003;
2.413500000000000E+009;1.808805018663406E-001;-1.712111569941044E-002;-3.853453556075692E-003;8.016588166356087E-003;
2.413666666666667E+009;1.822484582662582E-001;-1.958442293107510E-002;-3.510593203827739E-003;8.211468346416950E-003;
2.413833333333334E+009;1.831901222467423E-001;-2.199404314160347E-002;-3.051631385460496E-003;8.273322135210037E-003;
2.414000000000000E+009;1.843435615301132E-001;-2.438079006969929E-002;-2.819878282025456E-003;8.396048098802567E-003;
2.414166666666667E+009;1.855789572000504E-001;-2.644035220146179E-002;-2.558963838964701E-003;8.514191955327988E-003;
2.414333333333334E+009;1.868925541639328E-001;-2.875899150967598E-002;-2.082569058984518E-003;8.721345104277134E-003;
2.414500000000000E+009;1.882051527500153E-001;-3.045143000781536E-002;-1.945480005815625E-003;8.596283383667469E-003;
2.414666666666667E+009;1.894194185733795E-001;-3.237161785364151E-002;-1.493149087764323E-003;8.665617555379868E-003;
2.414833333333334E+009;1.908251792192459E-001;-3.402229398488998E-002;-1.155248377472162E-003;8.748395368456841E-003;
2.415000000000000E+009;1.920767575502396E-001;-3.564696386456490E-002;-7.024480728432536E-004;8.736665360629559E-003;
2.415166666666667E+009;1.935053169727325E-001;-3.694599866867065E-002;-4.387817753013223E-004;8.640695363283157E-003;
2.415333333333334E+009;1.948920339345932E-001;-3.831681609153748E-002;-2.061344130197540E-004;8.632074110209942E-003;
2.415500000000000E+009;1.963016241788864E-001;-3.905865550041199E-002;2.038897946476936E-004;8.558129891753197E-003;
2.415666666666667E+009;1.976517736911774E-001;-4.015777632594109E-002;5.672340630553663E-004;8.810710161924362E-003;
2.415833333333334E+009;1.987097859382629E-001;-4.088641703128815E-002;6.841252907179296E-004;8.547388948500156E-003;
2.416000000000000E+009;1.998320668935776E-001;-4.165788367390633E-002;9.422175935469568E-004;8.616762235760689E-003;
2.416166666666667E+009;2.009833753108978E-001;-4.237785562872887E-002;1.292034517973661E-003;8.473947644233704E-003;
2.416333333333334E+009;2.018877118825913E-001;-4.259377345442772E-002;1.555238850414753E-003;8.380942046642304E-003;
2.416500000000000E+009;2.027844786643982E-001;-4.296042770147324E-002;1.835356117226183E-003;8.313726633787155E-003;
2.416666666666667E+009;2.034985125064850E-001;-4.326148331165314E-002;2.034340286627412E-003;8.127828128635883E-003;
2.416833333333334E+009;2.040692716836929E-001;-4.331699758768082E-002;2.274358412250876E-003;8.082093670964241E-003;
2.417000000000000E+009;2.045473009347916E-001;-4.331700876355171E-002;2.608942100778222E-003;7.943123579025269E-003;
2.417166666666667E+009;2.045828104019165E-001;-4.315176606178284E-002;2.851513447239995E-003;7.885850034654141E-003;
2.417333333333334E+009;2.047057002782822E-001;-4.274642094969750E-002;3.162431064993143E-003;7.904049940407276E-003;
2.417500000000000E+009;2.048013806343079E-001;-4.270037263631821E-002;3.412701888009906E-003;7.654458284378052E-003;
2.417666666666667E+009;2.046840339899063E-001;-4.233085364103317E-002;3.712364239618182E-003;7.545197382569313E-003;
2.417833333333334E+009;2.045150697231293E-001;-4.188245534896851E-002;3.822294529527426E-003;7.298670243471861E-003;
2.418000000000000E+009;2.041156440973282E-001;-4.136314243078232E-002;4.221453797072172E-003;7.148185744881630E-003;
2.418166666666667E+009;2.035942971706390E-001;-4.106616601347923E-002;4.386391025036573E-003;7.025142200291157E-003;
2.418333333333334E+009;2.028896808624268E-001;-4.072174057364464E-002;4.499807953834534E-003;6.841180846095085E-003;
2.418500000000000E+009;2.021517753601074E-001;-4.046748951077461E-002;4.671706352382898E-003;6.548390258103609E-003;
2.418666666666667E+009;2.013808190822601E-001;-3.991168737411499E-002;4.817810375243425E-003;6.421383004635572E-003;
2.418833333333334E+009;2.003319859504700E-001;-3.983994200825691E-002;4.914885386824608E-003;6.325559690594673E-003;
2.419000000000000E+009;1.991115510463715E-001;-3.964138776063919E-002;5.143749061971903E-003;5.961977876722813E-003;
2.419166666666667E+009;1.979261040687561E-001;-3.962194919586182E-002;5.178628489375114E-003;5.692561157047749E-003;
2.419333333333334E+009;1.965979635715485E-001;-3.979243710637093E-002;5.299013108015060E-003;5.452871322631836E-003;
2.419500000000000E+009;1.951177269220352E-001;-3.983447700738907E-002;5.321871954947710E-003;5.345243494957686E-003;
2.419666666666667E+009;1.934608221054077E-001;-4.029719904065132E-002;5.529777612537146E-003;5.226976703852415E-003;
2.419833333333334E+009;1.920233070850372E-001;-4.076703637838364E-002;5.552486050873995E-003;4.949621856212616E-003;
2.420000000000000E+009;1.902537345886231E-001;-4.121834412217140E-002;5.452293902635574E-003;4.873906727880240E-003;
2.420166666666667E+009;1.884265094995499E-001;-4.205565899610519E-002;5.561792291700840E-003;4.716012161225081E-003;
2.420333333333334E+009;1.868442445993424E-001;-4.294621944427490E-002;5.760889034718275E-003;4.590391181409359E-003;
2.420500000000000E+009;1.849295049905777E-001;-4.398537427186966E-002;5.734530277550221E-003;4.531981889158487E-003;
2.420666666666667E+009;1.830527633428574E-001;-4.488422721624374E-002;6.036117672920227E-003;4.377110861241818E-003;
2.420833333333334E+009;1.812577545642853E-001;-4.638400673866272E-002;5.881004501134157E-003;4.221328999847174E-003;
2.421000000000000E+009;1.796080470085144E-001;-4.769742488861084E-002;5.931212566792965E-003;4.210490267723799E-003;
2.421166666666667E+009;1.779158711433411E-001;-4.943070933222771E-002;6.174796726554632E-003;4.073180258274078E-003;
2.421333333333334E+009;1.759933233261108E-001;-5.081046745181084E-002;6.347915157675743E-003;3.973606042563915E-003;
2.421500000000000E+009;1.743877977132797E-001;-5.283725261688232E-002;6.375489290803671E-003;3.842690726742148E-003;
2.421666666666667E+009;1.727792173624039E-001;-5.465160682797432E-002;6.472955457866192E-003;3.646851051598787E-003;
2.421833333333334E+009;1.714603900909424E-001;-5.646612122654915E-002;6.620503962039948E-003;3.487564856186509E-003;
2.422000000000000E+009;1.698292344808579E-001;-5.853919312357903E-002;6.652433425188065E-003;3.280804259702563E-003;
2.422166666666667E+009;1.687975525856018E-001;-6.068411841988564E-002;6.719510536640883E-003;2.997669856995344E-003;
2.422333333333334E+009;1.674282848834992E-001;-6.292808055877686E-002;6.774448789656162E-003;2.945865737274289E-003;
2.422500000000000E+009;1.663926690816879E-001;-6.505066901445389E-002;6.726597901433706E-003;2.544875489547849E-003;
2.422666666666667E+009;1.653276085853577E-001;-6.721774488687515E-002;6.859469693154097E-003;2.440467942506075E-003;
2.422833333333334E+009;1.647821366786957E-001;-6.960104405879974E-002;6.875517312437296E-003;2.341985469684005E-003;
2.423000000000000E+009;1.639975458383560E-001;-7.197324931621552E-002;6.940140854567289E-003;2.122624544426799E-003;
2.423166666666667E+009;1.633839607238770E-001;-7.412677258253098E-002;7.092889863997698E-003;2.093524672091007E-003;
2.423333333333334E+009;1.630055606365204E-001;-7.652027159929276E-002;7.113545667380095E-003;1.769105321727693E-003;
2.423500000000000E+009;1.627909094095230E-001;-7.876706868410111E-002;7.235816214233637E-003;1.674259197898209E-003;
2.423666666666667E+009;1.628152579069138E-001;-8.083406090736389E-002;7.087300997227430E-003;1.557827577926219E-003;
2.423833333333334E+009;1.625319868326187E-001;-8.306524157524109E-002;7.202323060482740E-003;1.481198472902179E-003;
2.424000000000000E+009;1.625286638736725E-001;-8.520814031362534E-002;7.407461293041706E-003;1.259563257917762E-003;
2.424166666666667E+009;1.626261025667191E-001;-8.720674365758896E-002;7.434605620801449E-003;1.012018299661577E-003;
2.424333333333334E+009;1.628722846508026E-001;-8.914965391159058E-002;7.598427589982748E-003;7.639937684871256E-004;
2.424500000000000E+009;1.633090078830719E-001;-9.116388857364655E-002;7.534367963671684E-003;5.471715703606606E-004;
2.424666666666667E+009;1.634268313646317E-001;-9.301646798849106E-002;7.550613489001989E-003;2.462277770973742E-004;
2.424833333333334E+009;1.641054600477219E-001;-9.465756267309189E-002;7.593221031129360E-003;1.422165805706754E-004;
2.425000000000000E+009;1.647049784660339E-001;-9.610583633184433E-002;7.604002486914396E-003;-1.275512477150187E-004;
2.425166666666667E+009;1.651065349578857E-001;-9.748898446559906E-002;7.724869064986706E-003;-3.458146820776165E-004;
2.425333333333334E+009;1.655955612659454E-001;-9.887252748012543E-002;7.570013869553804E-003;-6.367872119881213E-004;
2.425500000000000E+009;1.662673950195313E-001;-1.000628098845482E-001;7.637847214937210E-003;-8.715788135305047E-004;
2.425666666666667E+009;1.668860614299774E-001;-1.010011434555054E-001;7.478893268853426E-003;-1.145273447036743E-003;
2.425833333333334E+009;1.675110012292862E-001;-1.021705791354179E-001;7.422156166285276E-003;-1.309690531343222E-003;
2.426000000000000E+009;1.682004779577255E-001;-1.028226539492607E-001;7.266007829457521E-003;-1.518525881692767E-003;
2.426166666666667E+009;1.688454747200012E-001;-1.035582199692726E-001;7.366666104644537E-003;-1.814276096411049E-003;
2.426333333333334E+009;1.692597121000290E-001;-1.042439118027687E-001;7.329603191465139E-003;-2.071180148050189E-003;
2.426500000000000E+009;1.699615716934204E-001;-1.047055199742317E-001;7.166864350438118E-003;-2.206430304795504E-003;
2.426666666666667E+009;1.705046147108078E-001;-1.050980761647224E-001;7.239971309900284E-003;-2.403838559985161E-003;
2.426833333333334E+009;1.710018962621689E-001;-1.054018810391426E-001;7.120999041944742E-003;-2.638510894030333E-003;
2.427000000000000E+009;1.714098900556564E-001;-1.056345030665398E-001;6.951981224119663E-003;-2.791823819279671E-003;
2.427166666666667E+009;1.718836426734924E-001;-1.057545021176338E-001;7.023132871836424E-003;-3.119057975709438E-003;
2.427333333333334E+009;1.720326542854309E-001;-1.060211360454559E-001;6.930354051291943E-003;-3.185957204550505E-003;
2.427500000000000E+009;1.721442192792893E-001;-1.061281710863113E-001;6.784399505704641E-003;-3.269887994974852E-003;
2.427666666666667E+009;1.721334457397461E-001;-1.060036271810532E-001;6.722508929669857E-003;-3.715272527188063E-003;
2.427833333333334E+009;1.720959395170212E-001;-1.061246693134308E-001;6.723925005644560E-003;-3.959946800023317E-003;
