# Version 1.00
#
freq[Hz];re:Trc1_S11;im:Trc1_S11;re:Trc2_S21;im:Trc2_S21;
2.400000000000000E+009;1.578359305858612E-001;1.117524951696396E-001;-4.296859726309776E-003;-8.790094405412674E-003;
2.400166666666667E+009;1.572960913181305E-001;1.094850078225136E-001;-4.426120314747095E-003;-8.663564920425415E-003;
2.400333333333334E+009;1.568742096424103E-001;1.075108498334885E-001;-4.507735837250948E-003;-8.401799015700817E-003;
2.400500000000000E+009;1.563844531774521E-001;1.047780364751816E-001;-4.699470940977335E-003;-8.437420241534710E-003;
2.400666666666667E+009;1.563393026590347E-001;1.023999229073525E-001;-4.869250580668449E-003;-8.250291459262371E-003;
2.400833333333334E+009;1.557487994432449E-001;9.961006790399551E-002;-4.947694484144449E-003;-8.035297505557537E-003;
2.401000000000000E+009;1.555591821670532E-001;9.680162370204926E-002;-5.014340858906508E-003;-7.966618053615093E-003;
2.401166666666667E+009;1.552405506372452E-001;9.381593763828278E-002;-5.407376214861870E-003;-7.998166605830193E-003;
2.401333333333334E+009;1.553010791540146E-001;9.090179949998856E-002;-5.518995691090822E-003;-7.765392307192087E-003;
2.401500000000000E+009;1.552200317382813E-001;8.776362985372543E-002;-5.798174068331718E-003;-7.741810753941536E-003;
2.401666666666667E+009;1.552778035402298E-001;8.480297029018402E-002;-6.163755897432566E-003;-7.596954237669706E-003;
2.401833333333334E+009;1.554145365953445E-001;8.183097839355469E-002;-6.366034504026175E-003;-7.445552852004767E-003;
2.402000000000000E+009;1.560119837522507E-001;7.876282185316086E-002;-6.675426382571459E-003;-7.179968990385532E-003;
2.402166666666667E+009;1.564637571573257E-001;7.591050118207932E-002;-7.123840041458607E-003;-7.055602502077818E-003;
2.402333333333334E+009;1.572054475545883E-001;7.292141765356064E-002;-7.313139736652374E-003;-6.595640908926725E-003;
2.402500000000000E+009;1.578774005174637E-001;7.003912329673767E-002;-7.553711533546448E-003;-6.614835467189550E-003;
2.402666666666667E+009;1.589796245098114E-001;6.728586554527283E-002;-7.806099485605955E-003;-5.881679710000753E-003;
2.402833333333334E+009;1.599231064319611E-001;6.432508677244186E-002;-8.036112412810326E-003;-5.945451091974974E-003;
2.403000000000000E+009;1.613447666168213E-001;6.157610192894936E-002;-8.153033442795277E-003;-5.476057063788176E-003;
2.403166666666667E+009;1.628005206584930E-001;5.905278027057648E-002;-8.240555413067341E-003;-5.112320650368929E-003;
2.403333333333334E+009;1.641481816768646E-001;5.647683516144753E-002;-8.537388406693935E-003;-4.778147209435701E-003;
2.403500000000000E+009;1.657275259494782E-001;5.397871136665344E-002;-8.577375672757626E-003;-4.507225938141346E-003;
2.403666666666667E+009;1.675356626510620E-001;5.183066055178642E-002;-8.613536134362221E-003;-4.162460565567017E-003;
2.403833333333334E+009;1.691162735223770E-001;4.944399744272232E-002;-8.877042680978775E-003;-3.681686474010348E-003;
2.404000000000000E+009;1.707642823457718E-001;4.745982587337494E-002;-8.726626634597778E-003;-3.373642219230533E-003;
2.404166666666667E+009;1.726540625095367E-001;4.546541720628738E-002;-8.848642930388451E-003;-3.199540777131915E-003;
2.404333333333334E+009;1.743836700916290E-001;4.363406449556351E-002;-9.008415974676609E-003;-2.564707305282354E-003;
2.404500000000000E+009;1.761304885149002E-001;4.198679700493813E-002;-8.844840340316296E-003;-2.353054936975241E-003;
2.404666666666667E+009;1.780696660280228E-001;4.046670347452164E-002;-9.007834829390049E-003;-1.931721344590187E-003;
2.404833333333334E+009;1.798673272132874E-001;3.913600742816925E-002;-8.927815593779087E-003;-1.765951630659401E-003;
2.405000000000000E+009;1.814731657505035E-001;3.819894790649414E-002;-9.011431597173214E-003;-1.372361439280212E-003;
2.405166666666667E+009;1.832758486270905E-001;3.725787624716759E-002;-8.854710496962071E-003;-1.117737963795662E-003;
2.405333333333334E+009;1.848773956298828E-001;3.670021519064903E-002;-8.698439225554466E-003;-8.796557667665184E-004;
2.405500000000000E+009;1.866674572229385E-001;3.588661924004555E-002;-8.809432387351990E-003;-5.850494490005076E-004;
2.405666666666667E+009;1.882002204656601E-001;3.547963500022888E-002;-8.662207052111626E-003;-1.826411462388933E-004;
2.405833333333334E+009;1.898793280124664E-001;3.521371632814407E-002;-8.614070713520050E-003;-4.776653804583475E-005;
2.406000000000000E+009;1.911105513572693E-001;3.492387756705284E-002;-8.411653339862824E-003;1.595315989106894E-004;
2.406166666666667E+009;1.924864053726196E-001;3.471024334430695E-002;-8.286863565444946E-003;3.496407880447805E-004;
2.406333333333334E+009;1.937802731990814E-001;3.480674698948860E-002;-8.215925656259060E-003;6.871777586638928E-004;
2.406500000000000E+009;1.947724074125290E-001;3.499999642372131E-002;-8.299609646201134E-003;8.066532900556922E-004;
2.406666666666667E+009;1.957653909921646E-001;3.527484089136124E-002;-8.174370974302292E-003;1.023382646963000E-003;
2.406833333333334E+009;1.965653449296951E-001;3.525613993406296E-002;-8.085433393716812E-003;1.154558383859694E-003;
2.407000000000000E+009;1.973946392536163E-001;3.578470274806023E-002;-7.970713078975678E-003;1.339696929790080E-003;
2.407166666666667E+009;1.979845464229584E-001;3.582094609737396E-002;-8.018190041184425E-003;1.378378481604159E-003;
2.407333333333334E+009;1.982985287904739E-001;3.620422258973122E-002;-7.771251257508993E-003;1.655385596677661E-003;
2.407500000000000E+009;1.984060108661652E-001;3.665402904152870E-002;-7.861986756324768E-003;1.732042292132974E-003;
2.407666666666667E+009;1.986822038888931E-001;3.685891628265381E-002;-7.737014442682266E-003;2.016901504248381E-003;
2.407833333333334E+009;1.984421163797379E-001;3.718295320868492E-002;-7.683357223868370E-003;2.061928389593959E-003;
2.408000000000000E+009;1.985439509153366E-001;3.745760768651962E-002;-7.652420550584793E-003;2.308069495484233E-003;
2.408166666666667E+009;1.980730891227722E-001;3.746083751320839E-002;-7.540329825133085E-003;2.423276193439961E-003;
2.408333333333334E+009;1.977878957986832E-001;3.743077814579010E-002;-7.499064318835735E-003;2.678657183423638E-003;
2.408500000000000E+009;1.971715986728668E-001;3.768229857087135E-002;-7.602685596793890E-003;2.682293998077512E-003;
2.408666666666667E+009;1.966308057308197E-001;3.758669644594193E-002;-7.457991130650044E-003;3.034027991816402E-003;
2.408833333333334E+009;1.960562020540237E-001;3.737300634384155E-002;-7.491891738027334E-003;3.077924251556397E-003;
2.409000000000000E+009;1.950789839029312E-001;3.696195036172867E-002;-7.331056986004114E-003;3.260915167629719E-003;
2.409166666666667E+009;1.941715776920319E-001;3.649253025650978E-002;-7.341840304434300E-003;3.563132369890809E-003;
2.409333333333334E+009;1.931997388601303E-001;3.592178970575333E-002;-7.158194668591023E-003;3.740220796316862E-003;
2.409500000000000E+009;1.919026821851730E-001;3.516411036252976E-002;-7.049102801829577E-003;4.053689073771238E-003;
2.409666666666667E+009;1.908514052629471E-001;3.414391726255417E-002;-6.955556571483612E-003;4.182356875389814E-003;
2.409833333333334E+009;1.897257566452026E-001;3.311000764369965E-002;-6.885398179292679E-003;4.333325196057558E-003;
2.410000000000000E+009;1.885193288326263E-001;3.182146325707436E-002;-6.651497446000576E-003;4.585656803101301E-003;
2.410166666666667E+009;1.872713714838028E-001;3.037077188491821E-002;-6.480525713413954E-003;4.641734063625336E-003;
2.410333333333334E+009;1.859430819749832E-001;2.884856425225735E-002;-6.502924021333456E-003;4.960057325661182E-003;
2.410500000000000E+009;1.849275678396225E-001;2.734240703284740E-002;-6.225123070180416E-003;5.033744964748621E-003;
2.410666666666667E+009;1.836152523756027E-001;2.521319314837456E-002;-6.086435634642839E-003;5.133912898600102E-003;
2.410833333333334E+009;1.828009188175201E-001;2.321027778089047E-002;-5.819518119096756E-003;5.272738169878721E-003;
2.411000000000000E+009;1.815562397241592E-001;2.117950096726418E-002;-5.662521813064814E-003;5.375683773308992E-003;
2.411166666666667E+009;1.807743012905121E-001;1.904222927987576E-002;-5.594036076217890E-003;5.558350589126349E-003;
2.411333333333334E+009;1.798328161239624E-001;1.660007797181606E-002;-5.442316178232431E-003;5.548049230128527E-003;
2.411500000000000E+009;1.790004819631577E-001;1.410068385303021E-002;-5.351181142032147E-003;5.814075004309416E-003;
2.411666666666667E+009;1.785499751567841E-001;1.183145493268967E-002;-5.241352133452892E-003;5.865996703505516E-003;
2.411833333333334E+009;1.777325123548508E-001;9.307097643613815E-003;-5.119652952998877E-003;5.903513170778751E-003;
2.412000000000000E+009;1.779810339212418E-001;6.744093727320433E-003;-5.063193850219250E-003;6.027759984135628E-003;
2.412166666666667E+009;1.774462908506393E-001;4.224317148327828E-003;-5.026589147746563E-003;6.294715683907270E-003;
2.412333333333334E+009;1.774515807628632E-001;1.586821279488504E-003;-4.857871215790510E-003;6.524139083921909E-003;
2.412500000000000E+009;1.776826679706574E-001;-9.235567413270474E-004;-4.575985018163919E-003;6.620359607040882E-003;
2.412666666666667E+009;1.780037730932236E-001;-3.639427479356527E-003;-4.459895193576813E-003;6.846965756267309E-003;
2.412833333333334E+009;1.783431172370911E-001;-6.340666674077511E-003;-4.303524270653725E-003;6.971675902605057E-003;
2.413000000000000E+009;1.789072155952454E-001;-9.002909995615482E-003;-4.118359182029963E-003;7.197828497737646E-003;
2.413166666666667E+009;1.797096133232117E-001;-1.156496535986662E-002;-3.936360124498606E-003;7.484499365091324E-003;
2.413333333333334E+009;1.805141568183899E-001;-1.435743365436792E-002;-3.689368255436420E-003;7.530896924436092E-003;
2.413500000000000E+009;1.814202964305878E-001;-1.672821864485741E-002;-3.478484228253365E-003;7.760961074382067E-003;
2.413666666666667E+009;1.825288087129593E-001;-1.937443949282169E-002;-3.332599764689803E-003;7.857254706323147E-003;
2.413833333333334E+009;1.835981011390686E-001;-2.165477722883225E-002;-2.934610936790705E-003;8.104834705591202E-003;
2.414000000000000E+009;1.845127493143082E-001;-2.408376894891262E-002;-2.604254288598895E-003;8.288621902465820E-003;
2.414166666666667E+009;1.859911978244782E-001;-2.624137885868549E-002;-2.291454467922449E-003;8.314590901136398E-003;
2.414333333333334E+009;1.871087849140167E-001;-2.853962406516075E-002;-2.055864781141281E-003;8.389847353100777E-003;
2.414500000000000E+009;1.884845644235611E-001;-3.022875450551510E-002;-1.688901335000992E-003;8.548500016331673E-003;
2.414666666666667E+009;1.898368746042252E-001;-3.210899606347084E-002;-1.421595108695328E-003;8.685979060828686E-003;
2.414833333333334E+009;1.911494135856628E-001;-3.384880721569061E-002;-1.110644661821425E-003;8.655619807541370E-003;
2.415000000000000E+009;1.923097223043442E-001;-3.541525453329086E-002;-6.054436671547592E-004;8.552154526114464E-003;
2.415166666666667E+009;1.937366127967835E-001;-3.683688864111900E-002;-4.190637555439025E-004;8.541408926248550E-003;
2.415333333333334E+009;1.953475177288055E-001;-3.797587752342224E-002;7.858785829739645E-005;8.483721874654293E-003;
2.415500000000000E+009;1.966125518083572E-001;-3.888897597789764E-002;2.755599271040410E-004;8.455671370029450E-003;
2.415666666666667E+009;1.980463564395905E-001;-3.986659646034241E-002;4.990109591744840E-004;8.579691872000694E-003;
2.415833333333334E+009;1.992090195417404E-001;-4.064976796507835E-002;7.824581116437912E-004;8.360004052519798E-003;
2.416000000000000E+009;2.003344893455505E-001;-4.138583689928055E-002;1.045392476953566E-003;8.374447934329510E-003;
2.416166666666667E+009;2.013409435749054E-001;-4.211752116680145E-002;1.281475531868637E-003;8.314682170748711E-003;
2.416333333333334E+009;2.025217711925507E-001;-4.242685437202454E-002;1.500107347965241E-003;7.995915599167347E-003;
2.416500000000000E+009;2.032387852668762E-001;-4.274085536599159E-002;1.853317022323608E-003;8.101157844066620E-003;
2.416666666666667E+009;2.040258795022965E-001;-4.305194318294525E-002;2.109425608068705E-003;7.940445095300674E-003;
2.416833333333334E+009;2.045645862817764E-001;-4.305293783545494E-002;2.437092596665025E-003;8.039957843720913E-003;
2.417000000000000E+009;2.050912529230118E-001;-4.314954206347466E-002;2.699773525819182E-003;7.810327224433422E-003;
2.417166666666667E+009;2.050925195217133E-001;-4.302846267819405E-002;2.940731355920434E-003;7.729379925876856E-003;
2.417333333333334E+009;2.052049636840820E-001;-4.280477762222290E-002;3.075975691899657E-003;7.565802428871393E-003;
2.417500000000000E+009;2.054965645074844E-001;-4.264875873923302E-002;3.397438209503889E-003;7.313243113458157E-003;
2.417666666666667E+009;2.051915079355240E-001;-4.222656786441803E-002;3.683137474581599E-003;7.107983808964491E-003;
2.417833333333334E+009;2.051125615835190E-001;-4.181298613548279E-002;3.780074417591095E-003;7.030561100691557E-003;
2.418000000000000E+009;2.048194110393524E-001;-4.137341305613518E-002;3.977529238909483E-003;6.915553472936153E-003;
2.418166666666667E+009;2.042432576417923E-001;-4.109923169016838E-002;4.104997962713242E-003;6.629243493080139E-003;
2.418333333333334E+009;2.036476880311966E-001;-4.069984704256058E-002;4.513982683420181E-003;6.552256643772125E-003;
2.418500000000000E+009;2.028738409280777E-001;-4.047891125082970E-002;4.548019263893366E-003;6.280112545937300E-003;
2.418666666666667E+009;2.021506577730179E-001;-4.002685844898224E-002;4.739483818411827E-003;6.051492411643267E-003;
2.418833333333334E+009;2.009760439395905E-001;-3.997190669178963E-002;4.903315100818873E-003;5.945719312876463E-003;
2.419000000000000E+009;1.997924000024796E-001;-3.980228677392006E-002;5.005179904401302E-003;5.769841372966766E-003;
2.419166666666667E+009;1.985240578651428E-001;-3.986197337508202E-002;5.170301999896765E-003;5.559252109378576E-003;
2.419333333333334E+009;1.971405297517777E-001;-3.994642198085785E-002;5.124736111611128E-003;5.351479165256023E-003;
2.419500000000000E+009;1.956703811883926E-001;-4.004133492708206E-002;5.198776256293058E-003;5.142159759998322E-003;
2.419666666666667E+009;1.942060887813568E-001;-4.078302904963493E-002;5.167292896658182E-003;4.932179581373930E-003;
2.419833333333334E+009;1.924447566270828E-001;-4.098571464419365E-002;5.294470116496086E-003;4.821629729121923E-003;
2.420000000000000E+009;1.909274309873581E-001;-4.174034669995308E-002;5.214439239352942E-003;4.710478708148003E-003;
2.420166666666667E+009;1.890684068202972E-001;-4.247539117932320E-002;5.290289875119925E-003;4.548408556729555E-003;
2.420333333333334E+009;1.873178929090500E-001;-4.322888702154160E-002;5.267902743071318E-003;4.507112782448530E-003;
2.420500000000000E+009;1.854629665613174E-001;-4.445968568325043E-002;5.392923485487700E-003;4.378777928650379E-003;
2.420666666666667E+009;1.835169047117233E-001;-4.542539268732071E-002;5.501991137862206E-003;4.266714677214623E-003;
2.420833333333334E+009;1.817532479763031E-001;-4.674836248159409E-002;5.664164666086435E-003;4.180756863206625E-003;
2.421000000000000E+009;1.798560917377472E-001;-4.824577271938324E-002;5.617997143417597E-003;4.123523365706205E-003;
2.421166666666667E+009;1.783066242933273E-001;-5.001453310251236E-002;5.768652074038982E-003;3.881475655362010E-003;
2.421333333333334E+009;1.761888414621353E-001;-5.140515789389610E-002;5.767876282334328E-003;3.815677249804139E-003;
2.421500000000000E+009;1.746525019407272E-001;-5.327596515417099E-002;6.030043121427298E-003;3.666273318231106E-003;
2.421666666666667E+009;1.731122732162476E-001;-5.535381659865379E-002;6.107449997216463E-003;3.499629441648722E-003;
2.421833333333334E+009;1.715923398733139E-001;-5.700707435607910E-002;6.130503024905920E-003;3.400063142180443E-003;
2.422000000000000E+009;1.700646877288818E-001;-5.909721180796623E-002;6.248770281672478E-003;3.084083786234260E-003;
2.422166666666667E+009;1.688030511140823E-001;-6.134853139519692E-002;6.340321619063616E-003;3.028740873560309E-003;
2.422333333333334E+009;1.675728261470795E-001;-6.354280561208725E-002;6.375018507242203E-003;2.997837495058775E-003;
2.422500000000000E+009;1.664268970489502E-001;-6.552571803331375E-002;6.608199328184128E-003;2.672756090760231E-003;
2.422666666666667E+009;1.654296964406967E-001;-6.792878359556198E-002;6.606579292565584E-003;2.506277523934841E-003;
2.422833333333334E+009;1.646866351366043E-001;-7.021117210388184E-002;6.570946425199509E-003;2.280461601912975E-003;
2.423000000000000E+009;1.639538407325745E-001;-7.255663722753525E-002;6.538441404700279E-003;2.218139590695500E-003;
2.423166666666667E+009;1.633497327566147E-001;-7.468286156654358E-002;6.567275151610375E-003;2.143257297575474E-003;
2.423333333333334E+009;1.628842651844025E-001;-7.713914662599564E-002;6.615388672798872E-003;1.970658777281642E-003;
2.423500000000000E+009;1.625666618347168E-001;-7.935109734535217E-002;6.689107976853848E-003;1.758644124493003E-003;
2.423666666666667E+009;1.624839901924133E-001;-8.155209571123123E-002;6.842123810201883E-003;1.456259400583804E-003;
2.423833333333334E+009;1.621737480163574E-001;-8.351226896047592E-002;6.897406652569771E-003;1.490565482527018E-003;
2.424000000000000E+009;1.624000966548920E-001;-8.572054654359818E-002;6.864226423203945E-003;1.326174358837307E-003;
2.424166666666667E+009;1.622796654701233E-001;-8.751408755779266E-002;7.065432146191597E-003;1.029227511025965E-003;
2.424333333333334E+009;1.626234799623489E-001;-8.954109251499176E-002;7.130511105060577E-003;9.479908039793372E-004;
2.424500000000000E+009;1.629851311445236E-001;-9.162604808807373E-002;7.066486869007349E-003;7.858547032810748E-004;
2.424666666666667E+009;1.633469164371491E-001;-9.323276579380035E-002;7.238405290991068E-003;3.923356125596911E-004;
2.424833333333334E+009;1.639483571052551E-001;-9.502966701984406E-002;7.189319469034672E-003;3.154985606670380E-004;
2.425000000000000E+009;1.643202453851700E-001;-9.652665257453919E-002;7.259143050760031E-003;6.353878416121006E-005;
2.425166666666667E+009;1.648122966289520E-001;-9.791034460067749E-002;7.374614011496306E-003;-1.356474695057841E-005;
2.425333333333334E+009;1.653971076011658E-001;-9.922691434621811E-002;7.263575214892626E-003;-3.311838954687119E-004;
2.425500000000000E+009;1.659957468509674E-001;-1.004464849829674E-001;7.271282374858856E-003;-4.798618610948324E-004;
2.425666666666667E+009;1.666103899478912E-001;-1.014215797185898E-001;7.290500681847334E-003;-6.736989016644657E-004;
2.425833333333334E+009;1.672636866569519E-001;-1.023420915007591E-001;7.246649824082851E-003;-1.041150884702802E-003;
2.426000000000000E+009;1.679151058197022E-001;-1.030534878373146E-001;7.259228266775608E-003;-1.202978543005884E-003;
2.426166666666667E+009;1.685557067394257E-001;-1.037605181336403E-001;7.145216688513756E-003;-1.284017809666693E-003;
2.426333333333334E+009;1.689537316560745E-001;-1.044609323143959E-001;7.301599718630314E-003;-1.638551009818912E-003;
2.426500000000000E+009;1.698024570941925E-001;-1.048810258507729E-001;7.140290923416615E-003;-1.867162529379129E-003;
2.426666666666667E+009;1.701678782701492E-001;-1.051619723439217E-001;7.207328453660011E-003;-2.140486147254705E-003;
2.426833333333334E+009;1.708310693502426E-001;-1.056032255291939E-001;7.053180597722530E-003;-2.190358005464077E-003;
2.427000000000000E+009;1.711424887180328E-001;-1.058066263794899E-001;6.904537323862314E-003;-2.328129019588232E-003;
2.427166666666667E+009;1.714754253625870E-001;-1.058563217520714E-001;6.839980371296406E-003;-2.717926166951656E-003;
2.427333333333334E+009;1.716924905776978E-001;-1.061166822910309E-001;6.782711949199438E-003;-2.847483614459634E-003;
2.427500000000000E+009;1.718866080045700E-001;-1.061297059059143E-001;6.811749655753374E-003;-3.068198217079043E-003;
2.427666666666667E+009;1.718160510063171E-001;-1.061749011278153E-001;6.765404716134071E-003;-3.237730590626597E-003;
2.427833333333334E+009;1.717802286148071E-001;-1.062031015753746E-001;6.633277051150799E-003;-3.517014672979713E-003;
