# Version 1.00
#
freq[Hz];re:Trc1_S11;im:Trc1_S11;re:Trc2_S21;im:Trc2_S21;
2.400000000000000E+009;1.585067361593247E-001;6.268095970153809E-002;-5.739829968661070E-003;8.720721234567463E-004;
2.400166666666667E+009;1.581473648548126E-001;6.111110001802445E-002;-5.615751724690199E-003;1.018728013150394E-003;
2.400333333333334E+009;1.580181270837784E-001;5.918334051966667E-002;-5.557127762585878E-003;8.789999410510063E-004;
2.400500000000000E+009;1.580381989479065E-001;5.727734044194222E-002;-5.735233426094055E-003;1.143651432357729E-003;
2.400666666666667E+009;1.580315232276917E-001;5.517250299453735E-002;-5.740645341575146E-003;1.266452134586871E-003;
2.400833333333334E+009;1.580153256654739E-001;5.341698974370956E-002;-5.568827502429485E-003;1.480082282796502E-003;
2.401000000000000E+009;1.580220758914948E-001;5.120488256216049E-002;-5.525717511773109E-003;1.636019442230463E-003;
2.401166666666667E+009;1.581998765468597E-001;4.915544018149376E-002;-5.443158559501171E-003;1.858269213698804E-003;
2.401333333333334E+009;1.584252715110779E-001;4.694591835141182E-002;-5.418851505964994E-003;1.931461854837835E-003;
2.401500000000000E+009;1.588096916675568E-001;4.495678097009659E-002;-5.430847406387329E-003;2.193164313212037E-003;
2.401666666666667E+009;1.589487046003342E-001;4.305058717727661E-002;-5.338112823665142E-003;2.330600982531905E-003;
2.401833333333334E+009;1.594872176647186E-001;4.091200232505798E-002;-5.348571576178074E-003;2.619381994009018E-003;
2.402000000000000E+009;1.595984101295471E-001;3.892537951469421E-002;-5.346638616174460E-003;2.842262852936983E-003;
2.402166666666667E+009;1.603533774614334E-001;3.674050793051720E-002;-5.202692933380604E-003;2.860817126929760E-003;
2.402333333333334E+009;1.606747806072235E-001;3.486757725477219E-002;-5.090109072625637E-003;3.023076802492142E-003;
2.402500000000000E+009;1.615270972251892E-001;3.310266137123108E-002;-5.155656486749649E-003;3.268157131969929E-003;
2.402666666666667E+009;1.622563153505325E-001;3.127558901906014E-002;-5.001937039196491E-003;3.666422795504332E-003;
2.402833333333334E+009;1.629279851913452E-001;2.956991270184517E-002;-4.818651359528303E-003;3.651896025985479E-003;
2.403000000000000E+009;1.636674851179123E-001;2.786562964320183E-002;-4.748743958771229E-003;3.916307352483273E-003;
2.403166666666667E+009;1.645281016826630E-001;2.621709555387497E-002;-4.498116672039032E-003;4.294659011065960E-003;
2.403333333333334E+009;1.653932034969330E-001;2.476606704294682E-002;-4.335136152803898E-003;4.337447229772806E-003;
2.403500000000000E+009;1.664437204599381E-001;2.330318465828896E-002;-4.165358375757933E-003;4.754066467285156E-003;
2.403666666666667E+009;1.672263592481613E-001;2.192669175565243E-002;-4.059017170220614E-003;4.625687375664711E-003;
2.403833333333334E+009;1.684176325798035E-001;2.062112092971802E-002;-3.642846131697297E-003;4.844581242650747E-003;
2.404000000000000E+009;1.692205965518951E-001;1.944643817842007E-002;-3.418433247134090E-003;5.253767594695091E-003;
2.404166666666667E+009;1.702007204294205E-001;1.822680607438088E-002;-3.303632372990251E-003;5.213463678956032E-003;
2.404333333333334E+009;1.712514013051987E-001;1.734239980578423E-002;-2.950234804302454E-003;5.363488104194403E-003;
2.404500000000000E+009;1.720167845487595E-001;1.627320609986782E-002;-2.885677618905902E-003;5.389147438108921E-003;
2.404666666666667E+009;1.730998158454895E-001;1.533558312803507E-002;-2.616728190332651E-003;5.559563636779785E-003;
2.404833333333334E+009;1.741219609975815E-001;1.455786358565092E-002;-2.361741848289967E-003;5.757258739322424E-003;
2.405000000000000E+009;1.747657358646393E-001;1.384443603456020E-002;-2.133250469341874E-003;5.616961047053337E-003;
2.405166666666667E+009;1.756440252065659E-001;1.313186623156071E-002;-2.068597823381424E-003;5.660603754222393E-003;
2.405333333333334E+009;1.764738559722900E-001;1.239182706922293E-002;-1.612417981959879E-003;5.767249036580324E-003;
2.405500000000000E+009;1.771512478590012E-001;1.223840843886137E-002;-1.169036491774023E-003;5.905469879508019E-003;
2.405666666666667E+009;1.779297441244125E-001;1.166434679180384E-002;-1.009976258501411E-003;5.838512908667326E-003;
2.405833333333334E+009;1.785527020692825E-001;1.131035480648279E-002;-8.115308010019362E-004;5.908437073230743E-003;
2.406000000000000E+009;1.791108548641205E-001;1.083975471556187E-002;-5.515631055459380E-004;5.804896354675293E-003;
2.406166666666667E+009;1.793682426214218E-001;1.055603940039873E-002;-1.864447694970295E-004;5.693527869880199E-003;
2.406333333333334E+009;1.799864321947098E-001;1.028692629188299E-002;-6.895078968227608E-006;5.847779568284750E-003;
2.406500000000000E+009;1.803235709667206E-001;1.003421191126108E-002;3.476569254416972E-004;5.720113869756460E-003;
2.406666666666667E+009;1.804792284965515E-001;9.680493734776974E-003;4.374886339064688E-004;5.604244768619537E-003;
2.406833333333334E+009;1.806119382381439E-001;9.304638952016830E-003;7.280974532477558E-004;5.431767087429762E-003;
2.407000000000000E+009;1.807522773742676E-001;8.918720297515392E-003;1.027960679493845E-003;5.312820896506310E-003;
2.407166666666667E+009;1.808000057935715E-001;8.808089420199394E-003;1.072927843779326E-003;5.137730389833450E-003;
2.407333333333334E+009;1.807643175125122E-001;8.342145010828972E-003;1.327090780250728E-003;5.011872854083777E-003;
2.407500000000000E+009;1.805248111486435E-001;7.908365689218044E-003;1.501864637248218E-003;4.923545755445957E-003;
2.407666666666667E+009;1.802385896444321E-001;7.653735112398863E-003;1.671740785241127E-003;4.787767771631479E-003;
2.407833333333334E+009;1.797954589128494E-001;7.030798587948084E-003;1.751063624396920E-003;4.651587922126055E-003;
2.408000000000000E+009;1.795057058334351E-001;6.378380116075277E-003;2.034741919487715E-003;4.369108006358147E-003;
2.408166666666667E+009;1.790376901626587E-001;6.001494824886322E-003;2.034232253208756E-003;4.384533967822790E-003;
2.408333333333334E+009;1.786225736141205E-001;5.209610331803560E-003;2.100721234455705E-003;4.143442027270794E-003;
2.408500000000000E+009;1.781869381666184E-001;4.502726253122091E-003;2.275255974382162E-003;4.024488385766745E-003;
2.408666666666667E+009;1.775813847780228E-001;3.544088220223784E-003;2.312096534296870E-003;3.852484282106161E-003;
2.408833333333334E+009;1.767985969781876E-001;2.649354515597224E-003;2.266589552164078E-003;3.940971102565527E-003;
2.409000000000000E+009;1.761080175638199E-001;1.643551164306700E-003;2.373329829424620E-003;3.589661093428731E-003;
2.409166666666667E+009;1.755938231945038E-001;7.233758224174380E-004;2.364588435739279E-003;3.483860287815332E-003;
2.409333333333334E+009;1.748085021972656E-001;-5.500455736182630E-004;2.474556211382151E-003;3.390446305274963E-003;
2.409500000000000E+009;1.741679012775421E-001;-1.895839930512011E-003;2.499155933037400E-003;3.191773546859622E-003;
2.409666666666667E+009;1.732836365699768E-001;-3.255391493439674E-003;2.511572325602174E-003;2.968320390209556E-003;
2.409833333333334E+009;1.727379560470581E-001;-4.477944690734148E-003;2.470758045092225E-003;3.116204636171460E-003;
2.410000000000000E+009;1.721710860729218E-001;-5.937533453106880E-003;2.421183045953512E-003;3.048744751140475E-003;
2.410166666666667E+009;1.715046465396881E-001;-7.586071733385325E-003;2.476793713867664E-003;3.043738426640630E-003;
2.410333333333334E+009;1.707647293806076E-001;-9.263875894248486E-003;2.643293002620339E-003;2.826211042702198E-003;
2.410500000000000E+009;1.703894734382629E-001;-1.093820296227932E-002;2.665875712409616E-003;2.734074369072914E-003;
2.410666666666667E+009;1.697355508804321E-001;-1.280823722481728E-002;2.695634262636304E-003;2.749721286818385E-003;
2.410833333333334E+009;1.693450957536697E-001;-1.445127930492163E-002;2.780513837933540E-003;2.664248924702406E-003;
2.411000000000000E+009;1.688860505819321E-001;-1.649556308984757E-002;2.796120708808303E-003;2.401185454800725E-003;
2.411166666666667E+009;1.686516404151917E-001;-1.827584952116013E-002;2.808410208672285E-003;2.335584256798029E-003;
2.411333333333334E+009;1.684573590755463E-001;-2.028163708746433E-002;2.721743891015649E-003;2.382529666647315E-003;
2.411500000000000E+009;1.681232899427414E-001;-2.224929258227348E-002;2.788204234093428E-003;2.343635307624936E-003;
2.411666666666667E+009;1.681686937808991E-001;-2.416531741619110E-002;2.963953185826540E-003;2.252276754006743E-003;
2.411833333333334E+009;1.680407971143723E-001;-2.589366212487221E-002;2.879901323467493E-003;2.230016281828284E-003;
2.412000000000000E+009;1.682238131761551E-001;-2.810195833444595E-002;2.947191009297967E-003;1.985516166314483E-003;
2.412166666666667E+009;1.681696176528931E-001;-2.987194061279297E-002;2.969963941723108E-003;1.946515752933919E-003;
2.412333333333334E+009;1.684651672840118E-001;-3.199423849582672E-002;3.010354703292251E-003;1.890930347144604E-003;
2.412500000000000E+009;1.685646623373032E-001;-3.375483304262161E-002;2.944076666608453E-003;1.726311398670077E-003;
2.412666666666667E+009;1.690346896648407E-001;-3.588934242725372E-002;2.990365959703922E-003;1.788257737644017E-003;
2.412833333333334E+009;1.694041639566422E-001;-3.761217370629311E-002;3.284716978669167E-003;1.729675452224910E-003;
2.413000000000000E+009;1.698011308908463E-001;-3.947518393397331E-002;3.151163691654801E-003;1.534458715468645E-003;
2.413166666666667E+009;1.700050681829453E-001;-4.112789779901505E-002;3.213538788259029E-003;1.419955398887396E-003;
2.413333333333334E+009;1.704455316066742E-001;-4.294789209961891E-002;3.298188326880336E-003;1.317294663749635E-003;
2.413500000000000E+009;1.712341755628586E-001;-4.453513026237488E-002;3.238704986870289E-003;1.136696548201144E-003;
2.413666666666667E+009;1.717393845319748E-001;-4.621708020567894E-002;3.307625185698271E-003;1.154839294031262E-003;
2.413833333333334E+009;1.720746457576752E-001;-4.760995134711266E-002;3.275250550359488E-003;9.904091712087393E-004;
2.414000000000000E+009;1.725426316261292E-001;-4.920503869652748E-002;3.083860268816352E-003;9.294898482039571E-004;
2.414166666666667E+009;1.733860671520233E-001;-5.046628415584564E-002;3.461420070379973E-003;9.144662180915475E-004;
2.414333333333334E+009;1.738003194332123E-001;-5.173018202185631E-002;3.389248624444008E-003;8.370763971470296E-004;
2.414500000000000E+009;1.744695752859116E-001;-5.276425927877426E-002;3.049443475902081E-003;6.764613790437579E-004;
2.414666666666667E+009;1.749704033136368E-001;-5.394917726516724E-002;3.192499047145248E-003;6.538131274282932E-004;
2.414833333333334E+009;1.754716336727142E-001;-5.492496117949486E-002;3.333982778713107E-003;4.255063831806183E-004;
2.415000000000000E+009;1.759663075208664E-001;-5.576888471841812E-002;3.314736532047391E-003;3.636390611063689E-004;
2.415166666666667E+009;1.762945204973221E-001;-5.654754489660263E-002;3.333913162350655E-003;1.130391829065047E-004;
2.415333333333334E+009;1.767461597919464E-001;-5.736951529979706E-002;3.256743773818016E-003;1.586272119311616E-004;
2.415500000000000E+009;1.772156357765198E-001;-5.783092975616455E-002;3.139155684038997E-003;4.811069811694324E-005;
2.415666666666667E+009;1.773274540901184E-001;-5.834652855992317E-002;3.194110468029976E-003;-6.183900404721499E-005;
2.415833333333334E+009;1.777228116989136E-001;-5.898999422788620E-002;3.082964336499572E-003;-7.153081969590858E-005;
2.416000000000000E+009;1.776530593633652E-001;-5.953596159815788E-002;3.068536520004273E-003;-2.098967233905569E-004;
2.416166666666667E+009;1.778975725173950E-001;-6.001363694667816E-002;3.151602810248733E-003;-2.267284871777520E-004;
2.416333333333334E+009;1.779892891645432E-001;-6.019253656268120E-002;3.046314464882016E-003;-2.645264030434191E-004;
2.416500000000000E+009;1.777673661708832E-001;-6.061506643891335E-002;3.100008238106966E-003;-4.392733389977366E-004;
2.416666666666667E+009;1.775251328945160E-001;-6.074137985706329E-002;3.076237859204412E-003;-6.042403401806951E-004;
2.416833333333334E+009;1.775054335594177E-001;-6.109160929918289E-002;2.952980808913708E-003;-4.919350030831993E-004;
2.417000000000000E+009;1.768038272857666E-001;-6.120986491441727E-002;2.945368411019445E-003;-6.490699015557766E-004;
2.417166666666667E+009;1.764020323753357E-001;-6.151373684406281E-002;2.955583622679114E-003;-7.472826982848346E-004;
2.417333333333334E+009;1.759403049945831E-001;-6.171075254678726E-002;2.860457636415958E-003;-7.593259215354919E-004;
2.417500000000000E+009;1.753510683774948E-001;-6.206683441996574E-002;2.824536757543683E-003;-9.017514530569315E-004;
2.417666666666667E+009;1.746735870838165E-001;-6.216095760464668E-002;2.894873730838299E-003;-8.042742847464979E-004;
2.417833333333334E+009;1.738301366567612E-001;-6.242796406149864E-002;2.824989380314946E-003;-7.660670089535415E-004;
2.418000000000000E+009;1.728285998106003E-001;-6.283056735992432E-002;2.729759318754077E-003;-9.981021285057068E-004;
2.418166666666667E+009;1.719301193952560E-001;-6.296472996473312E-002;2.669128356501460E-003;-1.086708041839302E-003;
2.418333333333334E+009;1.710890978574753E-001;-6.356668472290039E-002;2.655667951330543E-003;-1.167105394415557E-003;
2.418500000000000E+009;1.700390875339508E-001;-6.385680288076401E-002;2.616301178932190E-003;-1.093906466849148E-003;
2.418666666666667E+009;1.689363569021225E-001;-6.432367861270905E-002;2.553559374064207E-003;-1.229584217071533E-003;
2.418833333333334E+009;1.677420139312744E-001;-6.490816175937653E-002;2.404965925961733E-003;-1.315832021646202E-003;
2.419000000000000E+009;1.663226187229157E-001;-6.543058902025223E-002;2.437382703647018E-003;-1.271054963581264E-003;
2.419166666666667E+009;1.653826981782913E-001;-6.613711267709732E-002;2.418187679722905E-003;-1.430951175279915E-003;
2.419333333333334E+009;1.638264507055283E-001;-6.654467433691025E-002;2.392095513641834E-003;-1.276726834475994E-003;
2.419500000000000E+009;1.628441661596298E-001;-6.755179911851883E-002;2.216915367171168E-003;-1.461874810047448E-003;
2.419666666666667E+009;1.617205739021301E-001;-6.850883364677429E-002;2.181154675781727E-003;-1.501111546531320E-003;
2.419833333333334E+009;1.603682339191437E-001;-6.930468976497650E-002;2.164759673178196E-003;-1.534865470603108E-003;
2.420000000000000E+009;1.592880040407181E-001;-7.034679502248764E-002;2.233308507129550E-003;-1.521221944130957E-003;
2.420166666666667E+009;1.580842435359955E-001;-7.142852246761322E-002;1.897447160445154E-003;-1.703232643194497E-003;
2.420333333333334E+009;1.570521444082260E-001;-7.275912165641785E-002;2.099391072988510E-003;-1.591586158610880E-003;
2.420500000000000E+009;1.560567617416382E-001;-7.379305362701416E-002;2.002097899094224E-003;-1.507488195784390E-003;
2.420666666666667E+009;1.550180166959763E-001;-7.502525299787521E-002;2.015527104958892E-003;-1.579459756612778E-003;
2.420833333333334E+009;1.541203707456589E-001;-7.655611634254456E-002;1.883533899672329E-003;-1.595107838511467E-003;
2.421000000000000E+009;1.532632410526276E-001;-7.780904322862625E-002;1.595010049641132E-003;-1.727677648887038E-003;
2.421166666666667E+009;1.525388807058334E-001;-7.931260019540787E-002;1.632045023143292E-003;-1.701152301393449E-003;
2.421333333333334E+009;1.517953425645828E-001;-8.108810335397720E-002;1.799905905500054E-003;-1.726530143059790E-003;
2.421500000000000E+009;1.511825621128082E-001;-8.252821117639542E-002;1.716200145892799E-003;-1.825989456847310E-003;
2.421666666666667E+009;1.505208164453507E-001;-8.421861380338669E-002;1.530588953755796E-003;-1.591390348039568E-003;
2.421833333333334E+009;1.501777023077011E-001;-8.577863872051239E-002;1.667808857746422E-003;-1.591639243997634E-003;
2.422000000000000E+009;1.498230397701263E-001;-8.759237825870514E-002;1.556254806928337E-003;-1.695258426479995E-003;
2.422166666666667E+009;1.495177447795868E-001;-8.941479772329330E-002;1.616097986698151E-003;-1.684672432020307E-003;
2.422333333333334E+009;1.493105590343475E-001;-9.095985442399979E-002;1.567786908708513E-003;-1.847084495238960E-003;
2.422500000000000E+009;1.491566449403763E-001;-9.249503910541534E-002;1.452872296795249E-003;-1.767345471307635E-003;
2.422666666666667E+009;1.491904854774475E-001;-9.427164494991303E-002;1.408552518114448E-003;-1.812201342545450E-003;
2.422833333333334E+009;1.492250561714172E-001;-9.608940780162811E-002;1.335395383648574E-003;-1.864342717453837E-003;
2.423000000000000E+009;1.492691189050674E-001;-9.775034338235855E-002;1.490641036070883E-003;-1.998248510062695E-003;
2.423166666666667E+009;1.495571136474609E-001;-9.927245229482651E-002;1.254919916391373E-003;-1.877259230241180E-003;
2.423333333333334E+009;1.498556435108185E-001;-1.008911505341530E-001;1.171255949884653E-003;-1.869433908723295E-003;
2.423500000000000E+009;1.503324359655380E-001;-1.025469452142716E-001;1.109773525968194E-003;-1.753369462676346E-003;
2.423666666666667E+009;1.504076421260834E-001;-1.041520610451698E-001;1.212215633131564E-003;-2.097886987030506E-003;
2.423833333333334E+009;1.509380191564560E-001;-1.055228933691979E-001;1.148370676673949E-003;-2.014565980061889E-003;
2.424000000000000E+009;1.512595862150192E-001;-1.065925508737564E-001;9.538620361126959E-004;-1.961390255019069E-003;
2.424166666666667E+009;1.518032401800156E-001;-1.079456135630608E-001;1.062621246092022E-003;-1.971108606085181E-003;
2.424333333333334E+009;1.523412466049194E-001;-1.091879829764366E-001;1.029496779665351E-003;-1.842729165218771E-003;
2.424500000000000E+009;1.528398394584656E-001;-1.105367019772530E-001;8.305726805701852E-004;-1.884654746390879E-003;
2.424666666666667E+009;1.535561978816986E-001;-1.113376691937447E-001;8.911345503292978E-004;-1.942861941643059E-003;
2.424833333333334E+009;1.538315117359161E-001;-1.124711930751801E-001;9.479282889515162E-004;-2.063381951302290E-003;
2.425000000000000E+009;1.543415039777756E-001;-1.134637370705605E-001;9.204706875607371E-004;-1.902463613077998E-003;
2.425166666666667E+009;1.546483337879181E-001;-1.142413392663002E-001;7.016541785560548E-004;-2.082890365272760E-003;
2.425333333333334E+009;1.551402211189270E-001;-1.150012314319611E-001;7.021248457022011E-004;-2.043770626187325E-003;
2.425500000000000E+009;1.556311249732971E-001;-1.157276704907417E-001;8.634767727926374E-004;-1.943226670846343E-003;
2.425666666666667E+009;1.557795554399490E-001;-1.162428408861160E-001;8.687284425832331E-004;-2.051767660304904E-003;
2.425833333333334E+009;1.561094671487808E-001;-1.169065013527870E-001;6.850870558992028E-004;-2.157306298613548E-003;
2.426000000000000E+009;1.563401818275452E-001;-1.173381432890892E-001;6.795305525884032E-004;-2.005196642130613E-003;
2.426166666666667E+009;1.565941870212555E-001;-1.178723424673080E-001;6.616626633331180E-004;-1.916807377710939E-003;
2.426333333333334E+009;1.565723121166229E-001;-1.180081516504288E-001;6.544384523294866E-004;-1.976517960429192E-003;
2.426500000000000E+009;1.565111130475998E-001;-1.183273717761040E-001;7.192581542767584E-004;-2.033829921856523E-003;
2.426666666666667E+009;1.565676033496857E-001;-1.185496225953102E-001;7.558450452052057E-004;-2.157564274966717E-003;
2.426833333333334E+009;1.563393622636795E-001;-1.187225580215454E-001;6.810981431044638E-004;-2.139448653906584E-003;
2.427000000000000E+009;1.560248136520386E-001;-1.187898740172386E-001;6.785024888813496E-004;-2.154327463358641E-003;
2.427166666666667E+009;1.555926203727722E-001;-1.189638227224350E-001;5.779954954050481E-004;-2.221442526206374E-003;
2.427333333333334E+009;1.551212370395660E-001;-1.189467832446098E-001;6.322498084045947E-004;-2.099240431562066E-003;
2.427500000000000E+009;1.548493653535843E-001;-1.191580072045326E-001;5.952104693278670E-004;-2.208026358857751E-003;
2.427666666666667E+009;1.540462523698807E-001;-1.193302869796753E-001;4.782011383213103E-004;-2.207810524851084E-003;
2.427833333333334E+009;1.530902534723282E-001;-1.193704530596733E-001;3.392276703380048E-004;-2.338779857382178E-003;
