# Version 1.00
#
freq[Hz];re:Trc1_S11;im:Trc1_S11;re:Trc2_S21;im:Trc2_S21;
2.400000000000000E+009;1.584317833185196E-001;6.264208257198334E-002;-5.749458447098732E-003;7.381404866464436E-004;
2.400166666666667E+009;1.582330912351608E-001;6.118394806981087E-002;-5.812713410705328E-003;9.104409837163985E-004;
2.400333333333334E+009;1.579791456460953E-001;5.919721350073814E-002;-5.741992499679327E-003;9.027980850078166E-004;
2.400500000000000E+009;1.580059081315994E-001;5.725413560867310E-002;-5.778082646429539E-003;1.185144996270537E-003;
2.400666666666667E+009;1.580255627632141E-001;5.519685894250870E-002;-5.768963601440191E-003;1.213789335452020E-003;
2.400833333333334E+009;1.580620706081390E-001;5.342356488108635E-002;-5.651625804603100E-003;1.529197441413999E-003;
2.401000000000000E+009;1.580482274293900E-001;5.110807344317436E-002;-5.585360806435347E-003;1.554587506689131E-003;
2.401166666666667E+009;1.582182794809341E-001;4.913144558668137E-002;-5.661474540829659E-003;1.794127398170531E-003;
2.401333333333334E+009;1.582731157541275E-001;4.699594900012016E-002;-5.740020889788866E-003;2.045548520982266E-003;
2.401500000000000E+009;1.586031764745712E-001;4.497776180505753E-002;-5.556528922170401E-003;2.145194914191961E-003;
2.401666666666667E+009;1.591047197580338E-001;4.305893182754517E-002;-5.381126422435045E-003;2.461326774209738E-003;
2.401833333333334E+009;1.593440175056458E-001;4.082136228680611E-002;-5.423867609351873E-003;2.450815634801984E-003;
2.402000000000000E+009;1.596460491418839E-001;3.879350796341896E-002;-5.388670600950718E-003;2.623551525175571E-003;
2.402166666666667E+009;1.602823287248612E-001;3.675112500786781E-002;-5.397522822022438E-003;2.946851309388876E-003;
2.402333333333334E+009;1.607251763343811E-001;3.474285826086998E-002;-5.382003262639046E-003;3.223633626475930E-003;
2.402500000000000E+009;1.616534143686295E-001;3.304712846875191E-002;-5.199050530791283E-003;3.369889454916120E-003;
2.402666666666667E+009;1.621683090925217E-001;3.127339109778404E-002;-5.073053296655417E-003;3.685919102281332E-003;
2.402833333333334E+009;1.627818495035172E-001;2.936392463743687E-002;-4.950946662575007E-003;3.857280826196075E-003;
2.403000000000000E+009;1.637126654386520E-001;2.778297103941441E-002;-4.732221830636263E-003;3.998778760433197E-003;
2.403166666666667E+009;1.646000146865845E-001;2.628469094634056E-002;-4.548631142824888E-003;4.207293502986431E-003;
2.403333333333334E+009;1.655493080615997E-001;2.470968663692474E-002;-4.338686354458332E-003;4.576174542307854E-003;
2.403500000000000E+009;1.662782579660416E-001;2.332410775125027E-002;-4.414482507854700E-003;4.685222171247006E-003;
2.403666666666667E+009;1.672414988279343E-001;2.179631032049656E-002;-4.057751502841711E-003;4.891457967460156E-003;
2.403833333333334E+009;1.681743562221527E-001;2.067036740481854E-002;-3.915829118341208E-003;4.923394881188870E-003;
2.404000000000000E+009;1.692689806222916E-001;1.932133547961712E-002;-3.660829272121191E-003;5.368834827095270E-003;
2.404166666666667E+009;1.702751964330673E-001;1.825476251542568E-002;-3.355444641783834E-003;5.320291034877300E-003;
2.404333333333334E+009;1.712648868560791E-001;1.728063821792603E-002;-3.203571075573564E-003;5.459631327539682E-003;
2.404500000000000E+009;1.720445901155472E-001;1.627350412309170E-002;-2.940800040960312E-003;5.564012564718723E-003;
2.404666666666667E+009;1.729933619499207E-001;1.540834549814463E-002;-2.690061228349805E-003;5.557824391871691E-003;
2.404833333333334E+009;1.739522069692612E-001;1.470344141125679E-002;-2.396190539002419E-003;5.726556293666363E-003;
2.405000000000000E+009;1.748288273811340E-001;1.387836877256632E-002;-2.300832886248827E-003;5.659105256199837E-003;
2.405166666666667E+009;1.756429225206375E-001;1.321680378168821E-002;-2.026562113314867E-003;5.854814779013395E-003;
2.405333333333334E+009;1.765070557594299E-001;1.257324125617743E-002;-1.599972136318684E-003;5.978069733828306E-003;
2.405500000000000E+009;1.772244572639465E-001;1.212094537913799E-002;-1.405655639246106E-003;6.049852352589369E-003;
2.405666666666667E+009;1.778674423694611E-001;1.170459110289812E-002;-1.049925107508898E-003;5.976715590804815E-003;
2.405833333333334E+009;1.783673167228699E-001;1.139867771416903E-002;-9.027710766531527E-004;6.044994574040175E-003;
2.406000000000000E+009;1.790807098150253E-001;1.087285671383143E-002;-5.871088360436261E-004;6.123690865933895E-003;
2.406166666666667E+009;1.794577836990356E-001;1.071785297244787E-002;-3.327969461679459E-004;6.011607591062784E-003;
2.406333333333334E+009;1.800002157688141E-001;1.028971560299397E-002;-1.689614146016538E-004;5.887114908546209E-003;
2.406500000000000E+009;1.802127361297607E-001;1.004776172339916E-002;2.909768663812429E-004;5.718067754060030E-003;
2.406666666666667E+009;1.803585886955261E-001;9.818210266530514E-003;4.638966929633170E-004;5.773173179477453E-003;
2.406833333333334E+009;1.805609017610550E-001;9.582675062119961E-003;7.037801551632583E-004;5.493529140949249E-003;
2.407000000000000E+009;1.806835532188416E-001;9.085626341402531E-003;8.176939445547760E-004;5.607996135950089E-003;
2.407166666666667E+009;1.809011995792389E-001;8.906078524887562E-003;1.134649850428104E-003;5.236369557678700E-003;
2.407333333333334E+009;1.806006580591202E-001;8.517227135598660E-003;1.321679563261569E-003;5.298270843923092E-003;
2.407500000000000E+009;1.805504411458969E-001;8.035092614591122E-003;1.505023916251957E-003;5.104202311486006E-003;
2.407666666666667E+009;1.803452670574188E-001;7.681715767830610E-003;1.556824427098036E-003;5.006450694054365E-003;
2.407833333333334E+009;1.797408759593964E-001;7.016031537204981E-003;1.830554218031466E-003;4.514098167419434E-003;
2.408000000000000E+009;1.794470995664597E-001;6.505004130303860E-003;1.833899761550129E-003;4.699566867202520E-003;
2.408166666666667E+009;1.790926009416580E-001;6.010761950165033E-003;2.052196068689227E-003;4.501220770180225E-003;
2.408333333333334E+009;1.787338405847549E-001;5.358768161386251E-003;2.082148334011436E-003;4.259482026100159E-003;
2.408500000000000E+009;1.780808120965958E-001;4.431546665728092E-003;2.300137188285589E-003;4.179885145276785E-003;
2.408666666666667E+009;1.775926202535629E-001;3.582105273380876E-003;2.156173344701529E-003;3.985861316323280E-003;
2.408833333333334E+009;1.768197864294052E-001;2.746683545410633E-003;2.273193327710033E-003;3.845213912427425E-003;
2.409000000000000E+009;1.761736571788788E-001;1.717990962788463E-003;2.303208457306027E-003;3.776327008381486E-003;
2.409166666666667E+009;1.754928678274155E-001;6.062879110686481E-004;2.314932178705931E-003;3.524986328557134E-003;
2.409333333333334E+009;1.749411523342133E-001;-5.600073491223157E-004;2.414500107988715E-003;3.517248202115297E-003;
2.409500000000000E+009;1.739375144243240E-001;-2.042500302195549E-003;2.470376901328564E-003;3.238191129639745E-003;
2.409666666666667E+009;1.732249557971954E-001;-3.181574167683721E-003;2.624895889312029E-003;3.145271446555853E-003;
2.409833333333334E+009;1.726035326719284E-001;-4.538204055279493E-003;2.499853959307075E-003;3.027265425771475E-003;
2.410000000000000E+009;1.720860451459885E-001;-6.050298921763897E-003;2.642786130309105E-003;3.121151588857174E-003;
2.410166666666667E+009;1.713966578245163E-001;-7.575760595500469E-003;2.564916620030999E-003;2.999697113409638E-003;
2.410333333333334E+009;1.707360297441483E-001;-9.259299375116825E-003;2.548809163272381E-003;2.847123658284545E-003;
2.410500000000000E+009;1.703479140996933E-001;-1.105890609323978E-002;2.667877823114395E-003;2.823569579049945E-003;
2.410666666666667E+009;1.698199212551117E-001;-1.285020820796490E-002;2.679086988791823E-003;2.897301921620965E-003;
2.410833333333334E+009;1.694823503494263E-001;-1.450451556593180E-002;2.800114918500185E-003;2.730342792347074E-003;
2.411000000000000E+009;1.689761877059937E-001;-1.625965163111687E-002;2.757390495389700E-003;2.622897038236260E-003;
2.411166666666667E+009;1.686204075813294E-001;-1.826714724302292E-002;2.645317930728197E-003;2.618753816932440E-003;
2.411333333333334E+009;1.685121804475784E-001;-2.014233171939850E-002;2.790619153529406E-003;2.504670526832342E-003;
2.411500000000000E+009;1.681168079376221E-001;-2.224239520728588E-002;2.799128415063024E-003;2.303142100572586E-003;
2.411666666666667E+009;1.680471450090408E-001;-2.420253679156303E-002;2.922968473285437E-003;2.423372818157077E-003;
2.411833333333334E+009;1.681201159954071E-001;-2.606127038598061E-002;2.828029682859778E-003;2.316212048754096E-003;
2.412000000000000E+009;1.680869758129120E-001;-2.800277806818485E-002;2.921150298789144E-003;2.230113139376044E-003;
2.412166666666667E+009;1.680647134780884E-001;-3.004559502005577E-002;3.110356628894806E-003;1.991727855056524E-003;
2.412333333333334E+009;1.685361862182617E-001;-3.192419186234474E-002;3.027166705578566E-003;2.049290109425783E-003;
2.412500000000000E+009;1.686625331640244E-001;-3.397113457322121E-002;2.966386498883367E-003;1.912971725687385E-003;
2.412666666666667E+009;1.691041737794876E-001;-3.595010191202164E-002;3.320692107081413E-003;1.661515329033136E-003;
2.412833333333334E+009;1.693044006824493E-001;-3.770328313112259E-002;3.111079102382064E-003;1.838276511989534E-003;
2.413000000000000E+009;1.696934551000595E-001;-3.937631472945213E-002;3.178663086146116E-003;1.472463831305504E-003;
2.413166666666667E+009;1.700814068317413E-001;-4.122753068804741E-002;3.201594809070230E-003;1.500615850090981E-003;
2.413333333333334E+009;1.704584807157517E-001;-4.299711436033249E-002;3.341001458466053E-003;1.440969179384410E-003;
2.413500000000000E+009;1.709788739681244E-001;-4.460788518190384E-002;3.284214530140162E-003;1.341638970188797E-003;
2.413666666666667E+009;1.717400699853897E-001;-4.631537944078445E-002;3.203295404091477E-003;1.305621350184083E-003;
2.413833333333334E+009;1.720109134912491E-001;-4.773424938321114E-002;3.207954578101635E-003;1.273743342608213E-003;
2.414000000000000E+009;1.725524812936783E-001;-4.912529140710831E-002;3.404516726732254E-003;1.120743108913302E-003;
2.414166666666667E+009;1.732356548309326E-001;-5.041722580790520E-002;3.479861887171865E-003;8.785546524450183E-004;
2.414333333333334E+009;1.738032251596451E-001;-5.178799107670784E-002;3.326108446344733E-003;8.537221001461148E-004;
2.414500000000000E+009;1.745299398899078E-001;-5.278643593192101E-002;3.355065127834678E-003;7.953493623062968E-004;
2.414666666666667E+009;1.750117689371109E-001;-5.394946038722992E-002;3.535528667271137E-003;5.577552947215736E-004;
2.414833333333334E+009;1.755849421024323E-001;-5.497233197093010E-002;3.335400950163603E-003;5.979914567433298E-004;
2.415000000000000E+009;1.757836937904358E-001;-5.580285191535950E-002;3.431238001212478E-003;3.680362133309245E-004;
2.415166666666667E+009;1.763435751199722E-001;-5.668095126748085E-002;3.471369622275233E-003;3.556759620551020E-004;
2.415333333333334E+009;1.767806112766266E-001;-5.740365013480187E-002;3.307232167571783E-003;1.414906437275931E-004;
2.415500000000000E+009;1.771855503320694E-001;-5.794839188456535E-002;3.372256411239505E-003;-5.373323438107036E-005;
2.415666666666667E+009;1.774888336658478E-001;-5.848646908998489E-002;3.199136815965176E-003;-4.413033366290620E-006;
2.415833333333334E+009;1.776767522096634E-001;-5.905603617429733E-002;3.290269989520311E-003;-1.164266504929401E-004;
2.416000000000000E+009;1.776762753725052E-001;-5.953659489750862E-002;3.271138528361917E-003;-1.298962160944939E-004;
2.416166666666667E+009;1.779172569513321E-001;-5.993546545505524E-002;3.038656199350953E-003;-2.274355210829526E-004;
2.416333333333334E+009;1.778933554887772E-001;-6.017282977700234E-002;3.167089307680726E-003;-1.905111857922748E-004;
2.416500000000000E+009;1.778083592653275E-001;-6.066668406128883E-002;3.189010079950094E-003;-3.414044331293553E-004;
2.416666666666667E+009;1.775311231613159E-001;-6.086995825171471E-002;3.074686741456389E-003;-5.238430458121002E-004;
2.416833333333334E+009;1.773729622364044E-001;-6.103114411234856E-002;3.010481828823686E-003;-5.056115915067494E-004;
2.417000000000000E+009;1.767634004354477E-001;-6.134601309895515E-002;2.983815502375364E-003;-6.444212631322444E-004;
2.417166666666667E+009;1.763385236263275E-001;-6.150456517934799E-002;2.980454824864864E-003;-7.958426140248776E-004;
2.417333333333334E+009;1.758809387683868E-001;-6.170928850769997E-002;2.920975675806403E-003;-8.796714828349650E-004;
2.417500000000000E+009;1.752052456140518E-001;-6.215309351682663E-002;2.807452809065580E-003;-7.308535277843475E-004;
2.417666666666667E+009;1.746624410152435E-001;-6.212517619132996E-002;2.842069603502750E-003;-8.139358833432198E-004;
2.417833333333334E+009;1.738024801015854E-001;-6.241589039564133E-002;2.803523559123278E-003;-9.941532043740153E-004;
2.418000000000000E+009;1.729480028152466E-001;-6.294018775224686E-002;2.819395158439875E-003;-1.086781732738018E-003;
2.418166666666667E+009;1.718122214078903E-001;-6.287834048271179E-002;2.680774312466383E-003;-1.130468444898725E-003;
2.418333333333334E+009;1.711905747652054E-001;-6.349778175354004E-002;2.763215918093920E-003;-1.228066161274910E-003;
2.418500000000000E+009;1.699953377246857E-001;-6.387125700712204E-002;2.600174397230148E-003;-1.091382931917906E-003;
2.418666666666667E+009;1.690079718828201E-001;-6.436917185783386E-002;2.492227591574192E-003;-1.266453647986054E-003;
2.418833333333334E+009;1.676086485385895E-001;-6.495595723390579E-002;2.514509949833155E-003;-1.333743217401207E-003;
2.419000000000000E+009;1.664187908172607E-001;-6.553274393081665E-002;2.488050376996398E-003;-1.375447493046522E-003;
2.419166666666667E+009;1.652318388223648E-001;-6.602861732244492E-002;2.400941681116819E-003;-1.403811271302402E-003;
2.419333333333334E+009;1.639754027128220E-001;-6.660933792591095E-002;2.318336395546794E-003;-1.373681472614408E-003;
2.419500000000000E+009;1.628444194793701E-001;-6.756500154733658E-002;2.239241264760494E-003;-1.500121667049825E-003;
2.419666666666667E+009;1.617079675197601E-001;-6.856150180101395E-002;2.114191884174943E-003;-1.481612678617239E-003;
2.419833333333334E+009;1.604117304086685E-001;-6.924808025360107E-002;2.141413046047092E-003;-1.569640357047319E-003;
2.420000000000000E+009;1.594133824110031E-001;-7.034906744956970E-002;2.088157692924142E-003;-1.460863044485450E-003;
2.420166666666667E+009;1.581237912178040E-001;-7.147599011659622E-002;2.065153326839209E-003;-1.435093581676483E-003;
2.420333333333334E+009;1.571018844842911E-001;-7.271660864353180E-002;2.049584640190005E-003;-1.595536596141756E-003;
2.420500000000000E+009;1.560886204242706E-001;-7.377693057060242E-002;2.037957776337862E-003;-1.478720223531127E-003;
2.420666666666667E+009;1.549768596887589E-001;-7.492332905530930E-002;1.917643123306334E-003;-1.575326663441956E-003;
2.420833333333334E+009;1.539283841848373E-001;-7.653629034757614E-002;1.854315632954240E-003;-1.649258541874588E-003;
2.421000000000000E+009;1.532046049833298E-001;-7.807797938585281E-002;1.897122361697257E-003;-1.660301815718412E-003;
2.421166666666667E+009;1.524766534566879E-001;-7.958008348941803E-002;1.858519157394767E-003;-1.587672391906381E-003;
2.421333333333334E+009;1.518032252788544E-001;-8.103225380182266E-002;1.771741663105786E-003;-1.817087060771883E-003;
2.421500000000000E+009;1.508718580007553E-001;-8.250309526920319E-002;1.697690342552960E-003;-1.669512945227325E-003;
2.421666666666667E+009;1.505592316389084E-001;-8.441057801246643E-002;1.731083029881120E-003;-1.695705810561776E-003;
2.421833333333334E+009;1.502328962087631E-001;-8.575984835624695E-002;1.700384309515357E-003;-1.758744358085096E-003;
2.422000000000000E+009;1.496926248073578E-001;-8.748517185449600E-002;1.553995767608285E-003;-1.752929529175162E-003;
2.422166666666667E+009;1.493712067604065E-001;-8.935420960187912E-002;1.527754939161241E-003;-1.732442295178771E-003;
2.422333333333334E+009;1.493472456932068E-001;-9.099837392568588E-002;1.650444697588682E-003;-1.706199487671256E-003;
2.422500000000000E+009;1.489590406417847E-001;-9.260354191064835E-002;1.590352854691446E-003;-1.780531136319041E-003;
2.422666666666667E+009;1.491365283727646E-001;-9.436623007059097E-002;1.444897614419460E-003;-1.847906853072345E-003;
2.422833333333334E+009;1.491912007331848E-001;-9.599435329437256E-002;1.577488612383604E-003;-1.918308553285897E-003;
2.423000000000000E+009;1.492772549390793E-001;-9.753791987895966E-002;1.430392032489181E-003;-1.946546486578882E-003;
2.423166666666667E+009;1.498233973979950E-001;-9.929103404283524E-002;1.271466258913279E-003;-1.828702865168452E-003;
2.423333333333334E+009;1.499729901552200E-001;-1.006925702095032E-001;1.328330021351576E-003;-1.777760917320848E-003;
2.423500000000000E+009;1.501333415508270E-001;-1.024359464645386E-001;1.436433405615389E-003;-1.988592091947794E-003;
2.423666666666667E+009;1.504616439342499E-001;-1.039258092641830E-001;1.271467539481819E-003;-2.102963160723448E-003;
2.423833333333334E+009;1.512000262737274E-001;-1.053950488567352E-001;1.176260295324028E-003;-2.008604584261775E-003;
2.424000000000000E+009;1.513754874467850E-001;-1.066561564803124E-001;1.074293046258390E-003;-2.067925175651908E-003;
2.424166666666667E+009;1.517284959554672E-001;-1.081315651535988E-001;1.137817744165659E-003;-1.996961189433932E-003;
2.424333333333334E+009;1.523655354976654E-001;-1.091700419783592E-001;1.142800785601139E-003;-2.014262834563851E-003;
2.424500000000000E+009;1.529276818037033E-001;-1.104150041937828E-001;1.096072723157704E-003;-2.021733205765486E-003;
2.424666666666667E+009;1.535264253616333E-001;-1.114246845245361E-001;9.489564690738916E-004;-2.049708738923073E-003;
2.424833333333334E+009;1.536759287118912E-001;-1.125482320785523E-001;9.893267415463924E-004;-1.961197704076767E-003;
2.425000000000000E+009;1.543683707714081E-001;-1.134347692131996E-001;8.894777856767178E-004;-2.144106198102236E-003;
2.425166666666667E+009;1.546082347631455E-001;-1.143240630626679E-001;9.863128652796149E-004;-2.204692922532558E-003;
2.425333333333334E+009;1.551641672849655E-001;-1.149563565850258E-001;7.124984986148775E-004;-2.149919979274273E-003;
2.425500000000000E+009;1.556353121995926E-001;-1.158031374216080E-001;7.920991047285497E-004;-2.128331456333399E-003;
2.425666666666667E+009;1.556321531534195E-001;-1.163144186139107E-001;7.059179479256272E-004;-1.953069120645523E-003;
2.425833333333334E+009;1.561434119939804E-001;-1.168248280882835E-001;7.024969672784209E-004;-2.089856658130884E-003;
2.426000000000000E+009;1.562060117721558E-001;-1.174539849162102E-001;8.772135479375720E-004;-1.959909452125430E-003;
2.426166666666667E+009;1.564642488956451E-001;-1.178878247737885E-001;8.344764937646687E-004;-2.225009258836508E-003;
2.426333333333334E+009;1.564975529909134E-001;-1.181316003203392E-001;6.854729726910591E-004;-2.183015923947096E-003;
2.426500000000000E+009;1.565155386924744E-001;-1.183511838316917E-001;6.744985585100949E-004;-2.107916399836540E-003;
2.426666666666667E+009;1.564921885728836E-001;-1.184261739253998E-001;6.722834077663720E-004;-2.073264215141535E-003;
2.426833333333334E+009;1.563257873058319E-001;-1.188708916306496E-001;5.871019675396383E-004;-2.183540491387248E-003;
2.427000000000000E+009;1.560429483652115E-001;-1.189877837896347E-001;6.094163982197642E-004;-2.262834459543228E-003;
2.427166666666667E+009;1.556843966245651E-001;-1.189043223857880E-001;5.911109619773924E-004;-2.217330271378160E-003;
2.427333333333334E+009;1.551333367824554E-001;-1.190777719020844E-001;6.934020202606916E-004;-2.320054220035672E-003;
2.427500000000000E+009;1.546700596809387E-001;-1.192516908049583E-001;5.531513597816229E-004;-2.286007627844811E-003;
2.427666666666667E+009;1.539820581674576E-001;-1.193664222955704E-001;5.433533806353807E-004;-2.252839040011168E-003;
2.427833333333334E+009;1.531655639410019E-001;-1.194086745381355E-001;5.746239912696183E-004;-2.359686885029078E-003;
