# Version 1.00
#
freq[Hz];re:Trc1_S11;im:Trc1_S11;re:Trc2_S21;im:Trc2_S21;
2.400000000000000E+009;1.583344787359238E-001;6.272186338901520E-002;-6.017494946718216E-003;7.615558570250869E-004;
2.400166666666667E+009;1.581132411956787E-001;6.110805273056030E-002;-6.005987059324980E-003;1.142707536928356E-003;
2.400333333333334E+009;1.580489575862885E-001;5.917615443468094E-002;-6.011432502418757E-003;1.257791533134878E-003;
2.400500000000000E+009;1.580418497323990E-001;5.739498510956764E-002;-5.996343214064837E-003;1.464702538214624E-003;
2.400666666666667E+009;1.579724401235580E-001;5.516942590475082E-002;-5.928515456616879E-003;1.570074004121125E-003;
2.400833333333334E+009;1.581369638442993E-001;5.350753292441368E-002;-5.958824418485165E-003;1.501271268352866E-003;
2.401000000000000E+009;1.581698209047318E-001;5.120341852307320E-002;-5.846494343131781E-003;1.773703726939857E-003;
2.401166666666667E+009;1.582656353712082E-001;4.912241920828819E-002;-5.921343807131052E-003;2.070244867354631E-003;
2.401333333333334E+009;1.584136635065079E-001;4.705274105072022E-002;-5.743024405092001E-003;2.117045223712921E-003;
2.401500000000000E+009;1.588298976421356E-001;4.505075141787529E-002;-5.783386994153261E-003;2.419858705252409E-003;
2.401666666666667E+009;1.589824259281158E-001;4.302720353007317E-002;-5.869074258953333E-003;2.545468974858522E-003;
2.401833333333334E+009;1.593970805406570E-001;4.079572856426239E-002;-5.670288577675819E-003;2.803412964567542E-003;
2.402000000000000E+009;1.597299277782440E-001;3.876899182796478E-002;-5.592982750386000E-003;2.989988075569272E-003;
2.402166666666667E+009;1.602643728256226E-001;3.677863627672195E-002;-5.507008638232946E-003;3.224949119612575E-003;
2.402333333333334E+009;1.606054753065109E-001;3.481867536902428E-002;-5.474097095429897E-003;3.521668491885066E-003;
2.402500000000000E+009;1.616853773593903E-001;3.296764567494392E-002;-5.530391819775105E-003;3.765079192817211E-003;
2.402666666666667E+009;1.622341126203537E-001;3.124867007136345E-002;-5.361441988497973E-003;3.875607624650002E-003;
2.402833333333334E+009;1.629528552293778E-001;2.969499677419663E-002;-5.291765555739403E-003;4.166186321526766E-003;
2.403000000000000E+009;1.635451316833496E-001;2.786679193377495E-002;-4.829565528780222E-003;4.314207471907139E-003;
2.403166666666667E+009;1.645381450653076E-001;2.627523057162762E-002;-4.937417339533567E-003;4.709408152848482E-003;
2.403333333333334E+009;1.653824448585510E-001;2.462238632142544E-002;-4.645806271582842E-003;4.844065289944410E-003;
2.403500000000000E+009;1.663885563611984E-001;2.321154810488224E-002;-4.371535032987595E-003;5.018615163862705E-003;
2.403666666666667E+009;1.672366559505463E-001;2.190157398581505E-002;-4.169160034507513E-003;5.038688890635967E-003;
2.403833333333334E+009;1.683762669563294E-001;2.047622203826904E-002;-4.002892412245274E-003;5.291148554533720E-003;
2.404000000000000E+009;1.692106127738953E-001;1.951219327747822E-002;-3.684507682919502E-003;5.556829273700714E-003;
2.404166666666667E+009;1.703092008829117E-001;1.829335466027260E-002;-3.412545891478658E-003;5.648469552397728E-003;
2.404333333333334E+009;1.711356341838837E-001;1.728240959346294E-002;-3.233274212107062E-003;5.814954638481140E-003;
2.404500000000000E+009;1.721502840518951E-001;1.624566689133644E-002;-2.958134748041630E-003;6.023526191711426E-003;
2.404666666666667E+009;1.730685979127884E-001;1.547735743224621E-002;-2.787001896649599E-003;5.954478867352009E-003;
2.404833333333334E+009;1.739588677883148E-001;1.461669430136681E-002;-2.360400278121233E-003;6.238576490432024E-003;
2.405000000000000E+009;1.748805791139603E-001;1.384937670081854E-002;-2.074539894238114E-003;6.279791705310345E-003;
2.405166666666667E+009;1.756860166788101E-001;1.324245240539312E-002;-1.749342074617744E-003;6.254047621041536E-003;
2.405333333333334E+009;1.765053272247315E-001;1.249882858246565E-002;-1.483271480537951E-003;6.335368845611811E-003;
2.405500000000000E+009;1.773583889007568E-001;1.213405933231115E-002;-1.334411674179137E-003;6.288217846304178E-003;
2.405666666666667E+009;1.779413521289825E-001;1.170029025524855E-002;-9.729116572998464E-004;6.301786284893751E-003;
2.405833333333334E+009;1.785086244344711E-001;1.132173649966717E-002;-7.335066911764443E-004;6.326946429908276E-003;
2.406000000000000E+009;1.791160702705383E-001;1.079158205538988E-002;-5.908867460675538E-004;6.311109289526939E-003;
2.406166666666667E+009;1.794011294841766E-001;1.081866957247257E-002;-1.397700107190758E-004;6.339960265904665E-003;
2.406333333333334E+009;1.799985319375992E-001;1.042995043098927E-002;1.786249631550163E-004;6.095534190535545E-003;
2.406500000000000E+009;1.802469640970230E-001;1.000669784843922E-002;4.108533903490752E-004;6.166080478578806E-003;
2.406666666666667E+009;1.804729253053665E-001;9.784940630197525E-003;6.130736437626183E-004;6.014834623783827E-003;
2.406833333333334E+009;1.807788461446762E-001;9.441369213163853E-003;9.565414511598647E-004;5.827270913869143E-003;
2.407000000000000E+009;1.806616634130478E-001;9.158314205706120E-003;1.202787039801478E-003;5.676894448697567E-003;
2.407166666666667E+009;1.809289306402206E-001;8.892715908586979E-003;1.327399979345501E-003;5.702878814190626E-003;
2.407333333333334E+009;1.806860566139221E-001;8.567906916141510E-003;1.560077420435846E-003;5.521618761122227E-003;
2.407500000000000E+009;1.804668605327606E-001;8.177965879440308E-003;1.849215361289680E-003;5.313546862453222E-003;
2.407666666666667E+009;1.802568882703781E-001;7.674337830394507E-003;1.974812708795071E-003;5.065300036221743E-003;
2.407833333333334E+009;1.799317300319672E-001;7.125647272914648E-003;2.160451142117381E-003;4.848155658692122E-003;
2.408000000000000E+009;1.795691549777985E-001;6.515846587717533E-003;2.208895049989224E-003;4.936900921165943E-003;
2.408166666666667E+009;1.790315508842468E-001;5.929705221205950E-003;2.321929670870304E-003;4.630142822861671E-003;
2.408333333333334E+009;1.787754148244858E-001;5.254809278994799E-003;2.437766874209046E-003;4.315719008445740E-003;
2.408500000000000E+009;1.780594289302826E-001;4.407818894833326E-003;2.414821181446314E-003;4.289056174457073E-003;
2.408666666666667E+009;1.774384230375290E-001;3.551306668668985E-003;2.526086755096912E-003;4.176865797489882E-003;
2.408833333333334E+009;1.767184734344482E-001;2.616618759930134E-003;2.756987698376179E-003;4.085280932486057E-003;
2.409000000000000E+009;1.759960204362869E-001;1.791131566278637E-003;2.714993897825480E-003;3.844648366793990E-003;
2.409166666666667E+009;1.754460632801056E-001;5.614919355139136E-004;2.828837838023901E-003;3.572992514818907E-003;
2.409333333333334E+009;1.748907864093781E-001;-6.915524718351662E-004;2.787658711895347E-003;3.498528851196170E-003;
2.409500000000000E+009;1.741034388542175E-001;-2.036394318565726E-003;2.819488290697336E-003;3.370197489857674E-003;
2.409666666666667E+009;1.734262704849243E-001;-3.295582951977849E-003;2.692505950108171E-003;3.288247622549534E-003;
2.409833333333334E+009;1.727454364299774E-001;-4.613125696778297E-003;2.750811632722616E-003;3.310895990580320E-003;
2.410000000000000E+009;1.722140163183212E-001;-6.013010162860155E-003;2.772380365058780E-003;3.031809581443667E-003;
2.410166666666667E+009;1.714649349451065E-001;-7.661557290703058E-003;2.677716081961989E-003;2.910460112616420E-003;
2.410333333333334E+009;1.708735078573227E-001;-9.266407229006290E-003;2.766554709523916E-003;2.912751398980618E-003;
2.410500000000000E+009;1.703824549913406E-001;-1.100831013172865E-002;2.928467467427254E-003;2.807112876325846E-003;
2.410666666666667E+009;1.697632819414139E-001;-1.285013370215893E-002;3.042534925043583E-003;2.725974190980196E-003;
2.410833333333334E+009;1.692969948053360E-001;-1.451999321579933E-002;3.026820253580809E-003;2.619760110974312E-003;
2.411000000000000E+009;1.689979285001755E-001;-1.631320640444756E-002;3.074383595958352E-003;2.556323772296310E-003;
2.411166666666667E+009;1.687394827604294E-001;-1.827912405133247E-002;2.955432282760739E-003;2.518646186217666E-003;
2.411333333333334E+009;1.683082133531570E-001;-2.026284113526344E-002;3.202293301001191E-003;2.384799998253584E-003;
2.411500000000000E+009;1.681237220764160E-001;-2.216311357915402E-002;3.117287997156382E-003;2.241059904918075E-003;
2.411666666666667E+009;1.681167185306549E-001;-2.407626435160637E-002;3.052405547350645E-003;2.201638417318463E-003;
2.411833333333334E+009;1.680335849523544E-001;-2.603888884186745E-002;3.321494441479445E-003;2.160126343369484E-003;
2.412000000000000E+009;1.681767106056213E-001;-2.807913906872273E-002;3.121094545349479E-003;1.959103159606457E-003;
2.412166666666667E+009;1.681353300809860E-001;-3.012081235647202E-002;3.318757051602006E-003;1.860892865806818E-003;
2.412333333333334E+009;1.684488058090210E-001;-3.200579062104225E-002;3.401580499485135E-003;1.834398601204157E-003;
2.412500000000000E+009;1.685397028923035E-001;-3.391130641102791E-002;3.451487980782986E-003;1.781400409527123E-003;
2.412666666666667E+009;1.689450144767761E-001;-3.597620502114296E-002;3.332518041133881E-003;1.589696388691664E-003;
2.412833333333334E+009;1.694989055395126E-001;-3.772054612636566E-002;3.415729384869337E-003;1.569090993143618E-003;
2.413000000000000E+009;1.697044968605042E-001;-3.935271874070168E-002;3.448224160820246E-003;1.402955036610365E-003;
2.413166666666667E+009;1.700769811868668E-001;-4.135226458311081E-002;3.408323973417282E-003;1.402558060362935E-003;
2.413333333333334E+009;1.705778241157532E-001;-4.301409795880318E-002;3.549634711816907E-003;1.122097950428724E-003;
2.413500000000000E+009;1.709503382444382E-001;-4.467071220278740E-002;3.518047742545605E-003;1.176870311610401E-003;
2.413666666666667E+009;1.716817021369934E-001;-4.634070396423340E-002;3.514819778501988E-003;1.066848053596914E-003;
2.413833333333334E+009;1.720725297927856E-001;-4.771234840154648E-002;3.391970880329609E-003;7.890405249781907E-004;
2.414000000000000E+009;1.727094054222107E-001;-4.924841597676277E-002;3.487657057121396E-003;7.270087371580303E-004;
2.414166666666667E+009;1.732198894023895E-001;-5.043898522853851E-002;3.544615814462304E-003;7.414213614538312E-004;
2.414333333333334E+009;1.736824959516525E-001;-5.164001137018204E-002;3.439232241362333E-003;7.063903030939400E-004;
2.414500000000000E+009;1.744894087314606E-001;-5.276165530085564E-002;3.447862109169364E-003;6.067262729629874E-004;
2.414666666666667E+009;1.749483197927475E-001;-5.396516993641853E-002;3.392842831090093E-003;2.407658321317285E-004;
2.414833333333334E+009;1.753507703542709E-001;-5.491870641708374E-002;3.468152135610580E-003;3.370113554410636E-004;
2.415000000000000E+009;1.759846061468124E-001;-5.579920113086700E-002;3.556694602593780E-003;1.449381816200912E-004;
2.415166666666667E+009;1.764601916074753E-001;-5.676250532269478E-002;3.391585545614362E-003;3.434106838540174E-005;
2.415333333333334E+009;1.768218278884888E-001;-5.746511742472649E-002;3.466777503490448E-003;-7.260549318743870E-005;
2.415500000000000E+009;1.772181689739227E-001;-5.791456252336502E-002;3.300376702100039E-003;-9.751437755767256E-005;
2.415666666666667E+009;1.773221343755722E-001;-5.855304002761841E-002;3.312664339318872E-003;-2.870674361474812E-004;
2.415833333333334E+009;1.776642352342606E-001;-5.906234681606293E-002;3.168609226122499E-003;-2.699202159419656E-004;
2.416000000000000E+009;1.775783598423004E-001;-5.948311835527420E-002;3.186276182532311E-003;-3.165008092764765E-004;
2.416166666666667E+009;1.779281795024872E-001;-5.994737148284912E-002;3.040719544515014E-003;-5.320539348758757E-004;
2.416333333333334E+009;1.778274774551392E-001;-6.026183813810349E-002;3.146559465676546E-003;-6.259548827074468E-004;
2.416500000000000E+009;1.778427660465241E-001;-6.056549400091171E-002;3.168168710544705E-003;-6.838655681349337E-004;
2.416666666666667E+009;1.776051372289658E-001;-6.085998564958572E-002;2.976511139422655E-003;-7.969884318299592E-004;
2.416833333333334E+009;1.774265170097351E-001;-6.127993389964104E-002;2.893707016482949E-003;-8.310896810144186E-004;
2.417000000000000E+009;1.768210828304291E-001;-6.132739409804344E-002;3.001710865646601E-003;-7.913568406365812E-004;
2.417166666666667E+009;1.764469593763351E-001;-6.156025826931000E-002;2.911173738539219E-003;-8.997687255032361E-004;
2.417333333333334E+009;1.759699732065201E-001;-6.167753040790558E-002;2.858796622604132E-003;-1.068548648618162E-003;
2.417500000000000E+009;1.752652823925018E-001;-6.202873587608337E-002;2.794937230646610E-003;-9.909739019349217E-004;
2.417666666666667E+009;1.746760010719299E-001;-6.211210414767265E-002;2.801770577207208E-003;-9.892522357404232E-004;
2.417833333333334E+009;1.738088279962540E-001;-6.246771290898323E-002;2.704068552702665E-003;-1.185858505778015E-003;
2.418000000000000E+009;1.727602630853653E-001;-6.284110248088837E-002;2.607743488624692E-003;-1.197458128444850E-003;
2.418166666666667E+009;1.719907373189926E-001;-6.299267709255219E-002;2.503798576071858E-003;-1.122392597608268E-003;
2.418333333333334E+009;1.712174266576767E-001;-6.352430582046509E-002;2.567419549450278E-003;-1.238131313584745E-003;
2.418500000000000E+009;1.699348539113998E-001;-6.380999833345413E-002;2.470770152285695E-003;-1.282302197068930E-003;
2.418666666666667E+009;1.689040660858154E-001;-6.422017514705658E-002;2.448450773954392E-003;-1.499387435615063E-003;
2.418833333333334E+009;1.675758063793182E-001;-6.491849571466446E-002;2.258201595395804E-003;-1.420978223904967E-003;
2.419000000000000E+009;1.664036661386490E-001;-6.545111536979675E-002;2.311736112460494E-003;-1.557819079607725E-003;
2.419166666666667E+009;1.653257757425308E-001;-6.614246964454651E-002;2.269882243126631E-003;-1.528752967715263E-003;
2.419333333333334E+009;1.639087498188019E-001;-6.657803803682327E-002;2.218082081526518E-003;-1.478555961512029E-003;
2.419500000000000E+009;1.627537161111832E-001;-6.769058853387833E-002;2.103985054418445E-003;-1.555842347443104E-003;
2.419666666666667E+009;1.615753024816513E-001;-6.844598799943924E-002;2.268746262416244E-003;-1.530719688162208E-003;
2.419833333333334E+009;1.603503972291946E-001;-6.929616630077362E-002;2.133073518052697E-003;-1.442780368961394E-003;
2.420000000000000E+009;1.592985987663269E-001;-7.030160725116730E-002;1.983421854674816E-003;-1.607422716915608E-003;
2.420166666666667E+009;1.580338925123215E-001;-7.160344719886780E-002;2.069733571261168E-003;-1.573164830915630E-003;
2.420333333333334E+009;1.570145636796951E-001;-7.272073626518250E-002;2.035490237176418E-003;-1.595153356902301E-003;
2.420500000000000E+009;1.561833322048187E-001;-7.373195141553879E-002;1.903300639241934E-003;-1.517498400062323E-003;
2.420666666666667E+009;1.548654288053513E-001;-7.506524026393890E-002;1.751067466102541E-003;-1.663060858845711E-003;
2.420833333333334E+009;1.541075557470322E-001;-7.657872140407562E-002;1.998860621824861E-003;-1.572823035530746E-003;
2.421000000000000E+009;1.532458364963532E-001;-7.802505046129227E-002;1.697954721748829E-003;-1.697189058177173E-003;
2.421166666666667E+009;1.525323241949081E-001;-7.929775863885880E-002;1.743498374707997E-003;-1.828844193369150E-003;
2.421333333333334E+009;1.517884880304337E-001;-8.105150610208511E-002;1.676396233960986E-003;-1.746299210935831E-003;
2.421500000000000E+009;1.510785669088364E-001;-8.257783204317093E-002;1.696186256594956E-003;-1.632279134355485E-003;
2.421666666666667E+009;1.505541950464249E-001;-8.432622253894806E-002;1.648821285925806E-003;-1.749910064972937E-003;
2.421833333333334E+009;1.501726955175400E-001;-8.575489372014999E-002;1.770581584423780E-003;-1.684869872406125E-003;
2.422000000000000E+009;1.498121768236160E-001;-8.750329911708832E-002;1.548516564071178E-003;-1.870203297585249E-003;
2.422166666666667E+009;1.495183557271957E-001;-8.938501775264740E-002;1.608273363672197E-003;-1.907187630422413E-003;
2.422333333333334E+009;1.493272334337235E-001;-9.086974710226059E-002;1.401323126628995E-003;-1.842732192017138E-003;
2.422500000000000E+009;1.491906344890595E-001;-9.248916059732437E-002;1.538813230581582E-003;-2.032761462032795E-003;
2.422666666666667E+009;1.490522772073746E-001;-9.415826946496964E-002;1.464797882363200E-003;-1.969313016161323E-003;
2.422833333333334E+009;1.491924375295639E-001;-9.595131874084473E-002;1.465451321564615E-003;-1.867244485765696E-003;
2.423000000000000E+009;1.493733227252960E-001;-9.764312207698822E-002;1.290557207539678E-003;-2.079053316265345E-003;
2.423166666666667E+009;1.495541036128998E-001;-9.929735213518143E-002;1.375709543935955E-003;-1.998229417949915E-003;
2.423333333333334E+009;1.498344987630844E-001;-1.007974073290825E-001;1.229976187460125E-003;-1.994850346818566E-003;
2.423500000000000E+009;1.501347720623016E-001;-1.024224236607552E-001;1.187898451462388E-003;-1.961339032277465E-003;
2.423666666666667E+009;1.505087167024612E-001;-1.039898991584778E-001;1.209597336128354E-003;-1.920371665619314E-003;
2.423833333333334E+009;1.509276032447815E-001;-1.054193973541260E-001;1.067732460796833E-003;-2.076147124171257E-003;
2.424000000000000E+009;1.512276828289032E-001;-1.066999360918999E-001;1.058806315995753E-003;-2.050229348242283E-003;
2.424166666666667E+009;1.517348736524582E-001;-1.080891788005829E-001;1.047941972501576E-003;-2.065060427412391E-003;
2.424333333333334E+009;1.524820923805237E-001;-1.092292144894600E-001;1.005760161206126E-003;-2.105015330016613E-003;
2.424500000000000E+009;1.528329104185104E-001;-1.105234175920487E-001;9.611480636522174E-004;-1.969241071492434E-003;
2.424666666666667E+009;1.534638553857803E-001;-1.114903464913368E-001;9.815518278628588E-004;-2.120077377185226E-003;
2.424833333333334E+009;1.537371426820755E-001;-1.124443039298058E-001;9.517520084045827E-004;-2.100544283166528E-003;
2.425000000000000E+009;1.543111056089401E-001;-1.134583726525307E-001;8.321186178363860E-004;-1.981987850740552E-003;
2.425166666666667E+009;1.547293066978455E-001;-1.142309755086899E-001;8.025237475521863E-004;-1.932309474796057E-003;
2.425333333333334E+009;1.551339179277420E-001;-1.150635108351708E-001;7.232609204947949E-004;-2.043071668595076E-003;
2.425500000000000E+009;1.555062830448151E-001;-1.158443838357925E-001;7.936545298434794E-004;-2.144015859812498E-003;
2.425666666666667E+009;1.556922197341919E-001;-1.164371818304062E-001;7.212664349935949E-004;-2.159229479730129E-003;
2.425833333333334E+009;1.560176759958267E-001;-1.168203800916672E-001;5.334269371815026E-004;-2.090861788019538E-003;
2.426000000000000E+009;1.561467498540878E-001;-1.174521520733833E-001;6.585564115084708E-004;-2.185171237215400E-003;
2.426166666666667E+009;1.565284281969070E-001;-1.178114935755730E-001;7.647317252121866E-004;-2.162423916161060E-003;
2.426333333333334E+009;1.565143018960953E-001;-1.182286143302918E-001;6.745146238245070E-004;-2.160844625905156E-003;
2.426500000000000E+009;1.565918326377869E-001;-1.183770671486855E-001;6.547895609401166E-004;-2.220250666141510E-003;
2.426666666666667E+009;1.566020995378494E-001;-1.184867024421692E-001;6.544812349602580E-004;-2.100992947816849E-003;
2.426833333333334E+009;1.563448905944824E-001;-1.186299845576286E-001;6.793171633034945E-004;-2.214959124103189E-003;
2.427000000000000E+009;1.559740900993347E-001;-1.189616620540619E-001;6.113658309914172E-004;-2.067120280116797E-003;
2.427166666666667E+009;1.556919813156128E-001;-1.189584434032440E-001;6.187730468809605E-004;-2.239204477518797E-003;
2.427333333333334E+009;1.550973057746887E-001;-1.190358176827431E-001;5.536557873710990E-004;-2.298332750797272E-003;
2.427500000000000E+009;1.548202633857727E-001;-1.191487163305283E-001;3.390318597666919E-004;-2.366112312301993E-003;
2.427666666666667E+009;1.540025025606155E-001;-1.192886680364609E-001;5.554653471335769E-004;-2.200015122070909E-003;
2.427833333333334E+009;1.530762016773224E-001;-1.192995160818100E-001;3.841761790681630E-004;-2.481189323589206E-003;
