# Version 1.00
#
freq[Hz];re:Trc1_S11;im:Trc1_S11;re:Trc2_S21;im:Trc2_S21;
2.400000000000000E+009;1.505810171365738E-001;1.127504780888557E-001;2.119273558491841E-004;-3.396446816623211E-003;
2.400166666666667E+009;1.505385339260101E-001;1.105212271213532E-001;1.999202322622296E-005;-3.462591208517551E-003;
2.400333333333334E+009;1.506604105234146E-001;1.082750335335732E-001;6.604690861422569E-005;-3.400242654606700E-003;
2.400500000000000E+009;1.507947742938995E-001;1.057281866669655E-001;2.057343954220414E-004;-3.335351822897792E-003;
2.400666666666667E+009;1.512530595064163E-001;1.034390330314636E-001;1.907922996906564E-004;-3.395403735339642E-003;
2.400833333333334E+009;1.514075398445129E-001;1.006675362586975E-001;5.297514144331217E-005;-3.517558565363288E-003;
2.401000000000000E+009;1.517511606216431E-001;9.801510721445084E-002;-7.611897308379412E-005;-3.574185539036989E-003;
2.401166666666667E+009;1.519495993852615E-001;9.526740014553070E-002;-8.774183515924960E-005;-3.595876274630427E-003;
2.401333333333334E+009;1.526097059249878E-001;9.280636906623840E-002;-3.663631505332887E-004;-3.732515731826425E-003;
2.401500000000000E+009;1.530364304780960E-001;9.006094932556152E-002;-5.126857431605458E-004;-3.996327519416809E-003;
2.401666666666667E+009;1.535376757383347E-001;8.736880868673325E-002;-8.003957336768508E-004;-4.010543227195740E-003;
2.401833333333334E+009;1.541783362627029E-001;8.468628674745560E-002;-8.927287999540567E-004;-3.857351373881102E-003;
2.402000000000000E+009;1.552160084247589E-001;8.212942630052567E-002;-1.232687733136118E-003;-4.063190892338753E-003;
2.402166666666667E+009;1.559820920228958E-001;7.972408086061478E-002;-1.405364368110895E-003;-3.867800580337644E-003;
2.402333333333334E+009;1.570712327957153E-001;7.700869441032410E-002;-1.771123614162207E-003;-3.836293239146471E-003;
2.402500000000000E+009;1.582781821489334E-001;7.463046163320541E-002;-1.987538533285260E-003;-3.755138255655766E-003;
2.402666666666667E+009;1.595806181430817E-001;7.248368859291077E-002;-2.121786354109645E-003;-3.482901956886053E-003;
2.402833333333334E+009;1.608809679746628E-001;7.010956108570099E-002;-2.385324100032449E-003;-3.321464173495770E-003;
2.403000000000000E+009;1.623769849538803E-001;6.798845529556274E-002;-2.570272190496326E-003;-3.074128413572907E-003;
2.403166666666667E+009;1.643418967723846E-001;6.598604470491409E-002;-2.601443324238062E-003;-2.868418116122484E-003;
2.403333333333334E+009;1.658656895160675E-001;6.381922215223312E-002;-2.903808606788516E-003;-2.734584501013160E-003;
2.403500000000000E+009;1.677045822143555E-001;6.180590018630028E-002;-2.991501009091735E-003;-2.494345651939511E-003;
2.403666666666667E+009;1.694615781307221E-001;6.009757518768311E-002;-2.891352400183678E-003;-2.263307804241777E-003;
2.403833333333334E+009;1.713283509016037E-001;5.820476263761520E-002;-3.009096952155232E-003;-2.090072724968195E-003;
2.404000000000000E+009;1.730129867792130E-001;5.659863725304604E-002;-2.912761876359582E-003;-1.813137088902295E-003;
2.404166666666667E+009;1.748051047325134E-001;5.488663539290428E-002;-2.770913299173117E-003;-1.688736374489963E-003;
2.404333333333334E+009;1.765503734350205E-001;5.347717180848122E-002;-2.694344613701105E-003;-1.637966837733984E-003;
2.404500000000000E+009;1.780543327331543E-001;5.209457874298096E-002;-2.709933323785663E-003;-1.438140985555947E-003;
2.404666666666667E+009;1.800056695938110E-001;5.084417387843132E-002;-2.639704383909702E-003;-1.233558286912739E-003;
2.404833333333334E+009;1.816394925117493E-001;4.960563778877258E-002;-2.658198587596417E-003;-1.192638068459928E-003;
2.405000000000000E+009;1.829589307308197E-001;4.894628003239632E-002;-2.495578490197659E-003;-1.289844047278166E-003;
2.405166666666667E+009;1.844911873340607E-001;4.832502827048302E-002;-2.425496233627200E-003;-1.062917872332037E-003;
2.405333333333334E+009;1.862303465604782E-001;4.759613797068596E-002;-2.467114012688398E-003;-1.158432685770094E-003;
2.405500000000000E+009;1.877756714820862E-001;4.714309796690941E-002;-2.514146268367767E-003;-8.108863839879632E-004;
2.405666666666667E+009;1.889415979385376E-001;4.647335410118103E-002;-2.571682212874293E-003;-1.075034495443106E-003;
2.405833333333334E+009;1.903026551008225E-001;4.616397619247437E-002;-2.438713796436787E-003;-8.022335241548717E-004;
2.406000000000000E+009;1.913447827100754E-001;4.575045779347420E-002;-2.507554600015283E-003;-8.802261436358094E-004;
2.406166666666667E+009;1.924043446779251E-001;4.549342021346092E-002;-2.572593512013555E-003;-7.543642423115671E-004;
2.406333333333334E+009;1.934805959463120E-001;4.529428854584694E-002;-2.528120996430516E-003;-7.409557583741844E-004;
2.406500000000000E+009;1.943382620811462E-001;4.516045376658440E-002;-2.460991032421589E-003;-5.236602737568319E-004;
2.406666666666667E+009;1.949371248483658E-001;4.501372948288918E-002;-2.517540007829666E-003;-6.978579913266003E-004;
2.406833333333334E+009;1.955769807100296E-001;4.484453797340393E-002;-2.605086658149958E-003;-6.458683637902141E-004;
2.407000000000000E+009;1.958947926759720E-001;4.497938230633736E-002;-2.497796202078462E-003;-4.581837565638125E-004;
2.407166666666667E+009;1.964753419160843E-001;4.451052471995354E-002;-2.553604776039720E-003;-5.261965561658144E-004;
2.407333333333334E+009;1.964367330074310E-001;4.448180645704269E-002;-2.601036336272955E-003;-4.426382365636528E-004;
2.407500000000000E+009;1.966010779142380E-001;4.437194392085075E-002;-2.592489123344421E-003;-2.883242559619248E-004;
2.407666666666667E+009;1.965170949697495E-001;4.415230825543404E-002;-2.679815981537104E-003;-1.921647053677589E-004;
2.407833333333334E+009;1.961784660816193E-001;4.377077892422676E-002;-2.725677797570825E-003;-2.641550672706217E-004;
2.408000000000000E+009;1.961591839790344E-001;4.350040480494499E-002;-2.576404949650168E-003;-1.302548043895513E-004;
2.408166666666667E+009;1.956294924020767E-001;4.302635416388512E-002;-2.635988406836987E-003;3.818921322817914E-005;
2.408333333333334E+009;1.952091157436371E-001;4.251513257622719E-002;-2.728375839069486E-003;1.192478666780517E-004;
2.408500000000000E+009;1.945485621690750E-001;4.205463081598282E-002;-2.590169431641698E-003;2.436599461361766E-004;
2.408666666666667E+009;1.939446926116943E-001;4.131235927343369E-002;-2.690215362235904E-003;3.119541215710342E-004;
2.408833333333334E+009;1.932923197746277E-001;4.054098948836327E-002;-2.623014850541949E-003;4.537540080491453E-004;
2.409000000000000E+009;1.923224180936813E-001;3.951335325837135E-002;-2.599876606836915E-003;4.853713035117835E-004;
2.409166666666667E+009;1.915898323059082E-001;3.848800435662270E-002;-2.512604929506779E-003;5.311762797646225E-004;
2.409333333333334E+009;1.907477974891663E-001;3.755508363246918E-002;-2.325087320059538E-003;5.503869033418596E-004;
2.409500000000000E+009;1.896288543939591E-001;3.612453117966652E-002;-2.342613646760583E-003;8.126478060148656E-004;
2.409666666666667E+009;1.887412220239639E-001;3.469087556004524E-002;-2.287916140630841E-003;7.942195516079664E-004;
2.409833333333334E+009;1.875927001237869E-001;3.327969834208489E-002;-2.118959790095687E-003;9.674018365330994E-004;
2.410000000000000E+009;1.868223696947098E-001;3.185469657182694E-002;-2.068692585453391E-003;8.877356885932386E-004;
2.410166666666667E+009;1.858354359865189E-001;2.980293892323971E-002;-1.974489307031035E-003;9.145161602646112E-004;
2.410333333333334E+009;1.849603354930878E-001;2.833871915936470E-002;-1.937437104061246E-003;7.252136128954589E-004;
2.410500000000000E+009;1.840316504240036E-001;2.637955360114574E-002;-1.753919292241335E-003;9.699423681013286E-004;
2.410666666666667E+009;1.829842478036881E-001;2.418973855674267E-002;-1.655084430240095E-003;8.122012950479984E-004;
2.410833333333334E+009;1.825071424245834E-001;2.225660532712936E-002;-1.698545645922422E-003;7.970209117047489E-004;
2.411000000000000E+009;1.818806529045105E-001;2.010710723698139E-002;-1.786392298527062E-003;6.576607702299953E-004;
2.411166666666667E+009;1.812493950128555E-001;1.798869855701923E-002;-1.625218894332647E-003;7.188873714767397E-004;
2.411333333333334E+009;1.808099299669266E-001;1.566381752490997E-002;-1.719486666843295E-003;5.060829571448267E-004;
2.411500000000000E+009;1.803666502237320E-001;1.346733141690493E-002;-1.738547347486019E-003;5.368498386815190E-004;
2.411666666666667E+009;1.802657395601273E-001;1.112937554717064E-002;-1.882610959000886E-003;5.570591310970485E-004;
2.411833333333334E+009;1.799899786710739E-001;8.810073137283325E-003;-1.833001268096268E-003;6.055927951820195E-004;
2.412000000000000E+009;1.801277697086334E-001;6.292166188359261E-003;-2.003762172535062E-003;5.705745425075293E-004;
2.412166666666667E+009;1.801764369010925E-001;4.169368650764227E-003;-1.963773975148797E-003;4.670346097555012E-004;
2.412333333333334E+009;1.804503947496414E-001;1.655353582464159E-003;-2.230310346931219E-003;7.454818696714938E-004;
2.412500000000000E+009;1.805492341518402E-001;-5.031495238654316E-004;-2.214829903095961E-003;6.969553651288152E-004;
2.412666666666667E+009;1.812120378017426E-001;-3.130550263449550E-003;-2.214639680460095E-003;8.742834907025099E-004;
2.412833333333334E+009;1.817556172609329E-001;-5.257427226752043E-003;-2.445438411086798E-003;7.835451397113502E-004;
2.413000000000000E+009;1.826070696115494E-001;-7.528888527303934E-003;-2.495375694707036E-003;1.110651530325413E-003;
2.413166666666667E+009;1.832236498594284E-001;-9.656947106122971E-003;-2.574293408542872E-003;1.168122165836394E-003;
2.413333333333334E+009;1.843131035566330E-001;-1.189295761287212E-002;-2.514349762350321E-003;1.269424334168434E-003;
2.413500000000000E+009;1.851179152727127E-001;-1.411490235477686E-002;-2.586236689239740E-003;1.646079705096781E-003;
2.413666666666667E+009;1.861484646797180E-001;-1.624492555856705E-002;-2.511255443096161E-003;1.684783841483295E-003;
2.413833333333334E+009;1.871584653854370E-001;-1.816867664456368E-002;-2.451393753290176E-003;1.900661038234830E-003;
2.414000000000000E+009;1.880507469177246E-001;-2.017423510551453E-002;-2.299656160175800E-003;2.094854600727558E-003;
2.414166666666667E+009;1.894137859344482E-001;-2.189790271222591E-002;-2.091562841087580E-003;2.303639193996787E-003;
2.414333333333334E+009;1.904528141021729E-001;-2.389002777636051E-002;-2.079745056107640E-003;2.319731283932924E-003;
2.414500000000000E+009;1.914939582347870E-001;-2.530129253864288E-002;-2.009395277127624E-003;2.516066888347268E-003;
2.414666666666667E+009;1.925759613513947E-001;-2.687849663197994E-002;-1.957734348252416E-003;2.602491294965148E-003;
2.414833333333334E+009;1.936042755842209E-001;-2.826465666294098E-002;-1.624729717150331E-003;2.719609299674630E-003;
2.415000000000000E+009;1.947327852249146E-001;-2.951696887612343E-002;-1.542223501019180E-003;2.790154656395316E-003;
2.415166666666667E+009;1.959225833415985E-001;-3.054279461503029E-002;-1.369958161376417E-003;2.871911739930511E-003;
2.415333333333334E+009;1.968732923269272E-001;-3.140984848141670E-002;-1.347738550975919E-003;2.756780944764614E-003;
2.415500000000000E+009;1.979950517416000E-001;-3.223666548728943E-002;-1.109889941290021E-003;2.940394682809711E-003;
2.415666666666667E+009;1.989885866641998E-001;-3.327159211039543E-002;-8.912042248994112E-004;3.082316834479570E-003;
2.415833333333334E+009;1.997647285461426E-001;-3.379789739847183E-002;-7.571569294668734E-004;3.029625630006194E-003;
2.416000000000000E+009;2.004050910472870E-001;-3.446752205491066E-002;-7.222975254990161E-004;2.951300702989101E-003;
2.416166666666667E+009;2.011005431413651E-001;-3.512129932641983E-002;-4.977140924893320E-004;3.089895704761148E-003;
2.416333333333334E+009;2.016170024871826E-001;-3.538199514150620E-002;-5.120626301504672E-004;3.103939350694418E-003;
2.416500000000000E+009;2.021800577640533E-001;-3.572411462664604E-002;-3.524713101796806E-004;3.040583105757833E-003;
2.416666666666667E+009;2.024849504232407E-001;-3.614956140518189E-002;-1.910380960907787E-004;3.043547971174121E-003;
2.416833333333334E+009;2.026382684707642E-001;-3.618615120649338E-002;-1.568768784636632E-004;3.162323962897062E-003;
2.417000000000000E+009;2.027787715196610E-001;-3.636207059025765E-002;9.506336937192828E-005;3.100253641605377E-003;
2.417166666666667E+009;2.026111483573914E-001;-3.641063719987869E-002;1.496923796366900E-004;3.040715353563428E-003;
2.417333333333334E+009;2.024257332086563E-001;-3.633061051368713E-002;3.570813278201968E-004;3.099187277257443E-003;
2.417500000000000E+009;2.022214680910111E-001;-3.640324249863625E-002;5.255719879642129E-004;2.953942865133286E-003;
2.417666666666667E+009;2.018729746341705E-001;-3.627110272645950E-002;6.227787234820426E-004;2.937147626653314E-003;
2.417833333333334E+009;2.014144062995911E-001;-3.611968457698822E-002;7.967258570715785E-004;2.779298694804311E-003;
2.418000000000000E+009;2.009696811437607E-001;-3.598368540406227E-002;1.067786943167448E-003;2.797651337459683E-003;
2.418166666666667E+009;2.002251297235489E-001;-3.593750670552254E-002;1.094982377253473E-003;2.630686620250344E-003;
2.418333333333334E+009;1.994932889938355E-001;-3.580782189965248E-002;1.169987139292061E-003;2.693092683330178E-003;
2.418500000000000E+009;1.986120641231537E-001;-3.602028638124466E-002;1.252026762813330E-003;2.449911087751389E-003;
2.418666666666667E+009;1.979869753122330E-001;-3.599805012345314E-002;1.399936852976680E-003;2.365222899243236E-003;
2.418833333333334E+009;1.969631314277649E-001;-3.618874773383141E-002;1.578961499035358E-003;2.276486717164516E-003;
2.419000000000000E+009;1.957489103078842E-001;-3.653940185904503E-002;1.589889754541218E-003;2.157887909561396E-003;
2.419166666666667E+009;1.947261393070221E-001;-3.684271126985550E-002;1.739433384500444E-003;2.114308765158057E-003;
2.419333333333334E+009;1.935368925333023E-001;-3.747196123003960E-002;1.679629553109407E-003;1.902251038700342E-003;
2.419500000000000E+009;1.922807395458221E-001;-3.791525587439537E-002;1.768495887517929E-003;1.649014651775360E-003;
2.419666666666667E+009;1.908630877733231E-001;-3.892366588115692E-002;1.806752406992018E-003;1.550220884382725E-003;
2.419833333333334E+009;1.893636584281921E-001;-3.953243046998978E-002;1.506641157902777E-003;1.451496966183186E-003;
2.420000000000000E+009;1.880957633256912E-001;-4.048958048224449E-002;1.588157727383077E-003;1.377226784825325E-003;
2.420166666666667E+009;1.865619122982025E-001;-4.143322259187698E-002;1.578501192852855E-003;1.364020281471312E-003;
2.420333333333334E+009;1.849921643733978E-001;-4.269605129957199E-002;1.506529632024467E-003;1.288397586904466E-003;
2.420500000000000E+009;1.836437284946442E-001;-4.407813400030136E-002;1.492845593020320E-003;1.252296380698681E-003;
2.420666666666667E+009;1.819811612367630E-001;-4.521857202053070E-002;1.438026549294591E-003;1.146790804341435E-003;
2.420833333333334E+009;1.805189698934555E-001;-4.667475447058678E-002;1.369019038975239E-003;1.138765248470008E-003;
2.421000000000000E+009;1.791044920682907E-001;-4.825140163302422E-002;1.419015228748322E-003;1.213451148942113E-003;
2.421166666666667E+009;1.777639240026474E-001;-4.986935853958130E-002;1.375142601318657E-003;1.149476389400661E-003;
2.421333333333334E+009;1.762543916702271E-001;-5.130616575479507E-002;1.453374861739576E-003;1.198470476083458E-003;
2.421500000000000E+009;1.749655008316040E-001;-5.313717946410179E-002;1.467888476327062E-003;1.036064932122827E-003;
2.421666666666667E+009;1.736956834793091E-001;-5.482126399874687E-002;1.540682744234800E-003;1.030724844895303E-003;
2.421833333333334E+009;1.727414131164551E-001;-5.642845481634140E-002;1.528651104308665E-003;1.056142966262996E-003;
2.422000000000000E+009;1.715106815099716E-001;-5.834851413965225E-002;1.474583055824041E-003;9.594300063326955E-004;
2.422166666666667E+009;1.709058880805969E-001;-6.033959612250328E-002;1.433367026038468E-003;9.159795008599758E-004;
2.422333333333334E+009;1.698206365108490E-001;-6.227274984121323E-002;1.495589618571103E-003;9.339545504190028E-004;
2.422500000000000E+009;1.689834147691727E-001;-6.386898458003998E-002;1.491160015575588E-003;7.940888754092157E-004;
2.422666666666667E+009;1.684689670801163E-001;-6.575217097997665E-002;1.298900577239692E-003;8.984539890661836E-004;
2.422833333333334E+009;1.678178310394287E-001;-6.773959100246429E-002;1.412235898897052E-003;8.446929277852178E-004;
2.423000000000000E+009;1.675692349672318E-001;-6.970001012086868E-002;1.362567418254912E-003;7.755891419947147E-004;
2.423166666666667E+009;1.673140674829483E-001;-7.152474671602249E-002;1.296372502110899E-003;8.368142298422754E-004;
2.423333333333334E+009;1.669253557920456E-001;-7.342758774757385E-002;1.388362608850002E-003;8.236918947659433E-004;
2.423500000000000E+009;1.669318974018097E-001;-7.523109018802643E-002;1.337213907390833E-003;7.557856151834130E-004;
2.423666666666667E+009;1.668255925178528E-001;-7.689917832612991E-002;1.414657686837018E-003;7.432128768414259E-004;
2.423833333333334E+009;1.666532605886459E-001;-7.857767492532730E-002;1.519402372650802E-003;7.093032472766936E-004;
2.424000000000000E+009;1.668739169836044E-001;-8.038073033094406E-002;1.352969091385603E-003;6.283561233431101E-004;
2.424166666666667E+009;1.668639481067658E-001;-8.185097575187683E-002;1.484217937104404E-003;6.089428788982332E-004;
2.424333333333334E+009;1.670333892107010E-001;-8.338987827301025E-002;1.544041093438864E-003;5.859449738636613E-004;
2.424500000000000E+009;1.673697978258133E-001;-8.511712402105331E-002;1.372768077999353E-003;7.199037936516106E-004;
2.424666666666667E+009;1.675637513399124E-001;-8.640045672655106E-002;1.555959810502827E-003;6.266950513236225E-004;
2.424833333333334E+009;1.680794209241867E-001;-8.755834400653839E-002;1.547970226965845E-003;5.695857689715922E-004;
2.425000000000000E+009;1.683300584554672E-001;-8.872512727975845E-002;1.532680587843061E-003;5.850455490872264E-004;
2.425166666666667E+009;1.687115281820297E-001;-8.983969688415527E-002;1.576021895743907E-003;5.704623181372881E-004;
2.425333333333334E+009;1.688921451568604E-001;-9.083469212055206E-002;1.617085770703852E-003;5.224678898230195E-004;
2.425500000000000E+009;1.692964583635330E-001;-9.184297174215317E-002;1.511507551185787E-003;4.126119019929320E-004;
2.425666666666667E+009;1.697684675455093E-001;-9.257329255342484E-002;1.577258459292352E-003;5.420952802523971E-004;
2.425833333333334E+009;1.701598316431046E-001;-9.348213672637940E-002;1.533869421109557E-003;6.545605720020831E-004;
2.426000000000000E+009;1.705172657966614E-001;-9.400822222232819E-002;1.628311001695693E-003;4.167199367657304E-004;
2.426166666666667E+009;1.709029078483582E-001;-9.456750005483627E-002;1.740562263876200E-003;5.129865021444857E-004;
2.426333333333334E+009;1.709953397512436E-001;-9.518109261989594E-002;1.636546454392374E-003;4.709064960479736E-004;
2.426500000000000E+009;1.715071350336075E-001;-9.555932134389877E-002;1.810545451007783E-003;2.665031352080405E-004;
2.426666666666667E+009;1.717610210180283E-001;-9.611754119396210E-002;1.846484490670264E-003;3.620421921368688E-004;
2.426833333333334E+009;1.720123887062073E-001;-9.658495336771011E-002;1.906132325530052E-003;3.931108803953975E-004;
2.427000000000000E+009;1.719864159822464E-001;-9.692095220088959E-002;1.893634675070643E-003;3.497390425764024E-004;
2.427166666666667E+009;1.721587777137756E-001;-9.718179702758789E-002;1.944448566064239E-003;1.006835445878096E-004;
2.427333333333334E+009;1.721055060625076E-001;-9.763813018798828E-002;2.034809906035662E-003;7.667689351364970E-005;
2.427500000000000E+009;1.718120723962784E-001;-9.796740114688873E-002;2.063820138573647E-003;1.367418008157983E-004;
2.427666666666667E+009;1.715545654296875E-001;-9.831565618515015E-002;2.173922024667263E-003;5.565194078371860E-005;
2.427833333333334E+009;1.713146865367889E-001;-9.854690730571747E-002;2.220360096544027E-003;-6.374490476446226E-005;
