# Version 1.00
#
freq[Hz];re:Trc1_S11;im:Trc1_S11;re:Trc2_S21;im:Trc2_S21;
2.400000000000000E+009;1.506294608116150E-001;1.126708760857582E-001;1.913891610456631E-004;-3.494092728942633E-003;
2.400166666666667E+009;1.505829542875290E-001;1.104428246617317E-001;2.383342653047293E-004;-3.406242933124304E-003;
2.400333333333334E+009;1.508072167634964E-001;1.083334535360336E-001;1.319672010140494E-004;-3.474128665402532E-003;
2.400500000000000E+009;1.509093791246414E-001;1.056965142488480E-001;-9.345472790300846E-006;-3.372135106474161E-003;
2.400666666666667E+009;1.511416286230087E-001;1.032664850354195E-001;-6.494888657471165E-005;-3.537432523444295E-003;
2.400833333333334E+009;1.513397991657257E-001;1.004504188895226E-001;-2.260084511362948E-005;-3.386374795809388E-003;
2.401000000000000E+009;1.517296582460403E-001;9.788627922534943E-002;1.179365062853321E-004;-3.718575462698937E-003;
2.401166666666667E+009;1.521146446466446E-001;9.519295394420624E-002;-2.443849225528538E-004;-3.758926410228014E-003;
2.401333333333334E+009;1.524855792522430E-001;9.259917587041855E-002;-2.908520400524139E-004;-3.797055454924703E-003;
2.401500000000000E+009;1.530774086713791E-001;8.993602544069290E-002;-5.358952330425382E-004;-3.967863041907549E-003;
2.401666666666667E+009;1.537067592144013E-001;8.725058287382126E-002;-7.690170896239579E-004;-3.921552561223507E-003;
2.401833333333334E+009;1.541182696819305E-001;8.462373912334442E-002;-1.000732067041099E-003;-3.832136513665319E-003;
2.402000000000000E+009;1.551987826824188E-001;8.206631243228912E-002;-1.160889281891286E-003;-3.800404258072376E-003;
2.402166666666667E+009;1.560601741075516E-001;7.969806343317032E-002;-1.505453255958855E-003;-3.830436151474714E-003;
2.402333333333334E+009;1.571398675441742E-001;7.711673527956009E-002;-1.715160557068884E-003;-3.728642826899886E-003;
2.402500000000000E+009;1.582486182451248E-001;7.457724213600159E-002;-1.887684571556747E-003;-3.702868241816759E-003;
2.402666666666667E+009;1.597142070531845E-001;7.250501960515976E-002;-2.284861635416746E-003;-3.480213228613138E-003;
2.402833333333334E+009;1.610502153635025E-001;7.010134309530258E-002;-2.285592490807176E-003;-3.382103051990271E-003;
2.403000000000000E+009;1.625843495130539E-001;6.787727028131485E-002;-2.436529612168670E-003;-3.137579653412104E-003;
2.403166666666667E+009;1.643741726875305E-001;6.586305797100067E-002;-2.701530000194907E-003;-3.002062905579805E-003;
2.403333333333334E+009;1.658460646867752E-001;6.364849209785461E-002;-2.736018272116780E-003;-2.668870147317648E-003;
2.403500000000000E+009;1.675571799278259E-001;6.192909553647041E-002;-2.717905445024371E-003;-2.462595701217651E-003;
2.403666666666667E+009;1.694939285516739E-001;5.985921248793602E-002;-2.919910475611687E-003;-2.311897929757834E-003;
2.403833333333334E+009;1.713981032371521E-001;5.815777182579041E-002;-2.856424311175942E-003;-2.037041587755084E-003;
2.404000000000000E+009;1.728068739175797E-001;5.632213503122330E-002;-2.915822435170412E-003;-1.797235454432666E-003;
2.404166666666667E+009;1.748660504817963E-001;5.485340207815170E-002;-2.830919343978167E-003;-1.586900209076703E-003;
2.404333333333334E+009;1.765616685152054E-001;5.324483290314674E-002;-2.739725401625037E-003;-1.447236514650285E-003;
2.404500000000000E+009;1.782983988523483E-001;5.201500281691551E-002;-2.597311977297068E-003;-1.428889459930360E-003;
2.404666666666667E+009;1.800336539745331E-001;5.075836554169655E-002;-2.633566036820412E-003;-1.306794700212777E-003;
2.404833333333334E+009;1.816364228725433E-001;4.950553551316261E-002;-2.564091235399246E-003;-1.236149691976607E-003;
2.405000000000000E+009;1.830652505159378E-001;4.884032160043716E-002;-2.445021178573370E-003;-1.243997248820961E-003;
2.405166666666667E+009;1.846645325422287E-001;4.811597242951393E-002;-2.689881483092904E-003;-9.255182230845094E-004;
2.405333333333334E+009;1.860556453466415E-001;4.754421859979630E-002;-2.594820456579328E-003;-9.241289808414877E-004;
2.405500000000000E+009;1.874426752328873E-001;4.705070331692696E-002;-2.349429763853550E-003;-8.754378650337458E-004;
2.405666666666667E+009;1.888763457536697E-001;4.656122252345085E-002;-2.571289427578449E-003;-1.023947610519826E-003;
2.405833333333334E+009;1.902582794427872E-001;4.622416570782661E-002;-2.509232144802809E-003;-7.938700728118420E-004;
2.406000000000000E+009;1.912595331668854E-001;4.581480845808983E-002;-2.435057191178203E-003;-7.384113268926740E-004;
2.406166666666667E+009;1.923347711563110E-001;4.551523923873901E-002;-2.536260988563299E-003;-6.915926933288574E-004;
2.406333333333334E+009;1.934638470411301E-001;4.529431462287903E-002;-2.469541272148490E-003;-6.476744310930371E-004;
2.406500000000000E+009;1.941366493701935E-001;4.517829045653343E-002;-2.516947453841567E-003;-7.027322426438332E-004;
2.406666666666667E+009;1.948873698711395E-001;4.496118798851967E-002;-2.539382781833410E-003;-6.606869283132255E-004;
2.406833333333334E+009;1.955143362283707E-001;4.484564065933228E-002;-2.474641660228372E-003;-5.578508134931326E-004;
2.407000000000000E+009;1.958961337804794E-001;4.482495412230492E-002;-2.514048013836145E-003;-4.604753048624843E-004;
2.407166666666667E+009;1.963080018758774E-001;4.452501237392426E-002;-2.695155795663595E-003;-5.745013477280736E-004;
2.407333333333334E+009;1.964402645826340E-001;4.449563100934029E-002;-2.627222798764706E-003;-5.154275568202138E-004;
2.407500000000000E+009;1.964199095964432E-001;4.429977759718895E-002;-2.647567773237824E-003;-3.466381167527288E-004;
2.407666666666667E+009;1.964928954839706E-001;4.410344734787941E-002;-2.640784485265613E-003;-2.800516085699201E-004;
2.407833333333334E+009;1.960393488407135E-001;4.374346882104874E-002;-2.734472276642919E-003;-1.717032719170675E-004;
2.408000000000000E+009;1.961849629878998E-001;4.338643327355385E-002;-2.687236526980996E-003;-1.488848211010918E-004;
2.408166666666667E+009;1.956405192613602E-001;4.291297122836113E-002;-2.672740025445819E-003;7.239985279738903E-005;
2.408333333333334E+009;1.951478868722916E-001;4.233916848897934E-002;-2.693549729883671E-003;1.268707419512793E-004;
2.408500000000000E+009;1.945036947727203E-001;4.191045090556145E-002;-2.736732596531510E-003;1.650187768973410E-004;
2.408666666666667E+009;1.937706172466278E-001;4.124468937516213E-002;-2.604582812637091E-003;3.709943266585469E-004;
2.408833333333334E+009;1.932477205991745E-001;4.037669301033020E-002;-2.499394817277789E-003;4.366032080724835E-004;
2.409000000000000E+009;1.922979056835175E-001;3.945076093077660E-002;-2.398393582552671E-003;4.452048160601407E-004;
2.409166666666667E+009;1.914171427488327E-001;3.859708085656166E-002;-2.462312113493681E-003;5.635494017042220E-004;
2.409333333333334E+009;1.905400007963181E-001;3.759398683905602E-002;-2.475492656230927E-003;5.627232603728771E-004;
2.409500000000000E+009;1.895777583122253E-001;3.605556488037109E-002;-2.371223643422127E-003;7.288934430107474E-004;
2.409666666666667E+009;1.884947568178177E-001;3.473854437470436E-002;-2.253502374514937E-003;7.481990032829344E-004;
2.409833333333334E+009;1.876536160707474E-001;3.335487097501755E-002;-2.155020600184798E-003;9.311409667134285E-004;
2.410000000000000E+009;1.866822242736816E-001;3.170008584856987E-002;-2.102120779454708E-003;8.965476881712675E-004;
2.410166666666667E+009;1.857100874185562E-001;3.001145832240582E-002;-1.974626677110791E-003;9.586061351001263E-004;
2.410333333333334E+009;1.848856508731842E-001;2.828550897538662E-002;-1.861169235780835E-003;9.528157534077764E-004;
2.410500000000000E+009;1.839377284049988E-001;2.639744430780411E-002;-1.765649300068617E-003;8.827458950690925E-004;
2.410666666666667E+009;1.830749213695526E-001;2.420501783490181E-002;-1.592208514921367E-003;7.493001758120954E-004;
2.410833333333334E+009;1.826832890510559E-001;2.201519906520844E-002;-1.646769349463284E-003;7.700817659497261E-004;
2.411000000000000E+009;1.817403435707092E-001;2.007464505732060E-002;-1.617167843505740E-003;6.716361967846751E-004;
2.411166666666667E+009;1.811590939760208E-001;1.800379157066345E-002;-1.648840378038585E-003;6.124525680206716E-004;
2.411333333333334E+009;1.806246787309647E-001;1.540500111877918E-002;-1.622282434254885E-003;6.290788296610117E-004;
2.411500000000000E+009;1.803184151649475E-001;1.332978997379541E-002;-1.693538273684681E-003;4.630693583749235E-004;
2.411666666666667E+009;1.800457090139389E-001;1.104121003299952E-002;-1.858950476162136E-003;4.695680981967598E-004;
2.411833333333334E+009;1.797090470790863E-001;8.760901167988777E-003;-1.852039829827845E-003;4.227371828164905E-004;
2.412000000000000E+009;1.798556596040726E-001;6.275175139307976E-003;-1.965072471648455E-003;4.708896158263087E-004;
2.412166666666667E+009;1.800005584955216E-001;4.075590055435896E-003;-2.129127504304051E-003;7.029081461951137E-004;
2.412333333333334E+009;1.801479160785675E-001;1.609540660865605E-003;-2.071053953841329E-003;6.474470719695091E-004;
2.412500000000000E+009;1.805462390184403E-001;-7.576732896268368E-004;-2.136559691280127E-003;7.308507920242846E-004;
2.412666666666667E+009;1.810216605663300E-001;-2.939240075647831E-003;-2.365057822316885E-003;8.236324647441506E-004;
2.412833333333334E+009;1.816245168447495E-001;-5.258637946099043E-003;-2.258632797747850E-003;9.175362647511065E-004;
2.413000000000000E+009;1.823221147060394E-001;-7.534532342106104E-003;-2.564137103036046E-003;1.087009324692190E-003;
2.413166666666667E+009;1.831442266702652E-001;-9.730889461934567E-003;-2.527419710531831E-003;1.237406395375729E-003;
2.413333333333334E+009;1.843681186437607E-001;-1.179938483983278E-002;-2.423114608973265E-003;1.405298477038741E-003;
2.413500000000000E+009;1.848750412464142E-001;-1.393122691661120E-002;-2.514740685001016E-003;1.552171306684613E-003;
2.413666666666667E+009;1.860435456037521E-001;-1.620451733469963E-002;-2.507412340492010E-003;1.836051931604743E-003;
2.413833333333334E+009;1.871306747198105E-001;-1.815946586430073E-002;-2.509984187781811E-003;2.042270964011550E-003;
2.414000000000000E+009;1.880152821540833E-001;-2.000403031706810E-002;-2.189916791394353E-003;2.236773725599051E-003;
2.414166666666667E+009;1.892697066068649E-001;-2.179824188351631E-002;-2.115912735462189E-003;2.300241496413946E-003;
2.414333333333334E+009;1.903645247220993E-001;-2.377662807703018E-002;-2.041062107309699E-003;2.453920664265752E-003;
2.414500000000000E+009;1.914370507001877E-001;-2.517699077725411E-002;-1.884551369585097E-003;2.442370634526014E-003;
2.414666666666667E+009;1.925417333841324E-001;-2.670733258128166E-002;-1.813431270420551E-003;2.697048941627145E-003;
2.414833333333334E+009;1.936264187097549E-001;-2.812055125832558E-002;-1.559633063152432E-003;2.833150560036302E-003;
2.415000000000000E+009;1.946317851543427E-001;-2.937990985810757E-002;-1.516457181423903E-003;2.800028538331389E-003;
2.415166666666667E+009;1.957574784755707E-001;-3.054033033549786E-002;-1.361853675916791E-003;2.835456514731050E-003;
2.415333333333334E+009;1.969754099845886E-001;-3.159248083829880E-002;-1.284392084926367E-003;2.997312927618623E-003;
2.415500000000000E+009;1.979701966047287E-001;-3.214867040514946E-002;-1.062577357515693E-003;3.042078576982021E-003;
2.415666666666667E+009;1.987448185682297E-001;-3.309327363967896E-002;-1.018858049064875E-003;2.959520090371370E-003;
2.415833333333334E+009;1.996181011199951E-001;-3.381911665201187E-002;-7.777606952004135E-004;2.971464069560170E-003;
2.416000000000000E+009;2.004517763853073E-001;-3.447324410080910E-002;-6.038666469976306E-004;3.174881450831890E-003;
2.416166666666667E+009;2.010240703821182E-001;-3.500091657042503E-002;-5.859568482264876E-004;2.946909517049789E-003;
2.416333333333334E+009;2.017680704593658E-001;-3.524766489863396E-002;-4.999134689569473E-004;3.009326523169875E-003;
2.416500000000000E+009;2.021256834268570E-001;-3.570364415645599E-002;-2.699195174500346E-004;2.942090388387442E-003;
2.416666666666667E+009;2.024726420640945E-001;-3.608725219964981E-002;-2.603574830573052E-004;2.970241475850344E-003;
2.416833333333334E+009;2.026281058788300E-001;-3.613664954900742E-002;-8.774258458288387E-005;2.988062798976898E-003;
2.417000000000000E+009;2.028308361768723E-001;-3.636406362056732E-002;-4.157895455136895E-005;3.089247038587928E-003;
2.417166666666667E+009;2.025594115257263E-001;-3.632441535592079E-002;2.207047655247152E-004;3.135347040370107E-003;
2.417333333333334E+009;2.025048434734345E-001;-3.623505681753159E-002;4.032974247820675E-004;3.064505057409406E-003;
2.417500000000000E+009;2.021624296903610E-001;-3.639675304293633E-002;4.336511483415961E-004;3.070307895541191E-003;
2.417666666666667E+009;2.016927748918533E-001;-3.613495081663132E-002;7.435742300003767E-004;2.924843458458781E-003;
2.417833333333334E+009;2.013309001922607E-001;-3.606391325592995E-002;8.153071976266801E-004;2.896064426749945E-003;
2.418000000000000E+009;2.007611095905304E-001;-3.583689779043198E-002;8.839714573696256E-004;2.861181274056435E-003;
2.418166666666667E+009;2.001311331987381E-001;-3.589812293648720E-002;1.058517256751657E-003;2.638864563778043E-003;
2.418333333333334E+009;1.993270665407181E-001;-3.585073351860046E-002;1.140109845437110E-003;2.685531042516232E-003;
2.418500000000000E+009;1.986370980739594E-001;-3.588811680674553E-002;1.429294701665640E-003;2.396149793639779E-003;
2.418666666666667E+009;1.978296190500259E-001;-3.587569668889046E-002;1.311855972744525E-003;2.360966056585312E-003;
2.418833333333334E+009;1.967721432447434E-001;-3.621087223291397E-002;1.612866646610200E-003;2.258770866319537E-003;
2.419000000000000E+009;1.956741660833359E-001;-3.651193156838417E-002;1.547724707052112E-003;2.086723223328590E-003;
2.419166666666667E+009;1.946223527193070E-001;-3.682107850909233E-002;1.613379688933492E-003;2.047325018793345E-003;
2.419333333333334E+009;1.934278905391693E-001;-3.748486936092377E-002;1.800012891180813E-003;1.886813202872872E-003;
2.419500000000000E+009;1.922577768564224E-001;-3.797116875648499E-002;1.620129216462374E-003;1.762393163517118E-003;
2.419666666666667E+009;1.906657367944717E-001;-3.865211829543114E-002;1.541784498840570E-003;1.613686443306506E-003;
2.419833333333334E+009;1.892734020948410E-001;-3.957991674542427E-002;1.773932483047247E-003;1.456583268009126E-003;
2.420000000000000E+009;1.878973990678787E-001;-4.036871343851090E-002;1.594193046912551E-003;1.357909524813294E-003;
2.420166666666667E+009;1.865269094705582E-001;-4.139443859457970E-002;1.501161488704383E-003;1.298832939937711E-003;
2.420333333333334E+009;1.850747019052506E-001;-4.274516552686691E-002;1.619720016606152E-003;1.208242261782289E-003;
2.420500000000000E+009;1.835571974515915E-001;-4.396104812622070E-002;1.493837917223573E-003;1.206850633025169E-003;
2.420666666666667E+009;1.819525957107544E-001;-4.515253007411957E-002;1.430654083378613E-003;1.051705330610275E-003;
2.420833333333334E+009;1.806418150663376E-001;-4.662081226706505E-002;1.383381313644350E-003;1.066188560798764E-003;
2.421000000000000E+009;1.791743040084839E-001;-4.809987917542458E-002;1.491213683038950E-003;1.109996810555458E-003;
2.421166666666667E+009;1.777992099523544E-001;-4.986082017421722E-002;1.326306140981615E-003;1.188979833386838E-003;
2.421333333333334E+009;1.763796210289002E-001;-5.124761164188385E-002;1.480084494687617E-003;1.172702992334962E-003;
2.421500000000000E+009;1.749192476272583E-001;-5.304994061589241E-002;1.455499324947596E-003;9.906038176268339E-004;
2.421666666666667E+009;1.736587584018707E-001;-5.486217886209488E-002;1.475683762691915E-003;1.047547091729939E-003;
2.421833333333334E+009;1.727129071950913E-001;-5.645724013447762E-002;1.592511194758117E-003;8.775111637078226E-004;
2.422000000000000E+009;1.716553866863251E-001;-5.834041908383369E-002;1.397284911945462E-003;9.785901056602597E-004;
2.422166666666667E+009;1.707899570465088E-001;-6.023911386728287E-002;1.460283063352108E-003;7.815678254701197E-004;
2.422333333333334E+009;1.698166280984879E-001;-6.210510432720184E-002;1.420397311449051E-003;7.487962138839066E-004;
2.422500000000000E+009;1.691506356000900E-001;-6.380143761634827E-002;1.482535386458039E-003;7.741306908428669E-004;
2.422666666666667E+009;1.683513969182968E-001;-6.590919196605682E-002;1.439616316929460E-003;7.512380834668875E-004;
2.422833333333334E+009;1.680962592363358E-001;-6.782129406929016E-002;1.353511819615960E-003;7.140160887502134E-004;
2.423000000000000E+009;1.676186621189117E-001;-6.965219974517822E-002;1.303961733356118E-003;7.786111091263592E-004;
2.423166666666667E+009;1.672611236572266E-001;-7.148402184247971E-002;1.415497972629964E-003;7.339974981732667E-004;
2.423333333333334E+009;1.669155210256577E-001;-7.329462468624115E-002;1.373188802972436E-003;8.014412014745176E-004;
2.423500000000000E+009;1.669071316719055E-001;-7.508662343025208E-002;1.349751721136272E-003;7.126269629225135E-004;
2.423666666666667E+009;1.668772846460342E-001;-7.694818824529648E-002;1.382369780912995E-003;8.309534750878811E-004;
2.423833333333334E+009;1.667102873325348E-001;-7.855827361345291E-002;1.365719246678054E-003;7.078560884110630E-004;
2.424000000000000E+009;1.668929457664490E-001;-8.044318109750748E-002;1.387702417559922E-003;6.992503185756505E-004;
2.424166666666667E+009;1.669863760471344E-001;-8.176641166210175E-002;1.507678651250899E-003;5.348652484826744E-004;
2.424333333333334E+009;1.670329719781876E-001;-8.325120806694031E-002;1.369695062749088E-003;7.523669046349824E-004;
2.424500000000000E+009;1.675195991992950E-001;-8.497522026300430E-002;1.544425496831536E-003;5.782221560366452E-004;
2.424666666666667E+009;1.674698591232300E-001;-8.637439459562302E-002;1.469949726015329E-003;5.916200461797416E-004;
2.424833333333334E+009;1.680840849876404E-001;-8.760898560285568E-002;1.457292935810983E-003;5.099439877085388E-004;
2.425000000000000E+009;1.684081852436066E-001;-8.878228813409805E-002;1.554254558868706E-003;4.874336591456085E-004;
2.425166666666667E+009;1.686936467885971E-001;-8.980537950992584E-002;1.443573390133679E-003;5.159608554095030E-004;
2.425333333333334E+009;1.689113229513168E-001;-9.078738093376160E-002;1.663984498009086E-003;6.334275822155178E-004;
2.425500000000000E+009;1.694960594177246E-001;-9.187760949134827E-002;1.594812260009348E-003;4.838339227717370E-004;
2.425666666666667E+009;1.697591692209244E-001;-9.244259446859360E-002;1.659838366322219E-003;5.130928475409746E-004;
2.425833333333334E+009;1.701658815145493E-001;-9.341485798358917E-002;1.743003376759589E-003;4.566503339447081E-004;
2.426000000000000E+009;1.705616861581802E-001;-9.402966499328613E-002;1.710928394459188E-003;4.972082097083330E-004;
2.426166666666667E+009;1.709526330232620E-001;-9.454552084207535E-002;1.623549498617649E-003;4.607262089848518E-004;
2.426333333333334E+009;1.709986180067062E-001;-9.512843191623688E-002;1.741663552820683E-003;5.123352748341858E-004;
2.426500000000000E+009;1.714864820241928E-001;-9.551817178726196E-002;1.759881852194667E-003;5.014472408220172E-004;
2.426666666666667E+009;1.718511879444122E-001;-9.594643861055374E-002;1.746197347529233E-003;5.202835309319198E-004;
2.426833333333334E+009;1.720940470695496E-001;-9.650474786758423E-002;1.910195802338421E-003;4.256695974618197E-004;
2.427000000000000E+009;1.720837354660034E-001;-9.688772261142731E-002;2.011122414842248E-003;2.645387721713632E-004;
2.427166666666667E+009;1.722698807716370E-001;-9.710851311683655E-002;1.948366290889680E-003;2.023649285547435E-004;
2.427333333333334E+009;1.721462458372116E-001;-9.761355817317963E-002;2.067062305286527E-003;2.103557490045205E-004;
2.427500000000000E+009;1.720151007175446E-001;-9.804286807775497E-002;2.133509842678905E-003;1.310894294874743E-004;
2.427666666666667E+009;1.716717183589935E-001;-9.820648282766342E-002;2.148474799469113E-003;9.292784670833498E-005;
2.427833333333334E+009;1.713846772909164E-001;-9.855706989765167E-002;2.311293734237552E-003;5.231786053627729E-005;
