# Version 1.00
#
freq[Hz];re:Trc1_S11;im:Trc1_S11;re:Trc2_S21;im:Trc2_S21;
2.400000000000000E+009;1.506514996290207E-001;1.126771569252014E-001;2.505342708900571E-004;-3.455556230619550E-003;
2.400166666666667E+009;1.507277339696884E-001;1.103408113121986E-001;3.880035365000367E-004;-3.493620548397303E-003;
2.400333333333334E+009;1.509068906307221E-001;1.081610023975372E-001;4.050722418469377E-005;-3.351775463670492E-003;
2.400500000000000E+009;1.509855687618256E-001;1.055965721607208E-001;1.969960576388985E-004;-3.292998299002647E-003;
2.400666666666667E+009;1.512711048126221E-001;1.033542454242706E-001;3.939014641218819E-005;-3.437629435211420E-003;
2.400833333333334E+009;1.515534669160843E-001;1.004592403769493E-001;-4.048301343573257E-005;-3.526105778291822E-003;
2.401000000000000E+009;1.518148481845856E-001;9.796654433012009E-002;-1.836177216318902E-005;-3.584666876122356E-003;
2.401166666666667E+009;1.520829200744629E-001;9.532517194747925E-002;-2.676561416592449E-004;-3.598486538976431E-003;
2.401333333333334E+009;1.524716615676880E-001;9.264185279607773E-002;-2.986906038131565E-004;-3.713663667440414E-003;
2.401500000000000E+009;1.530996710062027E-001;8.997026830911636E-002;-4.247335309628397E-004;-3.784273285418749E-003;
2.401666666666667E+009;1.535908132791519E-001;8.712042123079300E-002;-5.938882823102176E-004;-3.947130870074034E-003;
2.401833333333334E+009;1.543174982070923E-001;8.447567373514175E-002;-7.591422181576490E-004;-3.992525395005941E-003;
2.402000000000000E+009;1.553200036287308E-001;8.203855901956558E-002;-1.114428392611444E-003;-3.928200807422400E-003;
2.402166666666667E+009;1.562601923942566E-001;7.957362383604050E-002;-1.403052476234734E-003;-3.894529771059752E-003;
2.402333333333334E+009;1.571467965841293E-001;7.688515633344650E-002;-1.693254453130066E-003;-3.726436290889978E-003;
2.402500000000000E+009;1.585304588079453E-001;7.470358163118362E-002;-2.031141659244895E-003;-3.626593155786395E-003;
2.402666666666667E+009;1.597800403833389E-001;7.237710803747177E-002;-2.294810721650720E-003;-3.582767210900784E-003;
2.402833333333334E+009;1.605824828147888E-001;7.023671269416809E-002;-2.920038532465696E-003;-3.340346040204167E-003;
2.403000000000000E+009;1.629381626844406E-001;6.776846200227737E-002;-2.153621288016439E-003;-3.114295424893498E-003;
2.403166666666667E+009;1.644299477338791E-001;6.592496484518051E-002;-2.666082931682468E-003;-2.637173281982541E-003;
2.403333333333334E+009;1.657947748899460E-001;6.398582458496094E-002;-3.350168000906706E-003;-2.281252061948180E-003;
2.403500000000000E+009;1.680565923452377E-001;6.164864078164101E-002;-2.375690964981914E-003;-2.486040117219091E-003;
2.403666666666667E+009;1.696398258209229E-001;6.022471189498901E-002;-3.181900363415480E-003;-1.468236674554646E-003;
2.403833333333334E+009;1.714465618133545E-001;5.799758434295654E-002;-2.916051540523768E-003;-1.934794941917062E-003;
2.404000000000000E+009;1.731485873460770E-001;5.618046224117279E-002;-2.723092678934336E-003;-1.684121671132743E-003;
2.404166666666667E+009;1.749866008758545E-001;5.480206757783890E-002;-2.682387828826904E-003;-1.454577432014048E-003;
2.404333333333334E+009;1.766292601823807E-001;5.335201695561409E-002;-2.735771937295795E-003;-1.468178816139698E-003;
2.404500000000000E+009;1.782007068395615E-001;5.173417553305626E-002;-2.769215963780880E-003;-1.493835123255849E-003;
2.404666666666667E+009;1.799476146697998E-001;5.074054002761841E-002;-2.579019172117114E-003;-1.379625871777535E-003;
2.404833333333334E+009;1.817226558923721E-001;4.951556026935577E-002;-2.574654296040535E-003;-1.185511937364936E-003;
2.405000000000000E+009;1.831131428480148E-001;4.889831691980362E-002;-2.489468082785606E-003;-1.277283416129649E-003;
2.405166666666667E+009;1.845667362213135E-001;4.806347936391830E-002;-2.477005822584033E-003;-1.132975914515555E-003;
2.405333333333334E+009;1.860939115285873E-001;4.754547402262688E-002;-2.417194424197078E-003;-1.002258388325572E-003;
2.405500000000000E+009;1.877051442861557E-001;4.690951481461525E-002;-2.475863788276911E-003;-9.602082427591085E-004;
2.405666666666667E+009;1.889907270669937E-001;4.644520953297615E-002;-2.447842853143811E-003;-7.163502741605043E-004;
2.405833333333334E+009;1.902758479118347E-001;4.597363993525505E-002;-2.609511837363243E-003;-9.037334239110351E-004;
2.406000000000000E+009;1.913067251443863E-001;4.574823006987572E-002;-2.501209266483784E-003;-7.888103136792779E-004;
2.406166666666667E+009;1.922935247421265E-001;4.521408304572105E-002;-2.593663521111012E-003;-8.008530130609870E-004;
2.406333333333334E+009;1.934385746717453E-001;4.529999196529388E-002;-2.478680107742548E-003;-6.257157656364143E-004;
2.406500000000000E+009;1.941776573657990E-001;4.506151005625725E-002;-2.597170649096370E-003;-7.501974469050765E-004;
2.406666666666667E+009;1.950015276670456E-001;4.506722465157509E-002;-2.421453129500151E-003;-4.680536512751132E-004;
2.406833333333334E+009;1.956239342689514E-001;4.487890377640724E-002;-2.548295073211193E-003;-4.261704161763191E-004;
2.407000000000000E+009;1.959307938814163E-001;4.483528435230255E-002;-2.475887071341276E-003;-3.798828693106771E-004;
2.407166666666667E+009;1.963382810354233E-001;4.459346458315849E-002;-2.659724792465568E-003;-4.336954734753817E-004;
2.407333333333334E+009;1.962669044733048E-001;4.446658119559288E-002;-2.543909475207329E-003;-2.336631732759997E-004;
2.407500000000000E+009;1.962789595127106E-001;4.429884254932404E-002;-2.627357607707381E-003;-3.454349935054779E-004;
2.407666666666667E+009;1.964919716119766E-001;4.404131695628166E-002;-2.666973043233156E-003;-2.830820158123970E-004;
2.407833333333334E+009;1.960508823394775E-001;4.373520612716675E-002;-2.614953555166721E-003;-1.096156047424302E-004;
2.408000000000000E+009;1.960410326719284E-001;4.350003972649574E-002;-2.590573392808437E-003;-8.111704664770514E-005;
2.408166666666667E+009;1.954879164695740E-001;4.311771318316460E-002;-2.663813997060061E-003;-2.422049328743015E-005;
2.408333333333334E+009;1.950960010290146E-001;4.243580996990204E-002;-2.607451518997550E-003;1.298788120038807E-004;
2.408500000000000E+009;1.944306045770645E-001;4.197799414396286E-002;-2.485755365341902E-003;1.901356299640611E-004;
2.408666666666667E+009;1.940713077783585E-001;4.130068421363831E-002;-2.501844195649028E-003;2.274837461300194E-004;
2.408833333333334E+009;1.931545287370682E-001;4.042377322912216E-002;-2.439682371914387E-003;4.116466443520039E-004;
2.409000000000000E+009;1.922853738069534E-001;3.940908983349800E-002;-2.321331528946757E-003;5.029367166571319E-004;
2.409166666666667E+009;1.914479434490204E-001;3.844993188977242E-002;-2.329047769308090E-003;6.934855482541025E-004;
2.409333333333334E+009;1.905865222215653E-001;3.746614232659340E-002;-2.288245828822255E-003;7.740594446659088E-004;
2.409500000000000E+009;1.894512623548508E-001;3.612191975116730E-002;-2.283022506162524E-003;6.965803913772106E-004;
2.409666666666667E+009;1.886299997568131E-001;3.481135517358780E-002;-2.207470592111349E-003;8.144000894390047E-004;
2.409833333333334E+009;1.876392811536789E-001;3.326632082462311E-002;-2.279909793287516E-003;9.221283253282309E-004;
2.410000000000000E+009;1.866671591997147E-001;3.177738934755325E-002;-1.978280721232295E-003;9.676883928477764E-004;
2.410166666666667E+009;1.856610178947449E-001;2.995209954679012E-002;-1.769085996784270E-003;9.889771463349462E-004;
2.410333333333334E+009;1.848557293415070E-001;2.818509005010128E-002;-1.822462654672563E-003;8.993563242256641E-004;
2.410500000000000E+009;1.839282512664795E-001;2.633297815918922E-002;-1.832041190937161E-003;8.536336827091873E-004;
2.410666666666667E+009;1.830840408802033E-001;2.429622411727905E-002;-1.684143091551960E-003;7.177209481596947E-004;
2.410833333333334E+009;1.824418753385544E-001;2.220681682229042E-002;-1.591909793205559E-003;6.328479503281415E-004;
2.411000000000000E+009;1.818273514509201E-001;1.994347758591175E-002;-1.624498283490539E-003;6.374791264533997E-004;
2.411166666666667E+009;1.812628358602524E-001;1.780663058161736E-002;-1.580429729074240E-003;6.888550124131143E-004;
2.411333333333334E+009;1.806148439645767E-001;1.543428655713797E-002;-1.692722318693996E-003;5.919652758166194E-004;
2.411500000000000E+009;1.802639663219452E-001;1.315011736005545E-002;-1.671545556746423E-003;5.490981857292354E-004;
2.411666666666667E+009;1.801811754703522E-001;1.105426158756018E-002;-1.798426965251565E-003;4.901242791675031E-004;
2.411833333333334E+009;1.798311173915863E-001;8.801494725048542E-003;-1.804350991733372E-003;5.002022953704000E-004;
2.412000000000000E+009;1.799012720584869E-001;6.281792651861906E-003;-2.004909096285701E-003;5.113751976750791E-004;
2.412166666666667E+009;1.800136119127274E-001;4.094944335520268E-003;-1.991284312680364E-003;5.270752008073032E-004;
2.412333333333334E+009;1.803391128778458E-001;1.622779876925051E-003;-2.155035268515348E-003;5.895199137739837E-004;
2.412500000000000E+009;1.806090921163559E-001;-6.587572279386222E-004;-2.310064621269703E-003;6.860144203528762E-004;
2.412666666666667E+009;1.809839457273483E-001;-3.053806954994798E-003;-2.292026998475194E-003;7.432494894601405E-004;
2.412833333333334E+009;1.817103922367096E-001;-5.409503821283579E-003;-2.328912494704127E-003;7.119921501725912E-004;
2.413000000000000E+009;1.824042350053787E-001;-7.650366052985191E-003;-2.572210272774100E-003;1.066578435711563E-003;
2.413166666666667E+009;1.830269694328308E-001;-9.685314260423183E-003;-2.480903640389442E-003;1.031711464747787E-003;
2.413333333333334E+009;1.841432005167007E-001;-1.205201447010040E-002;-2.598993247374892E-003;1.348209450952709E-003;
2.413500000000000E+009;1.849455684423447E-001;-1.428551599383354E-002;-2.612682525068522E-003;1.485565793700516E-003;
2.413666666666667E+009;1.859886348247528E-001;-1.626891829073429E-002;-2.440936630591750E-003;1.663548056967557E-003;
2.413833333333334E+009;1.871062070131302E-001;-1.821035519242287E-002;-2.504247939214110E-003;1.952606718987227E-003;
2.414000000000000E+009;1.881331801414490E-001;-2.021832577884197E-002;-2.321004401892424E-003;2.189754042774439E-003;
2.414166666666667E+009;1.893154680728912E-001;-2.184502780437470E-002;-2.200952498242259E-003;2.272245474159718E-003;
2.414333333333334E+009;1.901241987943649E-001;-2.383847162127495E-002;-2.101536607369781E-003;2.390793291851878E-003;
2.414500000000000E+009;1.915154308080673E-001;-2.528535202145577E-002;-1.972680212929845E-003;2.594866557046771E-003;
2.414666666666667E+009;1.925605535507202E-001;-2.669131569564343E-002;-1.867163577117026E-003;2.598953200504184E-003;
2.414833333333334E+009;1.934717148542404E-001;-2.821813896298409E-002;-1.581620075739920E-003;2.750884974375367E-003;
2.415000000000000E+009;1.946215033531189E-001;-2.941335923969746E-002;-1.533371745608747E-003;2.794611267745495E-003;
2.415166666666667E+009;1.957323998212814E-001;-3.041279874742031E-002;-1.315531320869923E-003;2.831552177667618E-003;
2.415333333333334E+009;1.968164891004562E-001;-3.155167400836945E-002;-1.204936997964978E-003;2.913326025009155E-003;
2.415500000000000E+009;1.978271305561066E-001;-3.222684562206268E-002;-1.045085373334587E-003;2.864775015041232E-003;
2.415666666666667E+009;1.988328397274017E-001;-3.305476531386375E-002;-9.154004510492086E-004;3.073475323617458E-003;
2.415833333333334E+009;1.995713412761688E-001;-3.375392407178879E-002;-7.749497308395803E-004;3.008512314409018E-003;
2.416000000000000E+009;2.002905905246735E-001;-3.420432284474373E-002;-6.418438279069960E-004;3.069211263209581E-003;
2.416166666666667E+009;2.009888291358948E-001;-3.496639057993889E-002;-4.921667277812958E-004;3.012665547430515E-003;
2.416333333333334E+009;2.015834003686905E-001;-3.524905070662499E-002;-3.606630198191851E-004;3.197308629751205E-003;
2.416500000000000E+009;2.020444869995117E-001;-3.568363934755325E-002;-3.627536352723837E-004;2.952154027298093E-003;
2.416666666666667E+009;2.024015486240387E-001;-3.605492785573006E-002;-1.686528703430668E-004;3.053737571462989E-003;
2.416833333333334E+009;2.024674266576767E-001;-3.616553544998169E-002;-4.390246249386109E-005;2.908978145569563E-003;
2.417000000000000E+009;2.027206867933273E-001;-3.639429435133934E-002;6.487558857770637E-005;3.038101829588413E-003;
2.417166666666667E+009;2.023772746324539E-001;-3.620421513915062E-002;2.575987600721419E-004;3.026735503226519E-003;
2.417333333333334E+009;2.022558152675629E-001;-3.624085709452629E-002;3.848578198812902E-004;2.822890877723694E-003;
2.417500000000000E+009;2.020385712385178E-001;-3.622959554195404E-002;6.196713657118380E-004;2.917488571256399E-003;
2.417666666666667E+009;2.016142010688782E-001;-3.620698675513268E-002;8.310670964419842E-004;2.962488913908601E-003;
2.417833333333334E+009;2.013009041547775E-001;-3.608417138457298E-002;8.821200462989509E-004;2.754708053544164E-003;
2.418000000000000E+009;2.006545215845108E-001;-3.578293323516846E-002;1.008736086077988E-003;2.687977859750390E-003;
2.418166666666667E+009;2.000632435083389E-001;-3.577148914337158E-002;1.014084555208683E-003;2.689374377951026E-003;
2.418333333333334E+009;1.994194239377976E-001;-3.581662848591805E-002;1.229475950822234E-003;2.562417648732662E-003;
2.418500000000000E+009;1.985041946172714E-001;-3.576299920678139E-002;1.282062381505966E-003;2.584079280495644E-003;
2.418666666666667E+009;1.978261768817902E-001;-3.571937233209610E-002;1.383684459142387E-003;2.347715198993683E-003;
2.418833333333334E+009;1.967097520828247E-001;-3.613973408937454E-002;1.521234516985714E-003;2.300261752679944E-003;
2.419000000000000E+009;1.956350952386856E-001;-3.638786822557449E-002;1.591756939888001E-003;2.194656990468502E-003;
2.419166666666667E+009;1.946336925029755E-001;-3.682649880647659E-002;1.580459997057915E-003;1.911267521791160E-003;
2.419333333333334E+009;1.933476030826569E-001;-3.737558797001839E-002;1.637953682802618E-003;1.805014908313751E-003;
2.419500000000000E+009;1.920485049486160E-001;-3.784535825252533E-002;1.662875758484006E-003;1.739858416840434E-003;
2.419666666666667E+009;1.906430423259735E-001;-3.859864547848702E-002;1.570100430399180E-003;1.589442370459437E-003;
2.419833333333334E+009;1.893147826194763E-001;-3.936800733208656E-002;1.621783711016178E-003;1.448999275453389E-003;
2.420000000000000E+009;1.880630701780319E-001;-4.047690704464912E-002;1.512941555120051E-003;1.389529206790030E-003;
2.420166666666667E+009;1.864665597677231E-001;-4.140836745500565E-002;1.507913460955024E-003;1.221744110807777E-003;
2.420333333333334E+009;1.851448863744736E-001;-4.249627515673637E-002;1.526958658359945E-003;1.335273496806622E-003;
2.420500000000000E+009;1.835187077522278E-001;-4.375800117850304E-002;1.541036879643798E-003;1.191379851661623E-003;
2.420666666666667E+009;1.819825172424316E-001;-4.499999061226845E-002;1.434860401786864E-003;1.050336170010269E-003;
2.420833333333334E+009;1.805082112550736E-001;-4.656689241528511E-002;1.448475988581777E-003;1.115878229029477E-003;
2.421000000000000E+009;1.791065782308579E-001;-4.810238257050514E-002;1.323572942055762E-003;1.162146800197661E-003;
2.421166666666667E+009;1.777337640523911E-001;-4.971097409725189E-002;1.345184748061001E-003;1.206888468004763E-003;
2.421333333333334E+009;1.762940585613251E-001;-5.117112025618553E-002;1.413263147696853E-003;1.123731955885887E-003;
2.421500000000000E+009;1.749705523252487E-001;-5.302944779396057E-002;1.379982219077647E-003;9.922388708218932E-004;
2.421666666666667E+009;1.739364415407181E-001;-5.460339039564133E-002;1.475345692597330E-003;1.103379530832171E-003;
2.421833333333334E+009;1.727790683507919E-001;-5.643404647707939E-002;1.497133984230459E-003;1.106005162000656E-003;
2.422000000000000E+009;1.715896725654602E-001;-5.818261206150055E-002;1.342541305348277E-003;8.853931794874370E-004;
2.422166666666667E+009;1.707030981779099E-001;-5.993952229619026E-002;1.476620091125369E-003;9.524032939225435E-004;
2.422333333333334E+009;1.699260026216507E-001;-6.202888116240501E-002;1.502485829405487E-003;8.294144063256681E-004;
2.422500000000000E+009;1.691179275512695E-001;-6.402391940355301E-002;1.288062310777605E-003;8.039028616622090E-004;
2.422666666666667E+009;1.684959679841995E-001;-6.574742496013641E-002;1.460908562876284E-003;7.012485875748098E-004;
2.422833333333334E+009;1.680634170770645E-001;-6.760399043560028E-002;1.367671764455736E-003;8.561545400880277E-004;
2.423000000000000E+009;1.675256341695786E-001;-6.956487894058228E-002;1.402799156494439E-003;7.947628037072718E-004;
2.423166666666667E+009;1.671077460050583E-001;-7.144369184970856E-002;1.335900160484016E-003;7.826467044651508E-004;
2.423333333333334E+009;1.669813394546509E-001;-7.323356717824936E-002;1.378938555717468E-003;7.669323240406811E-004;
2.423500000000000E+009;1.668485403060913E-001;-7.497362792491913E-002;1.478048972785473E-003;6.144623039290309E-004;
2.423666666666667E+009;1.669604033231735E-001;-7.688694447278976E-002;1.425647060386837E-003;8.752643479965627E-004;
2.423833333333334E+009;1.668554544448853E-001;-7.856462150812149E-002;1.279279356822372E-003;6.710793823003769E-004;
2.424000000000000E+009;1.670216768980026E-001;-8.019110560417175E-002;1.487922971136868E-003;7.230142364278436E-004;
2.424166666666667E+009;1.669152677059174E-001;-8.174734562635422E-002;1.463196240365505E-003;6.990653346292675E-004;
2.424333333333334E+009;1.672137826681137E-001;-8.326821029186249E-002;1.499456586316228E-003;6.983166094869375E-004;
2.424500000000000E+009;1.675669550895691E-001;-8.489622175693512E-002;1.591082429513335E-003;5.541839054785669E-004;
2.424666666666667E+009;1.676050275564194E-001;-8.622961491346359E-002;1.517571276053786E-003;6.684272084385157E-004;
2.424833333333334E+009;1.681759059429169E-001;-8.746151626110077E-002;1.446668989956379E-003;6.363681168295443E-004;
2.425000000000000E+009;1.685495823621750E-001;-8.861795812845230E-002;1.561359851621091E-003;5.423711263574660E-004;
2.425166666666667E+009;1.688242703676224E-001;-8.980195224285126E-002;1.547004445455968E-003;5.656382418237627E-004;
2.425333333333334E+009;1.691674888134003E-001;-9.079159796237946E-002;1.460968982428312E-003;3.518891462590545E-004;
2.425500000000000E+009;1.695226430892944E-001;-9.181465953588486E-002;1.647536060772836E-003;5.187864298932254E-004;
2.425666666666667E+009;1.699165105819702E-001;-9.250979870557785E-002;1.626087003387511E-003;3.799298719968647E-004;
2.425833333333334E+009;1.703146547079086E-001;-9.345975518226624E-002;1.577024813741446E-003;3.585948143154383E-004;
2.426000000000000E+009;1.706738919019699E-001;-9.395202249288559E-002;1.395935774780810E-003;5.912073538638651E-004;
2.426166666666667E+009;1.711345613002777E-001;-9.447690099477768E-002;1.598543021827936E-003;3.989576944150031E-004;
2.426333333333334E+009;1.712148934602737E-001;-9.510548412799835E-002;1.709652831777930E-003;3.174989251419902E-004;
2.426500000000000E+009;1.716594547033310E-001;-9.557572752237320E-002;1.917616114951670E-003;3.897284041158855E-004;
2.426666666666667E+009;1.719590574502945E-001;-9.604060649871826E-002;1.735533238388598E-003;5.064741126261652E-004;
2.426833333333334E+009;1.721948087215424E-001;-9.644462168216705E-002;1.791848218999803E-003;3.221916558686644E-004;
2.427000000000000E+009;1.722589731216431E-001;-9.694555401802063E-002;1.933477469719946E-003;2.317920880159363E-004;
2.427166666666667E+009;1.722617149353027E-001;-9.710638970136643E-002;2.008224371820688E-003;2.229436358902603E-004;
2.427333333333334E+009;1.721721440553665E-001;-9.760094434022903E-002;1.979730324819684E-003;2.296228049090132E-004;
2.427500000000000E+009;1.720647811889648E-001;-9.799813479185104E-002;2.018602099269629E-003;8.462950063403696E-005;
2.427666666666667E+009;1.718649268150330E-001;-9.819674491882324E-002;2.166072139516473E-003;-3.257130629208405E-006;
2.427833333333334E+009;1.715157181024551E-001;-9.862739592790604E-002;2.187571488320828E-003;-9.265350672649220E-005;
