# Version 1.00
#
freq[Hz];re:Trc1_S11;im:Trc1_S11;re:Trc2_S21;im:Trc2_S21;
2.400000000000000E+009;1.508471667766571E-001;1.125726923346520E-001;1.501466613262892E-004;-3.452933859080076E-003;
2.400166666666667E+009;1.506395637989044E-001;1.104702129960060E-001;1.065352989826351E-004;-3.356512635946274E-003;
2.400333333333334E+009;1.510340869426727E-001;1.083744764328003E-001;8.569851343054324E-005;-3.419617656618357E-003;
2.400500000000000E+009;1.511266380548477E-001;1.056981831789017E-001;7.480625936295837E-005;-3.567710286006331E-003;
2.400666666666667E+009;1.514284461736679E-001;1.033630296587944E-001;-3.260522134951316E-005;-3.590666456148028E-003;
2.400833333333334E+009;1.516177356243134E-001;1.006767973303795E-001;5.106376647745492E-006;-3.406698815524578E-003;
2.401000000000000E+009;1.519306451082230E-001;9.788038581609726E-002;-1.499757054261863E-004;-3.472144016996026E-003;
2.401166666666667E+009;1.520784944295883E-001;9.532443434000015E-002;-2.460594987496734E-004;-3.752824850380421E-003;
2.401333333333334E+009;1.526777148246765E-001;9.255902469158173E-002;-4.588252631947398E-004;-3.826680127531290E-003;
2.401500000000000E+009;1.532202810049057E-001;8.987000584602356E-002;-6.994041614234448E-004;-3.748052055016160E-003;
2.401666666666667E+009;1.537120789289475E-001;8.729492872953415E-002;-7.859511533752084E-004;-3.966553136706352E-003;
2.401833333333334E+009;1.543143540620804E-001;8.449670672416687E-002;-9.405574528500438E-004;-3.889504820108414E-003;
2.402000000000000E+009;1.553733497858048E-001;8.199360221624374E-002;-1.283676945604384E-003;-3.740715561434627E-003;
2.402166666666667E+009;1.563302278518677E-001;7.939609885215759E-002;-1.461092266254127E-003;-3.695528022944927E-003;
2.402333333333334E+009;1.571916192770004E-001;7.693242281675339E-002;-1.677804742939770E-003;-3.722242545336485E-003;
2.402500000000000E+009;1.584877371788025E-001;7.455167174339294E-002;-1.922207069583237E-003;-3.676019608974457E-003;
2.402666666666667E+009;1.596769839525223E-001;7.233272492885590E-002;-2.142638899385929E-003;-3.405003109946847E-003;
2.402833333333334E+009;1.610682159662247E-001;7.009609043598175E-002;-2.413346199318767E-003;-3.328790422528982E-003;
2.403000000000000E+009;1.625655591487885E-001;6.783122569322586E-002;-2.452438231557608E-003;-2.971177920699120E-003;
2.403166666666667E+009;1.644459217786789E-001;6.570748239755631E-002;-2.739836461842060E-003;-2.793695777654648E-003;
2.403333333333334E+009;1.661226153373718E-001;6.353513151407242E-002;-2.837099134922028E-003;-2.504127100110054E-003;
2.403500000000000E+009;1.680476814508438E-001;6.173432245850563E-002;-2.764304168522358E-003;-2.256178064271808E-003;
2.403666666666667E+009;1.697493791580200E-001;5.981707200407982E-002;-2.771680708974600E-003;-2.066908869892359E-003;
2.403833333333334E+009;1.716315150260925E-001;5.799915641546249E-002;-2.880998887121677E-003;-1.922917668707669E-003;
2.404000000000000E+009;1.730593889951706E-001;5.612947791814804E-002;-2.792695304378867E-003;-1.851041335612536E-003;
2.404166666666667E+009;1.750150620937347E-001;5.477051064372063E-002;-2.767700003460050E-003;-1.449607894755900E-003;
2.404333333333334E+009;1.767132133245468E-001;5.313390120863915E-002;-2.796713029965758E-003;-1.516813295893371E-003;
2.404500000000000E+009;1.783713102340698E-001;5.181453749537468E-002;-2.702507888898253E-003;-1.378384535200894E-003;
2.404666666666667E+009;1.800797730684280E-001;5.050491541624069E-002;-2.651354996487498E-003;-1.253274152986705E-003;
2.404833333333334E+009;1.818113923072815E-001;4.940186813473702E-002;-2.604632871225476E-003;-1.244716695509851E-003;
2.405000000000000E+009;1.831768304109573E-001;4.857207089662552E-002;-2.514655003324151E-003;-1.150744967162609E-003;
2.405166666666667E+009;1.847613155841827E-001;4.796443134546280E-002;-2.384819090366364E-003;-1.153356744907796E-003;
2.405333333333334E+009;1.862224936485291E-001;4.731279984116554E-002;-2.372937742620707E-003;-1.101074740290642E-003;
2.405500000000000E+009;1.877409219741821E-001;4.674793034791946E-002;-2.479949733242393E-003;-9.098422015085816E-004;
2.405666666666667E+009;1.889168769121170E-001;4.624994099140167E-002;-2.469743834808469E-003;-8.262700284831226E-004;
2.405833333333334E+009;1.902701705694199E-001;4.589810222387314E-002;-2.437213202938438E-003;-9.807156166061759E-004;
2.406000000000000E+009;1.912597864866257E-001;4.562406614422798E-002;-2.558444626629353E-003;-9.360309340991080E-004;
2.406166666666667E+009;1.924117654561997E-001;4.520352557301521E-002;-2.539274981245399E-003;-7.240834529511631E-004;
2.406333333333334E+009;1.933873444795609E-001;4.505296051502228E-002;-2.460253192111850E-003;-8.563126903027296E-004;
2.406500000000000E+009;1.942912638187408E-001;4.498177766799927E-002;-2.431515837088227E-003;-7.559338118880987E-004;
2.406666666666667E+009;1.948930174112320E-001;4.480821266770363E-002;-2.511789323762059E-003;-4.889570991508663E-004;
2.406833333333334E+009;1.954840123653412E-001;4.467807337641716E-002;-2.407994354143739E-003;-5.803562817163765E-004;
2.407000000000000E+009;1.958081275224686E-001;4.471253976225853E-002;-2.487763762474060E-003;-5.137718981131911E-004;
2.407166666666667E+009;1.963636726140976E-001;4.421676322817802E-002;-2.588006667792797E-003;-4.791844985447824E-004;
2.407333333333334E+009;1.963461488485336E-001;4.423689469695091E-002;-2.601010957732797E-003;-3.215745673514903E-004;
2.407500000000000E+009;1.963828206062317E-001;4.420590400695801E-002;-2.444367622956634E-003;-2.864306734409183E-004;
2.407666666666667E+009;1.964766085147858E-001;4.393869265913963E-002;-2.569950418546796E-003;-1.245488383574411E-004;
2.407833333333334E+009;1.959211975336075E-001;4.366052895784378E-002;-2.675726544111967E-003;-1.408776297466829E-004;
2.408000000000000E+009;1.959638297557831E-001;4.329165816307068E-002;-2.400926314294338E-003;-1.058156121871434E-004;
2.408166666666667E+009;1.953762769699097E-001;4.281652346253395E-002;-2.570106880739331E-003;1.782092731446028E-004;
2.408333333333334E+009;1.950728595256805E-001;4.216125234961510E-002;-2.681054640561342E-003;1.060022477759048E-004;
2.408500000000000E+009;1.943036019802094E-001;4.183707386255264E-002;-2.716490998864174E-003;2.271550620207563E-004;
2.408666666666667E+009;1.936374008655548E-001;4.111970588564873E-002;-2.551422221586108E-003;2.655019052326679E-004;
2.408833333333334E+009;1.931518614292145E-001;4.025506600737572E-002;-2.643895102664828E-003;4.559540830086917E-004;
2.409000000000000E+009;1.921747177839279E-001;3.939235210418701E-002;-2.595205325633287E-003;6.461986340582371E-004;
2.409166666666667E+009;1.913318634033203E-001;3.829251974821091E-002;-2.493503736332059E-003;6.414305535145104E-004;
2.409333333333334E+009;1.903883069753647E-001;3.741585835814476E-002;-2.376716816797853E-003;5.615674308501184E-004;
2.409500000000000E+009;1.892093122005463E-001;3.599352762103081E-002;-2.364314626902342E-003;6.498806760646403E-004;
2.409666666666667E+009;1.883663237094879E-001;3.456074744462967E-002;-2.249047625809908E-003;8.119538542814553E-004;
2.409833333333334E+009;1.873400509357452E-001;3.314474597573280E-002;-2.106908475980163E-003;8.155229152180255E-004;
2.410000000000000E+009;1.863909959793091E-001;3.168088942766190E-002;-2.060766331851482E-003;8.083546417765319E-004;
2.410166666666667E+009;1.854107677936554E-001;2.997155860066414E-002;-1.925023621879518E-003;9.151538251899183E-004;
2.410333333333334E+009;1.846636831760407E-001;2.818871848285198E-002;-1.665347372181714E-003;7.411073311232030E-004;
2.410500000000000E+009;1.836818754673004E-001;2.630943991243839E-002;-1.738368184305728E-003;9.394381195306778E-004;
2.410666666666667E+009;1.829370707273483E-001;2.422324568033218E-002;-1.649669837206602E-003;8.720693876966834E-004;
2.410833333333334E+009;1.822271049022675E-001;2.211249247193337E-002;-1.808093860745430E-003;7.865650695748627E-004;
2.411000000000000E+009;1.815043538808823E-001;2.011953480541706E-002;-1.651436323300004E-003;8.503282442688942E-004;
2.411166666666667E+009;1.810445934534073E-001;1.796937361359596E-002;-1.702138804830611E-003;6.580259068869054E-004;
2.411333333333334E+009;1.805734336376190E-001;1.567612960934639E-002;-1.748388749547303E-003;5.790007999166846E-004;
2.411500000000000E+009;1.801604628562927E-001;1.314522419124842E-002;-1.620416296645999E-003;5.950695485807955E-004;
2.411666666666667E+009;1.798614859580994E-001;1.104877144098282E-002;-1.847801031544805E-003;5.742713692598045E-004;
2.411833333333334E+009;1.795456409454346E-001;8.704426698386669E-003;-1.935811713337898E-003;5.046956357546151E-004;
2.412000000000000E+009;1.797066181898117E-001;6.196198053658009E-003;-2.055535791441798E-003;5.393885076045990E-004;
2.412166666666667E+009;1.798459440469742E-001;4.046396352350712E-003;-2.041782485321164E-003;6.295439670793712E-004;
2.412333333333334E+009;1.798801720142365E-001;1.711163087747991E-003;-2.035415265709162E-003;7.015864830464125E-004;
2.412500000000000E+009;1.804170906543732E-001;-5.365071701817215E-004;-2.259008120745421E-003;7.286829641088843E-004;
2.412666666666667E+009;1.808493435382843E-001;-3.011986147612333E-003;-2.060724887996912E-003;8.717311429791153E-004;
2.412833333333334E+009;1.816227734088898E-001;-5.394996143877506E-003;-2.462519798427820E-003;9.320802055299282E-004;
2.413000000000000E+009;1.823073923587799E-001;-7.516616955399513E-003;-2.543338108807802E-003;1.062993193045259E-003;
2.413166666666667E+009;1.830352693796158E-001;-9.660924784839153E-003;-2.550397533923388E-003;1.209836103953421E-003;
2.413333333333334E+009;1.839633882045746E-001;-1.193807926028967E-002;-2.521906280890107E-003;1.407406525686383E-003;
2.413500000000000E+009;1.847863495349884E-001;-1.418450754135847E-002;-2.398734213784337E-003;1.692700781859458E-003;
2.413666666666667E+009;1.859493553638458E-001;-1.613167487084866E-002;-2.614726312458515E-003;1.825801795348525E-003;
2.413833333333334E+009;1.869363188743591E-001;-1.814386993646622E-002;-2.362101105973125E-003;1.883175456896424E-003;
2.414000000000000E+009;1.879611760377884E-001;-2.013917453587055E-002;-2.350244903936982E-003;2.028443850576878E-003;
2.414166666666667E+009;1.890672445297241E-001;-2.171176671981812E-002;-2.169533167034388E-003;2.304203808307648E-003;
2.414333333333334E+009;1.901788860559464E-001;-2.377005666494370E-002;-2.049518050625920E-003;2.367848996073008E-003;
2.414500000000000E+009;1.914221644401550E-001;-2.519364096224308E-002;-2.036577090620995E-003;2.554817823693156E-003;
2.414666666666667E+009;1.923814564943314E-001;-2.676104567945004E-002;-1.833916758187115E-003;2.625512657687068E-003;
2.414833333333334E+009;1.934542357921600E-001;-2.804219536483288E-002;-1.511657377704978E-003;2.880876883864403E-003;
2.415000000000000E+009;1.945028007030487E-001;-2.932962588965893E-002;-1.372314058244228E-003;2.964190207421780E-003;
2.415166666666667E+009;1.958067417144775E-001;-3.033468127250671E-002;-1.371551887132227E-003;2.771495142951608E-003;
2.415333333333334E+009;1.968317776918411E-001;-3.139948844909668E-002;-1.207150518894196E-003;2.852313686162233E-003;
2.415500000000000E+009;1.979500949382782E-001;-3.218627721071243E-002;-1.005098689347506E-003;2.942701103165746E-003;
2.415666666666667E+009;1.987740993499756E-001;-3.295444697141647E-002;-9.611255954951048E-004;2.985948231071234E-003;
2.415833333333334E+009;1.995237469673157E-001;-3.372428566217423E-002;-7.214828510768712E-004;3.005508566275239E-003;
2.416000000000000E+009;2.003678381443024E-001;-3.429082036018372E-002;-7.027735118754208E-004;3.073765430599451E-003;
2.416166666666667E+009;2.010315358638763E-001;-3.479621186852455E-002;-4.615332582034171E-004;3.079873509705067E-003;
2.416333333333334E+009;2.016417384147644E-001;-3.516816720366478E-002;-3.926857607439160E-004;3.200779436156154E-003;
2.416500000000000E+009;2.020328342914581E-001;-3.559252619743347E-002;-2.756710164248943E-004;3.031512722373009E-003;
2.416666666666667E+009;2.023126482963562E-001;-3.601774573326111E-002;-8.350014104507864E-005;3.135300008580089E-003;
2.416833333333334E+009;2.025188952684403E-001;-3.599430248141289E-002;7.160342647694051E-005;3.133657388389111E-003;
2.417000000000000E+009;2.027201503515244E-001;-3.619718924164772E-002;8.464604616165161E-005;2.935555065050721E-003;
2.417166666666667E+009;2.024746835231781E-001;-3.613594174385071E-002;3.353281645104289E-004;3.080484457314014E-003;
2.417333333333334E+009;2.022583186626434E-001;-3.608092293143272E-002;4.579802043735981E-004;3.006202401593328E-003;
2.417500000000000E+009;2.021143585443497E-001;-3.619512543082237E-002;5.512050120159984E-004;3.014168003574014E-003;
2.417666666666667E+009;2.016192525625229E-001;-3.606936708092690E-002;8.641663007438183E-004;2.845224924385548E-003;
2.417833333333334E+009;2.012896835803986E-001;-3.588572144508362E-002;9.094226406887174E-004;2.889745403081179E-003;
2.418000000000000E+009;2.007398456335068E-001;-3.568550571799278E-002;9.720730013214052E-004;2.812460297718644E-003;
2.418166666666667E+009;2.001667022705078E-001;-3.569358959794045E-002;9.749281452968717E-004;2.761095995083451E-003;
2.418333333333334E+009;1.993696242570877E-001;-3.560104221105576E-002;1.249411725439131E-003;2.650053473189473E-003;
2.418500000000000E+009;1.985598951578140E-001;-3.566965088248253E-002;1.336920657195151E-003;2.527485368773341E-003;
2.418666666666667E+009;1.977616101503372E-001;-3.573710843920708E-002;1.304948586039245E-003;2.466315403580666E-003;
2.418833333333334E+009;1.967364996671677E-001;-3.589169681072235E-002;1.567761879414320E-003;2.199715469032526E-003;
2.419000000000000E+009;1.956957280635834E-001;-3.623367473483086E-002;1.660323236137629E-003;2.144189551472664E-003;
2.419166666666667E+009;1.946340501308441E-001;-3.662771359086037E-002;1.538959098979831E-003;1.981790876016021E-003;
2.419333333333334E+009;1.934743374586105E-001;-3.718225657939911E-002;1.612047082744539E-003;1.917136367410421E-003;
2.419500000000000E+009;1.921099126338959E-001;-3.766377642750740E-002;1.613735221326351E-003;1.835015835240483E-003;
2.419666666666667E+009;1.907208561897278E-001;-3.854284808039665E-002;1.645741518586874E-003;1.646894495934248E-003;
2.419833333333334E+009;1.893467456102371E-001;-3.936474025249481E-002;1.559997210279107E-003;1.453326782211661E-003;
2.420000000000000E+009;1.880452334880829E-001;-4.019742086529732E-002;1.618714188225567E-003;1.386899733915925E-003;
2.420166666666667E+009;1.866043061017990E-001;-4.127711430191994E-002;1.432971446774900E-003;1.406052033416927E-003;
2.420333333333334E+009;1.851425170898438E-001;-4.248560592532158E-002;1.635156804695725E-003;1.349582453258336E-003;
2.420500000000000E+009;1.835578829050064E-001;-4.383527114987373E-002;1.546781277284026E-003;1.281036529690027E-003;
2.420666666666667E+009;1.822008192539215E-001;-4.485439881682396E-002;1.498551690019667E-003;1.258903183043003E-003;
2.420833333333334E+009;1.804830431938171E-001;-4.648656025528908E-002;1.404244801960886E-003;1.169858267530799E-003;
2.421000000000000E+009;1.792298555374146E-001;-4.807557910680771E-002;1.500338083133102E-003;1.252643764019013E-003;
2.421166666666667E+009;1.780100464820862E-001;-4.969428852200508E-002;1.451385207474232E-003;1.194607233628631E-003;
2.421333333333334E+009;1.761909723281860E-001;-5.107386037707329E-002;1.399730914272368E-003;1.111844088882208E-003;
2.421500000000000E+009;1.750931888818741E-001;-5.314075946807861E-002;1.446645474061370E-003;1.131858909502626E-003;
2.421666666666667E+009;1.739069670438767E-001;-5.471084639430046E-002;1.574233639985323E-003;1.152051263488829E-003;
2.421833333333334E+009;1.729236245155335E-001;-5.661994591355324E-002;1.475722878240049E-003;1.085672061890364E-003;
2.422000000000000E+009;1.716724038124085E-001;-5.818032100796700E-002;1.417483319528401E-003;9.037983836606145E-004;
2.422166666666667E+009;1.710267364978790E-001;-6.026650965213776E-002;1.510951551608741E-003;9.209249983541668E-004;
2.422333333333334E+009;1.699722558259964E-001;-6.215410679578781E-002;1.516078133136034E-003;9.127765079028904E-004;
2.422500000000000E+009;1.693479120731354E-001;-6.398925930261612E-002;1.456512953154743E-003;9.238797356374562E-004;
2.422666666666667E+009;1.686397939920425E-001;-6.572898477315903E-002;1.537159318104386E-003;8.955913945101202E-004;
2.422833333333334E+009;1.682991981506348E-001;-6.772714108228684E-002;1.629716716706753E-003;8.597414707764983E-004;
2.423000000000000E+009;1.677668094635010E-001;-6.974849849939346E-002;1.563047873787582E-003;8.671362302266061E-004;
2.423166666666667E+009;1.673626154661179E-001;-7.160764932632446E-002;1.534763840027154E-003;7.832395494915545E-004;
2.423333333333334E+009;1.671607941389084E-001;-7.347744703292847E-002;1.539702177979052E-003;6.223263917490840E-004;
2.423500000000000E+009;1.669044643640518E-001;-7.518382370471954E-002;1.541698700748384E-003;7.871952839195728E-004;
2.423666666666667E+009;1.669317185878754E-001;-7.711305469274521E-002;1.430143020115793E-003;7.796912686899304E-004;
2.423833333333334E+009;1.667834371328354E-001;-7.861595600843430E-002;1.648743404075503E-003;6.086471839807928E-004;
2.424000000000000E+009;1.669225692749023E-001;-8.044135570526123E-002;1.571613131090999E-003;7.109100115485489E-004;
2.424166666666667E+009;1.669988930225372E-001;-8.198889344930649E-002;1.712075085379183E-003;5.046757869422436E-004;
2.424333333333334E+009;1.672696471214294E-001;-8.349087089300156E-002;1.620299415662885E-003;5.177097627893090E-004;
2.424500000000000E+009;1.674853563308716E-001;-8.511765301227570E-002;1.627972000278533E-003;6.792316562496126E-004;
2.424666666666667E+009;1.677159965038300E-001;-8.647695183753967E-002;1.548956613987684E-003;4.882300854660571E-004;
2.424833333333334E+009;1.681639403104782E-001;-8.769117295742035E-002;1.697989529930055E-003;5.599548458121717E-004;
2.425000000000000E+009;1.685375422239304E-001;-8.877066522836685E-002;1.586998929269612E-003;5.199897568672895E-004;
2.425166666666667E+009;1.687688976526260E-001;-8.994355052709580E-002;1.622959738597274E-003;3.645863325800747E-004;
2.425333333333334E+009;1.690587103366852E-001;-9.086205810308456E-002;1.621687086299062E-003;3.942505572922528E-004;
2.425500000000000E+009;1.695344597101212E-001;-9.191306680440903E-002;1.666690572164953E-003;3.372310602571815E-004;
2.425666666666667E+009;1.698587387800217E-001;-9.262087941169739E-002;1.537944190204144E-003;2.304087392985821E-004;
2.425833333333334E+009;1.701642125844955E-001;-9.351005405187607E-002;1.681014429777861E-003;3.568171232473105E-004;
2.426000000000000E+009;1.706308424472809E-001;-9.396303445100784E-002;1.610450097359717E-003;3.148217510897666E-004;
2.426166666666667E+009;1.709694415330887E-001;-9.463638067245483E-002;1.895111636258662E-003;4.148152074776590E-004;
2.426333333333334E+009;1.710882931947708E-001;-9.520827978849411E-002;1.772611634805799E-003;2.599282888695598E-004;
2.426500000000000E+009;1.714906692504883E-001;-9.568503499031067E-002;1.769157359376550E-003;2.548187039792538E-004;
2.426666666666667E+009;1.717669516801834E-001;-9.608367085456848E-002;1.854588277637959E-003;2.148781204596162E-004;
2.426833333333334E+009;1.720821410417557E-001;-9.655969589948654E-002;1.911467639729381E-003;4.332537937443703E-004;
2.427000000000000E+009;1.721065342426300E-001;-9.694125503301621E-002;1.934680971316993E-003;3.244832914788276E-004;
2.427166666666667E+009;1.722115874290466E-001;-9.723034501075745E-002;1.925982651300728E-003;1.267120969714597E-004;
2.427333333333334E+009;1.720927953720093E-001;-9.764139354228973E-002;2.028533490374684E-003;1.931013393914327E-004;
2.427500000000000E+009;1.718912124633789E-001;-9.798310697078705E-002;2.136804861947894E-003;9.897761628963053E-005;
2.427666666666667E+009;1.716363579034805E-001;-9.828255325555801E-002;2.221222734078765E-003;-1.222453829541337E-005;
2.427833333333334E+009;1.713363230228424E-001;-9.854678809642792E-002;2.293339930474758E-003;-7.348114013439044E-005;
