# Version 1.00
#
freq[Hz];re:Trc1_S11;im:Trc1_S11;re:Trc2_S21;im:Trc2_S21;
2.400000000000000E+009;1.603939235210419E-001;5.702900886535645E-002;3.313174704089761E-003;2.253326354548335E-003;
2.400166666666667E+009;1.606751084327698E-001;5.553123354911804E-002;3.267018124461174E-003;2.061006380245090E-003;
2.400333333333334E+009;1.604190617799759E-001;5.357090756297112E-002;3.449023235589266E-003;1.933753956109285E-003;
2.400500000000000E+009;1.608383357524872E-001;5.187594518065453E-002;3.452391130849719E-003;1.956412335857749E-003;
2.400666666666667E+009;1.608903557062149E-001;4.995280876755714E-002;3.677011700347066E-003;1.731771277263761E-003;
2.400833333333334E+009;1.611683964729309E-001;4.830073937773705E-002;3.621913492679596E-003;1.704553375020623E-003;
2.401000000000000E+009;1.612666696310043E-001;4.635412245988846E-002;3.672024467960000E-003;1.557067618705332E-003;
2.401166666666667E+009;1.615818589925766E-001;4.431368783116341E-002;3.875805530697107E-003;1.435680198483169E-003;
2.401333333333334E+009;1.617446541786194E-001;4.252401366829872E-002;3.871886292472482E-003;1.192614552564919E-003;
2.401500000000000E+009;1.620168834924698E-001;4.074201360344887E-002;3.773597767576575E-003;9.619584307074547E-004;
2.401666666666667E+009;1.624579578638077E-001;3.886822611093521E-002;3.813751740381122E-003;9.014137904159725E-004;
2.401833333333334E+009;1.630780994892120E-001;3.708122298121452E-002;3.759825835004449E-003;6.214944878593087E-004;
2.402000000000000E+009;1.632734835147858E-001;3.520771116018295E-002;3.934214357286692E-003;5.183372413739562E-004;
2.402166666666667E+009;1.638803184032440E-001;3.343625739216805E-002;4.004884976893663E-003;3.477397258393467E-004;
2.402333333333334E+009;1.642580479383469E-001;3.182042017579079E-002;3.771578660234809E-003;2.351031725993380E-004;
2.402500000000000E+009;1.649746000766754E-001;3.018126077950001E-002;3.894264344125986E-003;4.282275767764077E-005;
2.402666666666667E+009;1.658078134059906E-001;2.863437868654728E-002;3.848503110930324E-003;-6.334899080684409E-005;
2.402833333333334E+009;1.663348376750946E-001;2.708879671990871E-002;4.027770366519690E-003;-1.293364330194891E-004;
2.403000000000000E+009;1.669089943170548E-001;2.575528249144554E-002;3.712371923029423E-003;-1.890351413749158E-004;
2.403166666666667E+009;1.677360981702805E-001;2.421642653644085E-002;3.658178029581904E-003;-2.492954663466662E-004;
2.403333333333334E+009;1.684699952602387E-001;2.310557290911675E-002;3.448935691267252E-003;-4.375204152893275E-004;
2.403500000000000E+009;1.690678894519806E-001;2.187643386423588E-002;3.606166923418641E-003;-5.161000299267471E-004;
2.403666666666667E+009;1.699202209711075E-001;2.033033967018127E-002;3.536742646247149E-003;-5.544546875171363E-004;
2.403833333333334E+009;1.708087772130966E-001;1.928024739027023E-002;3.442491870373488E-003;-7.498868508264422E-004;
2.404000000000000E+009;1.714452207088471E-001;1.830874010920525E-002;3.272707574069500E-003;-8.360416395589709E-004;
2.404166666666667E+009;1.721614897251129E-001;1.712255552411079E-002;3.220623359084129E-003;-9.830138878896833E-004;
2.404333333333334E+009;1.729194819927216E-001;1.637046225368977E-002;3.231405979022384E-003;-9.587747626937926E-004;
2.404500000000000E+009;1.735183745622635E-001;1.534244883805513E-002;3.170921700075269E-003;-9.474581456743181E-004;
2.404666666666667E+009;1.742586046457291E-001;1.472692005336285E-002;3.038229420781136E-003;-1.200776197947562E-003;
2.404833333333334E+009;1.748766899108887E-001;1.392487157136202E-002;3.010668558999896E-003;-1.074849045835435E-003;
2.405000000000000E+009;1.755684465169907E-001;1.318246126174927E-002;2.864775480702519E-003;-1.239235862158239E-003;
2.405166666666667E+009;1.759846061468124E-001;1.249465811997652E-002;2.955041127279401E-003;-1.384938950650394E-003;
2.405333333333334E+009;1.767080277204514E-001;1.174709573388100E-002;2.787657082080841E-003;-1.309474813751876E-003;
2.405500000000000E+009;1.770283430814743E-001;1.147818751633167E-002;2.744909375905991E-003;-1.301018870435655E-003;
2.405666666666667E+009;1.774717271327972E-001;1.094863563776016E-002;2.757451264187694E-003;-1.380354166030884E-003;
2.405833333333334E+009;1.776077747344971E-001;1.058524567633867E-002;2.507349941879511E-003;-1.339101814664900E-003;
2.406000000000000E+009;1.781031191349030E-001;1.001451816409826E-002;2.676658332347870E-003;-1.304319943301380E-003;
2.406166666666667E+009;1.782873421907425E-001;9.794828481972218E-003;2.560301451012492E-003;-1.404190668836236E-003;
2.406333333333334E+009;1.785741597414017E-001;9.246823377907276E-003;2.331560244783759E-003;-1.328339567407966E-003;
2.406500000000000E+009;1.786514520645142E-001;8.792075328528881E-003;2.373220864683390E-003;-1.432542107068002E-003;
2.406666666666667E+009;1.785795688629150E-001;8.500615134835243E-003;2.421492245048285E-003;-1.411536475643516E-003;
2.406833333333334E+009;1.786626279354096E-001;8.090482093393803E-003;2.533614402636886E-003;-1.327418023720384E-003;
2.407000000000000E+009;1.786525845527649E-001;7.518816739320755E-003;2.431710250675678E-003;-1.375419087707996E-003;
2.407166666666667E+009;1.786379814147949E-001;7.132441736757755E-003;2.322684740647674E-003;-1.565693761222065E-003;
2.407333333333334E+009;1.783870309591293E-001;6.534905638545752E-003;2.243211260065436E-003;-1.447193557396531E-003;
2.407500000000000E+009;1.781597435474396E-001;6.062993779778481E-003;2.353491028770804E-003;-1.575312577188015E-003;
2.407666666666667E+009;1.778098195791245E-001;5.623994860798121E-003;2.303014043718576E-003;-1.701712259091437E-003;
2.407833333333334E+009;1.772792786359787E-001;4.804309923201799E-003;2.382407430559397E-003;-1.696180319413543E-003;
2.408000000000000E+009;1.770557016134262E-001;3.931561484932900E-003;2.254965249449015E-003;-1.734758610837162E-003;
2.408166666666667E+009;1.764893084764481E-001;3.294076072052121E-003;2.258372493088245E-003;-1.636207685805857E-003;
2.408333333333334E+009;1.761926263570786E-001;2.284636953845620E-003;2.249599434435368E-003;-1.771056791767478E-003;
2.408500000000000E+009;1.755871474742889E-001;1.473144395276904E-003;2.204947639256716E-003;-1.767204492352903E-003;
2.408666666666667E+009;1.750596314668655E-001;2.973828813992441E-004;2.212005900219083E-003;-1.951060607098043E-003;
2.408833333333334E+009;1.744320541620255E-001;-5.902076954953373E-004;2.140666358172894E-003;-1.901878509670496E-003;
2.409000000000000E+009;1.738553345203400E-001;-1.873138244263828E-003;2.177425427362323E-003;-2.047225600108504E-003;
2.409166666666667E+009;1.732141524553299E-001;-3.153138794004917E-003;2.216918161138892E-003;-2.066681860014796E-003;
2.409333333333334E+009;1.728740930557251E-001;-4.362611100077629E-003;2.285984577611089E-003;-2.154034795239568E-003;
2.409500000000000E+009;1.721277087926865E-001;-5.930413957685232E-003;2.101812046021223E-003;-2.073672134429216E-003;
2.409666666666667E+009;1.715895235538483E-001;-7.255267351865768E-003;2.008123090490699E-003;-2.288190415129066E-003;
2.409833333333334E+009;1.709117144346237E-001;-8.740328252315521E-003;1.988394884392619E-003;-2.290129661560059E-003;
2.410000000000000E+009;1.705533713102341E-001;-1.026310212910175E-002;1.949673285707831E-003;-2.121025696396828E-003;
2.410166666666667E+009;1.699573695659638E-001;-1.182189956307411E-002;1.913110376335681E-003;-2.241407521069050E-003;
2.410333333333334E+009;1.696418374776840E-001;-1.342720817774534E-002;1.868182094767690E-003;-2.434592228382826E-003;
2.410500000000000E+009;1.692196279764175E-001;-1.524707488715649E-002;1.840845216065645E-003;-2.592761535197496E-003;
2.410666666666667E+009;1.687671691179276E-001;-1.717582531273365E-002;1.754665747284889E-003;-2.558491891250014E-003;
2.410833333333334E+009;1.683275401592255E-001;-1.893915049731731E-002;1.710065291263163E-003;-2.475245157256723E-003;
2.411000000000000E+009;1.683840751647949E-001;-2.074408344924450E-002;1.624042983166874E-003;-2.534984145313501E-003;
2.411166666666667E+009;1.681004911661148E-001;-2.273515611886978E-002;1.555753755383194E-003;-2.595971571281552E-003;
2.411333333333334E+009;1.678347140550613E-001;-2.435101382434368E-002;1.731899217702448E-003;-2.730649197474122E-003;
2.411500000000000E+009;1.677995175123215E-001;-2.636939845979214E-002;1.463114633224905E-003;-2.777145011350513E-003;
2.411666666666667E+009;1.679287999868393E-001;-2.827372401952744E-002;1.432636636309326E-003;-2.803714014589787E-003;
2.411833333333334E+009;1.679504811763763E-001;-3.015424683690071E-002;1.265309983864427E-003;-2.841129200533032E-003;
2.412000000000000E+009;1.680963337421417E-001;-3.199313953518868E-002;1.171355135738850E-003;-2.893885830417275E-003;
2.412166666666667E+009;1.681579649448395E-001;-3.394794464111328E-002;1.124873990193009E-003;-2.944560255855322E-003;
2.412333333333334E+009;1.686704009771347E-001;-3.558750450611115E-002;1.037676003761590E-003;-2.917275996878743E-003;
2.412500000000000E+009;1.686700433492661E-001;-3.750311210751534E-002;8.475325303152204E-004;-2.962990896776319E-003;
2.412666666666667E+009;1.689917743206024E-001;-3.932870179414749E-002;9.767183801159263E-004;-3.060613293200731E-003;
2.412833333333334E+009;1.695037186145783E-001;-4.114142432808876E-002;7.497733458876610E-004;-3.040053881704807E-003;
2.413000000000000E+009;1.699022054672241E-001;-4.262485727667809E-002;7.406199001707137E-004;-2.982127945870161E-003;
2.413166666666667E+009;1.702681481838226E-001;-4.431426897644997E-002;6.350855110213161E-004;-3.304099431261420E-003;
2.413333333333334E+009;1.706825494766235E-001;-4.586397111415863E-002;5.381513619795442E-004;-3.076562890782952E-003;
2.413500000000000E+009;1.712347865104675E-001;-4.752606898546219E-002;4.984544357284904E-004;-3.151894081383944E-003;
2.413666666666667E+009;1.718492656946182E-001;-4.891419038176537E-002;3.529022797010839E-004;-3.051782492548227E-003;
2.413833333333334E+009;1.722164303064346E-001;-5.022640898823738E-002;2.168161590816453E-004;-3.196980571374297E-003;
2.414000000000000E+009;1.725737601518631E-001;-5.139913409948349E-002;2.767047844827175E-004;-3.025805577635765E-003;
2.414166666666667E+009;1.732885837554932E-001;-5.261484906077385E-002;2.108227636199445E-004;-3.061165567487478E-003;
2.414333333333334E+009;1.736116260290146E-001;-5.375164002180100E-002;2.477824455127120E-005;-2.987807616591454E-003;
2.414500000000000E+009;1.744079291820526E-001;-5.482798814773560E-002;2.713510184548795E-005;-3.109117504209280E-003;
2.414666666666667E+009;1.746942996978760E-001;-5.575113371014595E-002;-2.270649747515563E-005;-3.134944941848517E-003;
2.414833333333334E+009;1.749941557645798E-001;-5.664465948939323E-002;-8.567961776861921E-005;-3.178783226758242E-003;
2.415000000000000E+009;1.753685474395752E-001;-5.736451223492622E-002;-2.732221037149429E-004;-3.042025258764625E-003;
2.415166666666667E+009;1.757439970970154E-001;-5.816308781504631E-002;-1.990192249650136E-004;-3.048915183171630E-003;
2.415333333333334E+009;1.761105656623840E-001;-5.887138471007347E-002;-3.655655891634524E-004;-3.198892343789339E-003;
2.415500000000000E+009;1.764153093099594E-001;-5.926667898893356E-002;-3.556391457095742E-004;-3.108038334175944E-003;
2.415666666666667E+009;1.764694452285767E-001;-5.970299616456032E-002;-4.869418626185507E-004;-3.051086794584990E-003;
2.415833333333334E+009;1.767406463623047E-001;-6.026370450854302E-002;-6.313577177934349E-004;-3.209692426025868E-003;
2.416000000000000E+009;1.765583902597427E-001;-6.059713289141655E-002;-7.016726303845644E-004;-2.968724817037582E-003;
2.416166666666667E+009;1.768364310264587E-001;-6.091108173131943E-002;-7.687187753617764E-004;-3.077539149671793E-003;
2.416333333333334E+009;1.765048503875732E-001;-6.113060563802719E-002;-7.589372689835727E-004;-3.064303658902645E-003;
2.416500000000000E+009;1.763968318700790E-001;-6.144951656460762E-002;-8.821841329336166E-004;-2.831152174621820E-003;
2.416666666666667E+009;1.760352402925491E-001;-6.165329739451408E-002;-9.140422916971147E-004;-3.066016361117363E-003;
2.416833333333334E+009;1.756753325462341E-001;-6.194658577442169E-002;-9.612365392968059E-004;-2.975201932713389E-003;
2.417000000000000E+009;1.751697659492493E-001;-6.225996091961861E-002;-1.170527655631304E-003;-2.985294209793210E-003;
2.417166666666667E+009;1.746126264333725E-001;-6.226437911391258E-002;-1.122213550843298E-003;-2.735200105234981E-003;
2.417333333333334E+009;1.740826517343521E-001;-6.245306506752968E-002;-1.329033402726054E-003;-2.935199765488505E-003;
2.417500000000000E+009;1.733228564262390E-001;-6.292012333869934E-002;-1.289388514123857E-003;-2.890475094318390E-003;
2.417666666666667E+009;1.727689355611801E-001;-6.304243952035904E-002;-1.454405602999032E-003;-2.923942171037197E-003;
2.417833333333334E+009;1.718074977397919E-001;-6.317914277315140E-002;-1.508049317635596E-003;-2.706033876165748E-003;
2.418000000000000E+009;1.708365082740784E-001;-6.365568190813065E-002;-1.617451664060354E-003;-2.727079903706908E-003;
2.418166666666667E+009;1.699181199073792E-001;-6.377317011356354E-002;-1.706078066490591E-003;-2.630107104778290E-003;
2.418333333333334E+009;1.691106706857681E-001;-6.419202685356140E-002;-1.729976036585867E-003;-2.556137042120099E-003;
2.418500000000000E+009;1.678408831357956E-001;-6.476572155952454E-002;-1.767738140188158E-003;-2.734689041972160E-003;
2.418666666666667E+009;1.668381690979004E-001;-6.518065184354782E-002;-1.908845268189907E-003;-2.432397101074457E-003;
2.418833333333334E+009;1.656060963869095E-001;-6.573776900768280E-002;-1.850131549872458E-003;-2.572600264102221E-003;
2.419000000000000E+009;1.642409712076187E-001;-6.628287583589554E-002;-1.906721852719784E-003;-2.516908105462790E-003;
2.419166666666667E+009;1.632020920515060E-001;-6.703457236289978E-002;-2.183796837925911E-003;-2.567124553024769E-003;
2.419333333333334E+009;1.617478728294373E-001;-6.765282154083252E-002;-2.272539306432009E-003;-2.201324328780174E-003;
2.419500000000000E+009;1.606139093637466E-001;-6.865976750850678E-002;-2.224148483946919E-003;-2.368258312344551E-003;
2.419666666666667E+009;1.594331711530685E-001;-6.964713335037231E-002;-2.248660894110799E-003;-2.217365195974708E-003;
2.419833333333334E+009;1.583031266927719E-001;-7.055127620697022E-002;-2.355864271521568E-003;-2.248101634904742E-003;
2.420000000000000E+009;1.572542041540146E-001;-7.151766866445541E-002;-2.313879551365972E-003;-2.102507511153817E-003;
2.420166666666667E+009;1.561053246259689E-001;-7.270544767379761E-002;-2.453891793265939E-003;-2.078696386888623E-003;
2.420333333333334E+009;1.549743562936783E-001;-7.397685945034027E-002;-2.419956261292100E-003;-1.880949363112450E-003;
2.420500000000000E+009;1.539608389139175E-001;-7.505847513675690E-002;-2.540078712627292E-003;-1.730444491840899E-003;
2.420666666666667E+009;1.527622789144516E-001;-7.637823373079300E-002;-2.641812898218632E-003;-1.703428337350488E-003;
2.420833333333334E+009;1.520204097032547E-001;-7.789847999811173E-002;-2.573535079136491E-003;-1.705076545476914E-003;
2.421000000000000E+009;1.511352360248566E-001;-7.926752418279648E-002;-2.605883171781898E-003;-1.569656771607697E-003;
2.421166666666667E+009;1.505005806684494E-001;-8.069135248661041E-002;-2.643198240548372E-003;-1.419388107024133E-003;
2.421333333333334E+009;1.497863531112671E-001;-8.221928030252457E-002;-2.611794508993626E-003;-1.317335758358240E-003;
2.421500000000000E+009;1.490878015756607E-001;-8.384852111339569E-002;-2.691191388294101E-003;-1.232985407114029E-003;
2.421666666666667E+009;1.484497487545013E-001;-8.555094897747040E-002;-2.617529127746820E-003;-1.223531784489751E-003;
2.421833333333334E+009;1.479603946208954E-001;-8.718307316303253E-002;-2.689508255571127E-003;-1.122488756664097E-003;
2.422000000000000E+009;1.477204114198685E-001;-8.880961686372757E-002;-2.846851246431470E-003;-9.353925124742091E-004;
2.422166666666667E+009;1.473975330591202E-001;-9.068003296852112E-002;-2.602040534839034E-003;-9.358010720461607E-004;
2.422333333333334E+009;1.469922214746475E-001;-9.232591092586517E-002;-2.577894134446979E-003;-8.119481499306858E-004;
2.422500000000000E+009;1.467607468366623E-001;-9.396976977586746E-002;-2.549316501244903E-003;-8.672592230141163E-004;
2.422666666666667E+009;1.466967314481735E-001;-9.573672711849213E-002;-2.494844375178218E-003;-8.569833589717746E-004;
2.422833333333334E+009;1.467491239309311E-001;-9.741470217704773E-002;-2.528984565287828E-003;-8.165088365785778E-004;
2.423000000000000E+009;1.467719674110413E-001;-9.900627285242081E-002;-2.630158094689250E-003;-8.718854514881969E-004;
2.423166666666667E+009;1.467944681644440E-001;-1.006703898310661E-001;-2.634163247421384E-003;-7.800488383509219E-004;
2.423333333333334E+009;1.471080780029297E-001;-1.021842360496521E-001;-2.479154150933027E-003;-6.356122321449220E-004;
2.423500000000000E+009;1.473125666379929E-001;-1.037947833538055E-001;-2.502564340829849E-003;-7.257193792611361E-004;
2.423666666666667E+009;1.473354250192642E-001;-1.053178608417511E-001;-2.380293561145663E-003;-7.469923002645373E-004;
2.423833333333334E+009;1.477648466825485E-001;-1.065998971462250E-001;-2.633249619975686E-003;-7.141660316847265E-004;
2.424000000000000E+009;1.480936408042908E-001;-1.082398220896721E-001;-2.620713319629431E-003;-5.753042642027140E-004;
2.424166666666667E+009;1.483322829008102E-001;-1.095172688364983E-001;-2.665006322786212E-003;-6.131210247986019E-004;
2.424333333333334E+009;1.486814022064209E-001;-1.106071397662163E-001;-2.603472676128149E-003;-4.257926484569907E-004;
2.424500000000000E+009;1.492810398340225E-001;-1.119284257292748E-001;-2.628130372613668E-003;-4.902127548120916E-004;
2.424666666666667E+009;1.497232168912888E-001;-1.128889247775078E-001;-2.789555350318551E-003;-3.659348294604570E-004;
2.424833333333334E+009;1.499058157205582E-001;-1.139750108122826E-001;-2.876362297683954E-003;-1.582986733410507E-004;
2.425000000000000E+009;1.504566967487335E-001;-1.149294376373291E-001;-2.794328611344099E-003;-2.186406927648932E-004;
2.425166666666667E+009;1.504680216312408E-001;-1.157973036170006E-001;-2.742036012932658E-003;-2.329411072423682E-004;
2.425333333333334E+009;1.509696394205093E-001;-1.165599450469017E-001;-2.686271443963051E-003;-2.755836176220328E-004;
2.425500000000000E+009;1.513427197933197E-001;-1.173737272620201E-001;-2.581518609076738E-003;-1.575689930177759E-005;
2.425666666666667E+009;1.514327079057694E-001;-1.180375367403030E-001;-2.723359037190676E-003;-8.105101733235642E-005;
2.425833333333334E+009;1.517109125852585E-001;-1.186982244253159E-001;-2.824385184794664E-003;2.186431447626092E-005;
2.426000000000000E+009;1.516873091459274E-001;-1.191050335764885E-001;-2.800790593028069E-003;1.464093074901030E-004;
2.426166666666667E+009;1.520101875066757E-001;-1.195680797100067E-001;-2.678137272596359E-003;3.728139563463628E-004;
2.426333333333334E+009;1.518516391515732E-001;-1.197735816240311E-001;-2.765381708741188E-003;2.594997931737453E-004;
2.426500000000000E+009;1.518577933311462E-001;-1.201604977250099E-001;-2.862886525690556E-003;2.798881614580751E-004;
2.426666666666667E+009;1.519396156072617E-001;-1.203728765249252E-001;-2.717336174100637E-003;4.223305440973491E-004;
2.426833333333334E+009;1.516105830669403E-001;-1.206724494695664E-001;-2.898656064644456E-003;4.752621753141284E-004;
2.427000000000000E+009;1.512194573879242E-001;-1.208216622471809E-001;-2.665197942405939E-003;5.112452199682593E-004;
2.427166666666667E+009;1.509914696216583E-001;-1.209862083196640E-001;-2.526021562516689E-003;5.084925796836615E-004;
2.427333333333334E+009;1.504303067922592E-001;-1.210809797048569E-001;-2.634016796946526E-003;5.081388517282903E-004;
2.427500000000000E+009;1.499552279710770E-001;-1.212602630257607E-001;-2.676874864846468E-003;7.006330997683108E-004;
2.427666666666667E+009;1.492987126111984E-001;-1.213686838746071E-001;-2.635861281305552E-003;6.902351160533726E-004;
