# Version 1.00
#
freq[Hz];re:Trc1_S11;im:Trc1_S11;re:Trc2_S21;im:Trc2_S21;
2.400000000000000E+009;1.604494750499725E-001;5.696655064821243E-002;3.381670918315649E-003;2.106288215145469E-003;
2.400166666666667E+009;1.605668812990189E-001;5.551080405712128E-002;3.462583059445024E-003;2.108340617269278E-003;
2.400333333333334E+009;1.605740636587143E-001;5.365627259016037E-002;3.479324048385024E-003;1.920204842463136E-003;
2.400500000000000E+009;1.608877778053284E-001;5.187514796853066E-002;3.643953474238515E-003;1.859526149928570E-003;
2.400666666666667E+009;1.608624905347824E-001;4.999259859323502E-002;3.594703506678343E-003;1.728851115331054E-003;
2.400833333333334E+009;1.610295325517654E-001;4.825340583920479E-002;3.800970269367099E-003;1.745109679177404E-003;
2.401000000000000E+009;1.611813753843308E-001;4.636372625827789E-002;3.782095387578011E-003;1.456810510717332E-003;
2.401166666666667E+009;1.616261899471283E-001;4.440371692180634E-002;3.815470961853862E-003;1.407403964549303E-003;
2.401333333333334E+009;1.618076264858246E-001;4.239936918020248E-002;3.956538625061512E-003;1.261410186998546E-003;
2.401500000000000E+009;1.622376441955566E-001;4.069633036851883E-002;3.999226726591587E-003;9.186708484776318E-004;
2.401666666666667E+009;1.624780595302582E-001;3.892683610320091E-002;3.958970308303833E-003;8.305142982862890E-004;
2.401833333333334E+009;1.630015224218369E-001;3.710002452135086E-002;3.959650173783302E-003;7.849945686757565E-004;
2.402000000000000E+009;1.633048206567764E-001;3.522828593850136E-002;3.880121279507875E-003;6.349267787300050E-004;
2.402166666666667E+009;1.638764590024948E-001;3.347308561205864E-002;4.046527203172445E-003;3.644799580797553E-004;
2.402333333333334E+009;1.641810834407806E-001;3.197094425559044E-002;3.796026343479753E-003;1.571660686749965E-004;
2.402500000000000E+009;1.651349961757660E-001;3.025398775935173E-002;3.836702089756727E-003;3.382761178727378E-006;
2.402666666666667E+009;1.657322347164154E-001;2.864155173301697E-002;3.913310822099447E-003;9.638264600653201E-005;
2.402833333333334E+009;1.664441525936127E-001;2.711909264326096E-002;3.920855931937695E-003;-1.178853053716011E-004;
2.403000000000000E+009;1.669115722179413E-001;2.560263872146606E-002;3.821153193712235E-003;-3.195372410118580E-004;
2.403166666666667E+009;1.675945967435837E-001;2.430860698223114E-002;3.674736944958568E-003;-4.525319964159280E-004;
2.403333333333334E+009;1.683760285377502E-001;2.283408679068089E-002;3.603110788390040E-003;-4.638197424355894E-004;
2.403500000000000E+009;1.690918803215027E-001;2.177687548100948E-002;3.622160758823156E-003;-5.540427519008517E-004;
2.403666666666667E+009;1.699725240468979E-001;2.048545517027378E-002;3.599100979045034E-003;-4.868332762271166E-004;
2.403833333333334E+009;1.706708371639252E-001;1.948455534875393E-002;3.476282814517617E-003;-9.352338383905590E-004;
2.404000000000000E+009;1.713299900293350E-001;1.806750893592835E-002;3.344166558235884E-003;-8.232632535509765E-004;
2.404166666666667E+009;1.721161752939224E-001;1.724073290824890E-002;3.422864014282823E-003;-9.176409803330898E-004;
2.404333333333334E+009;1.728259623050690E-001;1.629857160151005E-002;3.235351759940386E-003;-9.590100380592048E-004;
2.404500000000000E+009;1.734210401773453E-001;1.522004883736372E-002;3.299420699477196E-003;-1.058881520293653E-003;
2.404666666666667E+009;1.742136031389237E-001;1.456433814018965E-002;3.073868341743946E-003;-1.108056865632534E-003;
2.404833333333334E+009;1.747760176658630E-001;1.362457405775785E-002;2.909546252340078E-003;-1.252535963431001E-003;
2.405000000000000E+009;1.753882169723511E-001;1.313624065369368E-002;3.009513951838017E-003;-1.250451896339655E-003;
2.405166666666667E+009;1.759463697671890E-001;1.255971007049084E-002;2.966600703075528E-003;-1.279464806430042E-003;
2.405333333333334E+009;1.766485273838043E-001;1.169907581061125E-002;2.728343009948731E-003;-1.184665947221220E-003;
2.405500000000000E+009;1.770412772893906E-001;1.132035255432129E-002;2.781941322609782E-003;-1.467469148337841E-003;
2.405666666666667E+009;1.774846911430359E-001;1.097633223980665E-002;2.716606250032783E-003;-1.279484829865396E-003;
2.405833333333334E+009;1.777693182229996E-001;1.059376168996096E-002;2.663183026015759E-003;-1.456418540328741E-003;
2.406000000000000E+009;1.781568676233292E-001;1.007194258272648E-002;2.498358022421598E-003;-1.408268348313868E-003;
2.406166666666667E+009;1.782237440347672E-001;9.614564478397369E-003;2.646175911650062E-003;-1.535814953967929E-003;
2.406333333333334E+009;1.786050796508789E-001;9.408838115632534E-003;2.538371365517378E-003;-1.406055991537869E-003;
2.406500000000000E+009;1.787116974592209E-001;8.804074488580227E-003;2.555362880229950E-003;-1.417073537595570E-003;
2.406666666666667E+009;1.784186363220215E-001;8.534257300198078E-003;2.286271192133427E-003;-1.510308007709682E-003;
2.406833333333334E+009;1.785518527030945E-001;8.106680586934090E-003;2.384780906140804E-003;-1.257457071915269E-003;
2.407000000000000E+009;1.786198168992996E-001;7.604341953992844E-003;2.318562939763069E-003;-1.549880369566381E-003;
2.407166666666667E+009;1.785542070865631E-001;7.243080064654350E-003;2.419857308268547E-003;-1.514472998678684E-003;
2.407333333333334E+009;1.782219707965851E-001;6.620316766202450E-003;2.236610045656562E-003;-1.625562435947359E-003;
2.407500000000000E+009;1.780727356672287E-001;6.052077747881413E-003;2.352620009332895E-003;-1.420789980329573E-003;
2.407666666666667E+009;1.777465045452118E-001;5.532494280487299E-003;2.479993272572756E-003;-1.642218208871782E-003;
2.407833333333334E+009;1.771883964538574E-001;4.707256332039833E-003;2.268144395202398E-003;-1.729029929265380E-003;
2.408000000000000E+009;1.769543290138245E-001;3.878780407831073E-003;2.429025946184993E-003;-1.627207733690739E-003;
2.408166666666667E+009;1.764707118272781E-001;3.273437963798642E-003;2.408050699159503E-003;-1.811295980587602E-003;
2.408333333333334E+009;1.761004477739334E-001;2.435393165796995E-003;2.343400614336133E-003;-1.894168672151864E-003;
2.408500000000000E+009;1.755442321300507E-001;1.332731568254530E-003;2.190460450947285E-003;-1.874461071565747E-003;
2.408666666666667E+009;1.751188188791275E-001;3.883547324221581E-004;2.263678936287761E-003;-1.987885218113661E-003;
2.408833333333334E+009;1.745234280824661E-001;-5.655637942254543E-004;2.188625512644649E-003;-1.944652642123401E-003;
2.409000000000000E+009;1.738552302122116E-001;-1.799002289772034E-003;2.198879374191165E-003;-2.040823455899954E-003;
2.409166666666667E+009;1.732445359230042E-001;-3.117781365290284E-003;2.114043571054936E-003;-2.174072200432420E-003;
2.409333333333334E+009;1.726693809032440E-001;-4.522960167378187E-003;2.025186549872160E-003;-2.138964831829071E-003;
2.409500000000000E+009;1.720523536205292E-001;-5.920201539993286E-003;2.119853161275387E-003;-2.236307132989168E-003;
2.409666666666667E+009;1.713647246360779E-001;-7.304952945560217E-003;2.094972645863891E-003;-2.309912350028753E-003;
2.409833333333334E+009;1.708045452833176E-001;-8.626293390989304E-003;1.982641872018576E-003;-2.244696021080017E-003;
2.410000000000000E+009;1.704206019639969E-001;-1.031386479735375E-002;2.051361138001084E-003;-2.447530627250671E-003;
2.410166666666667E+009;1.700641065835953E-001;-1.199032925069332E-002;2.020864514634013E-003;-2.279338194057345E-003;
2.410333333333334E+009;1.693298071622849E-001;-1.355097535997629E-002;1.876861904747784E-003;-2.502545248717070E-003;
2.410500000000000E+009;1.691628098487854E-001;-1.536307577043772E-002;1.872381544671953E-003;-2.579393796622753E-003;
2.410666666666667E+009;1.686818152666092E-001;-1.704972051084042E-002;1.813223469071090E-003;-2.553296508267522E-003;
2.410833333333334E+009;1.684508472681046E-001;-1.888758316636086E-002;1.745860674418509E-003;-2.503971336409450E-003;
2.411000000000000E+009;1.681329011917114E-001;-2.058687247335911E-002;1.731125637888908E-003;-2.586583141237497E-003;
2.411166666666667E+009;1.680035740137100E-001;-2.256343886256218E-002;1.473960932344198E-003;-2.730444073677063E-003;
2.411333333333334E+009;1.678571403026581E-001;-2.429245412349701E-002;1.597659895196557E-003;-2.724118297919631E-003;
2.411500000000000E+009;1.678019165992737E-001;-2.644930593669415E-002;1.428343821316958E-003;-2.691130852326751E-003;
2.411666666666667E+009;1.681337505578995E-001;-2.819416113197804E-002;1.335166161879897E-003;-2.737529342994094E-003;
2.411833333333334E+009;1.680285036563873E-001;-3.015703149139881E-002;1.471935072913766E-003;-2.832375699654222E-003;
2.412000000000000E+009;1.681718081235886E-001;-3.193849325180054E-002;1.178521430119872E-003;-2.966558327898383E-003;
2.412166666666667E+009;1.682856976985931E-001;-3.396474197506905E-002;1.179447863250971E-003;-2.868382493034005E-003;
2.412333333333334E+009;1.686532646417618E-001;-3.566607832908630E-002;1.108917291276157E-003;-2.968468936160207E-003;
2.412500000000000E+009;1.688088029623032E-001;-3.750033676624298E-002;1.127290423028171E-003;-3.121764864772558E-003;
2.412666666666667E+009;1.691509634256363E-001;-3.912264481186867E-002;9.947530925273895E-004;-3.030991181731224E-003;
2.412833333333334E+009;1.696012616157532E-001;-4.106488451361656E-002;9.604853112250567E-004;-3.229576395824552E-003;
2.413000000000000E+009;1.699278205633164E-001;-4.275749996304512E-002;7.400673930533230E-004;-3.030455438420177E-003;
2.413166666666667E+009;1.703398227691650E-001;-4.412197321653366E-002;7.214617216959596E-004;-3.067579120397568E-003;
2.413333333333334E+009;1.708311438560486E-001;-4.601090773940086E-002;5.390748847275972E-004;-3.169754752889276E-003;
2.413500000000000E+009;1.712057441473007E-001;-4.752534627914429E-002;5.216987337917090E-004;-3.110701916739345E-003;
2.413666666666667E+009;1.718616634607315E-001;-4.879862070083618E-002;4.476122849155217E-004;-3.149767871946096E-003;
2.413833333333334E+009;1.721511334180832E-001;-5.023838579654694E-002;2.945879532489926E-004;-3.010818734765053E-003;
2.414000000000000E+009;1.725922822952271E-001;-5.155410990118980E-002;1.894533488666639E-004;-3.222476691007614E-003;
2.414166666666667E+009;1.733642816543579E-001;-5.272105708718300E-002;1.448625116609037E-004;-3.092349506914616E-003;
2.414333333333334E+009;1.737067401409149E-001;-5.378465354442596E-002;7.790345989633352E-005;-3.084440948441625E-003;
2.414500000000000E+009;1.744923293590546E-001;-5.479682236909866E-002;-4.025582893518731E-005;-3.271305235102773E-003;
2.414666666666667E+009;1.748097091913223E-001;-5.570299178361893E-002;-8.941638225223869E-005;-3.096961649134755E-003;
2.414833333333334E+009;1.751736998558044E-001;-5.671491846442223E-002;-1.087218042812310E-004;-3.081867704167962E-003;
2.415000000000000E+009;1.754084676504135E-001;-5.751943215727806E-002;-2.547028707340360E-004;-3.247330663725734E-003;
2.415166666666667E+009;1.757681667804718E-001;-5.810530856251717E-002;-3.256157215218991E-004;-3.134385449811816E-003;
2.415333333333334E+009;1.761863082647324E-001;-5.879470333456993E-002;-3.416508261580020E-004;-3.002319950610399E-003;
2.415500000000000E+009;1.764591485261917E-001;-5.925828590989113E-002;-3.420058346819133E-004;-3.196193370968103E-003;
2.415666666666667E+009;1.765157282352448E-001;-5.973237752914429E-002;-4.438951727934182E-004;-3.125549759715796E-003;
2.415833333333334E+009;1.767802238464356E-001;-6.012682989239693E-002;-5.967122851870954E-004;-3.172056749463081E-003;
2.416000000000000E+009;1.765492558479309E-001;-6.053558737039566E-002;-7.850566762499511E-004;-3.036650596186519E-003;
2.416166666666667E+009;1.767721623182297E-001;-6.093013286590576E-002;-7.887631072662771E-004;-2.983452519401908E-003;
2.416333333333334E+009;1.765697896480560E-001;-6.110341101884842E-002;-8.790770662017167E-004;-3.092067083343864E-003;
2.416500000000000E+009;1.765098273754120E-001;-6.146642938256264E-002;-9.830541675910354E-004;-3.134518861770630E-003;
2.416666666666667E+009;1.760827898979187E-001;-6.164588034152985E-002;-1.047224621288478E-003;-3.042249940335751E-003;
2.416833333333334E+009;1.758785843849182E-001;-6.196880713105202E-002;-1.148232258856297E-003;-2.984540071338415E-003;
2.417000000000000E+009;1.752447783946991E-001;-6.217757612466812E-002;-1.160159357823432E-003;-2.965540857985616E-003;
2.417166666666667E+009;1.747360080480576E-001;-6.242476031184197E-002;-1.208450994454324E-003;-3.027146682143211E-003;
2.417333333333334E+009;1.741173565387726E-001;-6.253884732723236E-002;-1.225243555381894E-003;-2.857455285266042E-003;
2.417500000000000E+009;1.733675152063370E-001;-6.282657384872437E-002;-1.336401212029159E-003;-2.891921903938055E-003;
2.417666666666667E+009;1.726220846176148E-001;-6.304269284009934E-002;-1.640651957131922E-003;-2.746580168604851E-003;
2.417833333333334E+009;1.719052046537399E-001;-6.322999298572540E-002;-1.685344614088535E-003;-2.734970767050982E-003;
2.418000000000000E+009;1.708404868841171E-001;-6.362839043140411E-002;-1.710092183202505E-003;-2.660171361640096E-003;
2.418166666666667E+009;1.698497384786606E-001;-6.386971473693848E-002;-1.764172804541886E-003;-2.799826441332698E-003;
2.418333333333334E+009;1.690465509891510E-001;-6.431050598621368E-002;-1.736521255224943E-003;-2.739973599091172E-003;
2.418500000000000E+009;1.679568886756897E-001;-6.468386203050613E-002;-1.792574301362038E-003;-2.705998485907912E-003;
2.418666666666667E+009;1.668586581945419E-001;-6.528860330581665E-002;-1.812823815271258E-003;-2.439327305182815E-003;
2.418833333333334E+009;1.655095070600510E-001;-6.583311408758164E-002;-2.019883133471012E-003;-2.408136613667011E-003;
2.419000000000000E+009;1.642484962940216E-001;-6.634962558746338E-002;-2.030814066529274E-003;-2.465502358973026E-003;
2.419166666666667E+009;1.632109135389328E-001;-6.714192777872086E-002;-2.136986935511231E-003;-2.495119580999017E-003;
2.419333333333334E+009;1.617402434349060E-001;-6.771177798509598E-002;-2.082426100969315E-003;-2.395258052274585E-003;
2.419500000000000E+009;1.606918573379517E-001;-6.870941072702408E-002;-2.304375171661377E-003;-2.418121090158820E-003;
2.419666666666667E+009;1.595453917980194E-001;-6.968766450881958E-002;-2.189256716519594E-003;-2.154175657778978E-003;
2.419833333333334E+009;1.582693308591843E-001;-7.042020559310913E-002;-2.387367654591799E-003;-2.214585430920124E-003;
2.420000000000000E+009;1.573368161916733E-001;-7.153303921222687E-002;-2.397403353825212E-003;-2.200615592300892E-003;
2.420166666666667E+009;1.560734361410141E-001;-7.261194288730621E-002;-2.458554925397039E-003;-2.021793974563479E-003;
2.420333333333334E+009;1.550653874874115E-001;-7.389736920595169E-002;-2.572876401245594E-003;-1.864895340986550E-003;
2.420500000000000E+009;1.539758443832398E-001;-7.500769942998886E-002;-2.489241771399975E-003;-1.919257338158786E-003;
2.420666666666667E+009;1.528883129358292E-001;-7.635317742824554E-002;-2.614483702927828E-003;-1.665787305682898E-003;
2.420833333333334E+009;1.520835310220718E-001;-7.768370211124420E-002;-2.611770294606686E-003;-1.731130178086460E-003;
2.421000000000000E+009;1.510526984930039E-001;-7.920458912849426E-002;-2.556412480771542E-003;-1.537319156341255E-003;
2.421166666666667E+009;1.504740267992020E-001;-8.086841553449631E-002;-2.711280947551131E-003;-1.580549986101687E-003;
2.421333333333334E+009;1.498238593339920E-001;-8.233671635389328E-002;-2.743288176134229E-003;-1.397334737703204E-003;
2.421500000000000E+009;1.490242928266525E-001;-8.368864655494690E-002;-2.685441868379712E-003;-1.232579001225531E-003;
2.421666666666667E+009;1.485698074102402E-001;-8.540136367082596E-002;-2.749016741290689E-003;-1.100234570913017E-003;
2.421833333333334E+009;1.480032652616501E-001;-8.711013942956924E-002;-2.754979766905308E-003;-1.080206944607198E-003;
2.422000000000000E+009;1.475186794996262E-001;-8.881121128797531E-002;-2.708660904318094E-003;-9.078782750293613E-004;
2.422166666666667E+009;1.471327543258667E-001;-9.065610915422440E-002;-2.615789184346795E-003;-9.996942244470120E-004;
2.422333333333334E+009;1.470745652914047E-001;-9.218768030405045E-002;-2.672899048775435E-003;-9.370853658765554E-004;
2.422500000000000E+009;1.468229740858078E-001;-9.395307302474976E-002;-2.592257922515273E-003;-7.381742470897734E-004;
2.422666666666667E+009;1.465267241001129E-001;-9.563936293125153E-002;-2.751888940110803E-003;-7.148751174099743E-004;
2.422833333333334E+009;1.466835290193558E-001;-9.744915366172791E-002;-2.709308173507452E-003;-7.727763149887323E-004;
2.423000000000000E+009;1.468340307474136E-001;-9.896229207515717E-002;-2.578614046797156E-003;-7.267829496413469E-004;
2.423166666666667E+009;1.468322873115540E-001;-1.007426381111145E-001;-2.801622496917844E-003;-5.801852676086128E-004;
2.423333333333334E+009;1.470769047737122E-001;-1.020919606089592E-001;-2.609028015285730E-003;-7.020710618235171E-004;
2.423500000000000E+009;1.472337841987610E-001;-1.037610471248627E-001;-2.555183833464980E-003;-5.892101908102632E-004;
2.423666666666667E+009;1.474492251873016E-001;-1.053010746836662E-001;-2.569259842857719E-003;-5.790066206827760E-004;
2.423833333333334E+009;1.478630453348160E-001;-1.069158241152763E-001;-2.429560292512178E-003;-7.644779398106039E-004;
2.424000000000000E+009;1.482573151588440E-001;-1.079315096139908E-001;-2.640901831910014E-003;-5.232008406892419E-004;
2.424166666666667E+009;1.483566612005234E-001;-1.094525530934334E-001;-2.613567980006337E-003;-4.693765076808631E-004;
2.424333333333334E+009;1.488027870655060E-001;-1.107130050659180E-001;-2.554786391556263E-003;-4.664039006456733E-004;
2.424500000000000E+009;1.493253409862518E-001;-1.118982359766960E-001;-2.623480511829257E-003;-4.669996851589531E-004;
2.424666666666667E+009;1.498312354087830E-001;-1.128800287842751E-001;-2.609700895845890E-003;-2.305460075149313E-004;
2.424833333333334E+009;1.500053256750107E-001;-1.140037775039673E-001;-2.649888396263123E-003;-2.932132338173688E-004;
2.425000000000000E+009;1.504438221454620E-001;-1.150176078081131E-001;-2.573999343439937E-003;-1.154315032181330E-004;
2.425166666666667E+009;1.506100147962570E-001;-1.158464103937149E-001;-2.605265704914928E-003;-2.921762934420258E-004;
2.425333333333334E+009;1.509962081909180E-001;-1.167293861508369E-001;-2.700219163671136E-003;-1.657458778936416E-004;
2.425500000000000E+009;1.512371599674225E-001;-1.175659447908402E-001;-2.706095576286316E-003;-9.588376269675791E-005;
2.425666666666667E+009;1.514086425304413E-001;-1.180493906140328E-001;-2.677589654922485E-003;4.216816523694433E-005;
2.425833333333334E+009;1.515556871891022E-001;-1.186925321817398E-001;-2.750489860773087E-003;6.643919914495200E-005;
2.426000000000000E+009;1.516426652669907E-001;-1.191322356462479E-001;-2.789443824440241E-003;2.488017489667982E-004;
2.426166666666667E+009;1.519925892353058E-001;-1.195575892925263E-001;-2.707284875214100E-003;1.733153767418116E-004;
2.426333333333334E+009;1.518656313419342E-001;-1.199740096926689E-001;-2.761636860668659E-003;2.505601150915027E-004;
2.426500000000000E+009;1.518879383802414E-001;-1.202279925346375E-001;-2.680426929146051E-003;2.063918800558895E-004;
2.426666666666667E+009;1.519044190645218E-001;-1.203214824199677E-001;-2.793322317302227E-003;3.950638929381967E-004;
2.426833333333334E+009;1.515928357839584E-001;-1.206193044781685E-001;-2.780161099508405E-003;5.320195341482759E-004;
2.427000000000000E+009;1.512104570865631E-001;-1.209056675434113E-001;-2.786869648844004E-003;5.472963093779981E-004;
2.427166666666667E+009;1.509618610143662E-001;-1.209248155355454E-001;-2.649368485435844E-003;6.575398147106171E-004;
2.427333333333334E+009;1.505216807126999E-001;-1.210576295852661E-001;-2.668519271537662E-003;6.313743069767952E-004;
2.427500000000000E+009;1.499675810337067E-001;-1.211687102913857E-001;-2.762015676125884E-003;6.828324403613806E-004;
2.427666666666667E+009;1.493198126554489E-001;-1.213896796107292E-001;-2.467284910380840E-003;8.155246032401919E-004;
