# Version 1.00
#
freq[Hz];re:Trc1_S11;im:Trc1_S11;re:Trc2_S21;im:Trc2_S21;
2.400000000000000E+009;1.553552746772766E-001;1.103674545884132E-001;6.292173202382401E-005;-1.704943715594709E-003;
2.400166666666667E+009;1.549062430858612E-001;1.082000732421875E-001;-2.297103055752814E-004;-1.630667247809470E-003;
2.400333333333334E+009;1.545824259519577E-001;1.059316545724869E-001;-3.130607074126601E-004;-1.340597984381020E-003;
2.400500000000000E+009;1.541930139064789E-001;1.031977981328964E-001;-1.448986877221614E-004;-1.480282633565366E-003;
2.400666666666667E+009;1.541679203510284E-001;1.008559241890907E-001;-1.650952617637813E-004;-1.568983192555606E-003;
2.400833333333334E+009;1.536965966224670E-001;9.795442968606949E-002;-3.367572207935154E-004;-1.476081321015954E-003;
2.401000000000000E+009;1.536451429128647E-001;9.506161510944367E-002;-3.663811367005110E-004;-1.583433826453984E-003;
2.401166666666667E+009;1.535250544548035E-001;9.220919013023377E-002;-4.964705440215766E-004;-1.674047671258450E-003;
2.401333333333334E+009;1.536464691162109E-001;8.927430212497711E-002;-5.718454485759139E-004;-1.668789307586849E-003;
2.401500000000000E+009;1.538277715444565E-001;8.623836189508438E-002;-6.146663799881935E-004;-1.740519423037767E-003;
2.401666666666667E+009;1.538164764642716E-001;8.338416367769241E-002;-9.124965290538967E-004;-1.780619029887021E-003;
2.401833333333334E+009;1.542782634496689E-001;8.042027056217194E-002;-8.094714139588177E-004;-1.710155745968223E-003;
2.402000000000000E+009;1.549965739250183E-001;7.740548253059387E-002;-9.559133904986084E-004;-1.784768886864185E-003;
2.402166666666667E+009;1.556000411510468E-001;7.463172078132629E-002;-1.234500203281641E-003;-1.660145819187164E-003;
2.402333333333334E+009;1.563667804002762E-001;7.159786671400070E-002;-1.345753786154091E-003;-1.529235858470202E-003;
2.402500000000000E+009;1.573614031076431E-001;6.894665211439133E-002;-1.452009310014546E-003;-1.523675047792494E-003;
2.402666666666667E+009;1.584064811468124E-001;6.633744388818741E-002;-1.791771268472076E-003;-1.440642168745399E-003;
2.402833333333334E+009;1.595699787139893E-001;6.371978670358658E-002;-1.754251541569829E-003;-1.279912656173110E-003;
2.403000000000000E+009;1.609792113304138E-001;6.112188845872879E-002;-1.840145094320178E-003;-9.955703280866146E-004;
2.403166666666667E+009;1.626659184694290E-001;5.852906405925751E-002;-2.076769014820457E-003;-8.818849455565214E-004;
2.403333333333334E+009;1.641953736543655E-001;5.614938959479332E-002;-2.051851013675332E-003;-7.513688760809600E-004;
2.403500000000000E+009;1.659319847822189E-001;5.384367704391480E-002;-2.146439859643579E-003;-4.600899410434067E-004;
2.403666666666667E+009;1.676864773035049E-001;5.187724530696869E-002;-2.000828040763736E-003;-3.381204733159393E-004;
2.403833333333334E+009;1.694087982177734E-001;4.969924315810204E-002;-2.032013144344091E-003;-1.697100669844076E-004;
2.404000000000000E+009;1.709686964750290E-001;4.772607982158661E-002;-2.005905378609896E-003;6.709789886372164E-005;
2.404166666666667E+009;1.729108691215515E-001;4.598470777273178E-002;-1.871308777481318E-003;3.329591345391236E-005;
2.404333333333334E+009;1.747439354658127E-001;4.414029046893120E-002;-1.735094585455954E-003;4.153495829086751E-004;
2.404500000000000E+009;1.765649616718292E-001;4.257868230342865E-002;-1.708919182419777E-003;5.474497447721660E-004;
2.404666666666667E+009;1.784601807594299E-001;4.158186540007591E-002;-1.601007999852300E-003;6.842665607109666E-004;
2.404833333333334E+009;1.802505105733872E-001;4.005781933665276E-002;-1.503350795246661E-003;7.301339646801353E-004;
2.405000000000000E+009;1.817775964736939E-001;3.951478004455566E-002;-1.375802094116807E-003;8.588201599195600E-004;
2.405166666666667E+009;1.834539175033569E-001;3.876030817627907E-002;-1.179932267405093E-003;8.972699288278818E-004;
2.405333333333334E+009;1.851053386926651E-001;3.825611993670464E-002;-1.065371208824217E-003;7.769259391352534E-004;
2.405500000000000E+009;1.867115199565888E-001;3.769637271761894E-002;-9.045199258252978E-004;8.798781782388687E-004;
2.405666666666667E+009;1.882610619068146E-001;3.729509562253952E-002;-8.641972090117633E-004;9.390806080773473E-004;
2.405833333333334E+009;1.897596567869186E-001;3.712827339768410E-002;-6.984382634982467E-004;8.739785407669842E-004;
2.406000000000000E+009;1.910085976123810E-001;3.683665022253990E-002;-5.056789377704263E-004;7.908663828857243E-004;
2.406166666666667E+009;1.923432797193527E-001;3.689617291092873E-002;-5.836793570779264E-004;8.063578861765564E-004;
2.406333333333334E+009;1.934599876403809E-001;3.710926324129105E-002;-3.988552489317954E-004;6.823239964433014E-004;
2.406500000000000E+009;1.943920701742172E-001;3.713593259453774E-002;-2.962557191494852E-004;6.115201977081597E-004;
2.406666666666667E+009;1.952717602252960E-001;3.747317194938660E-002;-2.932925999630243E-004;4.461135540623218E-004;
2.406833333333334E+009;1.960698813199997E-001;3.763877600431442E-002;-2.871188626158983E-004;5.024644196964800E-004;
2.407000000000000E+009;1.964986473321915E-001;3.824616223573685E-002;-2.993097587022930E-004;4.351221141405404E-004;
2.407166666666667E+009;1.970741897821426E-001;3.828082606196404E-002;-1.636559754842892E-004;6.175337475724518E-004;
2.407333333333334E+009;1.972420364618301E-001;3.875321894884110E-002;-1.758635189617053E-004;3.899676084984094E-004;
2.407500000000000E+009;1.974539607763290E-001;3.908680751919746E-002;-1.167952432297170E-004;4.390141693875194E-004;
2.407666666666667E+009;1.975998878479004E-001;3.932134807109833E-002;-1.008681574603543E-004;3.204383538104594E-004;
2.407833333333334E+009;1.973004341125488E-001;3.954311087727547E-002;-7.591368193970993E-005;4.796221619471908E-004;
2.408000000000000E+009;1.972306072711945E-001;3.983704000711441E-002;-8.508992323186249E-005;2.551554352976382E-004;
2.408166666666667E+009;1.967695355415344E-001;3.984347730875015E-002;-3.095513966400176E-005;1.357296132482588E-004;
2.408333333333334E+009;1.964021623134613E-001;3.975639119744301E-002;-1.156521029770374E-004;-3.099677633144893E-005;
2.408500000000000E+009;1.957167834043503E-001;3.995365276932716E-002;2.676138683455065E-005;-1.095243787858635E-004;
2.408666666666667E+009;1.950949877500534E-001;3.956151381134987E-002;-3.299684249213897E-005;-3.622092845034786E-005;
2.408833333333334E+009;1.944411993026733E-001;3.931220248341560E-002;-8.634287041786593E-006;-1.898560149129480E-004;
2.409000000000000E+009;1.933336108922958E-001;3.873701393604279E-002;3.895836925948970E-005;-4.096569609828293E-004;
2.409166666666667E+009;1.924353539943695E-001;3.818129748106003E-002;-1.056271285051480E-004;-3.530714020598680E-004;
2.409333333333334E+009;1.913253962993622E-001;3.743848204612732E-002;-2.819926885422319E-004;-5.024904967285693E-004;
2.409500000000000E+009;1.900809109210968E-001;3.641735017299652E-002;-4.234549414832145E-004;-5.815905169583857E-004;
2.409666666666667E+009;1.889765709638596E-001;3.528019785881043E-002;-5.614909459836781E-004;-6.034291000105441E-004;
2.409833333333334E+009;1.878373473882675E-001;3.416274115443230E-002;-5.851251189596951E-004;-5.814420292153955E-004;
2.410000000000000E+009;1.867521405220032E-001;3.262005001306534E-002;-6.918843137100339E-004;-6.169475382193923E-004;
2.410166666666667E+009;1.854961514472961E-001;3.106286190450192E-002;-7.521752850152552E-004;-5.765657406300306E-004;
2.410333333333334E+009;1.842039674520493E-001;2.949271537363529E-002;-9.613774018362165E-004;-3.102087357547134E-004;
2.410500000000000E+009;1.831305027008057E-001;2.771291881799698E-002;-1.008943072520196E-003;-3.590587875805795E-004;
2.410666666666667E+009;1.818992048501968E-001;2.562709338963032E-002;-1.072811428457499E-003;-2.622299070935696E-004;
2.410833333333334E+009;1.811271160840988E-001;2.348969690501690E-002;-1.165192923508585E-003;-2.419936936348677E-004;
2.411000000000000E+009;1.800665259361267E-001;2.141250483691692E-002;-1.157196005806327E-003;-2.256217849208042E-004;
2.411166666666667E+009;1.794037073850632E-001;1.915230974555016E-002;-1.160104642622173E-003;-1.746299240039662E-004;
2.411333333333334E+009;1.784820556640625E-001;1.675350964069367E-002;-1.102840993553400E-003;-1.504970423411578E-004;
2.411500000000000E+009;1.779741793870926E-001;1.427482720464468E-002;-1.320020994171500E-003;-9.748728916747496E-005;
2.411666666666667E+009;1.776598393917084E-001;1.201493199914694E-002;-1.357737230136991E-003;3.342894342495129E-005;
2.411833333333334E+009;1.772202551364899E-001;9.424997493624687E-003;-1.405971241183579E-003;1.672038924880326E-004;
2.412000000000000E+009;1.770670264959335E-001;6.629537325352430E-003;-1.309192040935159E-003;1.137117214966565E-004;
2.412166666666667E+009;1.770458072423935E-001;4.170590545982122E-003;-1.335600158199668E-003;2.658797311596572E-004;
2.412333333333334E+009;1.772044450044632E-001;1.608956023119390E-003;-1.351513550616801E-003;4.535213229246438E-004;
2.412500000000000E+009;1.775777190923691E-001;-1.128777978010476E-003;-1.496768789365888E-003;3.316380316391587E-004;
2.412666666666667E+009;1.779008507728577E-001;-3.885224228724837E-003;-1.418321509845555E-003;3.587786341086030E-004;
2.412833333333334E+009;1.785009950399399E-001;-6.373130250722170E-003;-1.477697165682912E-003;7.451416458934546E-004;
2.413000000000000E+009;1.792419105768204E-001;-9.115157648921013E-003;-1.548157306388021E-003;7.191741024143994E-004;
2.413166666666667E+009;1.800333261489868E-001;-1.149404328316450E-002;-1.306166872382164E-003;9.755953797139227E-004;
2.413333333333334E+009;1.810177862644196E-001;-1.402091607451439E-002;-1.439519925042987E-003;1.001993776299059E-003;
2.413500000000000E+009;1.820548772811890E-001;-1.659900136291981E-002;-1.281677861697972E-003;1.091990969143808E-003;
2.413666666666667E+009;1.832438409328461E-001;-1.907082647085190E-002;-1.323395292274654E-003;1.329665770754218E-003;
2.413833333333334E+009;1.844842582941055E-001;-2.144648134708405E-002;-1.132901408709586E-003;1.377258100546897E-003;
2.414000000000000E+009;1.855517625808716E-001;-2.350595407187939E-002;-1.289543462917209E-003;1.431472948752344E-003;
2.414166666666667E+009;1.870815157890320E-001;-2.576203271746635E-002;-1.139347674325109E-003;1.414010417647660E-003;
2.414333333333334E+009;1.882968395948410E-001;-2.797622047364712E-002;-9.973209816962481E-004;1.506866654381156E-003;
2.414500000000000E+009;1.897897124290466E-001;-2.966917119920254E-002;-9.670216822996736E-004;1.568874809890986E-003;
2.414666666666667E+009;1.910785585641861E-001;-3.139284625649452E-002;-7.661980926059187E-004;1.795747666619718E-003;
2.414833333333334E+009;1.924486011266708E-001;-3.300711140036583E-002;-7.089194259606302E-004;1.783064333721995E-003;
2.415000000000000E+009;1.938177645206451E-001;-3.449975699186325E-002;-4.889505216851831E-004;1.786781824193895E-003;
2.415166666666667E+009;1.953254044055939E-001;-3.577522188425064E-002;-5.976849352009594E-004;1.830942812375724E-003;
2.415333333333334E+009;1.968260258436203E-001;-3.695761784911156E-002;-5.339306080713868E-004;1.783314859494567E-003;
2.415500000000000E+009;1.981604695320129E-001;-3.786804154515266E-002;-2.948085893876851E-004;1.835906761698425E-003;
2.415666666666667E+009;1.995263397693634E-001;-3.876255080103874E-002;-1.634384825592861E-004;1.751379808411002E-003;
2.415833333333334E+009;2.004989534616470E-001;-3.964454308152199E-002;-1.260229910258204E-004;1.697636558674276E-003;
2.416000000000000E+009;2.016295641660690E-001;-4.031176120042801E-002;-6.975299038458616E-005;1.732275472022593E-003;
2.416166666666667E+009;2.027682512998581E-001;-4.096307232975960E-002;6.486687198048458E-005;1.683625043369830E-003;
2.416333333333334E+009;2.036821842193604E-001;-4.126474633812904E-002;1.011623317026533E-004;1.668686047196388E-003;
2.416500000000000E+009;2.044291496276856E-001;-4.152960702776909E-002;1.657199900364503E-004;1.553817884996533E-003;
2.416666666666667E+009;2.050346285104752E-001;-4.200392961502075E-002;1.329184451606125E-004;1.580796204507351E-003;
2.416833333333334E+009;2.054054737091065E-001;-4.189402237534523E-002;1.189202594105154E-004;1.625273842364550E-003;
2.417000000000000E+009;2.058005928993225E-001;-4.210260882973671E-002;-3.541262049111538E-005;1.339562586508691E-003;
2.417166666666667E+009;2.058367729187012E-001;-4.180190339684486E-002;1.925205724546686E-004;1.490755006670952E-003;
2.417333333333334E+009;2.058863788843155E-001;-4.156149923801422E-002;1.835783041315153E-004;1.538077951408923E-003;
2.417500000000000E+009;2.059012502431870E-001;-4.145050793886185E-002;1.391035038977861E-004;1.773099647834897E-003;
2.417666666666667E+009;2.056433707475662E-001;-4.108699038624764E-002;3.371556813362986E-004;1.766638131812215E-003;
2.417833333333334E+009;2.053084820508957E-001;-4.074941575527191E-002;3.807389584835619E-004;1.740475418046117E-003;
2.418000000000000E+009;2.048908025026321E-001;-4.029306024312973E-002;5.071485065855086E-004;1.782979583367705E-003;
2.418166666666667E+009;2.042598277330399E-001;-4.012991860508919E-002;7.139188237488270E-004;1.841165823861957E-003;
2.418333333333334E+009;2.034954279661179E-001;-3.983722999691963E-002;8.689105161465704E-004;1.795790507458150E-003;
2.418500000000000E+009;2.026029378175736E-001;-3.962297737598419E-002;9.876713156700134E-004;1.746323541738093E-003;
2.418666666666667E+009;2.017903178930283E-001;-3.934825211763382E-002;1.183951739221811E-003;1.756197074428201E-003;
2.418833333333334E+009;2.005056440830231E-001;-3.926734998822212E-002;1.229463028721511E-003;1.566044054925442E-003;
2.419000000000000E+009;1.993165463209152E-001;-3.931779041886330E-002;1.378862769342959E-003;1.561283483169973E-003;
2.419166666666667E+009;1.981675475835800E-001;-3.940132260322571E-002;1.398277585394681E-003;1.370607526041567E-003;
2.419333333333334E+009;1.966510564088821E-001;-3.970327973365784E-002;1.537225209176540E-003;1.305916463024914E-003;
2.419500000000000E+009;1.950668990612030E-001;-3.999146446585655E-002;1.526203239336610E-003;1.119933673180640E-003;
2.419666666666667E+009;1.933682262897492E-001;-4.061689600348473E-002;1.518112025223672E-003;9.941369062289596E-004;
2.419833333333334E+009;1.917087435722351E-001;-4.112781211733818E-002;1.414268394000828E-003;9.395540109835565E-004;
2.420000000000000E+009;1.901746243238449E-001;-4.185449704527855E-002;1.460556406527758E-003;6.701184320263565E-004;
2.420166666666667E+009;1.883737742900848E-001;-4.265009611845017E-002;1.463647466152906E-003;6.618152256123722E-004;
2.420333333333334E+009;1.865192204713821E-001;-4.367296025156975E-002;1.378744025714696E-003;6.014498067088425E-004;
2.420500000000000E+009;1.846047639846802E-001;-4.480217024683952E-002;1.455294201150537E-003;6.076864083297551E-004;
2.420666666666667E+009;1.827884614467621E-001;-4.593569785356522E-002;1.244016690179706E-003;5.852382164448500E-004;
2.420833333333334E+009;1.809415370225906E-001;-4.759844765067101E-002;1.292196917347610E-003;4.275751998648047E-004;
2.421000000000000E+009;1.792567372322083E-001;-4.905199259519577E-002;1.316936104558408E-003;4.644765576813370E-004;
2.421166666666667E+009;1.776154637336731E-001;-5.064626410603523E-002;1.402452704496682E-003;3.731257747858763E-004;
2.421333333333334E+009;1.758214384317398E-001;-5.208024382591248E-002;1.281303004361689E-003;3.975825966335833E-004;
2.421500000000000E+009;1.741568148136139E-001;-5.418542772531509E-002;1.428482937626541E-003;3.981675254181027E-004;
2.421666666666667E+009;1.728561818599701E-001;-5.613096058368683E-002;1.317020156420767E-003;3.732437908183783E-004;
2.421833333333334E+009;1.714392304420471E-001;-5.822215974330902E-002;1.368023105897009E-003;3.243648970965296E-004;
2.422000000000000E+009;1.700587421655655E-001;-6.002266705036163E-002;1.326853758655489E-003;2.753421722445637E-004;
2.422166666666667E+009;1.689410656690598E-001;-6.237919256091118E-002;1.338678062893450E-003;1.584980782354251E-004;
2.422333333333334E+009;1.675765216350555E-001;-6.448882073163986E-002;1.338616828434169E-003;1.669986231718212E-004;
2.422500000000000E+009;1.667876690626144E-001;-6.656967848539352E-002;1.287629595026374E-003;1.977207721211016E-004;
2.422666666666667E+009;1.657525300979614E-001;-6.880789995193481E-002;1.353658037260175E-003;1.754379918565974E-004;
2.422833333333334E+009;1.651409268379211E-001;-7.131124287843704E-002;1.368557685054839E-003;8.188124047592282E-005;
2.423000000000000E+009;1.644636988639832E-001;-7.340531051158905E-002;1.198681653477252E-003;-1.364220952382311E-004;
2.423166666666667E+009;1.638617515563965E-001;-7.552640140056610E-002;1.408000010997057E-003;-1.331157109234482E-004;
2.423333333333334E+009;1.637136936187744E-001;-7.789868861436844E-002;1.314480439759791E-003;9.136815606325399E-006;
2.423500000000000E+009;1.634111702442169E-001;-7.994067668914795E-002;1.153143937699497E-003;-1.395956205669791E-004;
2.423666666666667E+009;1.634402424097061E-001;-8.207708597183228E-002;1.188322086818516E-003;-2.689793182071298E-004;
2.423833333333334E+009;1.633050590753555E-001;-8.414934575557709E-002;1.236362499184907E-003;-2.524580922909081E-004;
2.424000000000000E+009;1.635203957557678E-001;-8.606372773647308E-002;1.107996911741793E-003;-1.781878818292171E-004;
2.424166666666667E+009;1.634318828582764E-001;-8.814693242311478E-002;1.137275248765945E-003;-2.962619764730334E-004;
2.424333333333334E+009;1.637518256902695E-001;-8.982798457145691E-002;9.940502932295203E-004;-4.370485839899629E-004;
2.424500000000000E+009;1.642357110977173E-001;-9.178292006254196E-002;1.015601563267410E-003;-3.403724695090205E-004;
2.424666666666667E+009;1.645723283290863E-001;-9.335084259510040E-002;1.008388702757657E-003;-3.488209913484752E-004;
2.424833333333334E+009;1.651892364025116E-001;-9.499759227037430E-002;7.764872279949486E-004;-3.390797355677933E-004;
2.425000000000000E+009;1.655953973531723E-001;-9.622258692979813E-002;8.619587752036750E-004;-1.971539313672110E-004;
2.425166666666667E+009;1.660583466291428E-001;-9.757702052593231E-002;7.786183268763125E-004;-2.960598503705114E-004;
2.425333333333334E+009;1.666154265403748E-001;-9.882922470569611E-002;9.710626909509301E-004;-1.501573133282363E-004;
2.425500000000000E+009;1.671217679977417E-001;-9.991388767957687E-002;7.726865005679429E-004;-1.093454411602579E-004;
2.425666666666667E+009;1.677545309066773E-001;-1.008082628250122E-001;8.193973335437477E-004;-1.908091362565756E-004;
2.425833333333334E+009;1.682555526494980E-001;-1.017695367336273E-001;7.213602075353265E-004;-8.957795944297686E-005;
2.426000000000000E+009;1.689269691705704E-001;-1.021576076745987E-001;8.912471239455044E-004;1.966018135135528E-005;
2.426166666666667E+009;1.695328205823898E-001;-1.028118506073952E-001;8.597507840022445E-004;-8.418424840783700E-005;
2.426333333333334E+009;1.697287708520889E-001;-1.034365817904472E-001;1.099428511224687E-003;-1.363383489660919E-004;
2.426500000000000E+009;1.704882979393005E-001;-1.037381067872047E-001;9.256468620151281E-004;-8.211300155380741E-005;
2.426666666666667E+009;1.708619147539139E-001;-1.041309460997582E-001;1.083859126083553E-003;-8.894431812223047E-005;
2.426833333333334E+009;1.714628189802170E-001;-1.043030843138695E-001;1.089911325834692E-003;-2.149908250430599E-004;
2.427000000000000E+009;1.716093420982361E-001;-1.045542582869530E-001;9.492621757090092E-004;-8.369890565518290E-005;
2.427166666666667E+009;1.718994230031967E-001;-1.045969203114510E-001;1.092070946469903E-003;-2.603232569526881E-004;
2.427333333333334E+009;1.720555573701859E-001;-1.047623753547669E-001;1.103107118979096E-003;-2.329410926904529E-004;
2.427500000000000E+009;1.719432622194290E-001;-1.048189103603363E-001;1.179911661893129E-003;-1.296316331718117E-004;
2.427666666666667E+009;1.718801409006119E-001;-1.047758758068085E-001;1.130766118876636E-003;-3.362747665960342E-004;
2.427833333333334E+009;1.716749072074890E-001;-1.048305630683899E-001;1.204757369123399E-003;-3.246799169573933E-004;
