# Version 1.00
#
freq[Hz];re:Trc1_S11;im:Trc1_S11;re:Trc2_S21;im:Trc2_S21;
2.400000000000000E+009;1.553502827882767E-001;1.104479208588600E-001;-2.562248846516013E-004;-1.344165066257119E-003;
2.400166666666667E+009;1.548067778348923E-001;1.081798970699310E-001;-2.906566660385579E-004;-1.426571863703430E-003;
2.400333333333334E+009;1.547118574380875E-001;1.058652102947235E-001;-3.620887582655996E-004;-1.400795066729188E-003;
2.400500000000000E+009;1.541974395513535E-001;1.032027453184128E-001;-3.388709446880966E-004;-1.379016204737127E-003;
2.400666666666667E+009;1.539463400840759E-001;1.008298397064209E-001;-4.131101595703512E-004;-1.292653265409172E-003;
2.400833333333334E+009;1.535908728837967E-001;9.785480052232742E-002;-4.332185490056872E-004;-1.469813403673470E-003;
2.401000000000000E+009;1.536261886358261E-001;9.514133632183075E-002;-3.890559601131827E-004;-1.561055658385158E-003;
2.401166666666667E+009;1.533505320549011E-001;9.220264852046967E-002;-6.340676336549223E-004;-1.461170963011682E-003;
2.401333333333334E+009;1.535299718379974E-001;8.936672657728195E-002;-5.620227893814445E-004;-1.541042351163924E-003;
2.401500000000000E+009;1.537134796380997E-001;8.628181368112564E-002;-8.483165875077248E-004;-1.656089560128748E-003;
2.401666666666667E+009;1.537492722272873E-001;8.327759057283402E-002;-8.187767234630883E-004;-1.616719178855419E-003;
2.401833333333334E+009;1.539811342954636E-001;8.054310083389282E-002;-9.964248165488243E-004;-1.512744231149554E-003;
2.402000000000000E+009;1.546341031789780E-001;7.768034934997559E-002;-1.132446923293173E-003;-1.858858158811927E-003;
2.402166666666667E+009;1.552343815565109E-001;7.471526414155960E-002;-1.238352968357503E-003;-1.418775878846645E-003;
2.402333333333334E+009;1.561714708805084E-001;7.181464880704880E-002;-1.509132329374552E-003;-1.455875230021775E-003;
2.402500000000000E+009;1.570132523775101E-001;6.907838582992554E-002;-1.550009008497000E-003;-1.513447728939354E-003;
2.402666666666667E+009;1.579954326152802E-001;6.657656282186508E-002;-1.802725717425346E-003;-1.286569517105818E-003;
2.402833333333334E+009;1.593980491161346E-001;6.378629058599472E-002;-1.704403781332076E-003;-1.181669998914003E-003;
2.403000000000000E+009;1.606169641017914E-001;6.136627122759819E-002;-1.961390022188425E-003;-9.531420073471963E-004;
2.403166666666667E+009;1.623967438936234E-001;5.882263556122780E-002;-2.135192975401878E-003;-7.816008292138577E-004;
2.403333333333334E+009;1.639010012149811E-001;5.641389265656471E-002;-2.117414260283113E-003;-7.516951882280409E-004;
2.403500000000000E+009;1.657515913248062E-001;5.394746363162994E-002;-2.035983372479677E-003;-5.496478406712413E-004;
2.403666666666667E+009;1.674889028072357E-001;5.159275233745575E-002;-2.123495098203421E-003;-1.178611419163644E-004;
2.403833333333334E+009;1.692591011524200E-001;4.980660229921341E-002;-2.146065235137940E-003;-8.095049452094827E-006;
2.404000000000000E+009;1.709104925394058E-001;4.793019592761993E-002;-2.078189281746745E-003;1.079526773537509E-004;
2.404166666666667E+009;1.727454662322998E-001;4.608510434627533E-002;-1.963789574801922E-003;4.565236158668995E-004;
2.404333333333334E+009;1.745386868715286E-001;4.430695995688438E-002;-1.962606795132160E-003;5.954544758424163E-004;
2.404500000000000E+009;1.763217747211456E-001;4.285168647766113E-002;-1.944306073710322E-003;6.687198765575886E-004;
2.404666666666667E+009;1.783264428377152E-001;4.162394627928734E-002;-1.615215674974024E-003;6.638212944380939E-004;
2.404833333333334E+009;1.800478845834732E-001;4.042269662022591E-002;-1.426137052476406E-003;8.817733614705503E-004;
2.405000000000000E+009;1.817639321088791E-001;3.963803127408028E-002;-1.365955104120076E-003;7.338037830777466E-004;
2.405166666666667E+009;1.832599937915802E-001;3.876524791121483E-002;-1.175165642052889E-003;9.712043101899326E-004;
2.405333333333334E+009;1.850282549858093E-001;3.826455399394035E-002;-1.050538616254926E-003;9.842342697083950E-004;
2.405500000000000E+009;1.866806149482727E-001;3.783826157450676E-002;-9.164969669654965E-004;1.127187977544963E-003;
2.405666666666667E+009;1.881100684404373E-001;3.747052699327469E-002;-7.406799704767764E-004;1.028029946610332E-003;
2.405833333333334E+009;1.897210627794266E-001;3.717036545276642E-002;-6.031570374034345E-004;8.890215540304780E-004;
2.406000000000000E+009;1.909424811601639E-001;3.708643838763237E-002;-5.707208183594048E-004;9.937771828845143E-004;
2.406166666666667E+009;1.922048032283783E-001;3.699135407805443E-002;-4.253613296896219E-004;8.348390110768378E-004;
2.406333333333334E+009;1.933788955211639E-001;3.718120232224464E-002;-3.567451494745910E-004;8.596703410148621E-004;
2.406500000000000E+009;1.943088322877884E-001;3.742364794015884E-002;-2.812107559293509E-004;7.442965288646519E-004;
2.406666666666667E+009;1.952860802412033E-001;3.762691095471382E-002;-2.306257229065523E-004;7.828163215890527E-004;
2.406833333333334E+009;1.960518658161163E-001;3.785585612058640E-002;-2.482633281033486E-004;4.722719022538513E-004;
2.407000000000000E+009;1.965745240449905E-001;3.840938210487366E-002;-9.250366565538570E-005;6.254642503336072E-004;
2.407166666666667E+009;1.970771849155426E-001;3.844351321458817E-002;-1.098970096791163E-004;4.787717480212450E-004;
2.407333333333334E+009;1.973361968994141E-001;3.880299255251885E-002;-1.679944398347288E-004;6.261244998313487E-004;
2.407500000000000E+009;1.973569989204407E-001;3.927178680896759E-002;-1.679139677435160E-004;4.673215153161436E-004;
2.407666666666667E+009;1.975518018007278E-001;3.955997526645660E-002;8.882717520464212E-005;4.585305287037045E-004;
2.407833333333334E+009;1.971607953310013E-001;3.974370658397675E-002;-1.674010127317160E-004;4.313956305850297E-004;
2.408000000000000E+009;1.972104012966156E-001;4.004032537341118E-002;1.003104771371000E-004;3.446290502324700E-004;
2.408166666666667E+009;1.966801881790161E-001;4.002626612782478E-002;9.118401794694364E-005;3.375110682100058E-004;
2.408333333333334E+009;1.963162124156952E-001;3.981617093086243E-002;6.092901458032429E-005;1.079530120478012E-004;
2.408500000000000E+009;1.957181096076965E-001;3.992730379104614E-002;6.426456093322486E-005;8.307440293719992E-005;
2.408666666666667E+009;1.950884610414505E-001;3.974073007702828E-002;2.157239505322650E-004;6.635937097598799E-006;
2.408833333333334E+009;1.942718178033829E-001;3.946782276034355E-002;1.751475356286392E-004;-1.488142734160647E-004;
2.409000000000000E+009;1.933617442846298E-001;3.881997242569923E-002;9.168715041596443E-005;-1.940417569130659E-004;
2.409166666666667E+009;1.922876685857773E-001;3.824846446514130E-002;3.943494812119752E-005;-5.280252662487328E-004;
2.409333333333334E+009;1.913565993309021E-001;3.759583830833435E-002;-4.335604535299353E-005;-4.375254211481661E-004;
2.409500000000000E+009;1.901152133941650E-001;3.670443966984749E-002;-1.573319605085999E-004;-5.238797166384757E-004;
2.409666666666667E+009;1.891566663980484E-001;3.548828512430191E-002;-3.890944935847074E-004;-5.064698634669185E-004;
2.409833333333334E+009;1.878401786088944E-001;3.428789600729942E-002;-5.343533121049404E-004;-4.491139552555978E-004;
2.410000000000000E+009;1.869050115346909E-001;3.296331316232681E-002;-6.111255497671664E-004;-4.151546163484454E-004;
2.410166666666667E+009;1.855350881814957E-001;3.114202991127968E-002;-5.877767689526081E-004;-3.107657248619944E-004;
2.410333333333334E+009;1.844080537557602E-001;2.979090809822083E-002;-8.270379621535540E-004;-2.619648585096002E-004;
2.410500000000000E+009;1.832827031612396E-001;2.803134918212891E-002;-8.800398791208863E-004;-3.015227266587317E-004;
2.410666666666667E+009;1.821335703134537E-001;2.576397731900215E-002;-9.139223839156330E-004;-2.402478130534291E-004;
2.410833333333334E+009;1.813915967941284E-001;2.368020825088024E-002;-9.566143853589892E-004;-1.562446996103972E-004;
2.411000000000000E+009;1.804887354373932E-001;2.160505577921867E-002;-1.054238877259195E-003;-2.444787241984159E-004;
2.411166666666667E+009;1.796318143606186E-001;1.939582638442516E-002;-1.154543482698500E-003;-9.011065412778407E-005;
2.411333333333334E+009;1.788614988327026E-001;1.683361269533634E-002;-1.189475296996534E-003;-5.809874346596189E-005;
2.411500000000000E+009;1.780817508697510E-001;1.451731193810701E-002;-1.142145716585219E-003;-1.411423545505386E-005;
2.411666666666667E+009;1.777596026659012E-001;1.206655241549015E-002;-1.200035330839455E-003;2.400917583145201E-004;
2.411833333333334E+009;1.772481203079224E-001;9.521607309579849E-003;-1.258636824786663E-003;-1.148404408013448E-005;
2.412000000000000E+009;1.772465407848358E-001;6.730102933943272E-003;-1.214923802763224E-003;1.453272270737216E-004;
2.412166666666667E+009;1.772013753652573E-001;4.353695083409548E-003;-1.368297263979912E-003;1.880860363598913E-004;
2.412333333333334E+009;1.773610711097717E-001;1.649666228331626E-003;-1.243820763193071E-003;3.635192406363785E-004;
2.412500000000000E+009;1.777372807264328E-001;-8.790783467702568E-004;-1.316924463026226E-003;4.818014567717910E-004;
2.412666666666667E+009;1.781236231327057E-001;-3.526929533109069E-003;-1.352928578853607E-003;6.669199792668223E-004;
2.412833333333334E+009;1.787690967321396E-001;-6.331065203994513E-003;-1.416831160895526E-003;6.629705312661827E-004;
2.413000000000000E+009;1.795066893100739E-001;-8.872845210134983E-003;-1.464105909690261E-003;7.849525427445769E-004;
2.413166666666667E+009;1.801853924989700E-001;-1.147205755114555E-002;-1.444898312911391E-003;8.411782328039408E-004;
2.413333333333334E+009;1.813381016254425E-001;-1.399925351142883E-002;-1.429536961950362E-003;1.000441960059106E-003;
2.413500000000000E+009;1.821251064538956E-001;-1.661786623299122E-002;-1.403349800966680E-003;1.071256469003856E-003;
2.413666666666667E+009;1.834731549024582E-001;-1.910492032766342E-002;-1.111374353058636E-003;1.174028497189283E-003;
2.413833333333334E+009;1.844971925020218E-001;-2.133847959339619E-002;-1.348623889498413E-003;1.341435825452209E-003;
2.414000000000000E+009;1.858368813991547E-001;-2.363529242575169E-002;-9.872141527011991E-004;1.404961920343339E-003;
2.414166666666667E+009;1.872458159923554E-001;-2.549365162849426E-002;-1.026801997795701E-003;1.348535064607859E-003;
2.414333333333334E+009;1.884457916021347E-001;-2.788257040083408E-002;-1.006136066280305E-003;1.545036444440484E-003;
2.414500000000000E+009;1.898715794086456E-001;-2.976421639323235E-002;-8.852150058373809E-004;1.595969544723630E-003;
2.414666666666667E+009;1.911559104919434E-001;-3.147536143660545E-002;-7.684669690206647E-004;1.570109161548317E-003;
2.414833333333334E+009;1.925657093524933E-001;-3.297661244869232E-002;-6.215671310201287E-004;1.556837814860046E-003;
2.415000000000000E+009;1.939461976289749E-001;-3.455617651343346E-002;-6.616110913455486E-004;1.745369052514434E-003;
2.415166666666667E+009;1.955090463161469E-001;-3.582822903990746E-002;-4.118229553569108E-004;1.747151603922248E-003;
2.415333333333334E+009;1.968310475349426E-001;-3.691222146153450E-002;-2.803852548822761E-004;1.639874884858728E-003;
2.415500000000000E+009;1.982019692659378E-001;-3.791628777980804E-002;-2.573713136371225E-004;1.732139731757343E-003;
2.415666666666667E+009;1.995757222175598E-001;-3.886319324374199E-002;-2.055984950857237E-004;1.714669284410775E-003;
2.415833333333334E+009;2.006587982177734E-001;-3.960689529776573E-002;-8.529284968972206E-006;1.639017718844116E-003;
2.416000000000000E+009;2.017346769571304E-001;-4.026101902127266E-002;1.270105422008783E-004;1.564401783980429E-003;
2.416166666666667E+009;2.028800994157791E-001;-4.087159782648087E-002;1.225275336764753E-004;1.629974809475243E-003;
2.416333333333334E+009;2.036848962306976E-001;-4.122900962829590E-002;7.456004095729441E-005;1.489846617914736E-003;
2.416500000000000E+009;2.045044749975205E-001;-4.147700965404511E-002;1.079507856047712E-004;1.492948038503528E-003;
2.416666666666667E+009;2.051339745521545E-001;-4.184972494840622E-002;3.117254818789661E-004;1.447988557629287E-003;
2.416833333333334E+009;2.055288404226303E-001;-4.188762605190277E-002;1.911308354465291E-004;1.310733379796147E-003;
2.417000000000000E+009;2.059668153524399E-001;-4.197584092617035E-002;1.536054624011740E-004;1.426012953743339E-003;
2.417166666666667E+009;2.060208171606064E-001;-4.177703708410263E-002;1.902468357002363E-004;1.410442520864308E-003;
2.417333333333334E+009;2.059939354658127E-001;-4.155466705560684E-002;2.544090384617448E-004;1.496340031735599E-003;
2.417500000000000E+009;2.059664726257324E-001;-4.156493023037911E-002;3.786154848057777E-004;1.735741505399346E-003;
2.417666666666667E+009;2.057292610406876E-001;-4.108674824237824E-002;3.948621451854706E-004;1.603162963874638E-003;
2.417833333333334E+009;2.054805904626846E-001;-4.086556658148766E-002;4.755134868901223E-004;1.640289556235075E-003;
2.418000000000000E+009;2.049482911825180E-001;-4.041687771677971E-002;5.286954110488296E-004;1.648017438128591E-003;
2.418166666666667E+009;2.043480277061462E-001;-4.014246910810471E-002;8.001427631825209E-004;1.805585343390703E-003;
2.418333333333334E+009;2.035120725631714E-001;-3.975796326994896E-002;8.495175279676914E-004;1.682799425907433E-003;
2.418500000000000E+009;2.026330828666687E-001;-3.965833038091660E-002;1.054650405421853E-003;1.717448001727462E-003;
2.418666666666667E+009;2.017565220594406E-001;-3.954438492655754E-002;1.106306328438222E-003;1.561228185892105E-003;
2.418833333333334E+009;2.006680071353912E-001;-3.942751884460449E-002;1.273024012334645E-003;1.432827091775835E-003;
2.419000000000000E+009;1.994323283433914E-001;-3.935607895255089E-002;1.427808078005910E-003;1.329455408267677E-003;
2.419166666666667E+009;1.981357336044312E-001;-3.946354240179062E-002;1.520746154710650E-003;1.279718242585659E-003;
2.419333333333334E+009;1.967334300279617E-001;-3.977251052856445E-002;1.577225397340953E-003;1.081202528439462E-003;
2.419500000000000E+009;1.952061206102371E-001;-3.997876122593880E-002;1.450106734409928E-003;1.076118671335280E-003;
2.419666666666667E+009;1.934674531221390E-001;-4.067014902830124E-002;1.483107684180141E-003;9.449474164284766E-004;
2.419833333333334E+009;1.918940842151642E-001;-4.105357453227043E-002;1.604958088137209E-003;6.523281335830689E-004;
2.420000000000000E+009;1.901776045560837E-001;-4.184587672352791E-002;1.534706447273493E-003;6.154010188765824E-004;
2.420166666666667E+009;1.883581876754761E-001;-4.259444773197174E-002;1.491269096732140E-003;5.782901425845921E-004;
2.420333333333334E+009;1.866370737552643E-001;-4.372753575444222E-002;1.382693182677031E-003;4.505358811002225E-004;
2.420500000000000E+009;1.848293691873550E-001;-4.499043896794319E-002;1.374767045490444E-003;4.035479214508086E-004;
2.420666666666667E+009;1.828264147043228E-001;-4.590301960706711E-002;1.362443668767810E-003;5.010611494071782E-004;
2.420833333333334E+009;1.809372752904892E-001;-4.741099104285240E-002;1.340282033197582E-003;4.450777196325362E-004;
2.421000000000000E+009;1.793525069952011E-001;-4.894582554697990E-002;1.353898551315069E-003;3.510033711791039E-004;
2.421166666666667E+009;1.777046918869019E-001;-5.066176503896713E-002;1.330757979303598E-003;3.403460141271353E-004;
2.421333333333334E+009;1.758924126625061E-001;-5.227584019303322E-002;1.321420888416469E-003;3.268739092163742E-004;
2.421500000000000E+009;1.743699759244919E-001;-5.420599505305290E-002;1.259091077372432E-003;2.761183131951839E-004;
2.421666666666667E+009;1.728519052267075E-001;-5.622081831097603E-002;1.452979515306652E-003;2.995395916514099E-004;
2.421833333333334E+009;1.714518517255783E-001;-5.804481357336044E-002;1.220497419126332E-003;1.305338664678857E-004;
2.422000000000000E+009;1.701360642910004E-001;-6.010811775922775E-002;1.373935607261956E-003;2.481110568623990E-004;
2.422166666666667E+009;1.690015941858292E-001;-6.250721961259842E-002;1.344616524875164E-003;1.011402782751247E-004;
2.422333333333334E+009;1.675540506839752E-001;-6.453561782836914E-002;1.309820450842381E-003;1.113068647100590E-004;
2.422500000000000E+009;1.666082292795181E-001;-6.677424907684326E-002;1.267296727746725E-003;-1.073321254807524E-004;
2.422666666666667E+009;1.657625287771225E-001;-6.904660165309906E-002;1.265169004909694E-003;-3.825841190518986E-007;
2.422833333333334E+009;1.651021689176559E-001;-7.118515670299530E-002;1.243032980710268E-003;-6.465577462222427E-005;
2.423000000000000E+009;1.643641740083695E-001;-7.346866279840469E-002;1.294089015573263E-003;-9.217152546625584E-005;
2.423166666666667E+009;1.639175862073898E-001;-7.566707581281662E-002;1.159615232609212E-003;-9.192473953589797E-005;
2.423333333333334E+009;1.635736525058746E-001;-7.784367352724075E-002;1.221212442032993E-003;-1.631784543860704E-004;
2.423500000000000E+009;1.634853184223175E-001;-7.992542535066605E-002;1.231869100593031E-003;-2.673691778909415E-004;
2.423666666666667E+009;1.634741574525833E-001;-8.212925493717194E-002;1.161997090093792E-003;-3.373990184627473E-004;
2.423833333333334E+009;1.632895618677139E-001;-8.409484475851059E-002;1.052169129252434E-003;-4.081701044924557E-004;
2.424000000000000E+009;1.633913367986679E-001;-8.633879572153091E-002;1.036883681081235E-003;-3.979534667450935E-004;
2.424166666666667E+009;1.634975075721741E-001;-8.802109211683273E-002;9.485479677096009E-004;-3.277085779700428E-004;
2.424333333333334E+009;1.638743877410889E-001;-8.984851092100143E-002;1.038250280544162E-003;-4.650447517633438E-004;
2.424500000000000E+009;1.641010344028473E-001;-9.175334870815277E-002;8.222827455028892E-004;-5.584401078522205E-004;
2.424666666666667E+009;1.645209044218063E-001;-9.340868145227432E-002;8.082300773821771E-004;-3.687467251438648E-004;
2.424833333333334E+009;1.650868803262711E-001;-9.489189088344574E-002;7.408951059915125E-004;-4.559653170872480E-004;
2.425000000000000E+009;1.655653566122055E-001;-9.632781893014908E-002;8.001337992027402E-004;-3.109852259512991E-004;
2.425166666666667E+009;1.660903245210648E-001;-9.763348847627640E-002;7.170756580308080E-004;-2.336542092962191E-004;
2.425333333333334E+009;1.665116548538208E-001;-9.878167510032654E-002;5.625276826322079E-004;-2.742473734542728E-004;
2.425500000000000E+009;1.672785878181458E-001;-9.994479268789291E-002;6.836930988356471E-004;-1.756606070557609E-004;
2.425666666666667E+009;1.679195910692215E-001;-1.007207855582237E-001;7.138219079934061E-004;-3.198643098585308E-004;
2.425833333333334E+009;1.683962643146515E-001;-1.017377823591232E-001;6.330047617666423E-004;-2.077750104945153E-004;
2.426000000000000E+009;1.689069122076035E-001;-1.022208556532860E-001;6.889298674650490E-004;-1.334342668997124E-004;
2.426166666666667E+009;1.696020662784576E-001;-1.028721928596497E-001;8.477829978801310E-004;-1.210221817018464E-004;
2.426333333333334E+009;1.698483675718308E-001;-1.034086495637894E-001;7.791320094838738E-004;-7.137933425838128E-005;
2.426500000000000E+009;1.705503463745117E-001;-1.038969680666924E-001;7.510119467042387E-004;-1.536301351734437E-005;
2.426666666666667E+009;1.710141450166702E-001;-1.041460856795311E-001;8.895344799384475E-004;-1.954282488441095E-004;
2.426833333333334E+009;1.714958101511002E-001;-1.044010892510414E-001;8.669717935845256E-004;-1.839453761931509E-004;
2.427000000000000E+009;1.717288941144943E-001;-1.046155616641045E-001;8.220626041293144E-004;-2.280899643665180E-004;
2.427166666666667E+009;1.720505058765411E-001;-1.046150475740433E-001;7.879534387029707E-004;-1.907993282657117E-004;
2.427333333333334E+009;1.721428781747818E-001;-1.046987920999527E-001;9.636885370127857E-004;-1.175410579890013E-004;
2.427500000000000E+009;1.721069365739822E-001;-1.047958880662918E-001;1.060597249306738E-003;-3.380085399840027E-004;
2.427666666666667E+009;1.719645708799362E-001;-1.047311946749687E-001;1.010905369184911E-003;-1.008017570711672E-004;
2.427833333333334E+009;1.718315482139587E-001;-1.048314347863197E-001;9.127351222559810E-004;-1.393920538248494E-004;
