# Version 1.00
#
freq[Hz];re:Trc1_S11;im:Trc1_S11;re:Trc2_S21;im:Trc2_S21;
2.400000000000000E+009;1.553949117660523E-001;1.103266403079033E-001;-1.625479198992252E-004;-1.476825913414359E-003;
2.400166666666667E+009;1.545824706554413E-001;1.082303747534752E-001;-9.112346742767841E-005;-1.480675302445889E-003;
2.400333333333334E+009;1.545681059360504E-001;1.058488041162491E-001;-3.053121326956898E-004;-1.491087023168802E-003;
2.400500000000000E+009;1.541143953800201E-001;1.032657176256180E-001;-3.020783478859812E-004;-1.471700263209641E-003;
2.400666666666667E+009;1.539776176214218E-001;1.006855517625809E-001;-2.749850100371987E-004;-1.487684785388410E-003;
2.400833333333334E+009;1.537764966487885E-001;9.793631732463837E-002;-3.362143470440060E-004;-1.537649077363312E-003;
2.401000000000000E+009;1.537778526544571E-001;9.498158842325211E-002;-3.591056156437844E-004;-1.595460111275315E-003;
2.401166666666667E+009;1.534123271703720E-001;9.203768521547318E-002;-4.917524056509137E-004;-1.615904853679240E-003;
2.401333333333334E+009;1.534494757652283E-001;8.920498192310333E-002;-4.367958754301071E-004;-1.518151839263737E-003;
2.401500000000000E+009;1.537053287029266E-001;8.622108399868012E-002;-7.820011815056205E-004;-1.651544822379947E-003;
2.401666666666667E+009;1.539239138364792E-001;8.321996033191681E-002;-7.152666803449392E-004;-1.742889289744198E-003;
2.401833333333334E+009;1.541947424411774E-001;8.028330653905869E-002;-9.140240144915879E-004;-1.730641466565430E-003;
2.402000000000000E+009;1.547946482896805E-001;7.734619826078415E-002;-1.205367618240416E-003;-1.710473326966167E-003;
2.402166666666667E+009;1.554215848445892E-001;7.453577220439911E-002;-1.169405994005501E-003;-1.514397561550140E-003;
2.402333333333334E+009;1.563086211681366E-001;7.173264771699905E-002;-1.457834616303444E-003;-1.505766995251179E-003;
2.402500000000000E+009;1.570165455341339E-001;6.894026696681976E-002;-1.480564242228866E-003;-1.480479375459254E-003;
2.402666666666667E+009;1.582242101430893E-001;6.627040356397629E-002;-1.774790813215077E-003;-1.339093549177051E-003;
2.402833333333334E+009;1.594633311033249E-001;6.366097182035446E-002;-1.821161480620503E-003;-1.106983050704002E-003;
2.403000000000000E+009;1.608807444572449E-001;6.106822937726975E-002;-1.929011195898056E-003;-1.212649862281978E-003;
2.403166666666667E+009;1.625828593969345E-001;5.853589251637459E-002;-2.012810437008739E-003;-8.826737175695598E-004;
2.403333333333334E+009;1.639290899038315E-001;5.611120164394379E-002;-2.098341472446919E-003;-7.463057991117239E-004;
2.403500000000000E+009;1.658559590578079E-001;5.395491048693657E-002;-2.024307381361723E-003;-5.003708647564054E-004;
2.403666666666667E+009;1.676986366510391E-001;5.183612927794457E-002;-2.262407215312123E-003;-3.175948513671756E-004;
2.403833333333334E+009;1.693441718816757E-001;4.965537041425705E-002;-1.974407117813826E-003;-1.216800519614480E-004;
2.404000000000000E+009;1.709703505039215E-001;4.763247445225716E-002;-2.118481323122978E-003;1.687711628619582E-004;
2.404166666666667E+009;1.728457957506180E-001;4.604395478963852E-002;-1.939910580404103E-003;4.179553361609578E-004;
2.404333333333334E+009;1.746623367071152E-001;4.433447495102882E-002;-1.929509919136763E-003;4.403824568726122E-004;
2.404500000000000E+009;1.764367222785950E-001;4.282136261463165E-002;-1.884827972389758E-003;5.468821036629379E-004;
2.404666666666667E+009;1.783548146486282E-001;4.152019694447517E-002;-1.588448067195714E-003;6.946556968614459E-004;
2.404833333333334E+009;1.801199018955231E-001;4.030881449580193E-002;-1.464920933358371E-003;8.587675401940942E-004;
2.405000000000000E+009;1.817968040704727E-001;3.950229659676552E-002;-1.259846496395767E-003;7.178293308243156E-004;
2.405166666666667E+009;1.834747791290283E-001;3.879147395491600E-002;-1.176465535536408E-003;9.738120133988559E-004;
2.405333333333334E+009;1.850114911794663E-001;3.818180412054062E-002;-9.505950729362667E-004;9.094547713175416E-004;
2.405500000000000E+009;1.867018938064575E-001;3.757989779114723E-002;-8.996895048767328E-004;1.029269071295857E-003;
2.405666666666667E+009;1.881469935178757E-001;3.726834431290627E-002;-6.988249369896948E-004;9.605938685126603E-004;
2.405833333333334E+009;1.898541748523712E-001;3.701673448085785E-002;-7.491243304684758E-004;9.583886130712926E-004;
2.406000000000000E+009;1.909877359867096E-001;3.691937029361725E-002;-4.754906403832138E-004;7.504196837544441E-004;
2.406166666666667E+009;1.922745257616043E-001;3.692539036273956E-002;-4.087789566256106E-004;5.930616753175855E-004;
2.406333333333334E+009;1.935295164585114E-001;3.703515231609345E-002;-3.922978648915887E-004;5.729269469156861E-004;
2.406500000000000E+009;1.944407522678375E-001;3.725583851337433E-002;-2.614796103443950E-004;5.986447213217616E-004;
2.406666666666667E+009;1.951874196529388E-001;3.752659261226654E-002;-1.886446698335931E-004;5.863833939656615E-004;
2.406833333333334E+009;1.960877478122711E-001;3.766402602195740E-002;-3.207894042134285E-004;5.362086812965572E-004;
2.407000000000000E+009;1.965200752019882E-001;3.818885982036591E-002;-2.287430397700518E-004;6.617262843064964E-004;
2.407166666666667E+009;1.971527338027954E-001;3.824703022837639E-002;-3.653419553302229E-004;4.327693022787571E-004;
2.407333333333334E+009;1.972988694906235E-001;3.877367451786995E-002;-2.562980516813695E-004;3.854062524624169E-004;
2.407500000000000E+009;1.973499953746796E-001;3.905882686376572E-002;-4.113109753234312E-005;4.136208735872060E-004;
2.407666666666667E+009;1.975569278001785E-001;3.934008628129959E-002;-5.844425686518662E-005;2.979171695187688E-004;
2.407833333333334E+009;1.972417831420898E-001;3.968967497348785E-002;-9.676554327597842E-005;5.144262104295194E-004;
2.408000000000000E+009;1.972625255584717E-001;3.983686864376068E-002;-4.624400389729999E-005;2.176636917283759E-004;
2.408166666666667E+009;1.968609839677811E-001;3.989554569125176E-002;1.454363791708602E-005;1.631685299798846E-004;
2.408333333333334E+009;1.962849646806717E-001;3.973945230245590E-002;1.014233275782317E-004;-3.001098593813367E-005;
2.408500000000000E+009;1.958094388246536E-001;3.971225023269653E-002;1.528645807411522E-004;1.526150153949857E-004;
2.408666666666667E+009;1.951088011264801E-001;3.962757810950279E-002;1.888979895738885E-004;-1.192121562780812E-004;
2.408833333333334E+009;1.943293660879135E-001;3.928796574473381E-002;1.705142640275881E-004;-2.265334624098614E-004;
2.409000000000000E+009;1.934748739004135E-001;3.863567486405373E-002;2.617197969811969E-005;-2.451691834721714E-004;
2.409166666666667E+009;1.924224644899368E-001;3.808823600411415E-002;-8.954067016020417E-005;-4.122758691664785E-004;
2.409333333333334E+009;1.913642287254334E-001;3.734552115201950E-002;-1.477415207773447E-004;-6.017730338498950E-004;
2.409500000000000E+009;1.899697780609131E-001;3.643360361456871E-002;-4.239688569214195E-004;-4.392644914332777E-004;
2.409666666666667E+009;1.890313923358917E-001;3.526903688907623E-002;-3.998279862571508E-004;-5.632122629322112E-004;
2.409833333333334E+009;1.876791417598724E-001;3.402974829077721E-002;-4.676410462707281E-004;-5.488067981787026E-004;
2.410000000000000E+009;1.866844743490219E-001;3.272486105561256E-002;-7.798907463438809E-004;-5.038858507759869E-004;
2.410166666666667E+009;1.855668723583221E-001;3.106168098747730E-002;-8.534399094060063E-004;-3.796041419263929E-004;
2.410333333333334E+009;1.843271255493164E-001;2.965299598872662E-002;-9.030386572703719E-004;-3.111311234533787E-004;
2.410500000000000E+009;1.831790208816528E-001;2.772090956568718E-002;-9.403345175087452E-004;-2.788015117403120E-004;
2.410666666666667E+009;1.820158362388611E-001;2.551222778856754E-002;-9.850704809650779E-004;-3.147502429783344E-004;
2.410833333333334E+009;1.812664419412613E-001;2.358522638678551E-002;-1.046593417413533E-003;-2.155968250008300E-004;
2.411000000000000E+009;1.802623718976975E-001;2.137388661503792E-002;-1.141925342381001E-003;-2.195004344685003E-004;
2.411166666666667E+009;1.792801767587662E-001;1.932038925588131E-002;-1.222182530909777E-003;-1.627196324989200E-004;
2.411333333333334E+009;1.785880625247955E-001;1.663804799318314E-002;-1.207363442517817E-003;-8.779989002505317E-005;
2.411500000000000E+009;1.779044866561890E-001;1.426452957093716E-002;-1.344012329354882E-003;-9.342978592030704E-005;
2.411666666666667E+009;1.775926649570465E-001;1.179347373545170E-002;-1.237186719663441E-003;3.307862425572239E-005;
2.411833333333334E+009;1.771383583545685E-001;9.495487436652184E-003;-1.430268283002079E-003;1.593388442415744E-004;
2.412000000000000E+009;1.771767139434815E-001;6.671069189906120E-003;-1.230287249200046E-003;2.637204888742417E-004;
2.412166666666667E+009;1.770283132791519E-001;4.065404646098614E-003;-1.333235180936754E-003;1.612406340427697E-004;
2.412333333333334E+009;1.772491782903671E-001;1.544906408526003E-003;-1.332851010374725E-003;2.389455185038969E-004;
2.412500000000000E+009;1.775786578655243E-001;-1.110584009438753E-003;-1.384311588481069E-003;5.234607378952205E-004;
2.412666666666667E+009;1.778556108474731E-001;-3.765161847695708E-003;-1.593398395925760E-003;4.947207635268569E-004;
2.412833333333334E+009;1.786509603261948E-001;-6.366518326103687E-003;-1.277606002986431E-003;6.588287651538849E-004;
2.413000000000000E+009;1.793026328086853E-001;-8.990266360342503E-003;-1.413041376508772E-003;8.225739584304392E-004;
2.413166666666667E+009;1.801051050424576E-001;-1.137755159288645E-002;-1.444003079086542E-003;9.300367091782391E-004;
2.413333333333334E+009;1.810654252767563E-001;-1.408745069056749E-002;-1.344149583019316E-003;1.010629464872181E-003;
2.413500000000000E+009;1.821110546588898E-001;-1.664021797478199E-002;-1.350364880636334E-003;9.652552544139326E-004;
2.413666666666667E+009;1.832264512777329E-001;-1.902765035629273E-002;-1.417721621692181E-003;1.325388555414975E-003;
2.413833333333334E+009;1.844188719987869E-001;-2.121955342590809E-002;-1.221509417518973E-003;1.343832933343947E-003;
2.414000000000000E+009;1.856030523777008E-001;-2.368367463350296E-002;-1.354698208160698E-003;1.325024291872978E-003;
2.414166666666667E+009;1.870451867580414E-001;-2.562231011688709E-002;-9.367645252496004E-004;1.369093428365886E-003;
2.414333333333334E+009;1.882451474666596E-001;-2.788138017058373E-002;-9.367259335704148E-004;1.406370662152767E-003;
2.414500000000000E+009;1.897107213735580E-001;-2.963532134890556E-002;-9.062660974450409E-004;1.477791345678270E-003;
2.414666666666667E+009;1.910482645034790E-001;-3.151557222008705E-002;-9.356194641441107E-004;1.565680606290698E-003;
2.414833333333334E+009;1.924479752779007E-001;-3.294351696968079E-002;-6.791951018385589E-004;1.738366438075900E-003;
2.415000000000000E+009;1.937608569860458E-001;-3.451735526323319E-002;-5.678261513821781E-004;1.641763141378760E-003;
2.415166666666667E+009;1.952555030584335E-001;-3.579502552747726E-002;-4.448476829566062E-004;1.787896268069744E-003;
2.415333333333334E+009;1.967036724090576E-001;-3.692648187279701E-002;-4.783277399837971E-004;1.836682320572436E-003;
2.415500000000000E+009;1.981392055749893E-001;-3.784966841340065E-002;-2.477523230481893E-004;1.737110549584031E-003;
2.415666666666667E+009;1.993983834981918E-001;-3.882002830505371E-002;-2.248611272079870E-004;1.828599954023957E-003;
2.415833333333334E+009;2.005624771118164E-001;-3.961906954646111E-002;-1.685391762293875E-004;1.694627921096981E-003;
2.416000000000000E+009;2.015896439552307E-001;-4.027964547276497E-002;-8.845456250128336E-006;1.565655693411827E-003;
2.416166666666667E+009;2.027791440486908E-001;-4.098376631736755E-002;1.547864958411083E-004;1.615322427824140E-003;
2.416333333333334E+009;2.035731524229050E-001;-4.123782739043236E-002;1.699336462479550E-005;1.642085262574256E-003;
2.416500000000000E+009;2.044445276260376E-001;-4.154336452484131E-002;1.378315646434203E-004;1.568796928040683E-003;
2.416666666666667E+009;2.049855738878250E-001;-4.190611094236374E-002;2.823911781888455E-004;1.523452927358449E-003;
2.416833333333334E+009;2.053531855344772E-001;-4.186467453837395E-002;1.142471955972724E-004;1.419026870280504E-003;
2.417000000000000E+009;2.057870775461197E-001;-4.199654981493950E-002;1.214064322994091E-004;1.584972953423858E-003;
2.417166666666667E+009;2.057806253433228E-001;-4.176262393593788E-002;1.040345086948946E-004;1.571887987665832E-003;
2.417333333333334E+009;2.058172523975372E-001;-4.154039546847343E-002;8.900525426724926E-005;1.540986821055412E-003;
2.417500000000000E+009;2.058327943086624E-001;-4.147911444306374E-002;1.059802598319948E-004;1.551687018945813E-003;
2.417666666666667E+009;2.054650634527206E-001;-4.105393216013908E-002;2.972560469061136E-004;1.705509494058788E-003;
2.417833333333334E+009;2.053058743476868E-001;-4.071494936943054E-002;5.030315951444209E-004;1.843767589889467E-003;
2.418000000000000E+009;2.048115432262421E-001;-4.030683264136314E-002;5.435001803562045E-004;1.925544114783406E-003;
2.418166666666667E+009;2.041267603635788E-001;-4.005779698491097E-002;5.926577723585069E-004;1.824616454541683E-003;
2.418333333333334E+009;2.035009264945984E-001;-3.971628099679947E-002;7.120516966097057E-004;1.852960092946887E-003;
2.418500000000000E+009;2.025050967931747E-001;-3.953373432159424E-002;1.082367147319019E-003;1.800506259314716E-003;
2.418666666666667E+009;2.017668634653091E-001;-3.933640569448471E-002;1.158640137873590E-003;1.647029770538211E-003;
2.418833333333334E+009;2.005615681409836E-001;-3.916140645742416E-002;1.365042175166309E-003;1.699343090876937E-003;
2.419000000000000E+009;1.993694752454758E-001;-3.921795636415482E-002;1.372726983390749E-003;1.538640819489956E-003;
2.419166666666667E+009;1.979918032884598E-001;-3.932182118296623E-002;1.505757449194789E-003;1.333093387074769E-003;
2.419333333333334E+009;1.965641081333160E-001;-3.963778540492058E-002;1.471597584895790E-003;1.322807162068784E-003;
2.419500000000000E+009;1.950466632843018E-001;-3.987592458724976E-002;1.574017573148012E-003;1.156249549239874E-003;
2.419666666666667E+009;1.933469176292419E-001;-4.052330553531647E-002;1.504055922850967E-003;9.322813712060452E-004;
2.419833333333334E+009;1.917699426412582E-001;-4.097269847989082E-002;1.542152138426900E-003;9.046437335200608E-004;
2.420000000000000E+009;1.900725960731506E-001;-4.175007715821266E-002;1.557920710183680E-003;6.847695913165808E-004;
2.420166666666667E+009;1.882450133562088E-001;-4.247569292783737E-002;1.331890583969653E-003;6.561163463629782E-004;
2.420333333333334E+009;1.864042580127716E-001;-4.372138530015945E-002;1.507562468759716E-003;6.514575798064470E-004;
2.420500000000000E+009;1.845620572566986E-001;-4.473945125937462E-002;1.313102664425969E-003;6.360843544825912E-004;
2.420666666666667E+009;1.827672719955444E-001;-4.590040072798729E-002;1.394793507643044E-003;6.457816343754530E-004;
2.420833333333334E+009;1.809445470571518E-001;-4.729099199175835E-002;1.345842611044645E-003;5.492026684805751E-004;
2.421000000000000E+009;1.792468726634979E-001;-4.884599521756172E-002;1.282426062971354E-003;4.793849075213075E-004;
2.421166666666667E+009;1.776846349239349E-001;-5.064555630087853E-002;1.318368013016880E-003;4.177718074060977E-004;
2.421333333333334E+009;1.757802665233612E-001;-5.211349949240685E-002;1.349484547972679E-003;4.301960289012641E-004;
2.421500000000000E+009;1.742364317178726E-001;-5.412928014993668E-002;1.444357447326183E-003;4.005403025075793E-004;
2.421666666666667E+009;1.727438420057297E-001;-5.600585415959358E-002;1.401973655447364E-003;3.083677729591727E-004;
2.421833333333334E+009;1.714100539684296E-001;-5.796574056148529E-002;1.393478247337043E-003;3.673889441415668E-004;
2.422000000000000E+009;1.699438989162445E-001;-6.015155091881752E-002;1.382661750540137E-003;2.383924147579819E-004;
2.422166666666667E+009;1.689488142728806E-001;-6.222708895802498E-002;1.379459281452000E-003;1.531958841951564E-004;
2.422333333333334E+009;1.677277237176895E-001;-6.460715085268021E-002;1.481126411817968E-003;2.823001123033464E-004;
2.422500000000000E+009;1.667018532752991E-001;-6.652418524026871E-002;1.463128137402237E-003;1.352074905298650E-004;
2.422666666666667E+009;1.657151579856873E-001;-6.891018152236939E-002;1.345657161436975E-003;-2.625198976602405E-005;
2.422833333333334E+009;1.653256565332413E-001;-7.100705057382584E-002;1.344974734820426E-003;5.723087087972090E-005;
2.423000000000000E+009;1.645141988992691E-001;-7.328476011753082E-002;1.342516508884728E-003;-1.029087943607010E-004;
2.423166666666667E+009;1.639805585145950E-001;-7.549058645963669E-002;1.317215734161437E-003;-1.936131448019296E-004;
2.423333333333334E+009;1.637727767229080E-001;-7.773748040199280E-002;1.345618045888841E-003;-2.001510874833912E-004;
2.423500000000000E+009;1.635659188032150E-001;-7.981676608324051E-002;1.174343051388860E-003;-2.061333070741966E-004;
2.423666666666667E+009;1.634062975645065E-001;-8.216954022645950E-002;1.273689907975495E-003;-2.075499360216782E-004;
2.423833333333334E+009;1.632850319147110E-001;-8.407700806856155E-002;1.164784538559616E-003;-3.558358876034617E-004;
2.424000000000000E+009;1.633279621601105E-001;-8.607335388660431E-002;1.242074533365667E-003;-2.511004568077624E-004;
2.424166666666667E+009;1.636182069778442E-001;-8.789477497339249E-002;1.055477070622146E-003;-4.490566789172590E-004;
2.424333333333334E+009;1.636904329061508E-001;-8.976408094167709E-002;1.066625700332224E-003;-3.560218319762498E-004;
2.424500000000000E+009;1.641125977039337E-001;-9.177521616220474E-002;8.434189367108047E-004;-3.944730851799250E-004;
2.424666666666667E+009;1.646192967891693E-001;-9.325977414846420E-002;8.734826114960015E-004;-4.581920511554927E-004;
2.424833333333334E+009;1.652155965566635E-001;-9.494690597057343E-002;7.979794754646719E-004;-2.432699548080564E-004;
2.425000000000000E+009;1.657026112079620E-001;-9.627277404069901E-002;9.510917006991804E-004;-2.602111781015992E-004;
2.425166666666667E+009;1.661008000373840E-001;-9.753528982400894E-002;7.940765353851020E-004;-2.007859875448048E-004;
2.425333333333334E+009;1.664837151765823E-001;-9.868884831666946E-002;7.975457701832056E-004;-3.848226624540985E-004;
2.425500000000000E+009;1.672310531139374E-001;-9.983158111572266E-002;8.613713434897363E-004;-2.209212543675676E-004;
2.425666666666667E+009;1.677658408880234E-001;-1.006530746817589E-001;7.996109779924154E-004;-2.453452616464347E-004;
2.425833333333334E+009;1.682735085487366E-001;-1.016599461436272E-001;8.068461320362985E-004;-1.311374362558126E-004;
2.426000000000000E+009;1.689803451299667E-001;-1.022548899054527E-001;7.828841917216778E-004;-1.652877399465069E-004;
2.426166666666667E+009;1.695161759853363E-001;-1.027760878205299E-001;1.024501048959792E-003;-6.617742474190891E-005;
2.426333333333334E+009;1.699387729167938E-001;-1.033761352300644E-001;9.271623566746712E-004;-3.563588834367693E-004;
2.426500000000000E+009;1.704413890838623E-001;-1.036424860358238E-001;1.009828876703978E-003;-9.179012704407796E-005;
2.426666666666667E+009;1.709405183792114E-001;-1.041086986660957E-001;9.890112560242415E-004;-2.526485768612474E-004;
2.426833333333334E+009;1.714907735586166E-001;-1.042909547686577E-001;1.017197268083692E-003;-2.110830973833799E-004;
2.427000000000000E+009;1.716643869876862E-001;-1.043950393795967E-001;1.075765700079501E-003;-1.732113159960136E-004;
2.427166666666667E+009;1.719532161951065E-001;-1.044860482215881E-001;1.090373378247023E-003;-1.656254171393812E-004;
2.427333333333334E+009;1.720723360776901E-001;-1.047348454594612E-001;1.049967249855399E-003;-1.030560306389816E-004;
2.427500000000000E+009;1.720560342073441E-001;-1.047661975026131E-001;1.089083380065858E-003;-2.208717487519607E-004;
2.427666666666667E+009;1.719249337911606E-001;-1.046843379735947E-001;1.098162378184497E-003;-7.752148667350411E-005;
2.427833333333334E+009;1.718550473451614E-001;-1.047073304653168E-001;1.233486458659172E-003;-3.011902736034244E-004;
