# Version 1.00
#
freq[Hz];re:Trc1_S11;im:Trc1_S11;re:Trc2_S21;im:Trc2_S21;
2.400000000000000E+009;1.553137302398682E-001;1.106176152825356E-001;-1.586476573720574E-004;-1.469413400627673E-003;
2.400166666666667E+009;1.546522229909897E-001;1.082361638545990E-001;-1.838243042584509E-004;-1.574283116497099E-003;
2.400333333333334E+009;1.545151025056839E-001;1.059523820877075E-001;-3.392120706848800E-004;-1.630745129659772E-003;
2.400500000000000E+009;1.541183888912201E-001;1.033829078078270E-001;-1.830414548749104E-004;-1.432978548109531E-003;
2.400666666666667E+009;1.540092825889587E-001;1.008285507559776E-001;-1.915637112688273E-004;-1.508235931396484E-003;
2.400833333333334E+009;1.536914855241776E-001;9.789691865444183E-002;-2.343620726605877E-004;-1.519075594842434E-003;
2.401000000000000E+009;1.538344621658325E-001;9.511018544435501E-002;-3.926737117581070E-004;-1.576694892719388E-003;
2.401166666666667E+009;1.533509343862534E-001;9.223103523254395E-002;-5.353385349735618E-004;-1.553721493110061E-003;
2.401333333333334E+009;1.533899754285812E-001;8.930312097072601E-002;-5.510858027264476E-004;-1.466997549869120E-003;
2.401500000000000E+009;1.536252498626709E-001;8.648361265659332E-002;-5.355876637622714E-004;-1.622332143597305E-003;
2.401666666666667E+009;1.537690907716751E-001;8.345514535903931E-002;-8.710107649676502E-004;-1.665398129262030E-003;
2.401833333333334E+009;1.542344093322754E-001;8.045975118875504E-002;-8.855537162162364E-004;-1.651075785048306E-003;
2.402000000000000E+009;1.545991748571396E-001;7.750260829925537E-002;-1.046937773935497E-003;-1.594340777955949E-003;
2.402166666666667E+009;1.553266942501068E-001;7.484960556030273E-002;-1.289160805754364E-003;-1.492112642154098E-003;
2.402333333333334E+009;1.561426222324371E-001;7.179085165262222E-002;-1.393633894622326E-003;-1.468707690946758E-003;
2.402500000000000E+009;1.570982635021210E-001;6.908420473337174E-002;-1.528398017399013E-003;-1.389900804497302E-003;
2.402666666666667E+009;1.580727398395538E-001;6.663775444030762E-002;-1.693469006568193E-003;-1.275283750146627E-003;
2.402833333333334E+009;1.594672054052353E-001;6.388995796442032E-002;-1.817186363041401E-003;-1.143580535426736E-003;
2.403000000000000E+009;1.609163731336594E-001;6.130090728402138E-002;-1.939765061251819E-003;-8.226415375247598E-004;
2.403166666666667E+009;1.626897454261780E-001;5.880429595708847E-002;-2.087365835905075E-003;-9.041829034686089E-004;
2.403333333333334E+009;1.640368551015854E-001;5.624355748295784E-002;-2.172397216781974E-003;-6.339148385450244E-004;
2.403500000000000E+009;1.658051609992981E-001;5.410386621952057E-002;-2.082787919789553E-003;-2.772856969386339E-004;
2.403666666666667E+009;1.676540374755859E-001;5.188893899321556E-002;-2.100370824337006E-003;-9.745885472511873E-005;
2.403833333333334E+009;1.693427711725235E-001;4.979977384209633E-002;-2.134826732799411E-003;5.523437357624061E-005;
2.404000000000000E+009;1.710377037525177E-001;4.793533682823181E-002;-2.048546914011240E-003;3.698962100315839E-004;
2.404166666666667E+009;1.728586107492447E-001;4.596336558461189E-002;-1.964666415005922E-003;4.619073588401079E-004;
2.404333333333334E+009;1.748006641864777E-001;4.442222043871880E-002;-1.820448902435601E-003;6.631964351981878E-004;
2.404500000000000E+009;1.765215545892716E-001;4.271402209997177E-002;-1.550490385852754E-003;7.623764104209840E-004;
2.404666666666667E+009;1.783184409141541E-001;4.143300279974937E-002;-1.648483099415898E-003;7.583186961710453E-004;
2.404833333333334E+009;1.803354173898697E-001;4.025844484567642E-002;-1.483684405684471E-003;9.209423442371190E-004;
2.405000000000000E+009;1.817361414432526E-001;3.955269232392311E-002;-1.299028983339667E-003;8.979670819826424E-004;
2.405166666666667E+009;1.835600733757019E-001;3.871177881956101E-002;-9.980914182960987E-004;1.075001782737672E-003;
2.405333333333334E+009;1.850778609514237E-001;3.816659003496170E-002;-1.064817537553608E-003;1.162945525720716E-003;
2.405500000000000E+009;1.869582086801529E-001;3.762909770011902E-002;-6.580758490599692E-004;9.599134791642427E-004;
2.405666666666667E+009;1.883105486631393E-001;3.733336180448532E-002;-8.906936272978783E-004;1.041544950567186E-003;
2.405833333333334E+009;1.897515803575516E-001;3.718031942844391E-002;-5.775730242021382E-004;9.948782389983535E-004;
2.406000000000000E+009;1.910335421562195E-001;3.702358528971672E-002;-3.954175044782460E-004;1.033683423884213E-003;
2.406166666666667E+009;1.923241913318634E-001;3.696540370583534E-002;-5.051883636042476E-004;8.781338692642748E-004;
2.406333333333334E+009;1.935941725969315E-001;3.738159313797951E-002;-3.072557155974209E-004;9.979521855711937E-004;
2.406500000000000E+009;1.945061534643173E-001;3.733310475945473E-002;-2.586992632132024E-004;8.095045341178775E-004;
2.406666666666667E+009;1.953044831752777E-001;3.769145905971527E-002;-2.383153332630172E-004;7.724613533355296E-004;
2.406833333333334E+009;1.961009949445725E-001;3.785327449440956E-002;-2.589014184195548E-004;6.455893744714558E-004;
2.407000000000000E+009;1.966043561697006E-001;3.833550587296486E-002;-2.449667663313448E-004;7.136196945793927E-004;
2.407166666666667E+009;1.971403807401657E-001;3.833695873618126E-002;-1.328121725236997E-004;6.170567939989269E-004;
2.407333333333334E+009;1.973133981227875E-001;3.879886865615845E-002;-1.174195858766325E-004;5.057496018707752E-004;
2.407500000000000E+009;1.974802017211914E-001;3.932917490601540E-002;-4.827575321542099E-005;5.904126446694136E-004;
2.407666666666667E+009;1.975500136613846E-001;3.958151116967201E-002;-4.205417644698173E-005;3.852622176054865E-004;
2.407833333333334E+009;1.973027735948563E-001;3.974796459078789E-002;9.276418859371916E-005;5.021408433094621E-004;
2.408000000000000E+009;1.974173039197922E-001;3.992944583296776E-002;7.397250010399148E-005;3.755499783437699E-004;
2.408166666666667E+009;1.968524903059006E-001;3.994046151638031E-002;9.218669583788142E-005;2.494845539331436E-004;
2.408333333333334E+009;1.963610649108887E-001;3.999030590057373E-002;1.927795237861574E-004;1.310789521085098E-004;
2.408500000000000E+009;1.957332342863083E-001;4.005671292543411E-002;1.552293251734227E-004;2.671071524673607E-005;
2.408666666666667E+009;1.950769424438477E-001;3.983688354492188E-002;8.011672616703436E-005;-1.275503891520202E-004;
2.408833333333334E+009;1.943613588809967E-001;3.939189016819000E-002;7.394380372716114E-005;-1.589113089721650E-004;
2.409000000000000E+009;1.935192197561264E-001;3.885815665125847E-002;8.551467908546329E-005;-1.484624226577580E-004;
2.409166666666667E+009;1.924646198749542E-001;3.819968551397324E-002;-4.671762781072175E-006;-3.642194496933371E-004;
2.409333333333334E+009;1.915100514888763E-001;3.754054382443428E-002;-4.612708653439768E-005;-4.929674905724824E-004;
2.409500000000000E+009;1.902851909399033E-001;3.666529431939125E-002;-2.750785788521171E-004;-5.432066973298788E-004;
2.409666666666667E+009;1.892278343439102E-001;3.551996871829033E-002;-2.484367287252098E-004;-5.662289331667125E-004;
2.409833333333334E+009;1.879713386297226E-001;3.431656584143639E-002;-4.843620699830353E-004;-5.037627415731549E-004;
2.410000000000000E+009;1.867543458938599E-001;3.284649923443794E-002;-5.972023354843259E-004;-6.063384935259819E-004;
2.410166666666667E+009;1.855918914079666E-001;3.126177564263344E-002;-7.629862520843744E-004;-4.243644652888179E-004;
2.410333333333334E+009;1.845246851444244E-001;2.975084260106087E-002;-7.531776209361851E-004;-3.790094633586705E-004;
2.410500000000000E+009;1.832282543182373E-001;2.787629514932632E-002;-7.639407995156944E-004;-4.033142176922411E-004;
2.410666666666667E+009;1.821575164794922E-001;2.584426477551460E-002;-1.017601694911718E-003;-2.677248266991228E-004;
2.410833333333334E+009;1.814507097005844E-001;2.364085242152214E-002;-9.282256942242384E-004;-1.128683870774694E-004;
2.411000000000000E+009;1.803846955299377E-001;2.159030549228191E-002;-8.733063004910946E-004;-1.834028662415221E-004;
2.411166666666667E+009;1.794314980506897E-001;1.942404359579086E-002;-9.663232485763729E-004;-1.948292192537338E-004;
2.411333333333334E+009;1.788961440324783E-001;1.676718890666962E-002;-1.085148891434073E-003;-1.133662663050927E-004;
2.411500000000000E+009;1.782527714967728E-001;1.448920089751482E-002;-9.823831496760249E-004;-1.550668530398980E-004;
2.411666666666667E+009;1.778793483972549E-001;1.195589825510979E-002;-1.048782258294523E-003;-2.625067463668529E-005;
2.411833333333334E+009;1.773445308208466E-001;9.445183910429478E-003;-1.153756049461663E-003;4.286359398975037E-005;
2.412000000000000E+009;1.772713661193848E-001;6.756622809916735E-003;-1.148851937614381E-003;1.450372801627964E-004;
2.412166666666667E+009;1.772779077291489E-001;4.197085741907358E-003;-1.231369446031749E-003;1.068411802407354E-004;
2.412333333333334E+009;1.774326711893082E-001;1.560954144224525E-003;-1.380119356326759E-003;2.797473862301558E-004;
2.412500000000000E+009;1.776673346757889E-001;-1.078632543794811E-003;-1.373884035274386E-003;3.746844304259867E-004;
2.412666666666667E+009;1.781365871429443E-001;-3.772714408114553E-003;-1.369522069580853E-003;5.713728023692966E-004;
2.412833333333334E+009;1.787820160388947E-001;-6.420442834496498E-003;-1.334271160885692E-003;5.456890212371945E-004;
2.413000000000000E+009;1.795112937688828E-001;-8.980223909020424E-003;-1.273499103263021E-003;7.946916739456356E-004;
2.413166666666667E+009;1.801090836524963E-001;-1.160693541169167E-002;-1.463106134906411E-003;8.287878008559346E-004;
2.413333333333334E+009;1.812675595283508E-001;-1.410584338009358E-002;-1.304489211179316E-003;9.501288877800107E-004;
2.413500000000000E+009;1.822028011083603E-001;-1.655785739421845E-002;-1.291810418479145E-003;1.115690101869404E-003;
2.413666666666667E+009;1.836055666208267E-001;-1.902481541037560E-002;-1.186678651720285E-003;1.237415359355509E-003;
2.413833333333334E+009;1.846366226673126E-001;-2.136182039976120E-002;-1.049382379278541E-003;1.183406915515661E-003;
2.414000000000000E+009;1.856552958488464E-001;-2.374028228223324E-002;-1.115424674935639E-003;1.223286846652627E-003;
2.414166666666667E+009;1.870803236961365E-001;-2.580103650689125E-002;-9.757599909789860E-004;1.433415221981704E-003;
2.414333333333334E+009;1.884352415800095E-001;-2.798813208937645E-002;-1.022568088956177E-003;1.504164771176875E-003;
2.414500000000000E+009;1.898620724678040E-001;-2.983847819268704E-002;-8.658718434162438E-004;1.544713159091771E-003;
2.414666666666667E+009;1.911941766738892E-001;-3.149636834859848E-002;-8.192777750082314E-004;1.602681819349527E-003;
2.414833333333334E+009;1.925960630178452E-001;-3.308971971273422E-002;-6.521867471747100E-004;1.667390344664455E-003;
2.415000000000000E+009;1.939073055982590E-001;-3.456607460975647E-002;-5.664966301992536E-004;1.664948998950422E-003;
2.415166666666667E+009;1.954699009656906E-001;-3.598358109593391E-002;-5.294064176268876E-004;1.768676098436117E-003;
2.415333333333334E+009;1.968987584114075E-001;-3.706615045666695E-002;-3.915580164175481E-004;1.719863386824727E-003;
2.415500000000000E+009;1.982655972242355E-001;-3.808484226465225E-002;-2.090904163196683E-004;1.637584413401783E-003;
2.415666666666667E+009;1.994912475347519E-001;-3.898528590798378E-002;-1.044267555698752E-004;1.710507087409496E-003;
2.415833333333334E+009;2.007522284984589E-001;-3.972001373767853E-002;-1.128013682318851E-004;1.654953579418361E-003;
2.416000000000000E+009;2.017663866281509E-001;-4.037807136774063E-002;3.059881419176236E-005;1.504172687418759E-003;
2.416166666666667E+009;2.028166055679321E-001;-4.104753583669663E-002;8.385981345782057E-005;1.445512520149350E-003;
2.416333333333334E+009;2.038449496030808E-001;-4.138226434588432E-002;1.933878229465336E-004;1.549155567772687E-003;
2.416500000000000E+009;2.045348286628723E-001;-4.163908958435059E-002;1.098126376746222E-004;1.339373644441366E-003;
2.416666666666667E+009;2.052111178636551E-001;-4.208677634596825E-002;2.715869341045618E-004;1.371532678604126E-003;
2.416833333333334E+009;2.055245041847229E-001;-4.198577255010605E-002;1.502294180681929E-004;1.314066350460053E-003;
2.417000000000000E+009;2.059303969144821E-001;-4.216705262660980E-002;1.462188374716789E-004;1.464001601561904E-003;
2.417166666666667E+009;2.060012668371201E-001;-4.200356453657150E-002;2.093704388244078E-004;1.593027031049132E-003;
2.417333333333334E+009;2.060028165578842E-001;-4.165740683674812E-002;1.833151472965255E-004;1.570135122165084E-003;
2.417500000000000E+009;2.059608548879623E-001;-4.164719581604004E-002;1.002995777525939E-004;1.571301138028503E-003;
2.417666666666667E+009;2.057363241910934E-001;-4.133474081754684E-002;4.062686057295650E-004;1.772759715095162E-003;
2.417833333333334E+009;2.054364979267120E-001;-4.091596603393555E-002;5.713950959034264E-004;1.774737378582358E-003;
2.418000000000000E+009;2.049232572317123E-001;-4.047106578946114E-002;5.735672893933952E-004;1.778654055669904E-003;
2.418166666666667E+009;2.043807357549667E-001;-4.026846960186958E-002;7.320724544115365E-004;1.761357067152858E-003;
2.418333333333334E+009;2.034957557916641E-001;-3.992037847638130E-002;8.998566190712154E-004;1.660069683566690E-003;
2.418500000000000E+009;2.025534957647324E-001;-3.975151851773262E-002;1.080089597962797E-003;1.795960473828018E-003;
2.418666666666667E+009;2.017749398946762E-001;-3.950969874858856E-002;1.199790742248297E-003;1.541613484732807E-003;
2.418833333333334E+009;2.004935592412949E-001;-3.943252936005592E-002;1.261034631170332E-003;1.629704376682639E-003;
2.419000000000000E+009;1.993056833744049E-001;-3.932914510369301E-002;1.419521518982947E-003;1.485917135141790E-003;
2.419166666666667E+009;1.980947256088257E-001;-3.953161090612412E-002;1.320773852057755E-003;1.220579259097576E-003;
2.419333333333334E+009;1.967335343360901E-001;-3.982552886009216E-002;1.546276384033263E-003;1.163510954938829E-003;
2.419500000000000E+009;1.951080411672592E-001;-4.001552984118462E-002;1.584375509992242E-003;9.363427525386214E-004;
2.419666666666667E+009;1.935102492570877E-001;-4.064160585403442E-002;1.563853467814624E-003;8.729482651688159E-004;
2.419833333333334E+009;1.918328553438187E-001;-4.121521487832069E-002;1.409757649526000E-003;7.944312528707087E-004;
2.420000000000000E+009;1.900446712970734E-001;-4.182396456599236E-002;1.476836390793324E-003;6.783313001506031E-004;
2.420166666666667E+009;1.883669793605804E-001;-4.275915399193764E-002;1.433337572962046E-003;5.986696342006326E-004;
2.420333333333334E+009;1.865187585353851E-001;-4.373366758227348E-002;1.436847494915128E-003;6.021066219545901E-004;
2.420500000000000E+009;1.847458630800247E-001;-4.505507275462151E-002;1.309682847931981E-003;4.796554858330637E-004;
2.420666666666667E+009;1.827012896537781E-001;-4.607409983873367E-002;1.299458555877209E-003;5.619117291644216E-004;
2.420833333333334E+009;1.811366528272629E-001;-4.758349806070328E-002;1.351374434307218E-003;3.464036562945694E-004;
2.421000000000000E+009;1.793966889381409E-001;-4.903559759259224E-002;1.260697725228965E-003;3.432567755226046E-004;
2.421166666666667E+009;1.776587218046188E-001;-5.078063905239105E-002;1.327798818238080E-003;4.848735115956515E-004;
2.421333333333334E+009;1.757718622684479E-001;-5.261041596531868E-002;1.303894910961390E-003;2.354148746235296E-004;
2.421500000000000E+009;1.742300093173981E-001;-5.434556305408478E-002;1.349419937469065E-003;2.696670708246529E-004;
2.421666666666667E+009;1.727939546108246E-001;-5.622925236821175E-002;1.200605998747051E-003;3.485498600639403E-004;
2.421833333333334E+009;1.713803708553314E-001;-5.812710151076317E-002;1.295656431466341E-003;1.995030324906111E-004;
2.422000000000000E+009;1.698667258024216E-001;-6.010285764932632E-002;1.266492297872901E-003;1.885351666714996E-004;
2.422166666666667E+009;1.689163595438004E-001;-6.255350261926651E-002;1.236352603882551E-003;1.274295500479639E-004;
2.422333333333334E+009;1.675639152526856E-001;-6.457915157079697E-002;1.358293462544680E-003;8.778366463957354E-005;
2.422500000000000E+009;1.666018217802048E-001;-6.674966961145401E-002;1.197465811856091E-003;-2.021188629441895E-005;
2.422666666666667E+009;1.656287908554077E-001;-6.894656270742416E-002;1.276116352528334E-003;-8.291067206300795E-005;
2.422833333333334E+009;1.652347147464752E-001;-7.119390368461609E-002;1.222210587002337E-003;-2.749885788944084E-005;
2.423000000000000E+009;1.643848717212677E-001;-7.345781475305557E-002;1.242867554537952E-003;-1.827271044021472E-004;
2.423166666666667E+009;1.640655249357224E-001;-7.564176619052887E-002;1.141803688369691E-003;-1.115506529458799E-004;
2.423333333333334E+009;1.636211723089218E-001;-7.795145362615585E-002;1.156347338110209E-003;-1.617988309590146E-004;
2.423500000000000E+009;1.633426845073700E-001;-8.004108071327210E-002;1.084799994714558E-003;-3.341724514029920E-004;
2.423666666666667E+009;1.633782237768173E-001;-8.209814876317978E-002;1.135721337050200E-003;-3.805654123425484E-004;
2.423833333333334E+009;1.632608175277710E-001;-8.431002497673035E-002;1.083646202459931E-003;-2.953477087430656E-004;
2.424000000000000E+009;1.633183211088181E-001;-8.610627800226212E-002;9.252316667698324E-004;-3.761928237508982E-004;
2.424166666666667E+009;1.633601486682892E-001;-8.779578655958176E-002;9.133735438808799E-004;-5.713865975849330E-004;
2.424333333333334E+009;1.636023074388504E-001;-8.986804634332657E-002;9.176724124699831E-004;-5.890640313737094E-004;
2.424500000000000E+009;1.640603244304657E-001;-9.195277094841003E-002;8.298892644234002E-004;-3.052442334592342E-004;
2.424666666666667E+009;1.643735617399216E-001;-9.342306852340698E-002;6.927113863639534E-004;-4.689157067332417E-004;
2.424833333333334E+009;1.651102751493454E-001;-9.494203329086304E-002;6.739211967214942E-004;-4.333805118221790E-004;
2.425000000000000E+009;1.656160205602646E-001;-9.627067297697067E-002;4.783240729011595E-004;-3.380379930604249E-004;
2.425166666666667E+009;1.659945100545883E-001;-9.756836295127869E-002;5.858045769855380E-004;-4.256114771123976E-004;
2.425333333333334E+009;1.664728224277496E-001;-9.878024458885193E-002;6.299926899373531E-004;-2.821496746037155E-004;
2.425500000000000E+009;1.671059578657150E-001;-9.976526349782944E-002;6.201620562933385E-004;-2.087113243760541E-004;
2.425666666666667E+009;1.677016019821167E-001;-1.006684005260468E-001;5.121937720105052E-004;-7.261814607772976E-005;
2.425833333333334E+009;1.681885272264481E-001;-1.016384884715080E-001;7.539211655966938E-004;-1.481648359913379E-004;
2.426000000000000E+009;1.687575876712799E-001;-1.021840795874596E-001;7.526859990321100E-004;-9.215002501150593E-005;
2.426166666666667E+009;1.695136129856110E-001;-1.027720123529434E-001;5.611036322079599E-004;-4.169551175436936E-005;
2.426333333333334E+009;1.698402166366577E-001;-1.033569350838661E-001;7.839020108804107E-004;-5.631603562505916E-005;
2.426500000000000E+009;1.704251319169998E-001;-1.036849915981293E-001;7.044819067232311E-004;-2.469370519975200E-005;
2.426666666666667E+009;1.709361076354981E-001;-1.040272042155266E-001;7.009227992966771E-004;-1.763407053658739E-004;
2.426833333333334E+009;1.714437901973724E-001;-1.043262034654617E-001;8.344076341018081E-004;5.409814548329450E-005;
2.427000000000000E+009;1.716226190328598E-001;-1.044797971844673E-001;8.340817876160145E-004;-7.141919923014939E-005;
2.427166666666667E+009;1.719147413969040E-001;-1.045298054814339E-001;9.923881152644754E-004;-9.026125917444006E-005;
2.427333333333334E+009;1.720880419015884E-001;-1.046631932258606E-001;8.770445710979402E-004;-1.860382908489555E-004;
2.427500000000000E+009;1.720544546842575E-001;-1.046966239809990E-001;9.165243245661259E-004;-7.262234430527315E-005;
2.427666666666667E+009;1.719401031732559E-001;-1.046184003353119E-001;1.038338174112141E-003;-8.773563604336232E-005;
2.427833333333334E+009;1.717467010021210E-001;-1.046872213482857E-001;9.774946374818683E-004;-1.526021223980933E-004;
