# Version 1.00
#
freq[Hz];re:Trc1_S11;im:Trc1_S11;re:Trc2_S21;im:Trc2_S21;
2.400000000000000E+009;1.557729244232178E-001;1.108317226171494E-001;-7.970663136802614E-005;8.120081387460232E-003;
2.400166666666667E+009;1.551920771598816E-001;1.085177659988403E-001;3.409056807868183E-004;7.936215028166771E-003;
2.400333333333334E+009;1.549580097198486E-001;1.064198762178421E-001;3.922223695553839E-004;7.776464801281691E-003;
2.400500000000000E+009;1.544707417488098E-001;1.037027761340141E-001;6.445980980060995E-004;7.689211517572403E-003;
2.400666666666667E+009;1.543947309255600E-001;1.012030616402626E-001;8.975451346486807E-004;7.625823374837637E-003;
2.400833333333334E+009;1.541066169738770E-001;9.825076907873154E-002;9.059836156666279E-004;7.437275256961584E-003;
2.401000000000000E+009;1.541046500205994E-001;9.560983628034592E-002;1.097567495889962E-003;7.245219312608242E-003;
2.401166666666667E+009;1.537435352802277E-001;9.276457130908966E-002;1.402916153892875E-003;7.182021159678698E-003;
2.401333333333334E+009;1.538420915603638E-001;8.975583314895630E-002;1.546953339129686E-003;7.049662992358208E-003;
2.401500000000000E+009;1.540913879871368E-001;8.677078783512116E-002;1.526929787360132E-003;7.101441733539105E-003;
2.401666666666667E+009;1.542216539382935E-001;8.379096537828445E-002;1.827697386033833E-003;6.919599138200283E-003;
2.401833333333334E+009;1.546038091182709E-001;8.076784759759903E-002;1.960882917046547E-003;6.891737226396799E-003;
2.402000000000000E+009;1.552011221647263E-001;7.768079638481140E-002;2.069826470687985E-003;6.912976969033480E-003;
2.402166666666667E+009;1.559155583381653E-001;7.510994374752045E-002;2.272823359817267E-003;6.917816121131182E-003;
2.402333333333334E+009;1.564667075872421E-001;7.208836823701859E-002;2.662033075466752E-003;6.954300682991743E-003;
2.402500000000000E+009;1.575211584568024E-001;6.935046613216400E-002;2.887412440031767E-003;6.917558144778013E-003;
2.402666666666667E+009;1.586920469999313E-001;6.675010174512863E-002;3.267257707193494E-003;6.887267343699932E-003;
2.402833333333334E+009;1.597504019737244E-001;6.418271362781525E-002;3.560103243216872E-003;6.710766814649105E-003;
2.403000000000000E+009;1.611675471067429E-001;6.155361235141754E-002;3.862446639686823E-003;6.672904826700687E-003;
2.403166666666667E+009;1.627535372972488E-001;5.885253101587296E-002;4.333455581218004E-003;6.432237103581429E-003;
2.403333333333334E+009;1.642797738313675E-001;5.660016089677811E-002;4.522858653217554E-003;6.355850491672754E-003;
2.403500000000000E+009;1.658976674079895E-001;5.425094068050385E-002;5.004823673516512E-003;6.242203991860151E-003;
2.403666666666667E+009;1.679394841194153E-001;5.214219540357590E-002;5.186670459806919E-003;5.785478744655848E-003;
2.403833333333334E+009;1.695515215396881E-001;4.997910559177399E-002;5.544360261410475E-003;5.573625210672617E-003;
2.404000000000000E+009;1.712150275707245E-001;4.812272638082504E-002;5.709045100957155E-003;5.196300335228443E-003;
2.404166666666667E+009;1.729695200920105E-001;4.634944349527359E-002;5.926937796175480E-003;4.707091487944126E-003;
2.404333333333334E+009;1.748810410499573E-001;4.469567537307739E-002;6.135064642876387E-003;4.370723851025105E-003;
2.404500000000000E+009;1.766495555639267E-001;4.307022690773010E-002;5.967220757156611E-003;4.039028659462929E-003;
2.404666666666667E+009;1.785241812467575E-001;4.184040054678917E-002;6.198354065418243E-003;3.595269517973065E-003;
2.404833333333334E+009;1.803829222917557E-001;4.064742475748062E-002;6.195301190018654E-003;3.097778419032693E-003;
2.405000000000000E+009;1.819533705711365E-001;3.993397578597069E-002;6.007947493344545E-003;2.797933761030436E-003;
2.405166666666667E+009;1.836302876472473E-001;3.908073157072067E-002;6.073796655982733E-003;2.701609162613750E-003;
2.405333333333334E+009;1.853535473346710E-001;3.853147849440575E-002;5.960764363408089E-003;2.204038901254535E-003;
2.405500000000000E+009;1.870042234659195E-001;3.800557181239128E-002;5.939270369708538E-003;2.032175660133362E-003;
2.405666666666667E+009;1.887021511793137E-001;3.758439049124718E-002;5.850506015121937E-003;1.987343886867166E-003;
2.405833333333334E+009;1.902478188276291E-001;3.727472946047783E-002;5.770348943769932E-003;1.682801404967904E-003;
2.406000000000000E+009;1.914575994014740E-001;3.738020360469818E-002;5.860689561814070E-003;1.474041724577546E-003;
2.406166666666667E+009;1.927615404129028E-001;3.719109669327736E-002;5.630125291645527E-003;1.318290829658508E-003;
2.406333333333334E+009;1.939568817615509E-001;3.738370165228844E-002;5.511059425771236E-003;1.213237992487848E-003;
2.406500000000000E+009;1.949942111968994E-001;3.740502893924713E-002;5.457594059407711E-003;9.331371984444559E-004;
2.406666666666667E+009;1.959514766931534E-001;3.773535788059235E-002;5.379399284720421E-003;8.584460010752082E-004;
2.406833333333334E+009;1.966878771781921E-001;3.789713233709335E-002;5.284949671477079E-003;6.291021709330380E-004;
2.407000000000000E+009;1.972203105688095E-001;3.827067092061043E-002;5.230366718024015E-003;6.477856659330428E-004;
2.407166666666667E+009;1.978130340576172E-001;3.826173022389412E-002;5.246319808065891E-003;5.639264709316194E-004;
2.407333333333334E+009;1.980274468660355E-001;3.862988576292992E-002;5.193335004150868E-003;4.721981531474739E-004;
2.407500000000000E+009;1.980165839195252E-001;3.918118029832840E-002;4.970451816916466E-003;3.313121269457042E-004;
2.407666666666667E+009;1.984008997678757E-001;3.912246227264404E-002;4.986725281924009E-003;2.706869272515178E-004;
2.407833333333334E+009;1.979834586381912E-001;3.934499621391296E-002;4.900459200143814E-003;7.819317397661507E-005;
2.408000000000000E+009;1.980062872171402E-001;3.951141610741615E-002;4.849640652537346E-003;2.473696258675773E-005;
2.408166666666667E+009;1.974973678588867E-001;3.953144326806068E-002;4.868363495916128E-003;-1.322033585893223E-005;
2.408333333333334E+009;1.970184594392777E-001;3.932917863130570E-002;4.909618292003870E-003;-7.321525481529534E-005;
2.408500000000000E+009;1.964730918407440E-001;3.923970088362694E-002;4.764115437865257E-003;-1.600167015567422E-004;
2.408666666666667E+009;1.957307457923889E-001;3.914801776409149E-002;4.758138675242662E-003;-2.224198251497001E-004;
2.408833333333334E+009;1.949910670518875E-001;3.856698051095009E-002;4.840915091335774E-003;-2.218859008280560E-004;
2.409000000000000E+009;1.940146237611771E-001;3.803605586290360E-002;4.789559170603752E-003;-2.576152910478413E-004;
2.409166666666667E+009;1.928223520517349E-001;3.748661652207375E-002;4.790353588759899E-003;-2.289688272867352E-004;
2.409333333333334E+009;1.917608082294464E-001;3.669567778706551E-002;4.947015084326267E-003;-4.270366625860333E-004;
2.409500000000000E+009;1.904734671115875E-001;3.575116395950317E-002;5.018927622586489E-003;-5.316954338923097E-004;
2.409666666666667E+009;1.893649548292160E-001;3.451952338218689E-002;5.003731697797775E-003;-5.672079860232770E-004;
2.409833333333334E+009;1.881719827651978E-001;3.338623791933060E-002;4.827803932130337E-003;-6.778084789402783E-004;
2.410000000000000E+009;1.870823800563812E-001;3.212845325469971E-002;4.978789482265711E-003;-9.257500059902668E-004;
2.410166666666667E+009;1.858206391334534E-001;3.053063526749611E-002;4.764016717672348E-003;-1.054172054864466E-003;
2.410333333333334E+009;1.846052408218384E-001;2.897156402468681E-002;4.875403828918934E-003;-1.113944803364575E-003;
2.410500000000000E+009;1.833444237709045E-001;2.699545025825501E-002;4.789277445524931E-003;-1.251134905032814E-003;
2.410666666666667E+009;1.822751611471176E-001;2.491632290184498E-002;4.773631691932678E-003;-1.474284799769521E-003;
2.410833333333334E+009;1.813078224658966E-001;2.271657250821590E-002;4.627781920135021E-003;-1.612339867278934E-003;
2.411000000000000E+009;1.804155856370926E-001;2.085053548216820E-002;4.672631155699492E-003;-1.786483917385340E-003;
2.411166666666667E+009;1.795673817396164E-001;1.851641759276390E-002;4.594088997691870E-003;-1.748875249177218E-003;
2.411333333333334E+009;1.786047965288162E-001;1.590979471802712E-002;4.487259313464165E-003;-1.910186139866710E-003;
2.411500000000000E+009;1.781099885702133E-001;1.353921275585890E-002;4.307261202484369E-003;-1.896418165415525E-003;
2.411666666666667E+009;1.776061505079269E-001;1.121342927217484E-002;4.249135032296181E-003;-1.971753314137459E-003;
2.411833333333334E+009;1.770249903202057E-001;8.814114145934582E-003;4.230564925819635E-003;-2.003047382459045E-003;
2.412000000000000E+009;1.770573407411575E-001;6.024709437042475E-003;4.231318831443787E-003;-2.080006990581751E-003;
2.412166666666667E+009;1.769844144582748E-001;3.618845716118813E-003;4.222598858177662E-003;-2.316122408956289E-003;
2.412333333333334E+009;1.770714521408081E-001;9.150338592007756E-004;4.286779556423426E-003;-2.192384330555797E-003;
2.412500000000000E+009;1.771687418222427E-001;-1.708171679638326E-003;4.231320694088936E-003;-2.302590059116483E-003;
2.412666666666667E+009;1.777077019214630E-001;-4.546915646642447E-003;4.274665843695402E-003;-2.380245365202427E-003;
2.412833333333334E+009;1.782563626766205E-001;-6.921239662915468E-003;4.295744467526674E-003;-2.393780276179314E-003;
2.413000000000000E+009;1.789323687553406E-001;-9.545648470520973E-003;4.324973560869694E-003;-2.662514802068472E-003;
2.413166666666667E+009;1.796037554740906E-001;-1.196549274027348E-002;4.512185696512461E-003;-2.755359979346395E-003;
2.413333333333334E+009;1.806861311197281E-001;-1.444059610366821E-002;4.418182186782360E-003;-2.919424325227737E-003;
2.413500000000000E+009;1.815774887800217E-001;-1.699124462902546E-002;4.395293537527323E-003;-3.118639579042792E-003;
2.413666666666667E+009;1.827465891838074E-001;-1.957816258072853E-002;4.493338055908680E-003;-3.545526182278991E-003;
2.413833333333334E+009;1.839217245578766E-001;-2.154897339642048E-002;4.397004842758179E-003;-3.756490070372820E-003;
2.414000000000000E+009;1.851718872785568E-001;-2.401675283908844E-002;4.298409447073937E-003;-4.058958496898413E-003;
2.414166666666667E+009;1.866096407175064E-001;-2.590941824018955E-002;4.123247694224119E-003;-4.206346813589335E-003;
2.414333333333334E+009;1.876135915517807E-001;-2.820506133139134E-002;4.018481820821762E-003;-4.561092238873243E-003;
2.414500000000000E+009;1.891475021839142E-001;-2.976706624031067E-002;3.874947782605887E-003;-4.807641264051199E-003;
2.414666666666667E+009;1.904251724481583E-001;-3.142336010932922E-002;3.548753447830677E-003;-5.114597268402576E-003;
2.414833333333334E+009;1.918963640928268E-001;-3.307285532355309E-002;3.153252182528377E-003;-5.319579504430294E-003;
2.415000000000000E+009;1.931652426719666E-001;-3.454570472240448E-002;2.808042336255312E-003;-5.527846980839968E-003;
2.415166666666667E+009;1.945500969886780E-001;-3.584566339850426E-002;2.729745116084814E-003;-5.681801587343216E-003;
2.415333333333334E+009;1.960663944482803E-001;-3.690936788916588E-002;2.413122914731503E-003;-5.744493566453457E-003;
2.415500000000000E+009;1.974345445632935E-001;-3.776583820581436E-002;2.117255702614784E-003;-5.828853696584702E-003;
2.415666666666667E+009;1.988545209169388E-001;-3.881430625915527E-002;1.837263465858996E-003;-5.948752630501986E-003;
2.415833333333334E+009;1.999576389789581E-001;-3.948706015944481E-002;1.365629024803639E-003;-6.018974818289280E-003;
2.416000000000000E+009;2.010664939880371E-001;-4.007083550095558E-002;1.189209171570838E-003;-6.056188605725765E-003;
2.416166666666667E+009;2.021037936210632E-001;-4.084719344973564E-002;9.739419911056757E-004;-5.985482130199671E-003;
2.416333333333334E+009;2.030129730701447E-001;-4.115312173962593E-002;6.025785114616156E-004;-6.030010525137186E-003;
2.416500000000000E+009;2.037416249513626E-001;-4.129800200462341E-002;1.609185565030202E-004;-5.845091305673122E-003;
2.416666666666667E+009;2.043313384056091E-001;-4.176406562328339E-002;8.943942521000281E-005;-5.891615524888039E-003;
2.416833333333334E+009;2.047322839498520E-001;-4.165590181946755E-002;-3.287168219685555E-004;-5.792297422885895E-003;
2.417000000000000E+009;2.052331119775772E-001;-4.188360273838043E-002;-4.057014884892851E-004;-5.703703034669161E-003;
2.417166666666667E+009;2.052742689847946E-001;-4.163747653365135E-002;-7.570569869130850E-004;-5.611551925539970E-003;
2.417333333333334E+009;2.052353322505951E-001;-4.141351580619812E-002;-8.915252401493490E-004;-5.427388940006495E-003;
2.417500000000000E+009;2.051296681165695E-001;-4.130824282765389E-002;-1.060746377333999E-003;-5.293480586260557E-003;
2.417666666666667E+009;2.049372047185898E-001;-4.095085710287094E-002;-1.255590002983809E-003;-5.216746591031551E-003;
2.417833333333334E+009;2.047297209501267E-001;-4.052561149001122E-002;-1.339879818260670E-003;-5.281542893499136E-003;
2.418000000000000E+009;2.043321877717972E-001;-4.001593217253685E-002;-1.682156580500305E-003;-4.956734832376242E-003;
2.418166666666667E+009;2.035728245973587E-001;-3.976660966873169E-002;-1.801247126422823E-003;-4.871432203799486E-003;
2.418333333333334E+009;2.029300630092621E-001;-3.953876346349716E-002;-1.984315691515803E-003;-4.745787475258112E-003;
2.418500000000000E+009;2.020887285470963E-001;-3.923381119966507E-002;-2.166988560929894E-003;-4.635978955775499E-003;
2.418666666666667E+009;2.012528777122498E-001;-3.899730369448662E-002;-2.372370800003409E-003;-4.368450492620468E-003;
2.418833333333334E+009;2.000220268964768E-001;-3.895269706845284E-002;-2.497131470590830E-003;-4.323912318795919E-003;
2.419000000000000E+009;1.988314688205719E-001;-3.896811604499817E-002;-2.663189079612494E-003;-3.993968013674021E-003;
2.419166666666667E+009;1.976065784692764E-001;-3.897369280457497E-002;-2.645865082740784E-003;-4.012151621282101E-003;
2.419333333333334E+009;1.961405128240585E-001;-3.915945813059807E-002;-2.694331575185061E-003;-3.691729390993714E-003;
2.419500000000000E+009;1.946255862712860E-001;-3.946716338396072E-002;-2.769486512988806E-003;-3.608549945056438E-003;
2.419666666666667E+009;1.929852813482285E-001;-4.005036875605583E-002;-2.850881312042475E-003;-3.395895706489682E-003;
2.419833333333334E+009;1.912737041711807E-001;-4.056335240602493E-002;-2.846461022272706E-003;-3.225702326744795E-003;
2.420000000000000E+009;1.896265745162964E-001;-4.121428355574608E-002;-2.937612123787403E-003;-2.980625489726663E-003;
2.420166666666667E+009;1.878733485937119E-001;-4.207390174269676E-002;-2.871380886062980E-003;-2.730161882936955E-003;
2.420333333333334E+009;1.862333267927170E-001;-4.308740794658661E-002;-2.984734019264579E-003;-2.725331112742424E-003;
2.420500000000000E+009;1.842228174209595E-001;-4.422675445675850E-002;-3.020451869815588E-003;-2.371100010350347E-003;
2.420666666666667E+009;1.824597418308258E-001;-4.531435295939446E-002;-2.917291829362512E-003;-2.250507008284330E-003;
2.420833333333334E+009;1.805793195962906E-001;-4.665352776646614E-002;-2.767655765637755E-003;-2.152905333787203E-003;
2.421000000000000E+009;1.789799183607101E-001;-4.833060130476952E-002;-2.668017521500588E-003;-2.093114191666246E-003;
2.421166666666667E+009;1.773635447025299E-001;-4.983268678188324E-002;-2.563667017966509E-003;-1.844949205406010E-003;
2.421333333333334E+009;1.755889356136322E-001;-5.136349052190781E-002;-2.455739537253976E-003;-1.761261839419603E-003;
2.421500000000000E+009;1.740506738424301E-001;-5.341294035315514E-002;-2.365032676607370E-003;-1.814488088712096E-003;
2.421666666666667E+009;1.725792884826660E-001;-5.535075813531876E-002;-2.321314997971058E-003;-1.700944500043988E-003;
2.421833333333334E+009;1.711770445108414E-001;-5.719666555523872E-002;-2.197828609496355E-003;-1.565748360008001E-003;
2.422000000000000E+009;1.697614192962647E-001;-5.920490995049477E-002;-2.130732405930758E-003;-1.622095587663353E-003;
2.422166666666667E+009;1.688800454139710E-001;-6.148428469896317E-002;-1.987792085856199E-003;-1.786218024790287E-003;
2.422333333333334E+009;1.676329374313355E-001;-6.371708214282990E-002;-2.022807486355305E-003;-1.682741334661841E-003;
2.422500000000000E+009;1.667114198207855E-001;-6.576272100210190E-002;-1.879869378171861E-003;-1.795249991118908E-003;
2.422666666666667E+009;1.660063415765762E-001;-6.793054193258286E-002;-2.004561247304082E-003;-1.856614719145000E-003;
2.422833333333334E+009;1.651293039321899E-001;-7.017273455858231E-002;-2.033011056482792E-003;-1.957595348358154E-003;
2.423000000000000E+009;1.645770668983460E-001;-7.252752035856247E-002;-2.122791483998299E-003;-1.936666551046073E-003;
2.423166666666667E+009;1.641371995210648E-001;-7.467227429151535E-002;-2.295190235599876E-003;-1.995345344766974E-003;
2.423333333333334E+009;1.637850552797318E-001;-7.694021612405777E-002;-2.283291192725301E-003;-2.026746049523354E-003;
2.423500000000000E+009;1.636788100004196E-001;-7.903251051902771E-002;-2.368585439398885E-003;-1.925621065311134E-003;
2.423666666666667E+009;1.636453866958618E-001;-8.115241676568985E-002;-2.394892275333405E-003;-1.930875820107758E-003;
2.423833333333334E+009;1.634512841701508E-001;-8.315046876668930E-002;-2.458444330841303E-003;-1.842093770392239E-003;
2.424000000000000E+009;1.636255234479904E-001;-8.543023467063904E-002;-2.419398631900549E-003;-1.716813887469471E-003;
2.424166666666667E+009;1.637454777956009E-001;-8.718922734260559E-002;-2.498963614925742E-003;-1.696041668765247E-003;
2.424333333333334E+009;1.641226261854172E-001;-8.898745477199554E-002;-2.344415290281177E-003;-1.689770375378430E-003;
2.424500000000000E+009;1.643048077821732E-001;-9.098771214485169E-002;-2.405125647783279E-003;-1.441617845557630E-003;
2.424666666666667E+009;1.647446304559708E-001;-9.260173141956329E-002;-2.484103897586465E-003;-1.626933342777193E-003;
2.424833333333334E+009;1.654244959354401E-001;-9.409696608781815E-002;-2.518567256629467E-003;-1.685518538579345E-003;
2.425000000000000E+009;1.659404635429382E-001;-9.555700421333313E-002;-2.729428932070732E-003;-1.599482842721045E-003;
2.425166666666667E+009;1.664599031209946E-001;-9.688262641429901E-002;-2.545965136960149E-003;-1.572503591887653E-003;
2.425333333333334E+009;1.669214218854904E-001;-9.811917692422867E-002;-2.722142962738872E-003;-1.611609826795757E-003;
2.425500000000000E+009;1.675638109445572E-001;-9.931152313947678E-002;-2.814505482092500E-003;-1.576756592839956E-003;
2.425666666666667E+009;1.681908667087555E-001;-1.001319736242294E-001;-2.858277410268784E-003;-1.668121898546815E-003;
2.425833333333334E+009;1.687612831592560E-001;-1.011129841208458E-001;-3.043858800083399E-003;-1.564751961268485E-003;
2.426000000000000E+009;1.693539768457413E-001;-1.017424985766411E-001;-3.192106727510691E-003;-1.487877103500068E-003;
2.426166666666667E+009;1.699365526437759E-001;-1.022768467664719E-001;-3.249965375289321E-003;-1.372843980789185E-003;
2.426333333333334E+009;1.703657060861588E-001;-1.029589250683785E-001;-3.458618186414242E-003;-1.461966545321047E-003;
2.426500000000000E+009;1.708835214376450E-001;-1.032968610525131E-001;-3.387567587196827E-003;-1.303865690715611E-003;
2.426666666666667E+009;1.713700592517853E-001;-1.036415025591850E-001;-3.542129881680012E-003;-1.174392178654671E-003;
2.426833333333334E+009;1.719465255737305E-001;-1.039044708013535E-001;-3.583315527066588E-003;-1.117228413932025E-003;
2.427000000000000E+009;1.721767038106918E-001;-1.041767522692680E-001;-3.503146814182401E-003;-1.081165042705834E-003;
2.427166666666667E+009;1.725233793258667E-001;-1.043017357587814E-001;-3.776633180677891E-003;-8.893477497622371E-004;
2.427333333333334E+009;1.726508736610413E-001;-1.045301705598831E-001;-3.790424671024084E-003;-6.496306159533560E-004;
2.427500000000000E+009;1.725168824195862E-001;-1.045757159590721E-001;-3.878838149830699E-003;-7.567479042336345E-004;
2.427666666666667E+009;1.724350601434708E-001;-1.046245694160461E-001;-4.019866231828928E-003;-6.508412188850343E-004;
