# Version 1.00
#
freq[Hz];re:Trc1_S11;im:Trc1_S11;re:Trc2_S21;im:Trc2_S21;
2.400000000000000E+009;1.557675898075104E-001;1.107634752988815E-001;-5.274391514831223E-005;8.052057586610317E-003;
2.400166666666667E+009;1.552339643239975E-001;1.084970533847809E-001;9.804203727981076E-005;7.825030945241451E-003;
2.400333333333334E+009;1.549168825149536E-001;1.064364835619927E-001;3.297670336905867E-004;7.785373833030462E-003;
2.400500000000000E+009;1.544927060604096E-001;1.036078035831451E-001;6.215403554961085E-004;7.683466654270887E-003;
2.400666666666667E+009;1.543617993593216E-001;1.012741625308991E-001;7.895688759163022E-004;7.521905004978180E-003;
2.400833333333334E+009;1.541443467140198E-001;9.829508513212204E-002;1.065068878233433E-003;7.269467227160931E-003;
2.401000000000000E+009;1.539385765790939E-001;9.552177041769028E-002;1.183659303933382E-003;7.167354691773653E-003;
2.401166666666667E+009;1.538359522819519E-001;9.273650497198105E-002;1.349346246570349E-003;7.188809104263783E-003;
2.401333333333334E+009;1.538022160530090E-001;8.983898162841797E-002;1.460131024941802E-003;7.131536491215229E-003;
2.401500000000000E+009;1.540914624929428E-001;8.682775497436523E-002;1.549916807562113E-003;7.161400280892849E-003;
2.401666666666667E+009;1.541644781827927E-001;8.383966982364655E-002;1.728130853734911E-003;6.829541176557541E-003;
2.401833333333334E+009;1.544873714447022E-001;8.077081292867661E-002;2.065277891233563E-003;7.062654942274094E-003;
2.402000000000000E+009;1.551505774259567E-001;7.796718925237656E-002;2.112064044922590E-003;6.931214593350887E-003;
2.402166666666667E+009;1.558742076158524E-001;7.523322850465775E-002;2.313411794602871E-003;6.914251483976841E-003;
2.402333333333334E+009;1.565701365470886E-001;7.212144136428833E-002;2.447825390845537E-003;6.934043485671282E-003;
2.402500000000000E+009;1.576398760080338E-001;6.939285993576050E-002;2.675540279597044E-003;6.866765674203634E-003;
2.402666666666667E+009;1.586937606334686E-001;6.688611209392548E-002;3.199030878022313E-003;6.996131967753172E-003;
2.402833333333334E+009;1.598278731107712E-001;6.407639384269714E-002;3.450915450230241E-003;6.833950057625771E-003;
2.403000000000000E+009;1.613315045833588E-001;6.133233383297920E-002;3.851113840937614E-003;6.737967487424612E-003;
2.403166666666667E+009;1.628888845443726E-001;5.897499993443489E-002;4.342248663306236E-003;6.724147591739893E-003;
2.403333333333334E+009;1.643726527690888E-001;5.647983029484749E-002;4.602632950991392E-003;6.372029893100262E-003;
2.403500000000000E+009;1.662061661481857E-001;5.415608733892441E-002;4.834232386201620E-003;6.172235589474440E-003;
2.403666666666667E+009;1.679011732339859E-001;5.215948820114136E-002;5.199287086725235E-003;5.961333867162466E-003;
2.403833333333334E+009;1.695967465639114E-001;5.002916976809502E-002;5.612215958535671E-003;5.594114772975445E-003;
2.404000000000000E+009;1.710794866085053E-001;4.809547215700150E-002;5.803955718874931E-003;5.139271728694439E-003;
2.404166666666667E+009;1.730265617370606E-001;4.645726457238197E-002;5.800711922347546E-003;4.642383195459843E-003;
2.404333333333334E+009;1.748480796813965E-001;4.467540234327316E-002;6.067890208214521E-003;4.239949397742748E-003;
2.404500000000000E+009;1.767104119062424E-001;4.305742681026459E-002;6.194236688315868E-003;3.847851650789380E-003;
2.404666666666667E+009;1.785486638545990E-001;4.183360561728478E-002;6.121669430285692E-003;3.488351590931416E-003;
2.404833333333334E+009;1.803285777568817E-001;4.059248417615891E-002;6.168970838189125E-003;3.087944351136684E-003;
2.405000000000000E+009;1.820354014635086E-001;3.992160782217979E-002;6.230178754776716E-003;2.955835545435548E-003;
2.405166666666667E+009;1.837098747491837E-001;3.912289440631867E-002;6.028790492564440E-003;2.672979375347495E-003;
2.405333333333334E+009;1.854583323001862E-001;3.854084014892578E-002;5.963040981441736E-003;2.479894319549203E-003;
2.405500000000000E+009;1.872083544731140E-001;3.797366097569466E-002;5.852022208273411E-003;2.154716057702899E-003;
2.405666666666667E+009;1.885944604873657E-001;3.774014860391617E-002;5.996219813823700E-003;1.886008772999048E-003;
2.405833333333334E+009;1.902669966220856E-001;3.732081130146980E-002;5.768349394202232E-003;1.787689630873501E-003;
2.406000000000000E+009;1.915103048086166E-001;3.721545636653900E-002;5.787408445030451E-003;1.652352162636817E-003;
2.406166666666667E+009;1.928727328777313E-001;3.715994581580162E-002;5.586812738329172E-003;1.257762196473777E-003;
2.406333333333334E+009;1.940741389989853E-001;3.730277344584465E-002;5.500179249793291E-003;1.202357350848615E-003;
2.406500000000000E+009;1.951368153095245E-001;3.732156008481979E-002;5.413732957094908E-003;9.149078396148980E-004;
2.406666666666667E+009;1.960193067789078E-001;3.759450092911720E-002;5.545029882341623E-003;1.003002515062690E-003;
2.406833333333334E+009;1.967401206493378E-001;3.777485713362694E-002;5.195302888751030E-003;7.435061270371079E-004;
2.407000000000000E+009;1.972897797822952E-001;3.818659856915474E-002;5.290482193231583E-003;6.870299112051725E-004;
2.407166666666667E+009;1.978837400674820E-001;3.819620609283447E-002;5.147723481059074E-003;5.249193054623902E-004;
2.407333333333334E+009;1.980000138282776E-001;3.861200436949730E-002;5.189490970224142E-003;3.672944440040737E-004;
2.407500000000000E+009;1.981691420078278E-001;3.881251439452171E-002;5.009058862924576E-003;2.595336700323969E-004;
2.407666666666667E+009;1.983148157596588E-001;3.916718810796738E-002;5.100285168737173E-003;3.374609805177897E-004;
2.407833333333334E+009;1.980302035808563E-001;3.930817171931267E-002;4.890845622867346E-003;1.302576274611056E-004;
2.408000000000000E+009;1.979910433292389E-001;3.945453092455864E-002;4.955674987286329E-003;1.626585435587913E-004;
2.408166666666667E+009;1.975603550672531E-001;3.944938257336617E-002;4.820569418370724E-003;2.833611006280989E-006;
2.408333333333334E+009;1.971328258514404E-001;3.935099765658379E-002;4.849284421652556E-003;-9.236096957465634E-005;
2.408500000000000E+009;1.964982002973557E-001;3.923494741320610E-002;4.830406513065100E-003;-8.248017547884956E-005;
2.408666666666667E+009;1.956755816936493E-001;3.914493322372437E-002;4.796441178768873E-003;-2.047411180683412E-005;
2.408833333333334E+009;1.950082927942276E-001;3.861607983708382E-002;4.855874925851822E-003;-1.982983521884307E-004;
2.409000000000000E+009;1.939630210399628E-001;3.813187032938004E-002;4.764724522829056E-003;-2.484277356415987E-004;
2.409166666666667E+009;1.929231435060501E-001;3.736381605267525E-002;4.780204501003027E-003;-3.656363987829536E-004;
2.409333333333334E+009;1.919136941432953E-001;3.685517236590385E-002;4.897759761661291E-003;-3.531868569552898E-004;
2.409500000000000E+009;1.907503008842468E-001;3.582426160573959E-002;4.833029117435217E-003;-5.288263782858849E-004;
2.409666666666667E+009;1.895398050546646E-001;3.478836640715599E-002;4.741822835057974E-003;-6.806162418797612E-004;
2.409833333333334E+009;1.882021129131317E-001;3.335230797529221E-002;4.743438679724932E-003;-7.554882322438061E-004;
2.410000000000000E+009;1.871045082807541E-001;3.215757384896278E-002;4.794361069798470E-003;-1.072038081474602E-003;
2.410166666666667E+009;1.859448552131653E-001;3.034586086869240E-002;4.946540109813213E-003;-1.046207267791033E-003;
2.410333333333334E+009;1.845856904983521E-001;2.885426022112370E-002;4.810005426406860E-003;-1.228002132847905E-003;
2.410500000000000E+009;1.834428459405899E-001;2.714995481073856E-002;4.748427309095860E-003;-1.280721859075129E-003;
2.410666666666667E+009;1.822771131992340E-001;2.495299279689789E-002;4.729745443910360E-003;-1.513859839178622E-003;
2.410833333333334E+009;1.814965009689331E-001;2.279851771891117E-002;4.510140977799892E-003;-1.568455947563052E-003;
2.411000000000000E+009;1.804320812225342E-001;2.073878981173039E-002;4.605956841260195E-003;-1.572319190017879E-003;
2.411166666666667E+009;1.794463992118835E-001;1.844549179077148E-002;4.604850430041552E-003;-1.767464680597186E-003;
2.411333333333334E+009;1.788200587034226E-001;1.604223065078259E-002;4.394918680191040E-003;-1.871074317023158E-003;
2.411500000000000E+009;1.783059239387512E-001;1.362131163477898E-002;4.454372450709343E-003;-1.904439064674079E-003;
2.411666666666667E+009;1.776089519262314E-001;1.126613933593035E-002;4.330095369368792E-003;-2.044338267296553E-003;
2.411833333333334E+009;1.771185249090195E-001;8.790903724730015E-003;4.330030176788569E-003;-2.015407197177410E-003;
2.412000000000000E+009;1.770020723342896E-001;6.106265354901552E-003;4.250053782016039E-003;-2.064995700493455E-003;
2.412166666666667E+009;1.770701706409454E-001;3.540894715115428E-003;4.372469615191221E-003;-2.325878944247961E-003;
2.412333333333334E+009;1.770178228616715E-001;8.475859649479389E-004;4.167574923485518E-003;-2.306230366230011E-003;
2.412500000000000E+009;1.773938536643982E-001;-1.651757746003568E-003;4.327934700995684E-003;-2.316921483725309E-003;
2.412666666666667E+009;1.777872890233994E-001;-4.445560276508331E-003;4.382411018013954E-003;-2.404888626188040E-003;
2.412833333333334E+009;1.784016191959381E-001;-6.880552973598242E-003;4.184926394373179E-003;-2.532799728214741E-003;
2.413000000000000E+009;1.787671595811844E-001;-9.494050405919552E-003;4.256376065313816E-003;-2.628222806379199E-003;
2.413166666666667E+009;1.796933859586716E-001;-1.199101191014051E-002;4.291147924959660E-003;-2.916937228292227E-003;
2.413333333333334E+009;1.807134747505188E-001;-1.450180169194937E-002;4.482792690396309E-003;-2.958851866424084E-003;
2.413500000000000E+009;1.814756095409393E-001;-1.719734258949757E-002;4.315738566219807E-003;-3.266652114689350E-003;
2.413666666666667E+009;1.826692223548889E-001;-1.942084170877934E-002;4.439296666532755E-003;-3.486281959339976E-003;
2.413833333333334E+009;1.839027851819992E-001;-2.172575145959854E-002;4.373928997665644E-003;-3.627232974395156E-003;
2.414000000000000E+009;1.850252002477646E-001;-2.398891560733318E-002;4.347776994109154E-003;-4.077884368598461E-003;
2.414166666666667E+009;1.866397559642792E-001;-2.593794465065002E-002;4.246730357408524E-003;-4.287903197109699E-003;
2.414333333333334E+009;1.876317262649536E-001;-2.812620438635349E-002;4.055293742567301E-003;-4.533322993665934E-003;
2.414500000000000E+009;1.891746819019318E-001;-2.981782145798206E-002;3.947703167796135E-003;-4.833779763430357E-003;
2.414666666666667E+009;1.905259490013123E-001;-3.150528669357300E-002;3.581348573789001E-003;-5.189957562834024E-003;
2.414833333333334E+009;1.919103562831879E-001;-3.314484655857086E-002;3.289111657068133E-003;-5.466245580464602E-003;
2.415000000000000E+009;1.933079361915588E-001;-3.470723330974579E-002;3.073288826271892E-003;-5.552383139729500E-003;
2.415166666666667E+009;1.946544200181961E-001;-3.582704439759255E-002;2.717523137107492E-003;-5.690707825124264E-003;
2.415333333333334E+009;1.959513127803803E-001;-3.706447035074234E-002;2.512891078367829E-003;-5.763465072959662E-003;
2.415500000000000E+009;1.974418312311173E-001;-3.782210126519203E-002;2.117941388860345E-003;-5.929176695644856E-003;
2.415666666666667E+009;1.988147050142288E-001;-3.884504735469818E-002;1.653639366850257E-003;-5.899390205740929E-003;
2.415833333333334E+009;1.999763548374176E-001;-3.955903276801109E-002;1.413229620084167E-003;-6.014103535562754E-003;
2.416000000000000E+009;2.009740024805069E-001;-4.026919975876808E-002;1.157095888629556E-003;-6.013082340359688E-003;
2.416166666666667E+009;2.020566165447235E-001;-4.084414616227150E-002;9.638433693908155E-004;-5.932358559221029E-003;
2.416333333333334E+009;2.030370980501175E-001;-4.115649685263634E-002;5.990083445794880E-004;-6.006241776049137E-003;
2.416500000000000E+009;2.037577927112579E-001;-4.142652824521065E-002;2.452186017762870E-004;-6.027471739798784E-003;
2.416666666666667E+009;2.043565958738327E-001;-4.184747114777565E-002;7.189054304035381E-005;-5.919814109802246E-003;
2.416833333333334E+009;2.047825306653976E-001;-4.172179102897644E-002;-2.253016136819497E-004;-5.788426380604506E-003;
2.417000000000000E+009;2.051551789045334E-001;-4.184549674391747E-002;-5.708879907615483E-004;-5.580616649240255E-003;
2.417166666666667E+009;2.051661312580109E-001;-4.172861948609352E-002;-6.107318913564086E-004;-5.792815703898668E-003;
2.417333333333334E+009;2.052329033613205E-001;-4.141921550035477E-002;-7.994835032150149E-004;-5.458167288452387E-003;
2.417500000000000E+009;2.052954137325287E-001;-4.123137146234512E-002;-1.004352467134595E-003;-5.352287087589502E-003;
2.417666666666667E+009;2.049262821674347E-001;-4.092208668589592E-002;-1.370929181575775E-003;-5.268976557999849E-003;
2.417833333333334E+009;2.046903967857361E-001;-4.056715220212936E-002;-1.479736180044711E-003;-5.234224256128073E-003;
2.418000000000000E+009;2.042805999517441E-001;-4.011427983641625E-002;-1.671579782851040E-003;-5.027967039495707E-003;
2.418166666666667E+009;2.035751193761826E-001;-3.987112268805504E-002;-1.957067521288991E-003;-4.965354688465595E-003;
2.418333333333334E+009;2.028688192367554E-001;-3.952442109584808E-002;-2.029896480962634E-003;-4.758411087095738E-003;
2.418500000000000E+009;2.018992304801941E-001;-3.923917189240456E-002;-2.175717614591122E-003;-4.713522270321846E-003;
2.418666666666667E+009;2.011846154928207E-001;-3.898967429995537E-002;-2.309736330062151E-003;-4.483648110181093E-003;
2.418833333333334E+009;1.999876797199249E-001;-3.900836035609245E-002;-2.440222539007664E-003;-4.261714406311512E-003;
2.419000000000000E+009;1.987261474132538E-001;-3.892876952886581E-002;-2.663312712684274E-003;-4.125925246626139E-003;
2.419166666666667E+009;1.974723488092423E-001;-3.912820294499397E-002;-2.812690334394574E-003;-3.926052711904049E-003;
2.419333333333334E+009;1.959729790687561E-001;-3.923993557691574E-002;-2.649713307619095E-003;-3.734049620106816E-003;
2.419500000000000E+009;1.945503652095795E-001;-3.958518058061600E-002;-2.880749991163611E-003;-3.634319640696049E-003;
2.419666666666667E+009;1.930053234100342E-001;-4.016642645001411E-002;-3.034445689991117E-003;-3.502460429444909E-003;
2.419833333333334E+009;1.912744790315628E-001;-4.061909765005112E-002;-2.924074418842793E-003;-3.215368371456862E-003;
2.420000000000000E+009;1.894809454679489E-001;-4.122849926352501E-002;-2.925024367868900E-003;-3.108802018687129E-003;
2.420166666666667E+009;1.878354251384735E-001;-4.210432618856430E-002;-3.014050424098969E-003;-2.885036868974567E-003;
2.420333333333334E+009;1.859801411628723E-001;-4.308871552348137E-002;-3.106389194726944E-003;-2.640954218804836E-003;
2.420500000000000E+009;1.841759234666824E-001;-4.422590136528015E-002;-3.074468113481998E-003;-2.385690575465560E-003;
2.420666666666667E+009;1.823892742395401E-001;-4.537149891257286E-002;-2.968631684780121E-003;-2.366263652220368E-003;
2.420833333333334E+009;1.806230694055557E-001;-4.680855199694634E-002;-2.977707888931036E-003;-2.221613191068173E-003;
2.421000000000000E+009;1.790163516998291E-001;-4.821778461337090E-002;-2.745304023846984E-003;-2.064106054604054E-003;
2.421166666666667E+009;1.773714423179627E-001;-4.985165596008301E-002;-2.723299199715257E-003;-1.797251519747078E-003;
2.421333333333334E+009;1.754022389650345E-001;-5.157869309186935E-002;-2.574122278019786E-003;-1.770251663401723E-003;
2.421500000000000E+009;1.741127520799637E-001;-5.348579213023186E-002;-2.429648302495480E-003;-1.745996763929725E-003;
2.421666666666667E+009;1.726010590791702E-001;-5.526488646864891E-002;-2.277135848999023E-003;-1.654263352975249E-003;
2.421833333333334E+009;1.711645126342773E-001;-5.720881372690201E-002;-2.234517131000757E-003;-1.705075730569661E-003;
2.422000000000000E+009;1.697788983583450E-001;-5.914344266057015E-002;-2.041817177087069E-003;-1.705813338048756E-003;
2.422166666666667E+009;1.687574386596680E-001;-6.150922551751137E-002;-2.096203854307532E-003;-1.668344018980861E-003;
2.422333333333334E+009;1.675754487514496E-001;-6.364598125219345E-002;-2.285833703354001E-003;-1.673809485509992E-003;
2.422500000000000E+009;1.666870415210724E-001;-6.587321311235428E-002;-2.064394298940897E-003;-1.841751858592033E-003;
2.422666666666667E+009;1.658338904380798E-001;-6.805378198623657E-002;-2.160222269594669E-003;-1.852102577686310E-003;
2.422833333333334E+009;1.651350855827332E-001;-7.030588388442993E-002;-2.212828723713756E-003;-1.866122125647962E-003;
2.423000000000000E+009;1.644299924373627E-001;-7.255670428276062E-002;-2.192261163145304E-003;-1.808091648854315E-003;
2.423166666666667E+009;1.639206707477570E-001;-7.488025724887848E-002;-2.334885532036424E-003;-1.890306593850255E-003;
2.423333333333334E+009;1.636733263731003E-001;-7.691656053066254E-002;-2.230352256447077E-003;-1.730671734549105E-003;
2.423500000000000E+009;1.635666936635971E-001;-7.898929715156555E-002;-2.433684421703219E-003;-1.783330691978335E-003;
2.423666666666667E+009;1.633556038141251E-001;-8.109918981790543E-002;-2.494515152648091E-003;-1.868402003310621E-003;
2.423833333333334E+009;1.633394062519074E-001;-8.320870995521545E-002;-2.406873041763902E-003;-1.687049167230725E-003;
2.424000000000000E+009;1.634834408760071E-001;-8.532541245222092E-002;-2.535009291023016E-003;-1.677095307968557E-003;
2.424166666666667E+009;1.637184470891953E-001;-8.722501248121262E-002;-2.502815332263708E-003;-1.675485633313656E-003;
2.424333333333334E+009;1.638814359903336E-001;-8.905960619449616E-002;-2.476700115948916E-003;-1.660872600041330E-003;
2.424500000000000E+009;1.643876582384110E-001;-9.089845418930054E-002;-2.685687970370054E-003;-1.571953296661377E-003;
2.424666666666667E+009;1.646117120981216E-001;-9.262616932392120E-002;-2.566612558439374E-003;-1.635443768464029E-003;
2.424833333333334E+009;1.652560085058212E-001;-9.405531734228134E-002;-2.570818876847625E-003;-1.577239367179573E-003;
2.425000000000000E+009;1.658402532339096E-001;-9.556581079959869E-002;-2.703433390706778E-003;-1.448734314180911E-003;
2.425166666666667E+009;1.662681400775909E-001;-9.688105434179306E-002;-2.657805569469929E-003;-1.558000571094453E-003;
2.425333333333334E+009;1.667809188365936E-001;-9.804215282201767E-002;-2.631467767059803E-003;-1.591236563399434E-003;
2.425500000000000E+009;1.675921529531479E-001;-9.924829751253128E-002;-2.907772781327367E-003;-1.540328725241125E-003;
2.425666666666667E+009;1.680524349212647E-001;-9.997815638780594E-002;-2.932638628408313E-003;-1.382800866849721E-003;
2.425833333333334E+009;1.685887724161148E-001;-1.011147648096085E-001;-3.133751684799790E-003;-1.654507708735764E-003;
2.426000000000000E+009;1.692225635051727E-001;-1.015164032578468E-001;-3.243220038712025E-003;-1.540185417979956E-003;
2.426166666666667E+009;1.698676943778992E-001;-1.022844836115837E-001;-3.243892919272184E-003;-1.326510217040777E-003;
2.426333333333334E+009;1.702522337436676E-001;-1.028554812073708E-001;-3.338902490213513E-003;-1.498476369306445E-003;
2.426500000000000E+009;1.708932816982269E-001;-1.032108888030052E-001;-3.397739026695490E-003;-1.365355215966702E-003;
2.426666666666667E+009;1.713375747203827E-001;-1.036219969391823E-001;-3.448792267590761E-003;-1.147983479313552E-003;
2.426833333333334E+009;1.718824356794357E-001;-1.039287596940994E-001;-3.680139547213912E-003;-1.093831378966570E-003;
2.427000000000000E+009;1.721199154853821E-001;-1.040504649281502E-001;-3.773692995309830E-003;-9.235602337867022E-004;
2.427166666666667E+009;1.723990887403488E-001;-1.040927246212959E-001;-3.852715948596597E-003;-8.062027627602220E-004;
2.427333333333334E+009;1.725156456232071E-001;-1.044040620326996E-001;-3.751475131139159E-003;-7.752241217531264E-004;
2.427500000000000E+009;1.725221574306488E-001;-1.044664978981018E-001;-3.931675571948290E-003;-6.209219573065639E-004;
2.427666666666667E+009;1.723916083574295E-001;-1.044535711407661E-001;-3.988352604210377E-003;-4.881779022980481E-004;
