# Version 1.00
#
freq[Hz];re:Trc1_S11;im:Trc1_S11;re:Trc2_S21;im:Trc2_S21;
2.400000000000000E+009;1.559228003025055E-001;1.108912751078606E-001;-1.343520270893350E-004;8.132115006446838E-003;
2.400166666666667E+009;1.553075164556503E-001;1.087256595492363E-001;2.397581265540794E-004;7.799777202308178E-003;
2.400333333333334E+009;1.550720483064652E-001;1.063311770558357E-001;3.877529525198042E-004;7.763561327010393E-003;
2.400500000000000E+009;1.546054184436798E-001;1.037518382072449E-001;5.987030453979969E-004;7.621275261044502E-003;
2.400666666666667E+009;1.544959992170334E-001;1.014143005013466E-001;9.124497883021832E-004;7.586272433400154E-003;
2.400833333333334E+009;1.541503071784973E-001;9.824993461370468E-002;1.014783279970288E-003;7.469680625945330E-003;
2.401000000000000E+009;1.540644019842148E-001;9.551471471786499E-002;1.317602698691189E-003;7.378985174000263E-003;
2.401166666666667E+009;1.537141650915146E-001;9.270554780960083E-002;1.315105822868645E-003;7.035096641629934E-003;
2.401333333333334E+009;1.539024412631989E-001;8.991175889968872E-002;1.546095707453787E-003;7.084563374519348E-003;
2.401500000000000E+009;1.540676355361939E-001;8.683627098798752E-002;1.713300240226090E-003;7.024276535958052E-003;
2.401666666666667E+009;1.542809456586838E-001;8.376380056142807E-002;1.741804298944771E-003;6.953316275030375E-003;
2.401833333333334E+009;1.545225977897644E-001;8.103153854608536E-002;1.919497852213681E-003;6.944928783923388E-003;
2.402000000000000E+009;1.553992629051209E-001;7.777354121208191E-002;2.246991731226444E-003;6.973408162593842E-003;
2.402166666666667E+009;1.558519452810288E-001;7.517401129007340E-002;2.312592696398497E-003;6.767020095139742E-003;
2.402333333333334E+009;1.567245274782181E-001;7.209040224552155E-002;2.560887951403856E-003;6.930749397724867E-003;
2.402500000000000E+009;1.576601117849350E-001;6.931093335151672E-002;2.827020827680826E-003;6.878260057419539E-003;
2.402666666666667E+009;1.587473005056381E-001;6.674782931804657E-002;3.032424021512270E-003;6.851867306977511E-003;
2.402833333333334E+009;1.600307077169418E-001;6.399394571781158E-002;3.364267293363810E-003;6.870823446661234E-003;
2.403000000000000E+009;1.612886339426041E-001;6.149554997682571E-002;3.798466175794601E-003;6.784504279494286E-003;
2.403166666666667E+009;1.629882007837296E-001;5.903317779302597E-002;4.300881177186966E-003;6.532717961817980E-003;
2.403333333333334E+009;1.644059419631958E-001;5.660551041364670E-002;4.524132702499628E-003;6.290917284786701E-003;
2.403500000000000E+009;1.662544459104538E-001;5.427377671003342E-002;4.793663043528795E-003;6.193595007061958E-003;
2.403666666666667E+009;1.680212914943695E-001;5.220205709338188E-002;5.169470794498920E-003;5.687550641596317E-003;
2.403833333333334E+009;1.696553379297257E-001;4.996206983923912E-002;5.450403783470392E-003;5.461142398416996E-003;
2.404000000000000E+009;1.711115390062332E-001;4.811112210154533E-002;5.680167581886053E-003;5.175952799618244E-003;
2.404166666666667E+009;1.732446402311325E-001;4.645781964063644E-002;5.848209373652935E-003;4.669729620218277E-003;
2.404333333333334E+009;1.749982237815857E-001;4.454092681407929E-002;6.090957205742598E-003;4.332677461206913E-003;
2.404500000000000E+009;1.767590045928955E-001;4.314332082867622E-002;6.041054148226976E-003;3.999754786491394E-003;
2.404666666666667E+009;1.785356998443604E-001;4.170994460582733E-002;6.131727248430252E-003;3.522744867950678E-003;
2.404833333333334E+009;1.804896891117096E-001;4.060106351971626E-002;6.187419407069683E-003;3.164421766996384E-003;
2.405000000000000E+009;1.820508986711502E-001;3.993157669901848E-002;6.143977865576744E-003;2.921908162534237E-003;
2.405166666666667E+009;1.837678104639053E-001;3.911778703331947E-002;6.062560714781284E-003;2.528934273868799E-003;
2.405333333333334E+009;1.855348348617554E-001;3.853593394160271E-002;5.925837904214859E-003;2.226751996204257E-003;
2.405500000000000E+009;1.872976869344711E-001;3.804567456245422E-002;5.864642560482025E-003;2.086117165163159E-003;
2.405666666666667E+009;1.887569278478622E-001;3.763945773243904E-002;5.725723225623369E-003;1.805422711186111E-003;
2.405833333333334E+009;1.903830617666245E-001;3.737922012805939E-002;5.694769788533449E-003;1.746292808093131E-003;
2.406000000000000E+009;1.916268169879913E-001;3.735085204243660E-002;5.705961957573891E-003;1.577708171680570E-003;
2.406166666666667E+009;1.929479390382767E-001;3.695387765765190E-002;5.690600723028183E-003;1.389365177601576E-003;
2.406333333333334E+009;1.941086202859879E-001;3.712676465511322E-002;5.394839216023684E-003;1.340878312475979E-003;
2.406500000000000E+009;1.952395737171173E-001;3.741278871893883E-002;5.468484945595264E-003;1.063300296664238E-003;
2.406666666666667E+009;1.960015743970871E-001;3.755080327391625E-002;5.256307311356068E-003;8.668605005368590E-004;
2.406833333333334E+009;1.967798322439194E-001;3.765511885285378E-002;5.277191754430533E-003;7.434640428982675E-004;
2.407000000000000E+009;1.973483413457871E-001;3.809954598546028E-002;5.241391249001026E-003;6.915156845934689E-004;
2.407166666666667E+009;1.980627626180649E-001;3.806336969137192E-002;5.101668648421764E-003;4.746221820823848E-004;
2.407333333333334E+009;1.981945186853409E-001;3.845301643013954E-002;5.052842665463686E-003;5.158772692084312E-004;
2.407500000000000E+009;1.982137858867645E-001;3.894070908427239E-002;5.099095404148102E-003;4.213187203276902E-004;
2.407666666666667E+009;1.983363628387451E-001;3.903096541762352E-002;4.847015254199505E-003;1.652536011533812E-004;
2.407833333333334E+009;1.980818212032318E-001;3.907011449337006E-002;4.872381687164307E-003;3.052688844036311E-004;
2.408000000000000E+009;1.981014460325241E-001;3.925033286213875E-002;4.814341198652983E-003;2.621877647470683E-004;
2.408166666666667E+009;1.974142789840698E-001;3.947452083230019E-002;4.937693476676941E-003;1.553677793708630E-005;
2.408333333333334E+009;1.970882564783096E-001;3.923211991786957E-002;4.738129209727049E-003;-2.207271427323576E-005;
2.408500000000000E+009;1.964372694492340E-001;3.928337618708611E-002;4.734910093247891E-003;-8.935092046158388E-005;
2.408666666666667E+009;1.956974565982819E-001;3.890881314873695E-002;4.769304767251015E-003;-2.045938163064420E-004;
2.408833333333334E+009;1.949297785758972E-001;3.862951695919037E-002;4.848458804190159E-003;-1.820036268327385E-004;
2.409000000000000E+009;1.939339339733124E-001;3.810424730181694E-002;4.733595997095108E-003;-1.323251781286672E-004;
2.409166666666667E+009;1.929571181535721E-001;3.746980801224709E-002;4.674287047237158E-003;-3.534529532771558E-004;
2.409333333333334E+009;1.919645816087723E-001;3.683921694755554E-002;4.715884104371071E-003;-2.800092624966055E-004;
2.409500000000000E+009;1.906870007514954E-001;3.565451130270958E-002;4.777132067829371E-003;-3.748705494217575E-004;
2.409666666666667E+009;1.894968152046204E-001;3.458543494343758E-002;4.780515562742949E-003;-5.871850880794227E-004;
2.409833333333334E+009;1.882695704698563E-001;3.341152146458626E-002;4.761968739330769E-003;-5.766438553109765E-004;
2.410000000000000E+009;1.870941817760468E-001;3.211655467748642E-002;4.928190726786852E-003;-7.727268384769559E-004;
2.410166666666667E+009;1.859035938978195E-001;3.046499937772751E-002;4.919218830764294E-003;-1.128504402004182E-003;
2.410333333333334E+009;1.844705492258072E-001;2.888400480151177E-002;4.776512738317251E-003;-1.220768317580223E-003;
2.410500000000000E+009;1.834287196397781E-001;2.714319713413715E-002;4.815850406885147E-003;-1.261189114302397E-003;
2.410666666666667E+009;1.823799908161163E-001;2.494229376316071E-002;4.831955302506685E-003;-1.302744029089809E-003;
2.410833333333334E+009;1.814386099576950E-001;2.302896417677403E-002;4.481257870793343E-003;-1.504960469901562E-003;
2.411000000000000E+009;1.804423183202744E-001;2.072775922715664E-002;4.398187156766653E-003;-1.585158053785563E-003;
2.411166666666667E+009;1.795987039804459E-001;1.869128830730915E-002;4.473823588341475E-003;-1.727687194943428E-003;
2.411333333333334E+009;1.787854433059692E-001;1.610516011714935E-002;4.388358909636736E-003;-1.778698642738164E-003;
2.411500000000000E+009;1.780932992696762E-001;1.367617677897215E-002;4.350910428911448E-003;-1.903831027448177E-003;
2.411666666666667E+009;1.777993142604828E-001;1.132099609822035E-002;4.351861774921417E-003;-1.887253951281309E-003;
2.411833333333334E+009;1.770945340394974E-001;8.650778792798519E-003;4.368375986814499E-003;-2.009963616728783E-003;
2.412000000000000E+009;1.772492229938507E-001;5.928078200668097E-003;4.328433424234390E-003;-1.930454163812101E-003;
2.412166666666667E+009;1.769333481788635E-001;3.664855379611254E-003;4.329976160079241E-003;-2.142682438716292E-003;
2.412333333333334E+009;1.770505011081696E-001;9.172600694000721E-004;4.238532856106758E-003;-2.136889379471541E-003;
2.412500000000000E+009;1.773349493741989E-001;-1.683825161308050E-003;4.304976668208838E-003;-2.225362695753574E-003;
2.412666666666667E+009;1.776600778102875E-001;-4.390853922814131E-003;4.416964482516050E-003;-2.336762845516205E-003;
2.412833333333334E+009;1.781633347272873E-001;-6.894472986459732E-003;4.402644000947475E-003;-2.495748223736882E-003;
2.413000000000000E+009;1.789756566286087E-001;-9.558540768921375E-003;4.348543938249350E-003;-2.559660468250513E-003;
2.413166666666667E+009;1.796437650918961E-001;-1.197824813425541E-002;4.494728986173868E-003;-2.711740555241704E-003;
2.413333333333334E+009;1.806302666664124E-001;-1.467069052159786E-002;4.464261699467897E-003;-2.940454054623842E-003;
2.413500000000000E+009;1.815903037786484E-001;-1.709237508475781E-002;4.508520476520062E-003;-3.116287291049957E-003;
2.413666666666667E+009;1.827711015939713E-001;-1.947996020317078E-002;4.453348461538553E-003;-3.379982197657228E-003;
2.413833333333334E+009;1.838413774967194E-001;-2.173944562673569E-002;4.469440318644047E-003;-3.562714671716094E-003;
2.414000000000000E+009;1.850431412458420E-001;-2.392719313502312E-002;4.390903282910585E-003;-3.961117006838322E-003;
2.414166666666667E+009;1.865202039480209E-001;-2.587050944566727E-002;4.238973371684551E-003;-4.339758772403002E-003;
2.414333333333334E+009;1.875643730163574E-001;-2.811121195554733E-002;3.933993633836508E-003;-4.594737663865089E-003;
2.414500000000000E+009;1.891122460365295E-001;-2.985834144055843E-002;3.868977306410670E-003;-4.994696006178856E-003;
2.414666666666667E+009;1.904132664203644E-001;-3.142766281962395E-002;3.609280101954937E-003;-5.013870541006327E-003;
2.414833333333334E+009;1.919087618589401E-001;-3.317605704069138E-002;3.355911001563072E-003;-5.271398928016424E-003;
2.415000000000000E+009;1.931000202894211E-001;-3.464224934577942E-002;3.237480530515313E-003;-5.355846602469683E-003;
2.415166666666667E+009;1.947841644287109E-001;-3.589136898517609E-002;2.815613755956292E-003;-5.718832369893789E-003;
2.415333333333334E+009;1.961572021245956E-001;-3.693184256553650E-002;2.446356462314725E-003;-5.633567459881306E-003;
2.415500000000000E+009;1.974853426218033E-001;-3.784166648983955E-002;2.057549310848117E-003;-5.898335482925177E-003;
2.415666666666667E+009;1.988370865583420E-001;-3.884825855493546E-002;1.891691470518708E-003;-6.006872747093439E-003;
2.415833333333334E+009;1.998821347951889E-001;-3.958335891366005E-002;1.679591136053205E-003;-5.821776110678911E-003;
2.416000000000000E+009;2.010079026222229E-001;-4.020345956087112E-002;1.309383893385530E-003;-5.989263765513897E-003;
2.416166666666667E+009;2.020503878593445E-001;-4.083392024040222E-002;9.278618381358683E-004;-5.892663728445768E-003;
2.416333333333334E+009;2.030614614486694E-001;-4.121130704879761E-002;5.456724320538342E-004;-5.991745274513960E-003;
2.416500000000000E+009;2.038532197475433E-001;-4.145775735378265E-002;3.836947144009173E-004;-5.992536898702383E-003;
2.416666666666667E+009;2.043153345584869E-001;-4.191711917519569E-002;2.356534096179530E-004;-5.858480464667082E-003;
2.416833333333334E+009;2.047626078128815E-001;-4.181306436657906E-002;-2.530107740312815E-004;-5.642965435981751E-003;
2.417000000000000E+009;2.051926255226135E-001;-4.187140241265297E-002;-3.987571690231562E-004;-5.543255247175694E-003;
2.417166666666667E+009;2.053281813859940E-001;-4.166054353117943E-002;-6.934616249054670E-004;-5.648369900882244E-003;
2.417333333333334E+009;2.052226513624191E-001;-4.146465286612511E-002;-8.287288364954293E-004;-5.480105988681316E-003;
2.417500000000000E+009;2.052494138479233E-001;-4.137238487601280E-002;-1.075304928235710E-003;-5.269798915833235E-003;
2.417666666666667E+009;2.050003707408905E-001;-4.099266976118088E-002;-1.141826389357448E-003;-5.361846648156643E-003;
2.417833333333334E+009;2.047743499279022E-001;-4.062895849347115E-002;-1.350632170215249E-003;-5.182565655559301E-003;
2.418000000000000E+009;2.042446881532669E-001;-4.012777283787727E-002;-1.703277113847435E-003;-5.079377442598343E-003;
2.418166666666667E+009;2.036061137914658E-001;-3.993235528469086E-002;-1.743083703331649E-003;-4.822486080229282E-003;
2.418333333333334E+009;2.029701322317123E-001;-3.953666985034943E-002;-2.050231909379363E-003;-4.919550381600857E-003;
2.418500000000000E+009;2.019904404878616E-001;-3.935205936431885E-002;-2.129704924300313E-003;-4.617780447006226E-003;
2.418666666666667E+009;2.012289911508560E-001;-3.908164799213409E-002;-2.172522945329547E-003;-4.427438601851463E-003;
2.418833333333334E+009;1.999735236167908E-001;-3.895410522818565E-002;-2.384759485721588E-003;-4.360280465334654E-003;
2.419000000000000E+009;1.988283097743988E-001;-3.900418058037758E-002;-2.424095990136266E-003;-4.219881724566221E-003;
2.419166666666667E+009;1.975313723087311E-001;-3.910600766539574E-002;-2.555219456553459E-003;-4.014241974800825E-003;
2.419333333333334E+009;1.960839778184891E-001;-3.938785940408707E-002;-2.793981926515698E-003;-3.743365174159408E-003;
2.419500000000000E+009;1.945340037345886E-001;-3.962624818086624E-002;-2.837787615135312E-003;-3.609765553846955E-003;
2.419666666666667E+009;1.929799914360046E-001;-4.011044651269913E-002;-2.791776321828365E-003;-3.439822234213352E-003;
2.419833333333334E+009;1.912691146135330E-001;-4.063302278518677E-002;-2.839830936864018E-003;-3.239914076402783E-003;
2.420000000000000E+009;1.896750926971436E-001;-4.138365015387535E-002;-2.845727140083909E-003;-3.128461074084044E-003;
2.420166666666667E+009;1.879162192344666E-001;-4.215358942747116E-002;-3.088623518124223E-003;-2.903320826590061E-003;
2.420333333333334E+009;1.862004697322846E-001;-4.315867647528648E-002;-2.937178825959563E-003;-2.656891709193587E-003;
2.420500000000000E+009;1.841406673192978E-001;-4.426943510770798E-002;-2.921841340139508E-003;-2.645525615662336E-003;
2.420666666666667E+009;1.824004352092743E-001;-4.547148197889328E-002;-2.743467688560486E-003;-2.341622952371836E-003;
2.420833333333334E+009;1.806549876928330E-001;-4.679090157151222E-002;-2.817967906594276E-003;-2.157558687031269E-003;
2.421000000000000E+009;1.790445446968079E-001;-4.822584986686707E-002;-2.647420391440392E-003;-2.125372178852558E-003;
2.421166666666667E+009;1.773744821548462E-001;-5.004384368658066E-002;-2.592125674709678E-003;-2.006873255595565E-003;
2.421333333333334E+009;1.754327267408371E-001;-5.128118395805359E-002;-2.588005736470223E-003;-1.765939057804644E-003;
2.421500000000000E+009;1.740800142288208E-001;-5.345351621508598E-002;-2.353520831093192E-003;-1.937770983204246E-003;
2.421666666666667E+009;1.725933849811554E-001;-5.531639233231545E-002;-2.258842578157783E-003;-1.701893284916878E-003;
2.421833333333334E+009;1.711377352476120E-001;-5.730763822793961E-002;-2.323643071576953E-003;-1.743927481584251E-003;
2.422000000000000E+009;1.698413342237473E-001;-5.929109826683998E-002;-2.069508889690042E-003;-1.757962978444994E-003;
2.422166666666667E+009;1.687885969877243E-001;-6.161536276340485E-002;-2.112845657393336E-003;-1.746638794429600E-003;
2.422333333333334E+009;1.675943583250046E-001;-6.365553289651871E-002;-1.941475085914135E-003;-1.762330299243331E-003;
2.422500000000000E+009;1.666068434715271E-001;-6.580588966608048E-002;-1.973606413230300E-003;-1.973202917724848E-003;
2.422666666666667E+009;1.657581478357315E-001;-6.815557181835175E-002;-2.195729408413172E-003;-1.978448592126370E-003;
2.422833333333334E+009;1.651597172021866E-001;-7.040378451347351E-002;-2.087027300149202E-003;-1.752495183609426E-003;
2.423000000000000E+009;1.645171493291855E-001;-7.254337519407272E-002;-2.194738714024425E-003;-1.883325283415616E-003;
2.423166666666667E+009;1.640533953905106E-001;-7.489218562841415E-002;-2.355715259909630E-003;-2.052664058282971E-003;
2.423333333333334E+009;1.636308282613754E-001;-7.702512294054031E-002;-2.384766237810254E-003;-2.127571031451225E-003;
2.423500000000000E+009;1.635061055421829E-001;-7.911740243434906E-002;-2.351275878027082E-003;-2.102122642099857E-003;
2.423666666666667E+009;1.636170148849487E-001;-8.124511688947678E-002;-2.437862334772945E-003;-1.925263204611838E-003;
2.423833333333334E+009;1.633165031671524E-001;-8.333748579025269E-002;-2.300615189597011E-003;-1.934193889610469E-003;
2.424000000000000E+009;1.635902374982834E-001;-8.544792234897614E-002;-2.584110712632537E-003;-1.893982407636941E-003;
2.424166666666667E+009;1.636494696140289E-001;-8.732277154922485E-002;-2.489318605512381E-003;-1.725461101159453E-003;
2.424333333333334E+009;1.639377325773239E-001;-8.910983055830002E-002;-2.511454746127129E-003;-1.754102879203856E-003;
2.424500000000000E+009;1.643674373626709E-001;-9.102908521890640E-002;-2.520227106288075E-003;-1.766061177477241E-003;
2.424666666666667E+009;1.646159738302231E-001;-9.271411597728729E-002;-2.541581634432077E-003;-1.753829885274172E-003;
2.424833333333334E+009;1.654440313577652E-001;-9.421921521425247E-002;-2.558079781010747E-003;-1.610841485671699E-003;
2.425000000000000E+009;1.658513396978378E-001;-9.564929455518723E-002;-2.444164827466011E-003;-1.719285268336535E-003;
2.425166666666667E+009;1.663594096899033E-001;-9.696261584758759E-002;-2.789220772683621E-003;-1.745627843774855E-003;
2.425333333333334E+009;1.668040305376053E-001;-9.821466356515884E-002;-2.938889665529132E-003;-1.683505019173026E-003;
2.425500000000000E+009;1.675025373697281E-001;-9.939948469400406E-002;-2.942309947684407E-003;-1.680228044278920E-003;
2.425666666666667E+009;1.681674569845200E-001;-1.002314910292625E-001;-3.007292514666915E-003;-1.717812032438815E-003;
2.425833333333334E+009;1.686068028211594E-001;-1.011594533920288E-001;-3.176293335855007E-003;-1.550253015011549E-003;
2.426000000000000E+009;1.692466139793396E-001;-1.017534360289574E-001;-3.383024130016565E-003;-1.465625944547355E-003;
2.426166666666667E+009;1.699280589818955E-001;-1.023335903882980E-001;-3.360500792041421E-003;-1.379185589030385E-003;
2.426333333333334E+009;1.702840328216553E-001;-1.030082702636719E-001;-3.426474519073963E-003;-1.314579043537378E-003;
2.426500000000000E+009;1.708956062793732E-001;-1.033058911561966E-001;-3.580445423722267E-003;-1.349183497950435E-003;
2.426666666666667E+009;1.712531447410584E-001;-1.037620678544045E-001;-3.729149000719190E-003;-1.181162893772125E-003;
2.426833333333334E+009;1.718098670244217E-001;-1.039953008294106E-001;-3.612257074564695E-003;-1.083381357602775E-003;
2.427000000000000E+009;1.719787865877152E-001;-1.041490659117699E-001;-3.667622804641724E-003;-9.637679904699326E-004;
2.427166666666667E+009;1.723261326551437E-001;-1.042381674051285E-001;-3.871772671118379E-003;-9.266650886274874E-004;
2.427333333333334E+009;1.725114583969116E-001;-1.045718565583229E-001;-3.884732490405440E-003;-7.021318306215107E-004;
2.427500000000000E+009;1.724868416786194E-001;-1.046171337366104E-001;-4.025118425488472E-003;-6.315684295259416E-004;
2.427666666666667E+009;1.723548024892807E-001;-1.045325919985771E-001;-3.888771170750260E-003;-6.603827350772917E-004;
