# Version 1.00
#
freq[Hz];re:Trc1_S11;im:Trc1_S11;re:Trc2_S21;im:Trc2_S21;
2.400000000000000E+009;1.693755388259888E-001;4.582056775689125E-002;-3.973084967583418E-003;-3.370653430465609E-004;
2.400166666666667E+009;1.703182607889175E-001;4.501264542341232E-002;-3.863557009026408E-003;-3.955023566959426E-005;
2.400333333333334E+009;1.711982637643814E-001;4.378907382488251E-002;-3.683041315525770E-003;-1.895142077046330E-006;
2.400500000000000E+009;1.722024381160736E-001;4.293605685234070E-002;-3.832546295598149E-003;2.471487969160080E-004;
2.400666666666667E+009;1.730394363403320E-001;4.195224121212959E-002;-3.827329492196441E-003;3.221317892894149E-004;
2.400833333333334E+009;1.741351485252380E-001;4.142614454030991E-002;-3.798684803768992E-003;5.289734690450132E-004;
2.401000000000000E+009;1.748538762331009E-001;4.043247550725937E-002;-3.885140642523766E-003;6.140798795968294E-004;
2.401166666666667E+009;1.756133586168289E-001;3.972626477479935E-002;-3.686769166961312E-003;8.496226510033011E-004;
2.401333333333334E+009;1.762892156839371E-001;3.906470537185669E-002;-3.615014953538775E-003;8.409931906498969E-004;
2.401500000000000E+009;1.771147400140762E-001;3.844472020864487E-002;-3.717249492183328E-003;9.443879825994372E-004;
2.401666666666667E+009;1.777027994394302E-001;3.791769221425057E-002;-3.583524143323302E-003;1.107999007217586E-003;
2.401833333333334E+009;1.782703697681427E-001;3.749823570251465E-002;-3.521949751302600E-003;1.397789805196226E-003;
2.402000000000000E+009;1.785560846328735E-001;3.705970570445061E-002;-3.467803355306387E-003;1.448794035241008E-003;
2.402166666666667E+009;1.790954172611237E-001;3.630341216921806E-002;-3.320876276120544E-003;1.653520390391350E-003;
2.402333333333334E+009;1.793799698352814E-001;3.575333952903748E-002;-3.090624930337071E-003;1.674577710218728E-003;
2.402500000000000E+009;1.798458844423294E-001;3.521240875124931E-002;-3.058086149394512E-003;1.875029294751585E-003;
2.402666666666667E+009;1.799160242080689E-001;3.467646241188049E-002;-2.851996105164290E-003;1.885978505015373E-003;
2.402833333333334E+009;1.801196634769440E-001;3.404399007558823E-002;-2.770391758531332E-003;1.910863211378455E-003;
2.403000000000000E+009;1.800831258296967E-001;3.325339406728745E-002;-2.671888563781977E-003;1.832422683946788E-003;
2.403166666666667E+009;1.800908446311951E-001;3.246280178427696E-002;-2.377602970227599E-003;1.915704458951950E-003;
2.403333333333334E+009;1.800679862499237E-001;3.176253288984299E-002;-2.370156114920974E-003;2.141074510291219E-003;
2.403500000000000E+009;1.796661019325256E-001;3.077809140086174E-002;-2.205573488026857E-003;2.041956875473261E-003;
2.403666666666667E+009;1.794836074113846E-001;2.972980961203575E-002;-2.116916934028268E-003;2.150030806660652E-003;
2.403833333333334E+009;1.792839616537094E-001;2.893357723951340E-002;-1.889524864964187E-003;2.023536246269941E-003;
2.404000000000000E+009;1.788757145404816E-001;2.771305665373802E-002;-2.017179038375616E-003;1.920454553328455E-003;
2.404166666666667E+009;1.783024817705154E-001;2.633208595216274E-002;-1.959091052412987E-003;1.903659664094448E-003;
2.404333333333334E+009;1.779858916997910E-001;2.530053816735745E-002;-1.805226434953511E-003;1.865990809164941E-003;
2.404500000000000E+009;1.774234324693680E-001;2.380480431020260E-002;-1.919204485602677E-003;1.946112723089755E-003;
2.404666666666667E+009;1.769294589757919E-001;2.252397313714027E-002;-1.879865769296885E-003;1.778151490725577E-003;
2.404833333333334E+009;1.763910651206970E-001;2.095961757004261E-002;-1.859958982095122E-003;1.832119072787464E-003;
2.405000000000000E+009;1.758387982845306E-001;1.953512988984585E-002;-1.817070995457470E-003;1.775884767994285E-003;
2.405166666666667E+009;1.753446012735367E-001;1.787927001714706E-002;-1.700625754892826E-003;1.830402063205838E-003;
2.405333333333334E+009;1.748961806297302E-001;1.617527939379215E-002;-1.810969784855843E-003;1.832252135500312E-003;
2.405500000000000E+009;1.743924766778946E-001;1.438173279166222E-002;-1.962788170203567E-003;1.862433971837163E-003;
2.405666666666667E+009;1.739989519119263E-001;1.266295090317726E-002;-1.891856431029737E-003;1.863949000835419E-003;
2.405833333333334E+009;1.734318435192108E-001;1.094372943043709E-002;-1.945664873346686E-003;1.845860155299306E-003;
2.406000000000000E+009;1.733164340257645E-001;8.911513723433018E-003;-2.045757602900267E-003;1.846676110289991E-003;
2.406166666666667E+009;1.727800518274307E-001;7.196243852376938E-003;-1.847197068855166E-003;1.989720389246941E-003;
2.406333333333334E+009;1.727811098098755E-001;5.075557623058558E-003;-2.110598376020789E-003;2.094977768138051E-003;
2.406500000000000E+009;1.725338250398636E-001;2.913003321737051E-003;-1.975744729861617E-003;2.080881735309959E-003;
2.406666666666667E+009;1.722177416086197E-001;9.739305241964757E-004;-2.128137741237879E-003;2.191505860537291E-003;
2.406833333333334E+009;1.723715662956238E-001;-1.165207242593169E-003;-2.052365336567164E-003;2.167271682992578E-003;
2.407000000000000E+009;1.725597083568573E-001;-3.273440292105079E-003;-2.012144075706601E-003;2.392689231783152E-003;
2.407166666666667E+009;1.725894212722778E-001;-5.324820522218943E-003;-2.106587169691920E-003;2.435755683109164E-003;
2.407333333333334E+009;1.727008968591690E-001;-7.699346635490656E-003;-2.127142157405615E-003;2.511080587282777E-003;
2.407500000000000E+009;1.728532612323761E-001;-9.590695612132549E-003;-2.068636938929558E-003;2.599024679511786E-003;
2.407666666666667E+009;1.733282953500748E-001;-1.166230347007513E-002;-1.961600035429001E-003;2.791911363601685E-003;
2.407833333333334E+009;1.734950244426727E-001;-1.402889378368855E-002;-2.029035938903689E-003;2.938517369329929E-003;
2.408000000000000E+009;1.739462316036224E-001;-1.614006422460079E-002;-2.022188622504473E-003;3.010038053616881E-003;
2.408166666666667E+009;1.743531376123428E-001;-1.789857819676399E-002;-1.998529769480228E-003;3.217333694919944E-003;
2.408333333333334E+009;1.749265193939209E-001;-2.005114033818245E-002;-1.884492696262896E-003;3.377266926690936E-003;
2.408500000000000E+009;1.754329502582550E-001;-2.193895913660526E-002;-1.801748061552644E-003;3.729151096194983E-003;
2.408666666666667E+009;1.757181435823441E-001;-2.385040000081062E-002;-1.648533274419606E-003;3.790492424741387E-003;
2.408833333333334E+009;1.760115474462509E-001;-2.559239789843559E-002;-1.408472424373031E-003;3.907752223312855E-003;
2.409000000000000E+009;1.766032129526138E-001;-2.719512023031712E-002;-1.212985021993518E-003;4.115328192710877E-003;
2.409166666666667E+009;1.769233494997025E-001;-2.878160029649735E-002;-1.166398753412068E-003;4.279877990484238E-003;
2.409333333333334E+009;1.776501089334488E-001;-3.031931072473526E-002;-8.336470345966518E-004;4.321864806115627E-003;
2.409500000000000E+009;1.780553907155991E-001;-3.176189586520195E-002;-6.835579988546670E-004;4.334619734436274E-003;
2.409666666666667E+009;1.784897446632385E-001;-3.294634819030762E-002;-4.286734911147505E-004;4.585305228829384E-003;
2.409833333333334E+009;1.789507269859314E-001;-3.390507027506828E-002;-2.639966551214457E-004;4.547624383121729E-003;
2.410000000000000E+009;1.795720607042313E-001;-3.489353135228157E-002;-1.951364974956960E-004;4.571978934109211E-003;
2.410166666666667E+009;1.800117641687393E-001;-3.602042794227600E-002;2.620028972160071E-004;4.624180961400271E-003;
2.410333333333334E+009;1.804029196500778E-001;-3.684511035680771E-002;5.208030925132334E-004;4.737506620585918E-003;
2.410500000000000E+009;1.809519529342651E-001;-3.751604631543160E-002;6.495873676612973E-004;4.773003514856100E-003;
2.410666666666667E+009;1.811897754669190E-001;-3.839368000626564E-002;9.337985538877547E-004;4.802234936505556E-003;
2.410833333333334E+009;1.815734952688217E-001;-3.879546374082565E-002;1.270355307497084E-003;4.756938666105270E-003;
2.411000000000000E+009;1.820470690727234E-001;-3.935088217258453E-002;1.337720896117389E-003;4.664586856961250E-003;
2.411166666666667E+009;1.820805072784424E-001;-3.994840383529663E-002;1.721238717436791E-003;4.562914371490479E-003;
2.411333333333334E+009;1.823161840438843E-001;-4.028679430484772E-002;1.771937822923064E-003;4.482875112444162E-003;
2.411500000000000E+009;1.823357790708542E-001;-4.084507748484612E-002;2.162707038223743E-003;4.492211155593395E-003;
2.411666666666667E+009;1.823860555887222E-001;-4.123801365494728E-002;2.361313905566931E-003;4.393250215798616E-003;
2.411833333333334E+009;1.823320835828781E-001;-4.135072231292725E-002;2.583925146609545E-003;4.281708970665932E-003;
2.412000000000000E+009;1.820144653320313E-001;-4.181158542633057E-002;2.764404751360416E-003;4.158942494541407E-003;
2.412166666666667E+009;1.816939115524292E-001;-4.211765527725220E-002;2.957565477117896E-003;3.828800516203046E-003;
2.412333333333334E+009;1.815230250358582E-001;-4.254397377371788E-002;3.165327245369554E-003;3.674821928143501E-003;
2.412500000000000E+009;1.808646470308304E-001;-4.283705726265907E-002;3.247719723731279E-003;3.455456113442779E-003;
2.412666666666667E+009;1.802113056182861E-001;-4.320223629474640E-002;3.494506468996406E-003;3.457045415416360E-003;
2.412833333333334E+009;1.798192709684372E-001;-4.343253001570702E-002;3.592362394556403E-003;3.338321577757597E-003;
2.413000000000000E+009;1.787469089031220E-001;-4.383949190378189E-002;3.571048611775041E-003;3.030477790161967E-003;
2.413166666666667E+009;1.780138611793518E-001;-4.423626139760017E-002;3.723787376657128E-003;2.954819472506642E-003;
2.413333333333334E+009;1.768425107002258E-001;-4.462641850113869E-002;3.774617100134492E-003;2.816653111949563E-003;
2.413500000000000E+009;1.759878695011139E-001;-4.513077810406685E-002;3.903972916305065E-003;2.682799706235528E-003;
2.413666666666667E+009;1.749942749738693E-001;-4.540972039103508E-002;3.936483059078455E-003;2.453321591019630E-003;
2.413833333333334E+009;1.736939549446106E-001;-4.601090028882027E-002;3.765634261071682E-003;2.135802758857608E-003;
2.414000000000000E+009;1.723765879869461E-001;-4.666699841618538E-002;4.040665924549103E-003;2.035774290561676E-003;
2.414166666666667E+009;1.712885797023773E-001;-4.734728112816811E-002;4.208822268992662E-003;1.965939532965422E-003;
2.414333333333334E+009;1.700724512338638E-001;-4.802539199590683E-002;4.068863112479448E-003;1.706865034066141E-003;
2.414500000000000E+009;1.690304577350617E-001;-4.885322228074074E-002;4.230305086821318E-003;1.487489556893706E-003;
2.414666666666667E+009;1.676031053066254E-001;-4.977200925350189E-002;4.412380047142506E-003;1.337389228865504E-003;
2.414833333333334E+009;1.662747561931610E-001;-5.101733654737473E-002;4.352852702140808E-003;1.039950875565410E-003;
2.415000000000000E+009;1.650115549564362E-001;-5.188350751996040E-002;4.150373861193657E-003;9.430262143723667E-004;
2.415166666666667E+009;1.639571189880371E-001;-5.317242071032524E-002;4.351754672825337E-003;7.218078826554120E-004;
2.415333333333334E+009;1.627940088510513E-001;-5.450675264000893E-002;4.191116429865360E-003;3.786193847190589E-004;
2.415500000000000E+009;1.616070419549942E-001;-5.583684891462326E-002;4.090130329132080E-003;3.112596168648452E-004;
2.415666666666667E+009;1.603011786937714E-001;-5.725004151463509E-002;3.974885679781437E-003;8.983666339190677E-005;
2.415833333333334E+009;1.594182550907135E-001;-5.891016498208046E-002;4.065721761435270E-003;-1.277457486139610E-004;
2.416000000000000E+009;1.582478731870651E-001;-6.055705621838570E-002;3.927221521735191E-003;-2.935420488938689E-004;
2.416166666666667E+009;1.573639810085297E-001;-6.222634762525559E-002;3.805777523666620E-003;-3.666687698569149E-004;
2.416333333333334E+009;1.562288254499435E-001;-6.401765346527100E-002;3.737551392987371E-003;-5.851853638887405E-004;
2.416500000000000E+009;1.553743034601212E-001;-6.603962182998657E-002;3.620364004746079E-003;-7.722575101070106E-004;
2.416666666666667E+009;1.545438766479492E-001;-6.772391498088837E-002;3.491307375952601E-003;-9.561395854689181E-004;
2.416833333333334E+009;1.539043337106705E-001;-6.991098821163178E-002;3.207628149539232E-003;-1.099640736356378E-003;
2.417000000000000E+009;1.529035419225693E-001;-7.180527597665787E-002;3.091915976256132E-003;-8.657886064611375E-004;
2.417166666666667E+009;1.522549539804459E-001;-7.357909530401230E-002;3.091190941631794E-003;-1.074225758202374E-003;
2.417333333333334E+009;1.517927497625351E-001;-7.561172544956207E-002;2.923617837950587E-003;-1.066904631443322E-003;
2.417500000000000E+009;1.511306315660477E-001;-7.771075516939163E-002;2.779631409794092E-003;-1.060429727658629E-003;
2.417666666666667E+009;1.508627682924271E-001;-7.953149825334549E-002;2.627490088343620E-003;-1.050922786816955E-003;
2.417833333333334E+009;1.503170579671860E-001;-8.139515668153763E-002;2.519654575735331E-003;-9.824874578043819E-004;
2.418000000000000E+009;1.499747186899185E-001;-8.339037746191025E-002;2.242075512185693E-003;-9.228708222508431E-004;
2.418166666666667E+009;1.497307270765305E-001;-8.500802516937256E-002;2.197691472247243E-003;-7.752723176963627E-004;
2.418333333333334E+009;1.498177498579025E-001;-8.674714714288712E-002;2.169799292460084E-003;-7.541125523857772E-004;
2.418500000000000E+009;1.495704948902130E-001;-8.854003995656967E-002;2.237683627754450E-003;-7.097133784554899E-004;
2.418666666666667E+009;1.497212350368500E-001;-9.001864492893219E-002;2.036686753854156E-003;-6.594048463739455E-004;
2.418833333333334E+009;1.494852900505066E-001;-9.152165055274963E-002;2.240874106064439E-003;-5.514557706192136E-004;
2.419000000000000E+009;1.495459377765656E-001;-9.282164275646210E-002;2.350568771362305E-003;-4.778079455718398E-004;
2.419166666666667E+009;1.495676338672638E-001;-9.402719140052795E-002;2.389349043369293E-003;-3.818709810730070E-004;
2.419333333333334E+009;1.498138606548309E-001;-9.511081129312515E-002;2.500898903235793E-003;-3.387816250324249E-004;
2.419500000000000E+009;1.499104797840118E-001;-9.628710895776749E-002;2.670458052307367E-003;-4.752068489324302E-004;
2.419666666666667E+009;1.503833383321762E-001;-9.718441963195801E-002;2.762259915471077E-003;-4.873825237154961E-004;
2.419833333333334E+009;1.505282074213028E-001;-9.794253855943680E-002;2.931270515546203E-003;-4.405486979521811E-004;
2.420000000000000E+009;1.509092003107071E-001;-9.858342260122299E-002;2.937567653134465E-003;-4.699980199802667E-004;
2.420166666666667E+009;1.510785371065140E-001;-9.925181418657303E-002;3.056042827665806E-003;-5.553152295760810E-004;
2.420333333333334E+009;1.513081341981888E-001;-9.972875565290451E-002;3.220538143068552E-003;-8.405245607718825E-004;
2.420500000000000E+009;1.517440229654312E-001;-9.993176162242889E-002;3.239489626139402E-003;-1.020644209347665E-003;
2.420666666666667E+009;1.521302014589310E-001;-1.000392362475395E-001;3.276153001934290E-003;-1.000064075924456E-003;
2.420833333333334E+009;1.524755507707596E-001;-1.002300977706909E-001;3.390370635315776E-003;-1.110617304220796E-003;
2.421000000000000E+009;1.525976955890656E-001;-1.004448160529137E-001;3.489829134196043E-003;-1.327146193943918E-003;
2.421166666666667E+009;1.528475433588028E-001;-1.004527658224106E-001;3.588322317227721E-003;-1.617501489818096E-003;
2.421333333333334E+009;1.532172709703445E-001;-1.004452481865883E-001;3.621757263317704E-003;-1.682643545791507E-003;
2.421500000000000E+009;1.531158238649368E-001;-1.002657264471054E-001;3.648572135716677E-003;-1.849554246291518E-003;
2.421666666666667E+009;1.530857682228088E-001;-9.997727721929550E-002;3.591617336496711E-003;-2.103518694639206E-003;
2.421833333333334E+009;1.531425863504410E-001;-9.968512505292893E-002;3.520635887980461E-003;-2.397505566477776E-003;
2.422000000000000E+009;1.528164893388748E-001;-9.940827637910843E-002;3.451378550380468E-003;-2.607598202303052E-003;
2.422166666666667E+009;1.527120620012283E-001;-9.933868050575256E-002;3.347451565787196E-003;-2.798138884827495E-003;
2.422333333333334E+009;1.523936837911606E-001;-9.896633774042130E-002;3.385635558515787E-003;-2.935285912826657E-003;
2.422500000000000E+009;1.518046408891678E-001;-9.828928112983704E-002;3.285245038568974E-003;-3.349014557898045E-003;
2.422666666666667E+009;1.511192768812180E-001;-9.812403470277786E-002;3.066773992031813E-003;-3.437707433477044E-003;
2.422833333333334E+009;1.505257785320282E-001;-9.774180501699448E-002;2.937585813924670E-003;-3.568970365449786E-003;
2.423000000000000E+009;1.497382372617722E-001;-9.738682210445404E-002;2.838217886164784E-003;-3.640851937234402E-003;
2.423166666666667E+009;1.489688009023666E-001;-9.707641601562500E-002;2.698133001103997E-003;-4.071562085300684E-003;
2.423333333333334E+009;1.479611843824387E-001;-9.663031250238419E-002;2.436858834698796E-003;-4.098348785191774E-003;
2.423500000000000E+009;1.468840837478638E-001;-9.627557545900345E-002;2.075120341032744E-003;-4.159884527325630E-003;
2.423666666666667E+009;1.456684321165085E-001;-9.608420729637146E-002;1.876621623523533E-003;-4.268510732799768E-003;
2.423833333333334E+009;1.443615853786469E-001;-9.586120396852493E-002;1.746217370964587E-003;-4.487127065658569E-003;
2.424000000000000E+009;1.430959850549698E-001;-9.555900096893311E-002;1.617852598428726E-003;-4.434961359947920E-003;
2.424166666666667E+009;1.416155993938446E-001;-9.547051787376404E-002;1.318209455348551E-003;-4.460846539586783E-003;
2.424333333333334E+009;1.403010189533234E-001;-9.525696933269501E-002;1.214032177813351E-003;-4.502322059124708E-003;
2.424500000000000E+009;1.389313340187073E-001;-9.523551911115646E-002;8.220722083933651E-004;-4.640156868845224E-003;
2.424666666666667E+009;1.374320983886719E-001;-9.528452157974243E-002;6.643614033237100E-004;-4.847314674407244E-003;
2.424833333333334E+009;1.358374804258347E-001;-9.543359279632568E-002;4.844421928282827E-004;-4.445217084139586E-003;
2.425000000000000E+009;1.343318074941635E-001;-9.594021737575531E-002;3.602877550292760E-004;-4.549992736428976E-003;
2.425166666666667E+009;1.327855288982391E-001;-9.634955972433090E-002;1.549040753161535E-004;-4.434424452483654E-003;
2.425333333333334E+009;1.313018053770065E-001;-9.682798385620117E-002;-2.709384352783673E-005;-4.508484154939652E-003;
2.425500000000000E+009;1.298832148313522E-001;-9.760718792676926E-002;-3.363679570611566E-004;-4.348839633166790E-003;
2.425666666666667E+009;1.282550543546677E-001;-9.832271933555603E-002;-4.671627248171717E-004;-4.205310717225075E-003;
2.425833333333334E+009;1.268386989831924E-001;-9.932351857423782E-002;-6.018020794726908E-004;-4.206016194075346E-003;
2.426000000000000E+009;1.254640817642212E-001;-1.003706529736519E-001;-7.702180882915855E-004;-4.030636046081781E-003;
2.426166666666667E+009;1.241533681750298E-001;-1.015096828341484E-001;-8.458591764792800E-004;-3.883316181600094E-003;
2.426333333333334E+009;1.227798312902451E-001;-1.027139425277710E-001;-9.842164581641555E-004;-3.933453466743231E-003;
2.426500000000000E+009;1.215735971927643E-001;-1.039889082312584E-001;-1.033475389704108E-003;-3.838922595605254E-003;
2.426666666666667E+009;1.204783394932747E-001;-1.053847670555115E-001;-1.153692021034658E-003;-3.685613861307502E-003;
2.426833333333334E+009;1.192698255181313E-001;-1.069265380501747E-001;-1.120622502639890E-003;-3.646265016868711E-003;
2.427000000000000E+009;1.181281581521034E-001;-1.086556687951088E-001;-1.315279281698167E-003;-3.517719451338053E-003;
2.427166666666667E+009;1.172076314687729E-001;-1.102496683597565E-001;-1.345125609077513E-003;-3.399852430447936E-003;
2.427333333333334E+009;1.161205172538757E-001;-1.118819117546082E-001;-1.283588237129152E-003;-3.343141404911876E-003;
2.427500000000000E+009;1.154411137104034E-001;-1.135836392641068E-001;-1.432262244634330E-003;-3.263763152062893E-003;
2.427666666666667E+009;1.147118732333183E-001;-1.155399754643440E-001;-1.477633137255907E-003;-3.197234123945236E-003;
