# Version 1.00
#
freq[Hz];re:Trc1_S11;im:Trc1_S11;re:Trc2_S21;im:Trc2_S21;
2.400000000000000E+009;1.630546450614929E-001;5.256673321127892E-002;3.472898388281465E-004;3.316022921353579E-003;
2.400166666666667E+009;1.630771905183792E-001;5.099178850650787E-002;2.365044201724231E-004;3.245333442464471E-003;
2.400333333333334E+009;1.628958731889725E-001;4.914811253547669E-002;1.859930198406801E-004;3.328762250021100E-003;
2.400500000000000E+009;1.627417802810669E-001;4.732473567128182E-002;3.223502135369927E-004;3.380266483873129E-003;
2.400666666666667E+009;1.626794487237930E-001;4.522250965237618E-002;3.261827805545181E-004;3.482387633994222E-003;
2.400833333333334E+009;1.629013717174530E-001;4.362569749355316E-002;5.686141084879637E-004;3.688451368361712E-003;
2.401000000000000E+009;1.627292782068253E-001;4.137328639626503E-002;5.960139096714556E-004;3.616095054894686E-003;
2.401166666666667E+009;1.628580391407013E-001;3.916951268911362E-002;5.957416142337024E-004;3.631994593888521E-003;
2.401333333333334E+009;1.629518568515778E-001;3.725715726613998E-002;8.988929912447929E-004;3.827272215858102E-003;
2.401500000000000E+009;1.630948781967163E-001;3.530624881386757E-002;9.106451179832220E-004;3.726491704583168E-003;
2.401666666666667E+009;1.634916961193085E-001;3.328489139676094E-002;1.130196615122259E-003;3.821006044745445E-003;
2.401833333333334E+009;1.635635048151016E-001;3.150197491049767E-002;1.099933404475451E-003;4.023926332592964E-003;
2.402000000000000E+009;1.637737303972244E-001;2.921896614134312E-002;1.477532438002527E-003;4.029970616102219E-003;
2.402166666666667E+009;1.641703844070435E-001;2.723095752298832E-002;1.759592676535249E-003;3.973550163209438E-003;
2.402333333333334E+009;1.645481288433075E-001;2.543904632329941E-002;1.910497550852597E-003;3.931378014385700E-003;
2.402500000000000E+009;1.652096211910248E-001;2.351865544915199E-002;2.244595205411315E-003;4.038910381495953E-003;
2.402666666666667E+009;1.656592190265656E-001;2.184837684035301E-002;2.450676169246435E-003;4.016341641545296E-003;
2.402833333333334E+009;1.663164794445038E-001;2.014777064323425E-002;2.661160193383694E-003;3.982210997492075E-003;
2.403000000000000E+009;1.669555306434631E-001;1.834134012460709E-002;2.892876276746392E-003;3.673392115160823E-003;
2.403166666666667E+009;1.674963682889938E-001;1.673358120024204E-002;3.107415745034814E-003;3.806246444582939E-003;
2.403333333333334E+009;1.681637018918991E-001;1.525485049933195E-002;3.322749631479383E-003;3.551459172740579E-003;
2.403500000000000E+009;1.690270751714706E-001;1.373241189867258E-002;3.539115656167269E-003;3.446079092100263E-003;
2.403666666666667E+009;1.696560531854630E-001;1.236047502607107E-002;3.883806755766273E-003;3.223435953259468E-003;
2.403833333333334E+009;1.705923229455948E-001;1.098830997943878E-002;4.047543741762638E-003;3.019958501681685E-003;
2.404000000000000E+009;1.713401973247528E-001;9.877460077404976E-003;4.163017962127924E-003;2.872406039386988E-003;
2.404166666666667E+009;1.721962839365006E-001;8.609988726675510E-003;4.262975417077541E-003;2.677936572581530E-003;
2.404333333333334E+009;1.728558540344238E-001;7.524199318140745E-003;4.555338062345982E-003;2.165229292586446E-003;
2.404500000000000E+009;1.735675632953644E-001;6.567600183188915E-003;4.562869668006897E-003;2.006974304094911E-003;
2.404666666666667E+009;1.743954420089722E-001;5.634152796119452E-003;4.774164408445358E-003;1.715639606118202E-003;
2.404833333333334E+009;1.749640107154846E-001;4.791689570993185E-003;4.627515096217394E-003;1.564921461977065E-003;
2.405000000000000E+009;1.758535057306290E-001;3.958371933549643E-003;5.022253375500441E-003;1.243682461790741E-003;
2.405166666666667E+009;1.765231937170029E-001;3.213778603821993E-003;4.799842834472656E-003;1.016599824652076E-003;
2.405333333333334E+009;1.772986501455307E-001;2.640966558828950E-003;4.841649439185858E-003;6.773739005438983E-004;
2.405500000000000E+009;1.778140664100647E-001;2.077957149595022E-003;4.866120405495167E-003;5.705836229026318E-004;
2.405666666666667E+009;1.783182471990585E-001;1.657158951275051E-003;4.892271943390369E-003;1.300520525546745E-004;
2.405833333333334E+009;1.787075102329254E-001;1.401484943926334E-003;4.809722304344177E-003;-3.080498936469667E-005;
2.406000000000000E+009;1.791904121637344E-001;7.490501157008112E-004;4.672406706959009E-003;-2.194653498008847E-004;
2.406166666666667E+009;1.795841604471207E-001;6.542223854921758E-004;4.708483349531889E-003;-5.791669827885926E-004;
2.406333333333334E+009;1.800310164690018E-001;2.819342189468443E-004;4.749282263219357E-003;-9.070551604963839E-004;
2.406500000000000E+009;1.801849156618118E-001;-7.076314068399370E-005;4.577924963086844E-003;-9.300117962993681E-004;
2.406666666666667E+009;1.802568733692169E-001;-2.513613726478070E-004;4.224796313792467E-003;-1.108138123527169E-003;
2.406833333333334E+009;1.804252564907074E-001;-6.092094117775559E-004;4.362185485661030E-003;-1.112616737373173E-003;
2.407000000000000E+009;1.805934011936188E-001;-1.071287319064140E-003;4.063657019287348E-003;-1.580534037202597E-003;
2.407166666666667E+009;1.806750744581223E-001;-1.283529796637595E-003;3.893807763233781E-003;-1.709562493488193E-003;
2.407333333333334E+009;1.804104894399643E-001;-1.669406308792532E-003;3.755707526579499E-003;-1.840828568674624E-003;
2.407500000000000E+009;1.801807731389999E-001;-1.923582516610622E-003;3.571058856323361E-003;-1.863023848272860E-003;
2.407666666666667E+009;1.800267994403839E-001;-2.206303412094712E-003;3.536951495334506E-003;-2.046727109700441E-003;
2.407833333333334E+009;1.795032918453217E-001;-2.678100951015949E-003;3.512752475216985E-003;-2.240816829726100E-003;
2.408000000000000E+009;1.792502254247665E-001;-3.207979956641793E-003;3.323792945593596E-003;-2.146906452253461E-003;
2.408166666666667E+009;1.786675751209259E-001;-3.719654865562916E-003;3.139372216537595E-003;-2.306011505424976E-003;
2.408333333333334E+009;1.783404648303986E-001;-4.332883749157190E-003;2.956411568447948E-003;-2.473238389939070E-003;
2.408500000000000E+009;1.777906566858292E-001;-5.134526174515486E-003;2.879434963688254E-003;-2.510350896045566E-003;
2.408666666666667E+009;1.770703345537186E-001;-6.015537306666374E-003;2.668175147846341E-003;-2.750886138528585E-003;
2.408833333333334E+009;1.763924807310104E-001;-6.856869906187058E-003;2.577404491603375E-003;-2.623325912281871E-003;
2.409000000000000E+009;1.756350249052048E-001;-7.684581913053989E-003;2.211573999375105E-003;-2.730483422055841E-003;
2.409166666666667E+009;1.750242412090302E-001;-8.597795851528645E-003;2.194306114688516E-003;-2.791535109281540E-003;
2.409333333333334E+009;1.743059754371643E-001;-9.671370498836041E-003;2.060339087620378E-003;-2.740791300311685E-003;
2.409500000000000E+009;1.734722107648850E-001;-1.101245731115341E-002;1.813864917494357E-003;-2.881209598854184E-003;
2.409666666666667E+009;1.727623641490936E-001;-1.210484281182289E-002;1.771985553205013E-003;-2.859767759218812E-003;
2.409833333333334E+009;1.720769405364990E-001;-1.349880360066891E-002;1.588689745403826E-003;-2.993415575474501E-003;
2.410000000000000E+009;1.713216304779053E-001;-1.498819608241320E-002;1.498834462836385E-003;-2.841632580384612E-003;
2.410166666666667E+009;1.706576794385910E-001;-1.647590845823288E-002;1.314929686486721E-003;-2.657474949955940E-003;
2.410333333333334E+009;1.699686795473099E-001;-1.813396997749806E-002;1.301618642173708E-003;-2.777151297777891E-003;
2.410500000000000E+009;1.692543476819992E-001;-1.968368329107761E-002;1.013332162983716E-003;-2.662590937688947E-003;
2.410666666666667E+009;1.686510443687439E-001;-2.149108052253723E-002;8.717412129044533E-004;-2.612583572044969E-003;
2.410833333333334E+009;1.682803332805634E-001;-2.307594940066338E-002;8.336856844834983E-004;-2.671129303053021E-003;
2.411000000000000E+009;1.677071303129196E-001;-2.488731965422630E-002;6.907347124069929E-004;-2.594975754618645E-003;
2.411166666666667E+009;1.671632975339890E-001;-2.676022052764893E-002;6.531296530738473E-004;-2.571387449279428E-003;
2.411333333333334E+009;1.667204648256302E-001;-2.859163470566273E-002;5.752233555540443E-004;-2.616803860291839E-003;
2.411500000000000E+009;1.663924455642700E-001;-3.056388348340988E-002;5.889484309591353E-004;-2.435534959658980E-003;
2.411666666666667E+009;1.663719713687897E-001;-3.246647864580154E-002;4.667251196224242E-004;-2.483332064002752E-003;
2.411833333333334E+009;1.660420596599579E-001;-3.429844230413437E-002;3.439973806962371E-004;-2.245525829494000E-003;
2.412000000000000E+009;1.659428328275681E-001;-3.630721569061279E-002;3.768236783798784E-004;-2.394702751189470E-003;
2.412166666666667E+009;1.658252030611038E-001;-3.844648599624634E-002;2.243608905700967E-004;-2.269469434395433E-003;
2.412333333333334E+009;1.658952534198761E-001;-4.044479504227638E-002;3.558488970156759E-004;-2.383867744356394E-003;
2.412500000000000E+009;1.659128069877625E-001;-4.229342937469482E-002;2.014654019149020E-004;-2.308397088199854E-003;
2.412666666666667E+009;1.661974787712097E-001;-4.428232088685036E-002;9.560632315697148E-005;-2.236316446214914E-003;
2.412833333333334E+009;1.663094013929367E-001;-4.609334468841553E-002;6.297273648669943E-005;-2.359393052756786E-003;
2.413000000000000E+009;1.665809899568558E-001;-4.787832498550415E-002;-7.431675476254895E-005;-2.197983209043741E-003;
2.413166666666667E+009;1.669058948755264E-001;-4.961788654327393E-002;1.265550963580608E-005;-2.106900792568922E-003;
2.413333333333334E+009;1.669816821813583E-001;-5.132439360022545E-002;-5.033179331803694E-005;-2.066614106297493E-003;
2.413500000000000E+009;1.676033586263657E-001;-5.312801152467728E-002;-1.333347754552960E-004;-2.406332409009337E-003;
2.413666666666667E+009;1.680611819028854E-001;-5.484965071082115E-002;-1.403973146807402E-004;-2.108066808432341E-003;
2.413833333333334E+009;1.684896200895309E-001;-5.625738948583603E-002;-7.719371205894277E-005;-2.205751603469253E-003;
2.414000000000000E+009;1.687566488981247E-001;-5.778683722019196E-002;-3.385765594430268E-004;-2.097825752571225E-003;
2.414166666666667E+009;1.693845093250275E-001;-5.913674831390381E-002;-4.165584396105260E-004;-2.125230617821217E-003;
2.414333333333334E+009;1.696768254041672E-001;-6.047844886779785E-002;-4.651922790799290E-004;-2.133875386789441E-003;
2.414500000000000E+009;1.703130155801773E-001;-6.158975884318352E-002;-5.390060250647366E-004;-1.995220780372620E-003;
2.414666666666667E+009;1.708428710699081E-001;-6.283899396657944E-002;-5.415074410848320E-004;-2.053433563560247E-003;
2.414833333333334E+009;1.711759269237518E-001;-6.372306495904923E-002;-7.027800311334431E-004;-1.979346387088299E-003;
2.415000000000000E+009;1.716361045837402E-001;-6.470458209514618E-002;-6.688093999400735E-004;-2.042609034106135E-003;
2.415166666666667E+009;1.721226572990418E-001;-6.551064550876617E-002;-8.746734820306301E-004;-1.905419165268540E-003;
2.415333333333334E+009;1.724818646907806E-001;-6.621054559946060E-002;-6.901774904690683E-004;-1.979776192456484E-003;
2.415500000000000E+009;1.729665398597717E-001;-6.683233380317688E-002;-8.501090342178941E-004;-1.963749527931213E-003;
2.415666666666667E+009;1.731765568256378E-001;-6.737903505563736E-002;-8.684432832524180E-004;-1.856793183833361E-003;
2.415833333333334E+009;1.734764277935028E-001;-6.808560341596603E-002;-9.896662086248398E-004;-1.770298695191741E-003;
2.416000000000000E+009;1.734464466571808E-001;-6.849029660224915E-002;-9.189559496007860E-004;-1.830640132538974E-003;
2.416166666666667E+009;1.737549304962158E-001;-6.881603598594666E-002;-9.998015593737364E-004;-1.529747270978987E-003;
2.416333333333334E+009;1.735783070325851E-001;-6.906029582023621E-002;-1.044530770741403E-003;-1.674727420322597E-003;
2.416500000000000E+009;1.737406998872757E-001;-6.954725086688995E-002;-1.096104737371206E-003;-1.583139877766371E-003;
2.416666666666667E+009;1.735336184501648E-001;-6.969963014125824E-002;-1.195472315885127E-003;-1.477101235650480E-003;
2.416833333333334E+009;1.733439564704895E-001;-7.002956420183182E-002;-1.322864904068410E-003;-1.421694643795490E-003;
2.417000000000000E+009;1.728876829147339E-001;-7.024157047271729E-002;-1.405177870765328E-003;-1.424578600563109E-003;
2.417166666666667E+009;1.724299043416977E-001;-7.019048184156418E-002;-1.155122416093946E-003;-1.389418030157685E-003;
2.417333333333334E+009;1.719618588685989E-001;-7.043981552124023E-002;-1.233602757565677E-003;-1.204120926558971E-003;
2.417500000000000E+009;1.714766770601273E-001;-7.081198692321777E-002;-1.219720579683781E-003;-1.327330828644335E-003;
2.417666666666667E+009;1.709307581186295E-001;-7.078959047794342E-002;-1.288685831241310E-003;-1.104898634366691E-003;
2.417833333333334E+009;1.701042503118515E-001;-7.089198380708695E-002;-1.224637031555176E-003;-1.101901172660291E-003;
2.418000000000000E+009;1.691742688417435E-001;-7.130721211433411E-002;-1.225401298142970E-003;-1.020292867906392E-003;
2.418166666666667E+009;1.683841943740845E-001;-7.146181166172028E-002;-1.272517838515341E-003;-1.087275450117886E-003;
2.418333333333334E+009;1.675920337438583E-001;-7.181479036808014E-002;-1.267813844606280E-003;-8.942352142184973E-004;
2.418500000000000E+009;1.663326770067215E-001;-7.203685492277145E-002;-1.275811926461756E-003;-9.077287977561355E-004;
2.418666666666667E+009;1.653857678174973E-001;-7.247131317853928E-002;-1.213240320794284E-003;-9.252333547919989E-004;
2.418833333333334E+009;1.641045510768890E-001;-7.298741489648819E-002;-1.281421049498022E-003;-8.256280561909080E-004;
2.419000000000000E+009;1.629432588815689E-001;-7.330292463302612E-002;-1.167855341918767E-003;-7.284969324246049E-004;
2.419166666666667E+009;1.617096364498138E-001;-7.408048212528229E-002;-9.440737194381654E-004;-7.296255207620561E-004;
2.419333333333334E+009;1.603338569402695E-001;-7.436206191778183E-002;-1.178009202703834E-003;-7.258672849275172E-004;
2.419500000000000E+009;1.591584384441376E-001;-7.522483915090561E-002;-1.194717362523079E-003;-6.488001672551036E-004;
2.419666666666667E+009;1.579799801111221E-001;-7.602182030677795E-002;-1.191834104247391E-003;-6.858470733277500E-004;
2.419833333333334E+009;1.567058712244034E-001;-7.687073945999146E-002;-1.152499578893185E-003;-6.066458299756050E-004;
2.420000000000000E+009;1.554655879735947E-001;-7.783857733011246E-002;-1.147894421592355E-003;-5.655906279571354E-004;
2.420166666666667E+009;1.541922092437744E-001;-7.879756391048431E-002;-1.163408975116909E-003;-6.100413738749921E-004;
2.420333333333334E+009;1.530285477638245E-001;-7.995832711458206E-002;-1.267839572392404E-003;-5.182998138479888E-004;
2.420500000000000E+009;1.520131081342697E-001;-8.089199662208557E-002;-1.201391452923417E-003;-6.077018915675581E-004;
2.420666666666667E+009;1.508009135723114E-001;-8.211243897676468E-002;-1.200174563564360E-003;-5.507087334990501E-004;
2.420833333333334E+009;1.496925204992294E-001;-8.356241881847382E-002;-1.254788250662386E-003;-4.934332682751119E-004;
2.421000000000000E+009;1.487225145101547E-001;-8.501590788364410E-002;-1.219342695549130E-003;-4.064984386786819E-004;
2.421166666666667E+009;1.478644907474518E-001;-8.641371876001358E-002;-1.117374398745596E-003;-3.362408315297216E-004;
2.421333333333334E+009;1.470663398504257E-001;-8.808602392673492E-002;-1.150277443230152E-003;-3.009984793607146E-004;
2.421500000000000E+009;1.459772884845734E-001;-8.930855989456177E-002;-1.150890253484249E-003;-1.636729284655303E-004;
2.421666666666667E+009;1.455219388008118E-001;-9.112773835659027E-002;-1.095700543373823E-003;-2.217565634055063E-004;
2.421833333333334E+009;1.449353992938995E-001;-9.270896762609482E-002;-1.190539565868676E-003;-2.035234065260738E-004;
2.422000000000000E+009;1.442138850688934E-001;-9.442310035228729E-002;-1.209028996527195E-003;-1.479191560065374E-004;
2.422166666666667E+009;1.437452435493469E-001;-9.625765681266785E-002;-1.100750057958067E-003;-2.154680114472285E-004;
2.422333333333334E+009;1.434231549501419E-001;-9.800882637500763E-002;-1.025016419589520E-003;-1.808442902984098E-004;
2.422500000000000E+009;1.429967135190964E-001;-9.968461096286774E-002;-9.344123536720872E-004;-1.488477428210899E-004;
2.422666666666667E+009;1.429226398468018E-001;-1.014770641922951E-001;-1.035692286677659E-003;-1.934849133249372E-004;
2.422833333333334E+009;1.428506970405579E-001;-1.032944470643997E-001;-9.903298923745751E-004;-1.127536324929679E-005;
2.423000000000000E+009;1.428142935037613E-001;-1.047528162598610E-001;-9.249339927919209E-004;-1.136433711508289E-004;
2.423166666666667E+009;1.428109109401703E-001;-1.067010983824730E-001;-1.005013822577894E-003;-7.550372538389638E-005;
2.423333333333334E+009;1.429655402898789E-001;-1.081204637885094E-001;-1.045828103087843E-003;-1.555192138766870E-004;
2.423500000000000E+009;1.430876404047012E-001;-1.100162044167519E-001;-9.754172642715275E-004;-1.288474450120702E-004;
2.423666666666667E+009;1.431879401206970E-001;-1.114796251058579E-001;-1.067207078449428E-003;-1.663598814047873E-004;
2.423833333333334E+009;1.436446905136108E-001;-1.130025535821915E-001;-9.931023232638836E-004;-1.589537278050557E-004;
2.424000000000000E+009;1.437683403491974E-001;-1.143841445446014E-001;-1.045822980813682E-003;-5.779974162578583E-005;
2.424166666666667E+009;1.441021412611008E-001;-1.158689111471176E-001;-8.856190834194422E-004;-5.784328095614910E-005;
2.424333333333334E+009;1.446193009614945E-001;-1.171286106109619E-001;-1.071935170330107E-003;-1.244937593583018E-004;
2.424500000000000E+009;1.450363397598267E-001;-1.183668747544289E-001;-8.709516259841621E-004;-2.150979125872254E-004;
2.424666666666667E+009;1.454595029354096E-001;-1.195112839341164E-001;-1.021190313622356E-003;2.240190224256367E-005;
2.424833333333334E+009;1.457255184650421E-001;-1.206210926175118E-001;-9.226570255123079E-004;-6.731553730787709E-005;
2.425000000000000E+009;1.462344229221344E-001;-1.216196715831757E-001;-1.130001153796911E-003;-2.147511258954182E-004;
2.425166666666667E+009;1.463575661182404E-001;-1.223616525530815E-001;-1.235352014191449E-003;-6.445914914365858E-005;
2.425333333333334E+009;1.468407511711121E-001;-1.231594756245613E-001;-1.346767065115273E-003;-4.713034741143929E-006;
2.425500000000000E+009;1.473558992147446E-001;-1.240801587700844E-001;-1.078078523278236E-003;1.029651321005076E-004;
2.425666666666667E+009;1.475151032209396E-001;-1.245805695652962E-001;-1.223502913489938E-003;2.160392068617512E-005;
2.425833333333334E+009;1.477487683296204E-001;-1.251235455274582E-001;-1.262550242245197E-003;1.285266334889457E-004;
2.426000000000000E+009;1.479497849941254E-001;-1.257029920816422E-001;-1.186492387205362E-003;1.911464642034844E-004;
2.426166666666667E+009;1.483531743288040E-001;-1.260520517826080E-001;-1.164395711384714E-003;3.197606711182743E-004;
2.426333333333334E+009;1.483371108770371E-001;-1.263231188058853E-001;-1.292277942411602E-003;2.254052233183757E-004;
2.426500000000000E+009;1.483123600482941E-001;-1.265993714332581E-001;-1.169587136246264E-003;4.081585793755949E-004;
2.426666666666667E+009;1.483961641788483E-001;-1.266239285469055E-001;-1.193839474581182E-003;3.564737562555820E-004;
2.426833333333334E+009;1.482931524515152E-001;-1.268176883459091E-001;-1.270422129891813E-003;4.952657036483288E-004;
2.427000000000000E+009;1.480513215065002E-001;-1.269581317901611E-001;-9.470627410337329E-004;5.017105140723288E-004;
2.427166666666667E+009;1.476596146821976E-001;-1.268352866172791E-001;-1.167450682260096E-003;4.068655543960631E-004;
2.427333333333334E+009;1.472173035144806E-001;-1.268262863159180E-001;-1.058764522895217E-003;4.771262174472213E-004;
2.427500000000000E+009;1.468305736780167E-001;-1.267862468957901E-001;-9.568339446559548E-004;6.974780699238181E-004;
2.427666666666667E+009;1.461869627237320E-001;-1.268675476312637E-001;-1.074297004379332E-003;6.132073467597365E-004;
