# Version 1.00
#
freq[Hz];re:Trc1_S11;im:Trc1_S11;re:Trc2_S21;im:Trc2_S21;
2.400000000000000E+009;1.552213430404663E-001;1.068970412015915E-001;-1.987945754081011E-003;3.598256502300501E-003;
2.400166666666667E+009;1.550119966268539E-001;1.045361235737801E-001;-1.909048180095851E-003;3.624718636274338E-003;
2.400333333333334E+009;1.549971848726273E-001;1.021824106574059E-001;-2.000658772885799E-003;3.660178510472179E-003;
2.400500000000000E+009;1.550332009792328E-001;9.949070215225220E-002;-1.890725921839476E-003;3.784565022215247E-003;
2.400666666666667E+009;1.551857888698578E-001;9.692376852035523E-002;-1.774715259671211E-003;3.827771404758096E-003;
2.400833333333334E+009;1.549984812736511E-001;9.407040476799011E-002;-1.606680336408317E-003;3.933027852326632E-003;
2.401000000000000E+009;1.552517116069794E-001;9.122475236654282E-002;-1.495934790000320E-003;4.021138884127140E-003;
2.401166666666667E+009;1.552686691284180E-001;8.836914598941803E-002;-1.547591644339263E-003;4.181408323347569E-003;
2.401333333333334E+009;1.559143960475922E-001;8.557753264904022E-002;-1.330778119154275E-003;4.196222405880690E-003;
2.401500000000000E+009;1.562515944242477E-001;8.259028941392899E-002;-1.146033173426986E-003;4.206021316349506E-003;
2.401666666666667E+009;1.565246433019638E-001;7.974040508270264E-002;-8.956701494753361E-004;4.427045118063688E-003;
2.401833333333334E+009;1.569361388683319E-001;7.678811252117157E-002;-7.131202728487551E-004;4.288412630558014E-003;
2.402000000000000E+009;1.580832451581955E-001;7.410557568073273E-002;-5.242301267571747E-004;4.302176181226969E-003;
2.402166666666667E+009;1.588446795940399E-001;7.137417048215866E-002;-3.186101675964892E-004;4.314470570534468E-003;
2.402333333333334E+009;1.596421003341675E-001;6.861120462417603E-002;-6.919140287209302E-005;4.352631047368050E-003;
2.402500000000000E+009;1.609730720520020E-001;6.616817414760590E-002;-1.319030707236379E-005;4.092861432582140E-003;
2.402666666666667E+009;1.620438098907471E-001;6.376359611749649E-002;8.227497164625675E-005;4.138132557272911E-003;
2.402833333333334E+009;1.633396893739700E-001;6.122212484478951E-002;2.267900999868289E-004;4.027092363685370E-003;
2.403000000000000E+009;1.648344993591309E-001;5.879700183868408E-002;1.546796120237559E-004;3.900758223608136E-003;
2.403166666666667E+009;1.664486974477768E-001;5.659268051385880E-002;2.943291619885713E-004;3.930896054953337E-003;
2.403333333333334E+009;1.679365634918213E-001;5.447943881154060E-002;4.438695032149553E-004;3.807425964623690E-003;
2.403500000000000E+009;1.696798056364059E-001;5.219531804323196E-002;1.657582761254162E-004;3.783990629017353E-003;
2.403666666666667E+009;1.713737398386002E-001;5.040936544537544E-002;3.488268412183970E-004;3.680838039144874E-003;
2.403833333333334E+009;1.728829741477966E-001;4.852796718478203E-002;4.240691778250039E-004;3.746625967323780E-003;
2.404000000000000E+009;1.744028031826019E-001;4.662524163722992E-002;3.094249696005136E-004;3.826980246230960E-003;
2.404166666666667E+009;1.761620342731476E-001;4.526007920503616E-002;4.601027758326381E-004;3.794734133407474E-003;
2.404333333333334E+009;1.778182387351990E-001;4.379421472549439E-002;7.242239080369473E-004;4.035023506730795E-003;
2.404500000000000E+009;1.794763952493668E-001;4.229989647865295E-002;7.247538305819035E-004;4.033172968775034E-003;
2.404666666666667E+009;1.811397671699524E-001;4.116273298859596E-002;8.688301895745099E-004;4.138309042900801E-003;
2.404833333333334E+009;1.826786547899246E-001;4.016375541687012E-002;1.138615887612104E-003;4.114999901503325E-003;
2.405000000000000E+009;1.845357567071915E-001;3.950130194425583E-002;1.235192874446511E-003;4.005528520792723E-003;
2.405166666666667E+009;1.853326410055161E-001;3.872270137071610E-002;1.338531612418592E-003;4.207785706967115E-003;
2.405333333333334E+009;1.868269145488739E-001;3.814147040247917E-002;1.436478225514293E-003;4.292241297662258E-003;
2.405500000000000E+009;1.882143169641495E-001;3.778268396854401E-002;1.693626982159913E-003;4.098290111869574E-003;
2.405666666666667E+009;1.893169581890106E-001;3.737939521670342E-002;1.853305730037391E-003;4.059663042426109E-003;
2.405833333333334E+009;1.909224689006805E-001;3.704992309212685E-002;2.084200968965888E-003;3.884235396981239E-003;
2.406000000000000E+009;1.917099654674530E-001;3.699620440602303E-002;2.101005287840962E-003;3.877416718751192E-003;
2.406166666666667E+009;1.926858723163605E-001;3.680802881717682E-002;2.350085647776723E-003;3.683626651763916E-003;
2.406333333333334E+009;1.938086450099945E-001;3.685565292835236E-002;2.448346232995391E-003;3.714004298672080E-003;
2.406500000000000E+009;1.944497823715210E-001;3.677521646022797E-002;2.510789781808853E-003;3.427839837968350E-003;
2.406666666666667E+009;1.948088258504868E-001;3.697989135980606E-002;2.725287340581417E-003;3.411674173548818E-003;
2.406833333333334E+009;1.954206079244614E-001;3.699325025081635E-002;2.818148350343108E-003;3.280738601461053E-003;
2.407000000000000E+009;1.957142651081085E-001;3.722836077213287E-002;3.011898137629032E-003;3.149166703224182E-003;
2.407166666666667E+009;1.958964467048645E-001;3.713023290038109E-002;2.881605410948396E-003;3.090014215558767E-003;
2.407333333333334E+009;1.958635747432709E-001;3.720537573099136E-002;3.233771305531263E-003;3.006340237334371E-003;
2.407500000000000E+009;1.957809925079346E-001;3.726534172892571E-002;3.158464562147856E-003;2.774795284494758E-003;
2.407666666666667E+009;1.956952512264252E-001;3.736500069499016E-002;3.267573891207576E-003;2.632154850289226E-003;
2.407833333333334E+009;1.952683329582214E-001;3.729993477463722E-002;3.170241601765156E-003;2.562498673796654E-003;
2.408000000000000E+009;1.951024979352951E-001;3.708286583423615E-002;3.523519495502114E-003;2.376178978011012E-003;
2.408166666666667E+009;1.944481134414673E-001;3.699568286538124E-002;3.394494298845530E-003;2.415950177237392E-003;
2.408333333333334E+009;1.940274834632874E-001;3.644336387515068E-002;3.454042598605156E-003;2.292998600751162E-003;
2.408500000000000E+009;1.932066977024078E-001;3.620142862200737E-002;3.532766597345471E-003;2.169876126572490E-003;
2.408666666666667E+009;1.926912218332291E-001;3.575349599123001E-002;3.520653350278735E-003;2.063613850623369E-003;
2.408833333333334E+009;1.918700635433197E-001;3.495280072093010E-002;3.451799508184195E-003;1.866553444415331E-003;
2.409000000000000E+009;1.908915936946869E-001;3.422708436846733E-002;3.523909253999591E-003;1.845381804741919E-003;
2.409166666666667E+009;1.899571567773819E-001;3.334636613726616E-002;3.502791048958898E-003;1.677318708971143E-003;
2.409333333333334E+009;1.890899240970612E-001;3.242364153265953E-002;3.403090639039874E-003;1.454844838008285E-003;
2.409500000000000E+009;1.878570765256882E-001;3.100351616740227E-002;3.560477867722511E-003;1.542896265164018E-003;
2.409666666666667E+009;1.869508177042007E-001;2.964728511869907E-002;3.502013161778450E-003;1.479733386076987E-003;
2.409833333333334E+009;1.858777254819870E-001;2.816838212311268E-002;3.448183182626963E-003;1.460809609852731E-003;
2.410000000000000E+009;1.849954873323441E-001;2.662263251841068E-002;3.430821467190981E-003;1.491373637691140E-003;
2.410166666666667E+009;1.837907433509827E-001;2.486678212881088E-002;3.234687494114041E-003;1.276129274629057E-003;
2.410333333333334E+009;1.829673796892166E-001;2.290861681103706E-002;3.380818990990520E-003;1.320425886660814E-003;
2.410500000000000E+009;1.819833517074585E-001;2.095954678952694E-002;3.368380712345243E-003;1.398141845129430E-003;
2.410666666666667E+009;1.811538636684418E-001;1.886041834950447E-002;3.290651133283973E-003;1.155514153651893E-003;
2.410833333333334E+009;1.803850382566452E-001;1.650330796837807E-002;3.484674962237477E-003;1.319983741268516E-003;
2.411000000000000E+009;1.796931177377701E-001;1.451130583882332E-002;3.571490524336696E-003;1.222841558046639E-003;
2.411166666666667E+009;1.788610070943832E-001;1.223813276737928E-002;3.617292502894998E-003;1.350932172499597E-003;
2.411333333333334E+009;1.785492300987244E-001;9.800481610000134E-003;3.688124241307378E-003;1.212585251778364E-003;
2.411500000000000E+009;1.779365092515945E-001;7.453684695065022E-003;3.828593296930194E-003;1.090049161575735E-003;
2.411666666666667E+009;1.778772026300430E-001;4.965270403772593E-003;4.075839184224606E-003;1.078723813407123E-003;
2.411833333333334E+009;1.775456219911575E-001;2.565837930887938E-003;3.962958697229624E-003;1.060798065736890E-003;
2.412000000000000E+009;1.777417957782745E-001;6.462581222876906E-005;4.211547784507275E-003;1.024809316731989E-003;
2.412166666666667E+009;1.778896450996399E-001;-2.237483393400908E-003;4.425969906151295E-003;9.016993572004139E-004;
2.412333333333334E+009;1.781298667192459E-001;-4.734189249575138E-003;4.333525896072388E-003;7.481678039766848E-004;
2.412500000000000E+009;1.784250736236572E-001;-7.314349990338087E-003;4.511540289968252E-003;5.365482065826654E-004;
2.412666666666667E+009;1.789767295122147E-001;-9.449262171983719E-003;4.630712326616049E-003;3.723981208167970E-004;
2.412833333333334E+009;1.796977072954178E-001;-1.204770058393478E-002;4.656429868191481E-003;1.610324397915974E-005;
2.413000000000000E+009;1.804141104221344E-001;-1.421016547828913E-002;4.837526008486748E-003;-6.159657641546801E-005;
2.413166666666667E+009;1.812363713979721E-001;-1.660487055778503E-002;4.764421842992306E-003;-1.483327359892428E-004;
2.413333333333334E+009;1.824840754270554E-001;-1.892337761819363E-002;4.884113557636738E-003;-4.296731203794479E-004;
2.413500000000000E+009;1.833539456129074E-001;-2.112770825624466E-002;4.866710864007473E-003;-7.830756367184222E-004;
2.413666666666667E+009;1.845546215772629E-001;-2.327905967831612E-002;4.950144793838263E-003;-8.888548472896218E-004;
2.413833333333334E+009;1.856071949005127E-001;-2.541919052600861E-002;4.856440238654614E-003;-1.100420951843262E-003;
2.414000000000000E+009;1.868629604578018E-001;-2.726622857153416E-002;4.729541949927807E-003;-1.356161199510098E-003;
2.414166666666667E+009;1.881971657276154E-001;-2.919872477650642E-002;4.515329841524363E-003;-1.527672982774675E-003;
2.414333333333334E+009;1.893502771854401E-001;-3.116668760776520E-002;4.595031496137381E-003;-1.772680319845676E-003;
2.414500000000000E+009;1.905807554721832E-001;-3.244829550385475E-002;4.582252353429794E-003;-1.870482810772955E-003;
2.414666666666667E+009;1.918153762817383E-001;-3.408769890666008E-002;4.328770563006401E-003;-2.070095157250762E-003;
2.414833333333334E+009;1.929482221603394E-001;-3.545769304037094E-002;4.225781187415123E-003;-2.309584524482489E-003;
2.415000000000000E+009;1.941317468881607E-001;-3.667816147208214E-002;4.064931999891996E-003;-2.607816131785512E-003;
2.415166666666667E+009;1.953189671039581E-001;-3.780595585703850E-002;3.920917399227619E-003;-2.608938608318567E-003;
2.415333333333334E+009;1.965830326080322E-001;-3.883285820484161E-002;3.742907894775271E-003;-2.748532686382532E-003;
2.415500000000000E+009;1.976772099733353E-001;-3.954264894127846E-002;3.684948896989226E-003;-2.947944682091475E-003;
2.415666666666667E+009;1.987415105104446E-001;-4.038978368043900E-002;3.615060821175575E-003;-2.890489762648940E-003;
2.415833333333334E+009;1.997628062963486E-001;-4.095571115612984E-002;3.437115810811520E-003;-3.109128912910819E-003;
2.416000000000000E+009;2.003159821033478E-001;-4.169025644659996E-002;3.302687080577016E-003;-3.128769574686885E-003;
2.416166666666667E+009;2.009697705507278E-001;-4.206812009215355E-002;3.239960875362158E-003;-3.360891714692116E-003;
2.416333333333334E+009;2.017155736684799E-001;-4.236295819282532E-002;3.097783075645566E-003;-3.324988530948758E-003;
2.416500000000000E+009;2.021901309490204E-001;-4.257536679506302E-002;2.888176823034883E-003;-3.419580403715372E-003;
2.416666666666667E+009;2.025549560785294E-001;-4.290381446480751E-002;2.910724142566323E-003;-3.503725863993168E-003;
2.416833333333334E+009;2.027285397052765E-001;-4.289485886693001E-002;2.652783645316958E-003;-3.632102394476533E-003;
2.417000000000000E+009;2.028480619192123E-001;-4.298119246959686E-002;2.659253077581525E-003;-3.557682503014803E-003;
2.417166666666667E+009;2.025486677885056E-001;-4.276385530829430E-002;2.391211455687881E-003;-3.830226371064782E-003;
2.417333333333334E+009;2.023925781250000E-001;-4.269020259380341E-002;2.346694702282548E-003;-3.778786864131689E-003;
2.417500000000000E+009;2.021693587303162E-001;-4.266086593270302E-002;2.203887095674872E-003;-3.852127119898796E-003;
2.417666666666667E+009;2.014910876750946E-001;-4.240249842405319E-002;1.960049383342266E-003;-3.854590700939298E-003;
2.417833333333334E+009;2.010651081800461E-001;-4.222761467099190E-002;1.907190773636103E-003;-3.847822779789567E-003;
2.418000000000000E+009;2.005169093608856E-001;-4.195537790656090E-002;1.686905627138913E-003;-3.946640994399786E-003;
2.418166666666667E+009;1.996034234762192E-001;-4.180798679590225E-002;1.537511590868235E-003;-4.044422414153814E-003;
2.418333333333334E+009;1.986861974000931E-001;-4.168717563152313E-002;1.433070399798453E-003;-4.104335326701403E-003;
2.418500000000000E+009;1.977180242538452E-001;-4.169645160436630E-002;1.259800163097680E-003;-4.181089811027050E-003;
2.418666666666667E+009;1.968103051185608E-001;-4.167044162750244E-002;1.060380367562175E-003;-4.082264378666878E-003;
2.418833333333334E+009;1.954913735389710E-001;-4.168664291501045E-002;9.028623462654650E-004;-4.075034987181425E-003;
2.419000000000000E+009;1.942154318094254E-001;-4.197261482477188E-002;8.849229780025780E-004;-4.153714980930090E-003;
2.419166666666667E+009;1.929095238447189E-001;-4.232137650251389E-002;5.719979526475072E-004;-4.035795107483864E-003;
2.419333333333334E+009;1.915385425090790E-001;-4.286585375666618E-002;5.530489725060761E-004;-3.971250727772713E-003;
2.419500000000000E+009;1.900702267885208E-001;-4.320580512285233E-002;3.732156183104962E-004;-3.986621275544167E-003;
2.419666666666667E+009;1.884183734655380E-001;-4.408976063132286E-002;3.726319700945169E-004;-3.972604405134916E-003;
2.419833333333334E+009;1.867560595273972E-001;-4.473510757088661E-002;2.971170470118523E-004;-3.921645693480969E-003;
2.420000000000000E+009;1.851588338613510E-001;-4.570191726088524E-002;1.549590087961406E-004;-3.890138585120440E-003;
2.420166666666667E+009;1.836770772933960E-001;-4.659064486622810E-002;-5.177614366402850E-005;-3.736893879249692E-003;
2.420333333333334E+009;1.819271594285965E-001;-4.785937070846558E-002;-7.818088488420472E-005;-3.767547197639942E-003;
2.420500000000000E+009;1.802121549844742E-001;-4.917230829596520E-002;-1.782054896466434E-004;-3.696519182994962E-003;
2.420666666666667E+009;1.788095086812973E-001;-5.026279762387276E-002;-1.040239294525236E-004;-3.665211377665401E-003;
2.420833333333334E+009;1.769099682569504E-001;-5.176091939210892E-002;-2.076047530863434E-004;-3.703643102198839E-003;
2.421000000000000E+009;1.754119694232941E-001;-5.346049740910530E-002;-3.478737489785999E-004;-3.616743255406618E-003;
2.421166666666667E+009;1.741143018007278E-001;-5.509999766945839E-002;-4.566357820294797E-004;-3.818987635895610E-003;
2.421333333333334E+009;1.724798828363419E-001;-5.669137090444565E-002;-5.020088865421712E-004;-3.642045194283128E-003;
2.421500000000000E+009;1.711487621068955E-001;-5.868921428918839E-002;-5.773651064373553E-004;-3.647190751507878E-003;
2.421666666666667E+009;1.697660535573959E-001;-6.050008907914162E-002;-7.814840646460652E-004;-3.505314001813531E-003;
2.421833333333334E+009;1.686943471431732E-001;-6.241776421666145E-002;-8.411424350924790E-004;-3.417601343244314E-003;
2.422000000000000E+009;1.674302965402603E-001;-6.422664225101471E-002;-8.819524082355201E-004;-3.308391431346536E-003;
2.422166666666667E+009;1.667437106370926E-001;-6.637255847454071E-002;-9.507068316452205E-004;-3.396174870431423E-003;
2.422333333333334E+009;1.655452400445938E-001;-6.828341633081436E-002;-1.071163802407682E-003;-3.173740580677986E-003;
2.422500000000000E+009;1.648406535387039E-001;-7.028263807296753E-002;-1.024594064801931E-003;-3.096346976235509E-003;
2.422666666666667E+009;1.640854775905609E-001;-7.223629951477051E-002;-9.659415809437633E-004;-3.246661974117160E-003;
2.422833333333334E+009;1.637486070394516E-001;-7.440730929374695E-002;-1.259621581993997E-003;-3.063690848648548E-003;
2.423000000000000E+009;1.631694287061691E-001;-7.632087916135788E-002;-1.188351307064295E-003;-3.067092504352331E-003;
2.423166666666667E+009;1.629949957132340E-001;-7.843548059463501E-002;-1.303012715652585E-003;-3.026310354471207E-003;
2.423333333333334E+009;1.626788675785065E-001;-8.044470101594925E-002;-1.328031648881733E-003;-3.062210278585553E-003;
2.423500000000000E+009;1.627466976642609E-001;-8.225482702255249E-002;-1.398802152834833E-003;-3.067798679694533E-003;
2.423666666666667E+009;1.628599613904953E-001;-8.421270549297333E-002;-1.358633395284414E-003;-3.078040666878223E-003;
2.423833333333334E+009;1.629417687654495E-001;-8.584221452474594E-002;-1.406220602802932E-003;-3.084802534431219E-003;
2.424000000000000E+009;1.629018932580948E-001;-8.771890401840210E-002;-1.545084291137755E-003;-3.017953131347895E-003;
2.424166666666667E+009;1.631053090095520E-001;-8.925287425518036E-002;-1.751229050569236E-003;-2.916958183050156E-003;
2.424333333333334E+009;1.632222682237625E-001;-9.095093607902527E-002;-1.971376128494740E-003;-2.995141083374620E-003;
2.424500000000000E+009;1.637118756771088E-001;-9.266501665115356E-002;-1.976407598704100E-003;-3.086601616814733E-003;
2.424666666666667E+009;1.639941781759262E-001;-9.391868114471436E-002;-2.116096206009388E-003;-2.903721062466502E-003;
2.424833333333334E+009;1.645521819591522E-001;-9.530061483383179E-002;-2.409873530268669E-003;-2.741597360000014E-003;
2.425000000000000E+009;1.648472249507904E-001;-9.646322578191757E-002;-2.431706525385380E-003;-2.774466760456562E-003;
2.425166666666667E+009;1.652635633945465E-001;-9.747476875782013E-002;-2.496623434126377E-003;-2.586132846772671E-003;
2.425333333333334E+009;1.656755357980728E-001;-9.857455641031265E-002;-2.479426097124815E-003;-2.409294713288546E-003;
2.425500000000000E+009;1.661225408315659E-001;-9.942896664142609E-002;-2.666388871148229E-003;-2.257345477119088E-003;
2.425666666666667E+009;1.666519939899445E-001;-1.002280488610268E-001;-2.580852480605245E-003;-2.113195136189461E-003;
2.425833333333334E+009;1.668212860822678E-001;-1.010018810629845E-001;-2.773273270577192E-003;-2.077978337183595E-003;
2.426000000000000E+009;1.673520654439926E-001;-1.015323027968407E-001;-2.747561782598496E-003;-2.139513147994876E-003;
2.426166666666667E+009;1.676651239395142E-001;-1.019192337989807E-001;-2.728385850787163E-003;-1.822152524255216E-003;
2.426333333333334E+009;1.678949445486069E-001;-1.025362089276314E-001;-2.777519868686795E-003;-1.686994917690754E-003;
2.426500000000000E+009;1.682898402214050E-001;-1.026963517069817E-001;-2.831913065165281E-003;-1.674096216447651E-003;
2.426666666666667E+009;1.685267984867096E-001;-1.030622348189354E-001;-2.949314657598734E-003;-1.527488464489579E-003;
2.426833333333334E+009;1.687135249376297E-001;-1.034377291798592E-001;-2.900738269090653E-003;-1.345302909612656E-003;
2.427000000000000E+009;1.687916815280914E-001;-1.035229861736298E-001;-2.886804984882474E-003;-1.196586294099689E-003;
2.427166666666667E+009;1.687627732753754E-001;-1.036470904946327E-001;-2.892809221521020E-003;-1.054576598107815E-003;
2.427333333333334E+009;1.687889844179153E-001;-1.038896813988686E-001;-2.939541591331363E-003;-1.070827362127602E-003;
2.427500000000000E+009;1.684417277574539E-001;-1.040700450539589E-001;-2.889319323003292E-003;-8.757579489611089E-004;
2.427666666666667E+009;1.680982857942581E-001;-1.040199175477028E-001;-3.015365684404969E-003;-8.296782034449279E-004;
2.427833333333334E+009;1.678437590599060E-001;-1.041238680481911E-001;-2.854118123650551E-003;-8.292426355183125E-004;
