# Version 1.00
#
freq[Hz];re:Trc1_S11;im:Trc1_S11;re:Trc2_S21;im:Trc2_S21;
2.400000000000000E+009;1.551175713539124E-001;1.069835051894188E-001;-2.041000640019774E-003;3.464300418272615E-003;
2.400166666666667E+009;1.549815833568573E-001;1.047842577099800E-001;-1.987030962482095E-003;3.626225749030709E-003;
2.400333333333334E+009;1.548502743244171E-001;1.023640707135201E-001;-1.775190932676196E-003;3.797062439844012E-003;
2.400500000000000E+009;1.549482345581055E-001;9.949490427970886E-002;-2.025447785854340E-003;3.809779416769743E-003;
2.400666666666667E+009;1.546857655048370E-001;9.715788811445236E-002;-1.787064829841256E-003;3.823898965492845E-003;
2.400833333333334E+009;1.551024615764618E-001;9.419505298137665E-002;-1.699219341389835E-003;3.947217017412186E-003;
2.401000000000000E+009;1.555373668670654E-001;9.105218201875687E-002;-1.633900101296604E-003;4.052776843309403E-003;
2.401166666666667E+009;1.550370603799820E-001;8.814845979213715E-002;-1.498813740909100E-003;4.232210572808981E-003;
2.401333333333334E+009;1.558849811553955E-001;8.524021506309509E-002;-1.293560839258134E-003;4.226281307637692E-003;
2.401500000000000E+009;1.556332260370255E-001;8.234400302171707E-002;-1.114584156312048E-003;4.215327091515064E-003;
2.401666666666667E+009;1.564814746379852E-001;7.967380434274674E-002;-9.270611917600036E-004;4.316277336329222E-003;
2.401833333333334E+009;1.571746170520783E-001;7.703235745429993E-002;-7.634448702447116E-004;4.359855782240629E-003;
2.402000000000000E+009;1.579648256301880E-001;7.423186302185059E-002;-4.700222343672067E-004;4.354974254965782E-003;
2.402166666666667E+009;1.586188971996307E-001;7.152989506721497E-002;-2.886192814912647E-004;4.249184392392635E-003;
2.402333333333334E+009;1.595472991466522E-001;6.877485662698746E-002;-2.180539740948007E-004;4.184679593890905E-003;
2.402500000000000E+009;1.607448458671570E-001;6.614893674850464E-002;1.198853569803760E-004;4.138826858252287E-003;
2.402666666666667E+009;1.619815081357956E-001;6.392309814691544E-002;5.340592178981751E-005;3.974279854446650E-003;
2.402833333333334E+009;1.631502211093903E-001;6.133814156055450E-002;1.864614023361355E-004;4.070024471729994E-003;
2.403000000000000E+009;1.647061705589294E-001;5.906502902507782E-002;2.391154848737642E-004;3.866264363750815E-003;
2.403166666666667E+009;1.663312315940857E-001;5.677242577075958E-002;3.896292764693499E-004;3.740359796211124E-003;
2.403333333333334E+009;1.676775217056274E-001;5.457738041877747E-002;4.263576993253082E-004;3.705860814079642E-003;
2.403500000000000E+009;1.694123595952988E-001;5.254403129220009E-002;3.422725421842188E-004;3.653446445241571E-003;
2.403666666666667E+009;1.711781024932861E-001;5.057561770081520E-002;3.941648756153882E-004;3.837648313492537E-003;
2.403833333333334E+009;1.728492975234985E-001;4.869627207517624E-002;5.356223555281758E-004;3.784299595281482E-003;
2.404000000000000E+009;1.742963194847107E-001;4.682853072881699E-002;4.423180944286287E-004;3.814251394942403E-003;
2.404166666666667E+009;1.760679036378861E-001;4.540776088833809E-002;6.287048454396427E-004;3.812572220340371E-003;
2.404333333333334E+009;1.776582300662994E-001;4.383854940533638E-002;5.711854901164770E-004;3.869545646011829E-003;
2.404500000000000E+009;1.794836372137070E-001;4.252542927861214E-002;7.128900615498424E-004;4.039069637656212E-003;
2.404666666666667E+009;1.809789389371872E-001;4.144550487399101E-002;7.198820239864290E-004;4.024489782750607E-003;
2.404833333333334E+009;1.828412860631943E-001;4.017141833901405E-002;9.406060562469065E-004;4.145687911659479E-003;
2.405000000000000E+009;1.840715706348419E-001;3.914929926395416E-002;1.055993838235736E-003;4.054308403283358E-003;
2.405166666666667E+009;1.854367703199387E-001;3.868474438786507E-002;1.285004778765142E-003;4.125352017581463E-003;
2.405333333333334E+009;1.872419118881226E-001;3.853509947657585E-002;1.607630285434425E-003;4.186728969216347E-003;
2.405500000000000E+009;1.884741634130478E-001;3.740800544619560E-002;1.643453957512975E-003;3.986922558397055E-003;
2.405666666666667E+009;1.897193342447281E-001;3.791223838925362E-002;1.905173645354807E-003;4.246858414262533E-003;
2.405833333333334E+009;1.911723166704178E-001;3.693004697561264E-002;2.016960410401225E-003;3.983262460678816E-003;
2.406000000000000E+009;1.916773021221161E-001;3.707925975322723E-002;2.305409172549844E-003;3.824729239568114E-003;
2.406166666666667E+009;1.931189894676209E-001;3.690805286169052E-002;2.489880425855517E-003;3.827342763543129E-003;
2.406333333333334E+009;1.936995387077332E-001;3.686285018920898E-002;2.578747691586614E-003;3.776472527533770E-003;
2.406500000000000E+009;1.943258792161942E-001;3.690035268664360E-002;2.628907794132829E-003;3.605153411626816E-003;
2.406666666666667E+009;1.949306428432465E-001;3.693624213337898E-002;2.554045291617513E-003;3.598758485168219E-003;
2.406833333333334E+009;1.954887211322784E-001;3.691108897328377E-002;2.821553731337190E-003;3.290588269010186E-003;
2.407000000000000E+009;1.956620216369629E-001;3.729019314050674E-002;2.895133337005973E-003;3.254558425396681E-003;
2.407166666666667E+009;1.959570199251175E-001;3.717277571558952E-002;3.201279556378722E-003;3.125053597614169E-003;
2.407333333333334E+009;1.957671791315079E-001;3.745253011584282E-002;2.902292413637042E-003;2.909411210566759E-003;
2.407500000000000E+009;1.958816796541214E-001;3.749114647507668E-002;3.121504327282310E-003;2.698578638955951E-003;
2.407666666666667E+009;1.958487927913666E-001;3.735985606908798E-002;3.193453419953585E-003;2.836121944710612E-003;
2.407833333333334E+009;1.953413039445877E-001;3.747356310486794E-002;3.234781790524721E-003;2.554480219259858E-003;
2.408000000000000E+009;1.951714009046555E-001;3.712841123342514E-002;3.359286347404122E-003;2.354864962399006E-003;
2.408166666666667E+009;1.944631040096283E-001;3.694066032767296E-002;3.322607371956110E-003;2.250307938084006E-003;
2.408333333333334E+009;1.940862089395523E-001;3.666918352246285E-002;3.541314974427223E-003;2.103370614349842E-003;
2.408500000000000E+009;1.933565437793732E-001;3.623655810952187E-002;3.434270620346069E-003;2.256929175928235E-003;
2.408666666666667E+009;1.927686482667923E-001;3.599698469042778E-002;3.458317602053285E-003;2.029669238254428E-003;
2.408833333333334E+009;1.919405460357666E-001;3.527991101145744E-002;3.495376324281097E-003;1.984193455427885E-003;
2.409000000000000E+009;1.908570975065231E-001;3.423099592328072E-002;3.582941368222237E-003;1.825349288992584E-003;
2.409166666666667E+009;1.901050060987473E-001;3.326262161135674E-002;3.388296812772751E-003;1.607866026461124E-003;
2.409333333333334E+009;1.891155242919922E-001;3.255198895931244E-002;3.497716737911105E-003;1.550259534269571E-003;
2.409500000000000E+009;1.880537569522858E-001;3.103136457502842E-002;3.362400690093637E-003;1.619226415641606E-003;
2.409666666666667E+009;1.869540512561798E-001;2.969830110669136E-002;3.545881481841207E-003;1.490525668486953E-003;
2.409833333333334E+009;1.859277337789536E-001;2.821682579815388E-002;3.633367363363504E-003;1.580373616889119E-003;
2.410000000000000E+009;1.851638853549957E-001;2.668987400829792E-002;3.142428351566196E-003;1.401808694936335E-003;
2.410166666666667E+009;1.841075718402863E-001;2.493867278099060E-002;3.137087682262063E-003;1.360563910566270E-003;
2.410333333333334E+009;1.830627322196960E-001;2.303476631641388E-002;3.703895257785916E-003;1.428431831300259E-003;
2.410500000000000E+009;1.820471137762070E-001;2.121781744062901E-002;3.382025286555290E-003;1.174126402474940E-003;
2.410666666666667E+009;1.812415719032288E-001;1.879018545150757E-002;3.451796015724540E-003;1.262366538867354E-003;
2.410833333333334E+009;1.804357618093491E-001;1.674498990178108E-002;3.602632088586688E-003;1.326688099652529E-003;
2.411000000000000E+009;1.797887235879898E-001;1.454173307865858E-002;3.469781950116158E-003;1.209032488986850E-003;
2.411166666666667E+009;1.790331155061722E-001;1.235583331435919E-002;3.585075959563255E-003;1.282891025766730E-003;
2.411333333333334E+009;1.786107569932938E-001;9.870660491287708E-003;3.731205826625228E-003;1.101260771974921E-003;
2.411500000000000E+009;1.780760437250137E-001;7.479524239897728E-003;3.834504401311278E-003;1.191435148939490E-003;
2.411666666666667E+009;1.780691295862198E-001;5.052401684224606E-003;3.916612826287746E-003;1.249574590474367E-003;
2.411833333333334E+009;1.776005923748016E-001;2.823801478371024E-003;3.944925498217344E-003;9.383187862113118E-004;
2.412000000000000E+009;1.778811365365982E-001;8.431960304733366E-005;4.111512564122677E-003;1.039840863086283E-003;
2.412166666666667E+009;1.779172271490097E-001;-2.221660921350122E-003;4.275036975741386E-003;8.388481219299138E-004;
2.412333333333334E+009;1.780219972133637E-001;-4.697666037827730E-003;4.406206775456667E-003;6.223130621947348E-004;
2.412500000000000E+009;1.786360293626785E-001;-7.032142020761967E-003;4.551040474325419E-003;6.519578746519983E-004;
2.412666666666667E+009;1.791810691356659E-001;-9.663462638854981E-003;4.475947935134172E-003;4.861093766521663E-004;
2.412833333333334E+009;1.799633651971817E-001;-1.209312584251165E-002;4.623488988727331E-003;2.473827335052192E-004;
2.413000000000000E+009;1.807094067335129E-001;-1.426178961992264E-002;4.790949169546366E-003;1.174119315692224E-004;
2.413166666666667E+009;1.814309358596802E-001;-1.658482477068901E-002;4.770499188452959E-003;-2.419429511064664E-004;
2.413333333333334E+009;1.825556606054306E-001;-1.899058558046818E-002;4.818615503609181E-003;-4.840840992983431E-004;
2.413500000000000E+009;1.834972351789475E-001;-2.111083082854748E-002;4.758520517498255E-003;-7.606187136843801E-004;
2.413666666666667E+009;1.845676749944687E-001;-2.334842458367348E-002;4.886105190962553E-003;-8.758869371376932E-004;
2.413833333333334E+009;1.857606768608093E-001;-2.532444335520268E-002;4.619869403541088E-003;-1.119453343562782E-003;
2.414000000000000E+009;1.869460493326187E-001;-2.724708616733551E-002;4.823478870093823E-003;-1.269795233383775E-003;
2.414166666666667E+009;1.883535087108612E-001;-2.898605167865753E-002;4.765655845403671E-003;-1.659729517996311E-003;
2.414333333333334E+009;1.893002241849899E-001;-3.109672851860523E-002;4.616171587258577E-003;-1.683829119428992E-003;
2.414500000000000E+009;1.905408948659897E-001;-3.259615600109100E-002;4.440648015588522E-003;-2.072433009743691E-003;
2.414666666666667E+009;1.918343305587769E-001;-3.406899794936180E-002;4.292187280952931E-003;-2.075951546430588E-003;
2.414833333333334E+009;1.930863559246063E-001;-3.550337255001068E-002;4.313139244914055E-003;-2.348392270505428E-003;
2.415000000000000E+009;1.942252814769745E-001;-3.673410415649414E-002;4.032307304441929E-003;-2.520134206861258E-003;
2.415166666666667E+009;1.955697536468506E-001;-3.776438161730766E-002;3.999978303909302E-003;-2.643747488036752E-003;
2.415333333333334E+009;1.966897547245026E-001;-3.883965313434601E-002;3.917811438441277E-003;-2.658884041011334E-003;
2.415500000000000E+009;1.976497918367386E-001;-3.961711749434471E-002;3.724022069945931E-003;-2.904379274696112E-003;
2.415666666666667E+009;1.988611519336700E-001;-4.034753516316414E-002;3.556829178705812E-003;-2.988743362948299E-003;
2.415833333333334E+009;1.997739821672440E-001;-4.092217609286308E-002;3.520740661770105E-003;-3.181715961545706E-003;
2.416000000000000E+009;2.004416733980179E-001;-4.157919436693192E-002;3.352426690980792E-003;-3.196112578734756E-003;
2.416166666666667E+009;2.011360973119736E-001;-4.212229326367378E-002;3.188396338373423E-003;-3.205821616575122E-003;
2.416333333333334E+009;2.019128799438477E-001;-4.228850081562996E-002;3.069949569180608E-003;-3.315082052722573E-003;
2.416500000000000E+009;2.023480385541916E-001;-4.255374893546104E-002;2.948749111965299E-003;-3.324171761050820E-003;
2.416666666666667E+009;2.025558650493622E-001;-4.284009709954262E-002;2.927542896941304E-003;-3.406971693038940E-003;
2.416833333333334E+009;2.027311474084854E-001;-4.291319102048874E-002;2.697298536077142E-003;-3.504981519654393E-003;
2.417000000000000E+009;2.029193192720413E-001;-4.299029707908630E-002;2.539515728130937E-003;-3.504165215417743E-003;
2.417166666666667E+009;2.026069909334183E-001;-4.286837577819824E-002;2.369110938161612E-003;-3.521965583786368E-003;
2.417333333333334E+009;2.023899853229523E-001;-4.276350513100624E-002;2.352734329178929E-003;-3.755725221708417E-003;
2.417500000000000E+009;2.022068202495575E-001;-4.270227998495102E-002;2.242170972749591E-003;-3.865209873765707E-003;
2.417666666666667E+009;2.015386521816254E-001;-4.247213527560234E-002;2.052710857242346E-003;-3.823682898655534E-003;
2.417833333333334E+009;2.011208385229111E-001;-4.223575070500374E-002;1.935357577167451E-003;-4.032048862427473E-003;
2.418000000000000E+009;2.004182487726212E-001;-4.193639755249023E-002;1.567903673276305E-003;-4.025997128337622E-003;
2.418166666666667E+009;1.997050493955612E-001;-4.188817739486694E-002;1.642393996007741E-003;-3.983173985034227E-003;
2.418333333333334E+009;1.987285912036896E-001;-4.165150225162506E-002;1.433249562978745E-003;-4.179345443844795E-003;
2.418500000000000E+009;1.977851092815399E-001;-4.179049655795097E-002;1.216906588524580E-003;-3.913520835340023E-003;
2.418666666666667E+009;1.967741101980209E-001;-4.163179546594620E-002;1.068513607606292E-003;-4.072257317602634E-003;
2.418833333333334E+009;1.955585032701492E-001;-4.187274351716042E-002;9.792862692847848E-004;-4.079384263604879E-003;
2.419000000000000E+009;1.942207515239716E-001;-4.211144894361496E-002;7.509271963499486E-004;-4.095866344869137E-003;
2.419166666666667E+009;1.930081099271774E-001;-4.233042150735855E-002;6.001775618642569E-004;-4.035757854580879E-003;
2.419333333333334E+009;1.915133744478226E-001;-4.279664903879166E-002;5.816367920488119E-004;-3.910629078745842E-003;
2.419500000000000E+009;1.901466846466065E-001;-4.334953427314758E-002;5.477051017805934E-004;-3.969771787524223E-003;
2.419666666666667E+009;1.884562522172928E-001;-4.415763914585114E-002;3.332438354846090E-004;-3.957586362957954E-003;
2.419833333333334E+009;1.868230849504471E-001;-4.465875029563904E-002;4.291128716431558E-004;-3.758313134312630E-003;
2.420000000000000E+009;1.852568089962006E-001;-4.563572630286217E-002;1.434560399502516E-004;-3.873923327773809E-003;
2.420166666666667E+009;1.837023198604584E-001;-4.668215289711952E-002;4.823639028472826E-005;-3.768833354115486E-003;
2.420333333333334E+009;1.820368766784668E-001;-4.781606793403626E-002;3.573567664716393E-005;-3.794458927586675E-003;
2.420500000000000E+009;1.803378462791443E-001;-4.913964867591858E-002;2.008421324717347E-005;-3.658522618934512E-003;
2.420666666666667E+009;1.785712689161301E-001;-5.022028088569641E-002;-1.121854947996326E-004;-3.663565730676055E-003;
2.420833333333334E+009;1.771611720323563E-001;-5.194630101323128E-002;-3.612835644162260E-005;-3.682283451780677E-003;
2.421000000000000E+009;1.756918877363205E-001;-5.339466035366058E-002;-3.166666720062494E-004;-3.418021369725466E-003;
2.421166666666667E+009;1.742322593927383E-001;-5.513392016291618E-002;-3.597292234189808E-004;-3.574082395061851E-003;
2.421333333333334E+009;1.723543107509613E-001;-5.673684179782867E-002;-4.272602382116020E-004;-3.721343586221337E-003;
2.421500000000000E+009;1.710855960845947E-001;-5.859287083148956E-002;-4.045095411129296E-004;-3.583895042538643E-003;
2.421666666666667E+009;1.697760671377182E-001;-6.048249453306198E-002;-7.744779577478766E-004;-3.502880455926061E-003;
2.421833333333334E+009;1.686407327651978E-001;-6.251326203346252E-002;-7.356113637797535E-004;-3.450977383181453E-003;
2.422000000000000E+009;1.674464046955109E-001;-6.415723264217377E-002;-8.085212321020663E-004;-3.571330569684506E-003;
2.422166666666667E+009;1.667122691869736E-001;-6.636193394660950E-002;-1.068147248588502E-003;-3.227304434403777E-003;
2.422333333333334E+009;1.656165421009064E-001;-6.850852817296982E-002;-1.016580150462687E-003;-3.211641917005181E-003;
2.422500000000000E+009;1.649611741304398E-001;-7.032667845487595E-002;-1.080023124814034E-003;-3.271997440606356E-003;
2.422666666666667E+009;1.642071902751923E-001;-7.237298041582108E-002;-1.079429057426751E-003;-3.209571819752455E-003;
2.422833333333334E+009;1.636933833360672E-001;-7.450789958238602E-002;-1.003766548819840E-003;-3.061514114961028E-003;
2.423000000000000E+009;1.633551716804504E-001;-7.656025141477585E-002;-1.278978073969483E-003;-3.163792891427875E-003;
2.423166666666667E+009;1.629266291856766E-001;-7.853522896766663E-002;-1.261800061911345E-003;-3.232693998143077E-003;
2.423333333333334E+009;1.627607494592667E-001;-8.052138239145279E-002;-1.210838672704995E-003;-3.069913247600198E-003;
2.423500000000000E+009;1.627889871597290E-001;-8.238457143306732E-002;-1.442683977074921E-003;-3.163157030940056E-003;
2.423666666666667E+009;1.627402752637863E-001;-8.427230268716812E-002;-1.450013718567789E-003;-3.199550788849592E-003;
2.423833333333334E+009;1.627755612134934E-001;-8.606287837028503E-002;-1.546853571198881E-003;-3.025365062057972E-003;
2.424000000000000E+009;1.629264652729034E-001;-8.792355656623840E-002;-1.677122316323221E-003;-3.049897961318493E-003;
2.424166666666667E+009;1.630889475345612E-001;-8.942922949790955E-002;-1.746534020639956E-003;-3.097755135968328E-003;
2.424333333333334E+009;1.632667779922485E-001;-9.112025797367096E-002;-1.870653475634754E-003;-2.938832156360149E-003;
2.424500000000000E+009;1.637864857912064E-001;-9.272632002830505E-002;-1.983914757147431E-003;-2.932691015303135E-003;
2.424666666666667E+009;1.639701575040817E-001;-9.424126893281937E-002;-2.309908857569099E-003;-2.872068667784333E-003;
2.424833333333334E+009;1.646180599927902E-001;-9.537784010171890E-002;-2.276009880006313E-003;-2.885246416553855E-003;
2.425000000000000E+009;1.648562848567963E-001;-9.652873873710632E-002;-2.532473299652338E-003;-2.722622128203511E-003;
2.425166666666667E+009;1.652486175298691E-001;-9.771450608968735E-002;-2.471096348017454E-003;-2.589830663055182E-003;
2.425333333333334E+009;1.656284630298615E-001;-9.873442351818085E-002;-2.588914940133691E-003;-2.576243365183473E-003;
2.425500000000000E+009;1.661641299724579E-001;-9.971506893634796E-002;-2.586739603430033E-003;-2.203746465966106E-003;
2.425666666666667E+009;1.665909737348557E-001;-1.002044156193733E-001;-2.620533108711243E-003;-2.234390005469322E-003;
2.425833333333334E+009;1.669992953538895E-001;-1.011493131518364E-001;-2.680093515664339E-003;-2.019300591200590E-003;
2.426000000000000E+009;1.672827899456024E-001;-1.014753207564354E-001;-2.641299739480019E-003;-2.003331203013659E-003;
2.426166666666667E+009;1.677550077438355E-001;-1.021950915455818E-001;-2.795715583488345E-003;-1.894553075544536E-003;
2.426333333333334E+009;1.678157448768616E-001;-1.026976332068443E-001;-2.791265258565545E-003;-1.782292732968926E-003;
2.426500000000000E+009;1.682684421539307E-001;-1.028235778212547E-001;-2.928067231550813E-003;-1.641599694266915E-003;
2.426666666666667E+009;1.685249954462051E-001;-1.031592562794685E-001;-2.817785833030939E-003;-1.602962845936418E-003;
2.426833333333334E+009;1.687351763248444E-001;-1.035204380750656E-001;-2.812091493979096E-003;-1.441076281480491E-003;
2.427000000000000E+009;1.687117069959641E-001;-1.036340966820717E-001;-2.953783608973026E-003;-1.260975142940879E-003;
2.427166666666667E+009;1.687711477279663E-001;-1.037997305393219E-001;-2.811077982187271E-003;-1.200816477648914E-003;
2.427333333333334E+009;1.686392128467560E-001;-1.040179878473282E-001;-2.848731819540262E-003;-1.152718556113541E-003;
2.427500000000000E+009;1.684030592441559E-001;-1.041528955101967E-001;-2.772601787000895E-003;-1.201789709739387E-003;
2.427666666666667E+009;1.681943386793137E-001;-1.041545718908310E-001;-2.798707922920585E-003;-9.973188862204552E-004;
2.427833333333334E+009;1.677012741565704E-001;-1.042733341455460E-001;-2.876525046303868E-003;-7.526057306677103E-004;
