# Version 1.00
#
freq[Hz];re:Trc1_S11;im:Trc1_S11;re:Trc2_S21;im:Trc2_S21;
2.400000000000000E+009;1.553712040185928E-001;1.067389473319054E-001;-2.078402787446976E-003;3.580281278118491E-003;
2.400166666666667E+009;1.550702154636383E-001;1.045118495821953E-001;-1.897485111840069E-003;3.542140824720264E-003;
2.400333333333334E+009;1.551699787378311E-001;1.021872088313103E-001;-1.886094687506557E-003;3.797715995460749E-003;
2.400500000000000E+009;1.550554782152176E-001;9.938478469848633E-002;-1.795054762624204E-003;3.788871690630913E-003;
2.400666666666667E+009;1.553418636322022E-001;9.678120911121368E-002;-1.797251985408366E-003;3.967908211052418E-003;
2.400833333333334E+009;1.552819907665253E-001;9.389211982488632E-002;-1.696434454061091E-003;3.928917925804853E-003;
2.401000000000000E+009;1.554175764322281E-001;9.112123399972916E-002;-1.448204624466598E-003;4.071321804076433E-003;
2.401166666666667E+009;1.553719043731690E-001;8.828477561473846E-002;-1.300633884966373E-003;4.067976493388414E-003;
2.401333333333334E+009;1.559123545885086E-001;8.545323461294174E-002;-1.265213591977954E-003;4.247681237757206E-003;
2.401500000000000E+009;1.561375260353088E-001;8.247522264719009E-002;-1.144520938396454E-003;4.331258591264486E-003;
2.401666666666667E+009;1.566433757543564E-001;7.963535934686661E-002;-8.155903778970242E-004;4.298942629247904E-003;
2.401833333333334E+009;1.570011526346207E-001;7.679026573896408E-002;-7.178845116868615E-004;4.452907945960760E-003;
2.402000000000000E+009;1.581618785858154E-001;7.382957637310028E-002;-5.322817014530301E-004;4.244664218276739E-003;
2.402166666666667E+009;1.588943153619766E-001;7.140561938285828E-002;-3.935700515285134E-004;4.299846012145281E-003;
2.402333333333334E+009;1.597596704959869E-001;6.860931962728500E-002;-1.739642902975902E-004;4.297921899706125E-003;
2.402500000000000E+009;1.607851684093475E-001;6.592935323715210E-002;-5.506711022462696E-005;4.145293962210417E-003;
2.402666666666667E+009;1.621179282665253E-001;6.343262642621994E-002;6.938434671610594E-005;4.128787666559219E-003;
2.402833333333334E+009;1.633563786745071E-001;6.103866174817085E-002;2.109053893946111E-004;4.088275134563446E-003;
2.403000000000000E+009;1.649164557456970E-001;5.885734036564827E-002;2.882531844079495E-004;3.922923933714628E-003;
2.403166666666667E+009;1.662601232528687E-001;5.652404204010963E-002;4.112998140044510E-004;3.911647479981184E-003;
2.403333333333334E+009;1.677859127521515E-001;5.432852357625961E-002;4.281170840840787E-004;3.633921965956688E-003;
2.403500000000000E+009;1.695479601621628E-001;5.223881825804710E-002;3.609238774515688E-004;3.822798607870936E-003;
2.403666666666667E+009;1.712592393159866E-001;5.023846402764320E-002;4.251486971043050E-004;3.679794957861304E-003;
2.403833333333334E+009;1.729144752025604E-001;4.835024476051331E-002;3.820405981969088E-004;3.872542176395655E-003;
2.404000000000000E+009;1.742973029613495E-001;4.652391001582146E-002;3.455943660810590E-004;3.743310226127505E-003;
2.404166666666667E+009;1.762556433677673E-001;4.504265263676643E-002;5.302154459059238E-004;3.824551822617650E-003;
2.404333333333334E+009;1.777009367942810E-001;4.339638352394104E-002;6.126579828560352E-004;3.820149460807443E-003;
2.404500000000000E+009;1.795023083686829E-001;4.209000989794731E-002;6.285055424086750E-004;3.879811847582459E-003;
2.404666666666667E+009;1.810266524553299E-001;4.109227657318115E-002;8.751146378926933E-004;4.198284819722176E-003;
2.404833333333334E+009;1.827902644872665E-001;3.986479341983795E-002;1.022868091240525E-003;4.113858565688133E-003;
2.405000000000000E+009;1.839891076087952E-001;3.934663161635399E-002;1.218284596689045E-003;4.251284524798393E-003;
2.405166666666667E+009;1.854864656925201E-001;3.853741288185120E-002;1.374715124256909E-003;4.018118139356375E-003;
2.405333333333334E+009;1.868275254964829E-001;3.818218037486076E-002;1.504418556578457E-003;4.229748621582985E-003;
2.405500000000000E+009;1.884667277336121E-001;3.767943009734154E-002;1.776242512278259E-003;4.069574642926455E-003;
2.405666666666667E+009;1.894243806600571E-001;3.728601709008217E-002;2.009845804423094E-003;4.100399557501078E-003;
2.405833333333334E+009;1.908279508352280E-001;3.701604530215263E-002;2.053152769804001E-003;4.018403589725494E-003;
2.406000000000000E+009;1.917068660259247E-001;3.680278733372688E-002;2.088162349537015E-003;3.883107099682093E-003;
2.406166666666667E+009;1.927035599946976E-001;3.666958957910538E-002;2.423118799924851E-003;3.881033975630999E-003;
2.406333333333334E+009;1.936445385217667E-001;3.681279346346855E-002;2.652585739269853E-003;3.688463242724538E-003;
2.406500000000000E+009;1.943056732416153E-001;3.667853772640228E-002;2.636036602780223E-003;3.565497230738401E-003;
2.406666666666667E+009;1.947548985481262E-001;3.686032816767693E-002;2.825590316206217E-003;3.350170096382499E-003;
2.406833333333334E+009;1.952959001064301E-001;3.685789182782173E-002;2.829271601513028E-003;3.251025686040521E-003;
2.407000000000000E+009;1.955292969942093E-001;3.703650832176209E-002;2.982428064569831E-003;3.042593831196427E-003;
2.407166666666667E+009;1.958840340375900E-001;3.693694993853569E-002;2.960836049169302E-003;2.914960496127605E-003;
2.407333333333334E+009;1.958518177270889E-001;3.708263486623764E-002;3.081685630604625E-003;3.008443163707852E-003;
2.407500000000000E+009;1.955689042806625E-001;3.729168698191643E-002;3.307025879621506E-003;2.729211235418916E-003;
2.407666666666667E+009;1.956846565008164E-001;3.726303204894066E-002;3.251245012506843E-003;2.735160058364272E-003;
2.407833333333334E+009;1.951498240232468E-001;3.710990771651268E-002;3.384952200576663E-003;2.713746624067426E-003;
2.408000000000000E+009;1.949743032455444E-001;3.696142137050629E-002;3.127574222162366E-003;2.429084386676550E-003;
2.408166666666667E+009;1.944458335638046E-001;3.683164715766907E-002;3.309777937829495E-003;2.236263127997518E-003;
2.408333333333334E+009;1.939822584390640E-001;3.638177737593651E-002;3.396989544853568E-003;2.159404335543513E-003;
2.408500000000000E+009;1.930818855762482E-001;3.607785701751709E-002;3.287087660282850E-003;2.147768624126911E-003;
2.408666666666667E+009;1.924423724412918E-001;3.569566830992699E-002;3.454017452895641E-003;2.076727338135243E-003;
2.408833333333334E+009;1.916867345571518E-001;3.495134785771370E-002;3.488295944407582E-003;1.856081187725067E-003;
2.409000000000000E+009;1.908468455076218E-001;3.408258780837059E-002;3.444843227043748E-003;1.756850047968328E-003;
2.409166666666667E+009;1.899185925722122E-001;3.317588567733765E-002;3.550338558852673E-003;1.658969209529460E-003;
2.409333333333334E+009;1.890601515769959E-001;3.219803795218468E-002;3.341474803164601E-003;1.464841887354851E-003;
2.409500000000000E+009;1.877157390117645E-001;3.086064010858536E-002;3.253410803154111E-003;1.467095804400742E-003;
2.409666666666667E+009;1.867333650588989E-001;2.959359250962734E-002;3.403835929930210E-003;1.503816572949290E-003;
2.409833333333334E+009;1.858128607273102E-001;2.829422801733017E-002;3.439362160861492E-003;1.451887306757271E-003;
2.410000000000000E+009;1.848044693470001E-001;2.655919082462788E-002;3.538285382091999E-003;1.365666510537267E-003;
2.410166666666667E+009;1.838001608848572E-001;2.465830184519291E-002;3.337085479870439E-003;1.369850826449692E-003;
2.410333333333334E+009;1.828168332576752E-001;2.296241000294685E-002;3.322196658700705E-003;1.250955741852522E-003;
2.410500000000000E+009;1.818101257085800E-001;2.093284018337727E-002;3.491410985589027E-003;1.161251449957490E-003;
2.410666666666667E+009;1.809697896242142E-001;1.871948316693306E-002;3.451902652159333E-003;1.232103910297155E-003;
2.410833333333334E+009;1.803960800170898E-001;1.655109412968159E-002;3.540098899975419E-003;1.199329504743218E-003;
2.411000000000000E+009;1.794836074113846E-001;1.443541795015335E-002;3.571776673197746E-003;1.324087963439524E-003;
2.411166666666667E+009;1.789596825838089E-001;1.232039649039507E-002;3.524117171764374E-003;1.177245168946683E-003;
2.411333333333334E+009;1.783806085586548E-001;9.598058648407459E-003;3.624991979449987E-003;1.201849314384162E-003;
2.411500000000000E+009;1.780955046415329E-001;7.283743936568499E-003;3.801048034802079E-003;1.221688464283943E-003;
2.411666666666667E+009;1.778173148632050E-001;5.028182175010443E-003;3.947118762880564E-003;1.156401704065502E-003;
2.411833333333334E+009;1.774475425481796E-001;2.661081030964851E-003;4.030992742627859E-003;1.007951563224196E-003;
2.412000000000000E+009;1.776517480611801E-001;-1.615761357243173E-005;4.241968039423227E-003;9.579199831932783E-004;
2.412166666666667E+009;1.776768267154694E-001;-2.299864077940583E-003;4.325797315686941E-003;9.768340969458222E-004;
2.412333333333334E+009;1.777659803628922E-001;-4.844444338232279E-003;4.451291635632515E-003;8.567165932618082E-004;
2.412500000000000E+009;1.782642006874085E-001;-7.376234978437424E-003;4.514179658144712E-003;4.640016122721136E-004;
2.412666666666667E+009;1.787932962179184E-001;-9.652298875153065E-003;4.649241454899311E-003;4.555814084596932E-004;
2.412833333333334E+009;1.795466393232346E-001;-1.202808320522308E-002;4.624126944690943E-003;1.398946478730068E-004;
2.413000000000000E+009;1.803134232759476E-001;-1.439532916992903E-002;4.655901808291674E-003;-5.424215487437323E-005;
2.413166666666667E+009;1.813053041696549E-001;-1.673928461968899E-002;4.776265472173691E-003;-2.265593211632222E-004;
2.413333333333334E+009;1.823704540729523E-001;-1.890489459037781E-002;4.863493610173464E-003;-5.388041608966887E-004;
2.413500000000000E+009;1.832016855478287E-001;-2.116999961435795E-002;4.794113337993622E-003;-6.740781245753169E-004;
2.413666666666667E+009;1.844744533300400E-001;-2.349685318768024E-002;4.766468890011311E-003;-6.846332107670605E-004;
2.413833333333334E+009;1.855616569519043E-001;-2.537886612117291E-002;4.735503345727921E-003;-1.094705890864134E-003;
2.414000000000000E+009;1.865874081850052E-001;-2.732473425567150E-002;4.871509037911892E-003;-1.346576143987477E-003;
2.414166666666667E+009;1.880101412534714E-001;-2.912219986319542E-002;4.601169843226671E-003;-1.562976976856589E-003;
2.414333333333334E+009;1.891211122274399E-001;-3.108879178762436E-002;4.442692268639803E-003;-1.807730295695365E-003;
2.414500000000000E+009;1.904248446226120E-001;-3.255137801170349E-002;4.282319918274880E-003;-2.001845277845860E-003;
2.414666666666667E+009;1.916974484920502E-001;-3.413847088813782E-002;4.348189104348421E-003;-2.090608933940530E-003;
2.414833333333334E+009;1.928274482488632E-001;-3.538529574871063E-002;4.231621511280537E-003;-2.335016615688801E-003;
2.415000000000000E+009;1.939507573843002E-001;-3.673523291945458E-002;4.155695904046297E-003;-2.312615746632218E-003;
2.415166666666667E+009;1.951805502176285E-001;-3.778124973177910E-002;4.008688963949680E-003;-2.705863676965237E-003;
2.415333333333334E+009;1.964302510023117E-001;-3.876043111085892E-002;3.842399222776294E-003;-2.717633964493871E-003;
2.415500000000000E+009;1.976438015699387E-001;-3.958254307508469E-002;3.680624766275287E-003;-2.839149674400687E-003;
2.415666666666667E+009;1.986139267683029E-001;-4.042892903089523E-002;3.583889454603195E-003;-2.845956943929195E-003;
2.415833333333334E+009;1.994257271289825E-001;-4.099202528595924E-002;3.434887854382396E-003;-3.099934663623571E-003;
2.416000000000000E+009;2.003053873777390E-001;-4.153361916542053E-002;3.339454764500260E-003;-3.302203956991434E-003;
2.416166666666667E+009;2.009664624929428E-001;-4.208201169967651E-002;3.111910074949265E-003;-3.232992952689529E-003;
2.416333333333334E+009;2.015911787748337E-001;-4.221360757946968E-002;3.055840963497758E-003;-3.344444325193763E-003;
2.416500000000000E+009;2.020670175552368E-001;-4.246655479073525E-002;2.975199371576309E-003;-3.267250955104828E-003;
2.416666666666667E+009;2.023069411516190E-001;-4.278780519962311E-002;2.859452273696661E-003;-3.416293999180198E-003;
2.416833333333334E+009;2.024991810321808E-001;-4.286763072013855E-002;2.657850505784154E-003;-3.404988674446940E-003;
2.417000000000000E+009;2.027050852775574E-001;-4.289956390857697E-002;2.722539706155658E-003;-3.691331716254354E-003;
2.417166666666667E+009;2.024699449539185E-001;-4.272092133760452E-002;2.356878016144037E-003;-3.729081247001886E-003;
2.417333333333334E+009;2.021088898181915E-001;-4.253364354372025E-002;2.219024114310741E-003;-3.863882040604949E-003;
2.417500000000000E+009;2.018941044807434E-001;-4.259843006730080E-002;2.105965046212077E-003;-3.873515874147415E-003;
2.417666666666667E+009;2.013725340366364E-001;-4.235717281699181E-002;2.016011858358979E-003;-3.996856510639191E-003;
2.417833333333334E+009;2.010089606046677E-001;-4.218293353915215E-002;1.828695531003177E-003;-3.925921861082315E-003;
2.418000000000000E+009;2.002729773521423E-001;-4.184575006365776E-002;1.754238037392497E-003;-4.086080007255077E-003;
2.418166666666667E+009;1.994722038507462E-001;-4.188462346792221E-002;1.459132763557136E-003;-3.996022976934910E-003;
2.418333333333334E+009;1.985111832618713E-001;-4.160769656300545E-002;1.326911617070437E-003;-4.063487518578768E-003;
2.418500000000000E+009;1.975052058696747E-001;-4.161325097084045E-002;1.430946053005755E-003;-4.001434892416000E-003;
2.418666666666667E+009;1.965841799974442E-001;-4.153133556246758E-002;1.100781606510282E-003;-4.145272541791201E-003;
2.418833333333334E+009;1.952393949031830E-001;-4.171982407569885E-002;1.000890508294106E-003;-4.072277806699276E-003;
2.419000000000000E+009;1.940639913082123E-001;-4.179377108812332E-002;7.428452372550964E-004;-4.143388941884041E-003;
2.419166666666667E+009;1.928689628839493E-001;-4.222858324646950E-002;7.834942662157118E-004;-4.040271975100040E-003;
2.419333333333334E+009;1.915249973535538E-001;-4.272175952792168E-002;5.311290151439607E-004;-4.119481425732374E-003;
2.419500000000000E+009;1.899507939815521E-001;-4.304626956582069E-002;4.208331811241806E-004;-4.002556204795837E-003;
2.419666666666667E+009;1.883524060249329E-001;-4.396162182092667E-002;3.693373000714928E-004;-3.816084936261177E-003;
2.419833333333334E+009;1.866425871849060E-001;-4.466271400451660E-002;2.384037652518600E-004;-3.945880103856325E-003;
2.420000000000000E+009;1.850686073303223E-001;-4.557579010725021E-002;1.853647700045258E-004;-3.900447394698858E-003;
2.420166666666667E+009;1.835479736328125E-001;-4.655911028385162E-002;1.026521858875640E-004;-3.743916517123580E-003;
2.420333333333334E+009;1.817485094070435E-001;-4.769607633352280E-002;-1.124670598073863E-005;-3.575900336727500E-003;
2.420500000000000E+009;1.801424324512482E-001;-4.907990992069244E-002;-5.130100180394948E-005;-3.760574851185083E-003;
2.420666666666667E+009;1.784226596355438E-001;-5.020739138126373E-002;-2.256250591017306E-004;-3.616813104599714E-003;
2.420833333333334E+009;1.769143640995026E-001;-5.172376707196236E-002;-1.728269271552563E-004;-3.729374147951603E-003;
2.421000000000000E+009;1.753650009632111E-001;-5.326313152909279E-002;-2.645213971845806E-004;-3.624367760494351E-003;
2.421166666666667E+009;1.739030331373215E-001;-5.492666363716126E-002;-4.007163224741817E-004;-3.554840106517077E-003;
2.421333333333334E+009;1.722988784313202E-001;-5.657294020056725E-002;-4.859197943005711E-004;-3.549915505573154E-003;
2.421500000000000E+009;1.708407253026962E-001;-5.840578675270081E-002;-6.963608902879059E-004;-3.699281020089984E-003;
2.421666666666667E+009;1.696822196245194E-001;-6.040023639798164E-002;-7.024483056738973E-004;-3.470352152362466E-003;
2.421833333333334E+009;1.684499830007553E-001;-6.226597353816032E-002;-7.197222439572215E-004;-3.417857922613621E-003;
2.422000000000000E+009;1.672461032867432E-001;-6.409525871276856E-002;-9.211518336087465E-004;-3.354672109708190E-003;
2.422166666666667E+009;1.666291207075119E-001;-6.616066396236420E-002;-9.395661763846874E-004;-3.285945393145084E-003;
2.422333333333334E+009;1.655938625335693E-001;-6.817675381898880E-002;-9.472870151512325E-004;-3.329388331621885E-003;
2.422500000000000E+009;1.648700088262558E-001;-7.011874765157700E-002;-1.031541498377919E-003;-3.189299488440156E-003;
2.422666666666667E+009;1.640977114439011E-001;-7.211900502443314E-002;-9.387757163494825E-004;-3.151059150695801E-003;
2.422833333333334E+009;1.636941730976105E-001;-7.425622642040253E-002;-1.180649618618190E-003;-3.101067850366235E-003;
2.423000000000000E+009;1.631482392549515E-001;-7.636003196239471E-002;-1.273185946047306E-003;-3.081138478592038E-003;
2.423166666666667E+009;1.629479229450226E-001;-7.827874273061752E-002;-1.235670642927289E-003;-3.004465019330382E-003;
2.423333333333334E+009;1.627328097820282E-001;-8.016704767942429E-002;-1.302284654229879E-003;-3.079552203416824E-003;
2.423500000000000E+009;1.626594513654709E-001;-8.210677653551102E-002;-1.156609505414963E-003;-3.022492630407214E-003;
2.423666666666667E+009;1.627569496631622E-001;-8.399178087711334E-002;-1.458739163354039E-003;-3.046531928703189E-003;
2.423833333333334E+009;1.626631319522858E-001;-8.576258271932602E-002;-1.619770657271147E-003;-3.123053815215826E-003;
2.424000000000000E+009;1.629186123609543E-001;-8.761331439018250E-002;-1.575487083755434E-003;-3.101516515016556E-003;
2.424166666666667E+009;1.630103886127472E-001;-8.917828649282455E-002;-1.783145591616631E-003;-3.114797407761216E-003;
2.424333333333334E+009;1.633514165878296E-001;-9.065121412277222E-002;-1.710865646600723E-003;-3.003472927957773E-003;
2.424500000000000E+009;1.636333167552948E-001;-9.251712262630463E-002;-1.964995404705405E-003;-3.097925800830126E-003;
2.424666666666667E+009;1.639496684074402E-001;-9.382922202348709E-002;-2.072404371574521E-003;-2.877200022339821E-003;
2.424833333333334E+009;1.646076738834381E-001;-9.505318850278854E-002;-2.330670366063714E-003;-2.832223894074559E-003;
2.425000000000000E+009;1.647849529981613E-001;-9.639140218496323E-002;-2.301933476701379E-003;-2.751892665401101E-003;
2.425166666666667E+009;1.652809530496597E-001;-9.752700477838516E-002;-2.645415253937244E-003;-2.510430989786983E-003;
2.425333333333334E+009;1.655577272176743E-001;-9.840857237577438E-002;-2.624226501211524E-003;-2.519699279218912E-003;
2.425500000000000E+009;1.661390662193298E-001;-9.943705797195435E-002;-2.535402774810791E-003;-2.290388336405158E-003;
2.425666666666667E+009;1.666172295808792E-001;-1.001256555318832E-001;-2.800253219902515E-003;-2.168599050492048E-003;
2.425833333333334E+009;1.668863445520401E-001;-1.008569896221161E-001;-2.735116286203265E-003;-1.973205013200641E-003;
2.426000000000000E+009;1.673448681831360E-001;-1.014154329895973E-001;-2.800940303131938E-003;-1.864585210569203E-003;
2.426166666666667E+009;1.678645759820938E-001;-1.018306910991669E-001;-2.844073111191392E-003;-1.757809193804860E-003;
2.426333333333334E+009;1.678973138332367E-001;-1.024234890937805E-001;-2.858983818441629E-003;-1.617743051610887E-003;
2.426500000000000E+009;1.683059930801392E-001;-1.027098447084427E-001;-2.894513076171279E-003;-1.606059493497014E-003;
2.426666666666667E+009;1.686462163925171E-001;-1.029100120067596E-001;-2.713912166655064E-003;-1.566971535794437E-003;
2.426833333333334E+009;1.688705086708069E-001;-1.032311320304871E-001;-2.779478440061212E-003;-1.425618305802345E-003;
2.427000000000000E+009;1.687789857387543E-001;-1.034494116902351E-001;-2.790442667901516E-003;-1.381730660796166E-003;
2.427166666666667E+009;1.688318997621536E-001;-1.034494191408157E-001;-2.883905544877052E-003;-1.175633398815990E-003;
2.427333333333334E+009;1.687732040882111E-001;-1.037657260894775E-001;-2.831414807587862E-003;-1.124378875829279E-003;
2.427500000000000E+009;1.685070544481278E-001;-1.037878841161728E-001;-2.886783564463258E-003;-1.025692094117403E-003;
2.427666666666667E+009;1.681210398674011E-001;-1.039280146360397E-001;-2.945616841316223E-003;-1.018842682242394E-003;
2.427833333333334E+009;1.677640229463577E-001;-1.040490791201592E-001;-2.759545575827360E-003;-7.839385070838034E-004;
