# Version 1.00
#
freq[Hz];re:Trc1_S11;im:Trc1_S11;re:Trc2_S21;im:Trc2_S21;
2.400000000000000E+009;1.585612148046494E-001;6.282989680767059E-002;-2.078819554299116E-003;-2.780440030619502E-003;
2.400166666666667E+009;1.583156138658524E-001;6.132239848375320E-002;-2.177461748942733E-003;-2.694959752261639E-003;
2.400333333333334E+009;1.580314189195633E-001;5.947843566536903E-002;-2.122623613104224E-003;-2.921160310506821E-003;
2.400500000000000E+009;1.581429392099381E-001;5.748338997364044E-002;-2.081503393128514E-003;-2.904490567743778E-003;
2.400666666666667E+009;1.578987091779709E-001;5.557984486222267E-002;-2.190668601542711E-003;-2.762504853308201E-003;
2.400833333333334E+009;1.579630672931671E-001;5.378710851073265E-002;-2.361385617405176E-003;-2.968504559248686E-003;
2.401000000000000E+009;1.580338329076767E-001;5.170803144574165E-002;-2.381340833380818E-003;-2.836662111803889E-003;
2.401166666666667E+009;1.581515669822693E-001;4.949357360601425E-002;-2.464294200763106E-003;-2.907227724790573E-003;
2.401333333333334E+009;1.582091003656387E-001;4.748148098587990E-002;-2.408595057204366E-003;-2.912301570177078E-003;
2.401500000000000E+009;1.584750562906265E-001;4.554512724280357E-002;-2.601521555334330E-003;-2.759401220828295E-003;
2.401666666666667E+009;1.586850434541702E-001;4.346616566181183E-002;-2.771834144368768E-003;-2.963856793940067E-003;
2.401833333333334E+009;1.590826064348221E-001;4.148203507065773E-002;-2.751501742750406E-003;-2.787819830700755E-003;
2.402000000000000E+009;1.593208611011505E-001;3.942038491368294E-002;-2.988044871017337E-003;-2.950033638626337E-003;
2.402166666666667E+009;1.597785800695419E-001;3.724379837512970E-002;-2.925946610048413E-003;-2.721058670431376E-003;
2.402333333333334E+009;1.604758948087692E-001;3.533979132771492E-002;-3.269420703873038E-003;-2.980850404128432E-003;
2.402500000000000E+009;1.612012386322022E-001;3.378116711974144E-002;-3.455464262515307E-003;-2.873791148886085E-003;
2.402666666666667E+009;1.617063581943512E-001;3.174329549074173E-002;-3.564340760931373E-003;-2.886622678488493E-003;
2.402833333333334E+009;1.624334454536438E-001;2.986454777419567E-002;-3.748574061319232E-003;-2.777887973934412E-003;
2.403000000000000E+009;1.632685214281082E-001;2.830358408391476E-002;-3.867420367896557E-003;-2.615504665300250E-003;
2.403166666666667E+009;1.642971038818359E-001;2.653852105140686E-002;-3.894839202985168E-003;-2.504279837012291E-003;
2.403333333333334E+009;1.652014404535294E-001;2.514039166271687E-002;-4.234022460877895E-003;-2.527851844206452E-003;
2.403500000000000E+009;1.658250987529755E-001;2.384195849299431E-002;-4.446981009095907E-003;-2.218742156401277E-003;
2.403666666666667E+009;1.666917502880096E-001;2.218271605670452E-002;-4.498714115470648E-003;-2.339224331080914E-003;
2.403833333333334E+009;1.679712831974030E-001;2.087345533072949E-002;-4.574313759803772E-003;-2.168793231248856E-003;
2.404000000000000E+009;1.687820255756378E-001;1.988883316516876E-002;-4.993142560124397E-003;-1.929894555360079E-003;
2.404166666666667E+009;1.697951406240463E-001;1.844372786581516E-002;-5.036618094891310E-003;-1.622836687602103E-003;
2.404333333333334E+009;1.706817299127579E-001;1.745348237454891E-002;-5.268635693937540E-003;-1.484339823946357E-003;
2.404500000000000E+009;1.715724915266037E-001;1.653837226331234E-002;-5.222021136432886E-003;-1.299781957641244E-003;
2.404666666666667E+009;1.727555245161057E-001;1.558454148471355E-002;-5.510503426194191E-003;-1.076757092960179E-003;
2.404833333333334E+009;1.736162900924683E-001;1.461775414645672E-002;-5.418032873421907E-003;-9.651941945776343E-004;
2.405000000000000E+009;1.745370626449585E-001;1.405312679708004E-002;-5.612397566437721E-003;-5.756503669545054E-004;
2.405166666666667E+009;1.752901077270508E-001;1.328900083899498E-002;-5.643769167363644E-003;-4.075425968039781E-004;
2.405333333333334E+009;1.762874126434326E-001;1.251618377864361E-002;-5.599212832748890E-003;8.914023783290759E-005;
2.405500000000000E+009;1.769943833351135E-001;1.223181746900082E-002;-5.533649586141110E-003;-2.141559707524721E-005;
2.405666666666667E+009;1.777080446481705E-001;1.158915087580681E-002;-5.670592188835144E-003;4.171353648416698E-004;
2.405833333333334E+009;1.782708615064621E-001;1.119139976799488E-002;-5.640016403049231E-003;6.377811660058796E-004;
2.406000000000000E+009;1.788539886474609E-001;1.081785373389721E-002;-5.559036508202553E-003;8.662648033350706E-004;
2.406166666666667E+009;1.793079823255539E-001;1.052027847617865E-002;-5.479238927364349E-003;9.294499177485704E-004;
2.406333333333334E+009;1.800273209810257E-001;1.018035411834717E-002;-5.460351239889860E-003;1.303500379435718E-003;
2.406500000000000E+009;1.802455484867096E-001;9.760402143001556E-003;-5.406319629400969E-003;1.541224773973227E-003;
2.406666666666667E+009;1.804323047399521E-001;9.511386044323444E-003;-5.286338739097118E-003;1.716588740237057E-003;
2.406833333333334E+009;1.805873662233353E-001;9.146508760750294E-003;-5.201748572289944E-003;1.870476873591542E-003;
2.407000000000000E+009;1.808699518442154E-001;8.769299834966660E-003;-5.123684182763100E-003;2.086739754304290E-003;
2.407166666666667E+009;1.809622645378113E-001;8.639893494546413E-003;-5.120106507092714E-003;2.124717691913247E-003;
2.407333333333334E+009;1.808087676763535E-001;8.196948096156120E-003;-4.818811081349850E-003;2.414247021079063E-003;
2.407500000000000E+009;1.807719767093658E-001;7.814073003828526E-003;-4.731445107609034E-003;2.697622636333108E-003;
2.407666666666667E+009;1.806051582098007E-001;7.419058587402105E-003;-4.722221288830042E-003;2.720394404605031E-003;
2.407833333333334E+009;1.800921857357025E-001;6.693264003843069E-003;-4.579802509397268E-003;2.796537475660443E-003;
2.408000000000000E+009;1.798916161060333E-001;6.122245918959379E-003;-4.361611325293779E-003;2.969868946820498E-003;
2.408166666666667E+009;1.795061379671097E-001;5.702333059161902E-003;-4.522853530943394E-003;3.171909134835005E-003;
2.408333333333334E+009;1.792394667863846E-001;4.974868148565292E-003;-4.442870616912842E-003;3.174401121214032E-003;
2.408500000000000E+009;1.784949749708176E-001;4.202865529805422E-003;-4.255235660821199E-003;3.391386475414038E-003;
2.408666666666667E+009;1.781572848558426E-001;3.350202692672610E-003;-4.053218755871058E-003;3.467755625024438E-003;
2.408833333333334E+009;1.772008240222931E-001;2.516649896278977E-003;-3.944534342736006E-003;3.642751835286617E-003;
2.409000000000000E+009;1.765460520982742E-001;1.532865804620087E-003;-3.811632748693228E-003;3.755234414711595E-003;
2.409166666666667E+009;1.761014461517334E-001;5.045932484790683E-004;-3.645254997536540E-003;3.753470256924629E-003;
2.409333333333334E+009;1.755046099424362E-001;-7.274241652339697E-004;-3.745283233001828E-003;3.919199574738741E-003;
2.409500000000000E+009;1.747535616159439E-001;-2.126875333487988E-003;-3.479525912553072E-003;4.148186184465885E-003;
2.409666666666667E+009;1.739321649074554E-001;-3.395317588001490E-003;-3.431195858865976E-003;4.036544356495142E-003;
2.409833333333334E+009;1.732642352581024E-001;-4.527379758656025E-003;-3.270422341302037E-003;4.199577029794455E-003;
2.410000000000000E+009;1.727414876222611E-001;-6.079634651541710E-003;-3.230667207390070E-003;4.387860652059317E-003;
2.410166666666667E+009;1.719421595335007E-001;-7.671560160815716E-003;-3.027735045179725E-003;4.484421107918024E-003;
2.410333333333334E+009;1.713105738162994E-001;-9.175139479339123E-003;-2.872660290449858E-003;4.424777347594500E-003;
2.410500000000000E+009;1.707517206668854E-001;-1.102424506098032E-002;-2.667029388248920E-003;4.584963899105787E-003;
2.410666666666667E+009;1.701340973377228E-001;-1.277802325785160E-002;-2.538874978199601E-003;4.646920599043369E-003;
2.410833333333334E+009;1.697277724742889E-001;-1.441432535648346E-002;-2.420873846858740E-003;4.926281981170178E-003;
2.411000000000000E+009;1.693133264780045E-001;-1.623201370239258E-002;-2.344289328902960E-003;4.831514786928892E-003;
2.411166666666667E+009;1.689234375953674E-001;-1.797823607921600E-002;-2.280521672219038E-003;4.987806547433138E-003;
2.411333333333334E+009;1.685959845781326E-001;-1.998016424477100E-002;-1.974039943888784E-003;5.031107924878597E-003;
2.411500000000000E+009;1.684081852436066E-001;-2.204428985714912E-002;-1.910216407850385E-003;5.183989182114601E-003;
2.411666666666667E+009;1.683638989925385E-001;-2.382900379598141E-002;-1.658792723901570E-003;5.400592461228371E-003;
2.411833333333334E+009;1.681656241416931E-001;-2.585156261920929E-002;-1.500088023021817E-003;5.279552657157183E-003;
2.412000000000000E+009;1.683683395385742E-001;-2.779722586274147E-002;-1.295363879762590E-003;5.419630557298660E-003;
2.412166666666667E+009;1.682602316141129E-001;-2.979706041514874E-002;-1.240296056494117E-003;5.610420368611813E-003;
2.412333333333334E+009;1.685103625059128E-001;-3.151915967464447E-002;-1.005238736979663E-003;5.597595125436783E-003;
2.412500000000000E+009;1.685397326946259E-001;-3.348847851157188E-002;-7.667653844691813E-004;5.688350647687912E-003;
2.412666666666667E+009;1.689058244228363E-001;-3.548751026391983E-002;-5.309071857482195E-004;5.803040228784084E-003;
2.412833333333334E+009;1.691960692405701E-001;-3.728665411472321E-002;-3.205183602403849E-004;5.694954190403223E-003;
2.413000000000000E+009;1.696628630161285E-001;-3.928103670477867E-002;-1.155392747023143E-004;5.673339124768972E-003;
2.413166666666667E+009;1.699018329381943E-001;-4.112442955374718E-002;2.387939312029630E-004;5.989416968077421E-003;
2.413333333333334E+009;1.704289019107819E-001;-4.272624105215073E-002;5.763610824942589E-004;5.776067264378071E-003;
2.413500000000000E+009;1.708364635705948E-001;-4.443549364805222E-002;5.711156991310418E-004;5.911714397370815E-003;
2.413666666666667E+009;1.714510917663574E-001;-4.608707875013351E-002;9.355545626021922E-004;5.797823425382376E-003;
2.413833333333334E+009;1.717963069677353E-001;-4.765194654464722E-002;1.274088048376143E-003;5.684579722583294E-003;
2.414000000000000E+009;1.722450256347656E-001;-4.910663515329361E-002;1.296831993386149E-003;5.718612577766180E-003;
2.414166666666667E+009;1.728904396295548E-001;-5.035234615206718E-002;1.752218231558800E-003;5.571485497057438E-003;
2.414333333333334E+009;1.735067963600159E-001;-5.166986957192421E-002;1.883207005448639E-003;5.526016000658274E-003;
2.414500000000000E+009;1.742739677429199E-001;-5.289354547858238E-002;2.134395763278008E-003;5.406399723142386E-003;
2.414666666666667E+009;1.745354831218720E-001;-5.392944812774658E-002;2.510949969291687E-003;5.385889206081629E-003;
2.414833333333334E+009;1.748636662960053E-001;-5.501131340861321E-002;2.736070659011602E-003;5.264337640255690E-003;
2.415000000000000E+009;1.754129379987717E-001;-5.584971234202385E-002;3.046954749152064E-003;5.212023854255676E-003;
2.415166666666667E+009;1.757771968841553E-001;-5.687683820724487E-002;3.032266395166516E-003;4.953281022608280E-003;
2.415333333333334E+009;1.763372272253037E-001;-5.756838992238045E-002;3.346623154357076E-003;4.770664963871241E-003;
2.415500000000000E+009;1.766652613878250E-001;-5.820437893271446E-002;3.387160832062364E-003;4.402278456836939E-003;
2.415666666666667E+009;1.769032478332520E-001;-5.881995707750320E-002;3.600709140300751E-003;4.404503852128983E-003;
2.415833333333334E+009;1.772480905056000E-001;-5.926788970828056E-002;3.683438990265131E-003;4.113905131816864E-003;
2.416000000000000E+009;1.772402077913284E-001;-5.981693416833878E-002;3.884630510583520E-003;3.994787111878395E-003;
2.416166666666667E+009;1.775364130735397E-001;-6.014145538210869E-002;4.045943729579449E-003;3.832026850432158E-003;
2.416333333333334E+009;1.775079369544983E-001;-6.041655689477921E-002;4.123901017010212E-003;3.465042449533939E-003;
2.416500000000000E+009;1.774224787950516E-001;-6.092128157615662E-002;4.308940842747688E-003;3.256934694945812E-003;
2.416666666666667E+009;1.772134751081467E-001;-6.119963526725769E-002;4.392243456095457E-003;3.143779467791319E-003;
2.416833333333334E+009;1.770276278257370E-001;-6.134631857275963E-002;4.508674610406160E-003;2.876659855246544E-003;
2.417000000000000E+009;1.764310896396637E-001;-6.163657084107399E-002;4.476917907595635E-003;2.671613125130534E-003;
2.417166666666667E+009;1.761110126972199E-001;-6.170382723212242E-002;4.518817178905010E-003;2.435725182294846E-003;
2.417333333333334E+009;1.756720691919327E-001;-6.189608573913574E-002;4.540721885859966E-003;2.394304145127535E-003;
2.417500000000000E+009;1.749520748853684E-001;-6.235973164439201E-002;4.561770241707563E-003;2.121945144608617E-003;
2.417666666666667E+009;1.745397895574570E-001;-6.243964284658432E-002;4.424512386322022E-003;1.840216224081814E-003;
2.417833333333334E+009;1.737207472324371E-001;-6.257561594247818E-002;4.544088616967201E-003;1.699450192973018E-003;
2.418000000000000E+009;1.728417575359345E-001;-6.298722326755524E-002;4.447140265256167E-003;1.674375613220036E-003;
2.418166666666667E+009;1.718563586473465E-001;-6.312833726406097E-002;4.544561263173819E-003;1.441282802261412E-003;
2.418333333333334E+009;1.712645143270493E-001;-6.364911794662476E-002;4.469660576432943E-003;1.318310271017253E-003;
2.418500000000000E+009;1.699881404638290E-001;-6.378880888223648E-002;4.436149727553129E-003;9.933536639437079E-004;
2.418666666666667E+009;1.690278947353363E-001;-6.451015919446945E-002;4.487518686801195E-003;1.036101602949202E-003;
2.418833333333334E+009;1.678569912910461E-001;-6.484730541706085E-002;4.396207630634308E-003;7.123539689928293E-004;
2.419000000000000E+009;1.666909754276276E-001;-6.545603275299072E-002;4.414323251694441E-003;6.261163507588208E-004;
2.419166666666667E+009;1.655680984258652E-001;-6.604305654764175E-002;4.290100652724505E-003;6.002986337989569E-004;
2.419333333333334E+009;1.642946749925613E-001;-6.640000641345978E-002;4.268984775990248E-003;3.473291581030935E-004;
2.419500000000000E+009;1.631254255771637E-001;-6.760136783123016E-002;4.512536339461803E-003;1.970299053937197E-004;
2.419666666666667E+009;1.620558202266693E-001;-6.843235343694687E-002;4.264122340828180E-003;9.208152187056840E-005;
2.419833333333334E+009;1.607906073331833E-001;-6.901312619447708E-002;4.200260154902935E-003;-2.245791620225646E-006;
2.420000000000000E+009;1.598075181245804E-001;-7.027034461498261E-002;4.157164599746466E-003;-5.092504943604581E-005;
2.420166666666667E+009;1.585293561220169E-001;-7.135386765003204E-002;4.206170793622732E-003;-1.968147989828140E-004;
2.420333333333334E+009;1.575083732604981E-001;-7.241886854171753E-002;4.176786169409752E-003;-4.519100184552372E-004;
2.420500000000000E+009;1.564995944499970E-001;-7.346810400485992E-002;4.118642769753933E-003;-5.325993406586349E-004;
2.420666666666667E+009;1.555412411689758E-001;-7.474093884229660E-002;3.954511135816574E-003;-6.524226628243923E-004;
2.420833333333334E+009;1.544933170080185E-001;-7.626100629568100E-002;3.903584321960807E-003;-5.882307305000722E-004;
2.421000000000000E+009;1.535905748605728E-001;-7.761512696743012E-002;3.848084248602390E-003;-8.723520440980792E-004;
2.421166666666667E+009;1.528605073690414E-001;-7.910759001970291E-002;3.950014244765043E-003;-8.936245576478541E-004;
2.421333333333334E+009;1.522269845008850E-001;-8.066861331462860E-002;3.748113522306085E-003;-1.079873996786773E-003;
2.421500000000000E+009;1.514883190393448E-001;-8.218789100646973E-002;3.697498003020883E-003;-1.103223068639636E-003;
2.421666666666667E+009;1.509453654289246E-001;-8.385937660932541E-002;3.596200142055750E-003;-1.283917226828635E-003;
2.421833333333334E+009;1.505825519561768E-001;-8.564590662717819E-002;3.679623594507575E-003;-1.508454559370875E-003;
2.422000000000000E+009;1.501753926277161E-001;-8.705245703458786E-002;3.571044420823455E-003;-1.499331439845264E-003;
2.422166666666667E+009;1.497785001993179E-001;-8.900254964828491E-002;3.443463705480099E-003;-1.570823136717081E-003;
2.422333333333334E+009;1.495624184608460E-001;-9.066509455442429E-002;3.400931600481272E-003;-1.775732380338013E-003;
2.422500000000000E+009;1.493932008743286E-001;-9.204304218292236E-002;3.467258997261524E-003;-1.875176792964339E-003;
2.422666666666667E+009;1.492922455072403E-001;-9.397917985916138E-002;3.124795854091644E-003;-1.995635451748967E-003;
2.422833333333334E+009;1.494079381227493E-001;-9.575678408145905E-002;3.057129913941026E-003;-2.097884425893426E-003;
2.423000000000000E+009;1.495518237352371E-001;-9.736350178718567E-002;2.702918369323015E-003;-2.104765269905329E-003;
2.423166666666667E+009;1.497310996055603E-001;-9.912141412496567E-002;2.816962078213692E-003;-2.258213469758630E-003;
2.423333333333334E+009;1.500076651573181E-001;-1.004437431693077E-001;2.725122729316354E-003;-2.308829687535763E-003;
2.423500000000000E+009;1.501319408416748E-001;-1.022575497627258E-001;2.482093637809157E-003;-2.336052013561130E-003;
2.423666666666667E+009;1.503982245922089E-001;-1.037802770733833E-001;2.392816357314587E-003;-2.370145637542009E-003;
2.423833333333334E+009;1.510555744171143E-001;-1.052027866244316E-001;2.390711335465312E-003;-2.407390391454101E-003;
2.424000000000000E+009;1.512492448091507E-001;-1.065183877944946E-001;2.060432452708483E-003;-2.477459609508514E-003;
2.424166666666667E+009;1.516623944044113E-001;-1.080119162797928E-001;1.992501085624099E-003;-2.527701901271939E-003;
2.424333333333334E+009;1.521487981081009E-001;-1.090826168656349E-001;2.002223161980510E-003;-2.666835905984044E-003;
2.424500000000000E+009;1.526136249303818E-001;-1.102322712540627E-001;1.805055420845747E-003;-2.477979985997081E-003;
2.424666666666667E+009;1.532211005687714E-001;-1.112427935004234E-001;1.692335936240852E-003;-2.660276601091027E-003;
2.424833333333334E+009;1.534796208143234E-001;-1.123483702540398E-001;1.524324761703610E-003;-2.476093359291554E-003;
2.425000000000000E+009;1.541603207588196E-001;-1.133108511567116E-001;1.278968527913094E-003;-2.685044892132282E-003;
2.425166666666667E+009;1.543479859828949E-001;-1.142720654606819E-001;1.216583768837154E-003;-2.390932990238071E-003;
2.425333333333334E+009;1.548512876033783E-001;-1.148808076977730E-001;1.179847866296768E-003;-2.612889977172017E-003;
2.425500000000000E+009;1.554245948791504E-001;-1.157797276973724E-001;1.105530885979533E-003;-2.601146930828691E-003;
2.425666666666667E+009;1.555494368076325E-001;-1.164481416344643E-001;1.033902517519891E-003;-2.473008120432496E-003;
2.425833333333334E+009;1.558373719453812E-001;-1.170101538300514E-001;8.381425286643207E-004;-2.595408121123910E-003;
2.426000000000000E+009;1.560618877410889E-001;-1.174336820840836E-001;8.451745961792767E-004;-2.369332825765014E-003;
2.426166666666667E+009;1.563367545604706E-001;-1.179240047931671E-001;6.965565844438970E-004;-2.496718429028988E-003;
2.426333333333334E+009;1.563865840435028E-001;-1.183010414242744E-001;7.076989277265966E-004;-2.407877473160625E-003;
2.426500000000000E+009;1.563633978366852E-001;-1.186489760875702E-001;6.166145903989673E-004;-2.357727615162730E-003;
2.426666666666667E+009;1.564677208662033E-001;-1.186125427484512E-001;6.082030013203621E-004;-2.358087804168463E-003;
2.426833333333334E+009;1.562945693731308E-001;-1.189077049493790E-001;4.176608345005661E-004;-2.216397318989039E-003;
2.427000000000000E+009;1.559847593307495E-001;-1.191715076565743E-001;2.476580848451704E-004;-2.206329489126802E-003;
2.427166666666667E+009;1.556912511587143E-001;-1.191681697964668E-001;2.714122529141605E-004;-2.153545618057251E-003;
2.427333333333334E+009;1.551739871501923E-001;-1.193497776985169E-001;2.116820687660947E-004;-2.054736251011491E-003;
2.427500000000000E+009;1.547795981168747E-001;-1.194476559758186E-001;2.796871995087713E-004;-2.007626229897142E-003;
2.427666666666667E+009;1.541020125150681E-001;-1.196239739656448E-001;1.297654962399975E-004;-1.970975426957011E-003;
