# Version 1.00
#
freq[Hz];re:Trc1_S11;im:Trc1_S11;re:Trc2_S21;im:Trc2_S21;
2.400000000000000E+009;1.584417521953583E-001;6.291615962982178E-002;-1.995226601138711E-003;-2.986065344884992E-003;
2.400166666666667E+009;1.582835614681244E-001;6.141820177435875E-002;-1.896048313938081E-003;-2.900526393204927E-003;
2.400333333333334E+009;1.582210510969162E-001;5.941032990813255E-002;-2.059109974652529E-003;-2.870001364499331E-003;
2.400500000000000E+009;1.581413149833679E-001;5.769336968660355E-002;-2.194477710872889E-003;-2.838757587596774E-003;
2.400666666666667E+009;1.580322980880737E-001;5.571894347667694E-002;-2.280493965372443E-003;-2.867359435185790E-003;
2.400833333333334E+009;1.580459028482437E-001;5.384835973381996E-002;-2.213236643001437E-003;-2.846148563548923E-003;
2.401000000000000E+009;1.580315381288528E-001;5.174560844898224E-002;-2.269976772367954E-003;-3.048270242288709E-003;
2.401166666666667E+009;1.582661420106888E-001;4.973201826214790E-002;-2.485879464074969E-003;-3.159307874739170E-003;
2.401333333333334E+009;1.583162397146225E-001;4.764488339424133E-002;-2.401154022663832E-003;-2.944328589364886E-003;
2.401500000000000E+009;1.585616618394852E-001;4.561615735292435E-002;-2.502223476767540E-003;-2.998755779117346E-003;
2.401666666666667E+009;1.587835401296616E-001;4.377834498882294E-002;-2.731881570070982E-003;-3.070159582421184E-003;
2.401833333333334E+009;1.591636538505554E-001;4.143653437495232E-002;-2.878018189221621E-003;-2.997861709445715E-003;
2.402000000000000E+009;1.595484316349030E-001;3.945969045162201E-002;-2.895414130762219E-003;-2.950417809188366E-003;
2.402166666666667E+009;1.599287092685700E-001;3.731864690780640E-002;-3.093027509748936E-003;-2.916420111432672E-003;
2.402333333333334E+009;1.605067551136017E-001;3.553164750337601E-002;-3.316555870696902E-003;-3.069491125643253E-003;
2.402500000000000E+009;1.612628400325775E-001;3.365625441074371E-002;-3.363301744684577E-003;-2.922931686043739E-003;
2.402666666666667E+009;1.618931442499161E-001;3.189916908740997E-002;-3.561849240213633E-003;-2.962712664157152E-003;
2.402833333333334E+009;1.625186353921890E-001;3.017412871122360E-002;-3.628807142376900E-003;-2.822744892910123E-003;
2.403000000000000E+009;1.634750813245773E-001;2.842211164534092E-002;-3.795593744143844E-003;-2.825243864208460E-003;
2.403166666666667E+009;1.644296795129776E-001;2.705019712448120E-002;-4.187798127532005E-003;-2.689763903617859E-003;
2.403333333333334E+009;1.652847230434418E-001;2.540128305554390E-002;-4.151511937379837E-003;-2.711134962737560E-003;
2.403500000000000E+009;1.659831404685974E-001;2.382843568921089E-002;-4.201764706522226E-003;-2.637475496158004E-003;
2.403666666666667E+009;1.669386774301529E-001;2.237538993358612E-002;-4.670453257858753E-003;-2.343683969229460E-003;
2.403833333333334E+009;1.679248958826065E-001;2.102050185203552E-002;-4.845943767577410E-003;-2.296887803822756E-003;
2.404000000000000E+009;1.689250469207764E-001;1.982286199927330E-002;-4.919647239148617E-003;-2.100254641845822E-003;
2.404166666666667E+009;1.698901355266571E-001;1.861678250133991E-002;-5.061288829892874E-003;-1.806573593057692E-003;
2.404333333333334E+009;1.707540303468704E-001;1.766055449843407E-002;-5.283103324472904E-003;-1.731978030875325E-003;
2.404500000000000E+009;1.716272830963135E-001;1.636039279401302E-002;-5.433368496596813E-003;-1.416568295098841E-003;
2.404666666666667E+009;1.727793961763382E-001;1.560874562710524E-002;-5.372770596295595E-003;-1.115920604206622E-003;
2.404833333333334E+009;1.736296415328980E-001;1.483754161745310E-002;-5.489268340170384E-003;-9.420104324817658E-004;
2.405000000000000E+009;1.744672954082489E-001;1.393036730587483E-002;-5.455006379634142E-003;-6.354195647872984E-004;
2.405166666666667E+009;1.753910779953003E-001;1.323166768997908E-002;-5.531442351639271E-003;-3.293113259132952E-004;
2.405333333333334E+009;1.762905418872833E-001;1.245555933564901E-002;-5.857102107256651E-003;-1.735414989525452E-004;
2.405500000000000E+009;1.770360767841339E-001;1.205633021891117E-002;-5.542678758502007E-003;1.457721082260832E-004;
2.405666666666667E+009;1.778406053781509E-001;1.165168732404709E-002;-5.673317704349756E-003;3.685911069624126E-004;
2.405833333333334E+009;1.782763302326202E-001;1.133403833955526E-002;-5.612489301711321E-003;6.569526158273220E-004;
2.406000000000000E+009;1.789796054363251E-001;1.068115513771772E-002;-5.580433644354343E-003;9.925913764163852E-004;
2.406166666666667E+009;1.793633401393890E-001;1.057702768594027E-002;-5.558805074542761E-003;1.054822700098157E-003;
2.406333333333334E+009;1.800345480442047E-001;1.006709970533848E-002;-5.467503797262907E-003;1.454899436794221E-003;
2.406500000000000E+009;1.801564693450928E-001;9.845776483416557E-003;-5.443159956485033E-003;1.595497829839587E-003;
2.406666666666667E+009;1.803698688745499E-001;9.620355442166328E-003;-5.161500535905361E-003;1.865602796897292E-003;
2.406833333333334E+009;1.807821989059448E-001;9.264191612601280E-003;-5.098832305520773E-003;1.926113385707140E-003;
2.407000000000000E+009;1.808381378650665E-001;8.845175616443157E-003;-5.054879002273083E-003;2.054505050182343E-003;
2.407166666666667E+009;1.811380386352539E-001;8.624591864645481E-003;-4.982629790902138E-003;2.326221903786063E-003;
2.407333333333334E+009;1.809047758579254E-001;8.151398040354252E-003;-4.884484689682722E-003;2.521143527701497E-003;
2.407500000000000E+009;1.807220727205277E-001;7.798865903168917E-003;-4.821784794330597E-003;2.706977771595120E-003;
2.407666666666667E+009;1.806035786867142E-001;7.387408521026373E-003;-4.566209856420755E-003;2.684366656467319E-003;
2.407833333333334E+009;1.802187711000443E-001;6.832004524767399E-003;-4.712739493697882E-003;2.684222767129540E-003;
2.408000000000000E+009;1.799369305372238E-001;6.252828519791365E-003;-4.535078536719084E-003;2.981512807309628E-003;
2.408166666666667E+009;1.795440316200256E-001;5.775183904916048E-003;-4.320340696722269E-003;3.184708068147302E-003;
2.408333333333334E+009;1.792710423469544E-001;5.191647913306952E-003;-4.293764941394329E-003;3.078573150560260E-003;
2.408500000000000E+009;1.786687821149826E-001;4.213395994156599E-003;-4.181084688752890E-003;3.393372753635049E-003;
2.408666666666667E+009;1.780488789081574E-001;3.272433299571276E-003;-4.104167222976685E-003;3.473748685792089E-003;
2.408833333333334E+009;1.774570494890213E-001;2.519202884286642E-003;-3.835305105894804E-003;3.559715114533901E-003;
2.409000000000000E+009;1.766170859336853E-001;1.485245185904205E-003;-4.013558849692345E-003;3.584149293601513E-003;
2.409166666666667E+009;1.761562526226044E-001;5.151297664269805E-004;-3.698470536619425E-003;3.706516232341528E-003;
2.409333333333334E+009;1.754999905824661E-001;-8.247721707448363E-004;-3.607549471780658E-003;3.860023571178317E-003;
2.409500000000000E+009;1.747059673070908E-001;-2.042614389210939E-003;-3.501190803945065E-003;4.016819875687361E-003;
2.409666666666667E+009;1.741177886724472E-001;-3.330747131258249E-003;-3.418616717681289E-003;4.169052001088858E-003;
2.409833333333334E+009;1.733149886131287E-001;-4.642457701265812E-003;-3.274404210969806E-003;4.267939366400242E-003;
2.410000000000000E+009;1.727510690689087E-001;-6.142624188214541E-003;-3.165292786434293E-003;4.264872521162033E-003;
2.410166666666667E+009;1.720270812511444E-001;-7.667638361454010E-003;-3.030545311048627E-003;4.400037694722414E-003;
2.410333333333334E+009;1.713690608739853E-001;-9.234956465661526E-003;-2.910244278609753E-003;4.511081613600254E-003;
2.410500000000000E+009;1.710403710603714E-001;-1.080775726586580E-002;-2.787240548059344E-003;4.600103944540024E-003;
2.410666666666667E+009;1.704012006521225E-001;-1.272875629365444E-002;-2.630931325256825E-003;4.651041235774756E-003;
2.410833333333334E+009;1.699263006448746E-001;-1.434696745127440E-002;-2.534667495638132E-003;4.727298859506846E-003;
2.411000000000000E+009;1.693273782730103E-001;-1.620989851653576E-002;-2.521115820854902E-003;4.834169987589121E-003;
2.411166666666667E+009;1.690431088209152E-001;-1.818775758147240E-002;-2.135545946657658E-003;4.987064749002457E-003;
2.411333333333334E+009;1.687042862176895E-001;-2.006506174802780E-002;-1.870783278718591E-003;5.208079703152180E-003;
2.411500000000000E+009;1.683989465236664E-001;-2.198097482323647E-002;-1.913616666570306E-003;5.117729771882296E-003;
2.411666666666667E+009;1.684725284576416E-001;-2.389752678573132E-002;-1.508498564362526E-003;5.350944120436907E-003;
2.411833333333334E+009;1.682747304439545E-001;-2.579233050346375E-002;-1.576106995344162E-003;5.342325661331415E-003;
2.412000000000000E+009;1.684221774339676E-001;-2.773290500044823E-002;-1.490285503678024E-003;5.472786258906126E-003;
2.412166666666667E+009;1.682407557964325E-001;-2.978810295462608E-002;-1.295567257329822E-003;5.596926435828209E-003;
2.412333333333334E+009;1.686041206121445E-001;-3.163480386137962E-002;-1.030392129905522E-003;5.632677115499973E-003;
2.412500000000000E+009;1.685466617345810E-001;-3.366018459200859E-002;-8.849586010910571E-004;5.691807251423597E-003;
2.412666666666667E+009;1.689736396074295E-001;-3.570780903100967E-002;-5.763060180470347E-004;5.721172317862511E-003;
2.412833333333334E+009;1.692292690277100E-001;-3.739634528756142E-002;-5.121323629282415E-004;5.779380444437265E-003;
2.413000000000000E+009;1.695299744606018E-001;-3.935460001230240E-002;-1.393585989717394E-004;5.761504638940096E-003;
2.413166666666667E+009;1.698728054761887E-001;-4.091940447688103E-002;1.502357044955716E-004;5.920794326812029E-003;
2.413333333333334E+009;1.701959520578384E-001;-4.281308129429817E-002;4.978802171535790E-004;5.999753717333078E-003;
2.413500000000000E+009;1.708815842866898E-001;-4.455334693193436E-002;6.443198653869331E-004;5.819872487336397E-003;
2.413666666666667E+009;1.716167181730270E-001;-4.628252238035202E-002;1.032981323078275E-003;5.836475174874067E-003;
2.413833333333334E+009;1.719523966312408E-001;-4.767508432269096E-002;1.144130947068334E-003;5.886734928935766E-003;
2.414000000000000E+009;1.723300367593765E-001;-4.924804344773293E-002;1.422355649992824E-003;5.761353299021721E-003;
2.414166666666667E+009;1.729020774364471E-001;-5.040572211146355E-002;1.791924471035600E-003;5.769822280853987E-003;
2.414333333333334E+009;1.734233349561691E-001;-5.176033452153206E-002;2.051921561360359E-003;5.633149761706591E-003;
2.414500000000000E+009;1.741706579923630E-001;-5.299130827188492E-002;2.235903870314360E-003;5.412979982793331E-003;
2.414666666666667E+009;1.745903640985489E-001;-5.397612974047661E-002;2.426544670015574E-003;5.613736342638731E-003;
2.414833333333334E+009;1.749584972858429E-001;-5.512364953756332E-002;2.794341417029500E-003;5.078902468085289E-003;
2.415000000000000E+009;1.753725856542587E-001;-5.599904060363770E-002;2.948206150904298E-003;5.086487159132958E-003;
2.415166666666667E+009;1.758629381656647E-001;-5.686130374670029E-002;3.035413101315498E-003;4.968958906829357E-003;
2.415333333333334E+009;1.763705164194107E-001;-5.772221088409424E-002;3.188154194504023E-003;4.761029966175556E-003;
2.415500000000000E+009;1.766992509365082E-001;-5.828765779733658E-002;3.486377885565162E-003;4.662183113396168E-003;
2.415666666666667E+009;1.769876033067703E-001;-5.883207172155380E-002;3.542047925293446E-003;4.317564889788628E-003;
2.415833333333334E+009;1.771021932363510E-001;-5.939826741814613E-002;3.818939439952374E-003;4.178344737738371E-003;
2.416000000000000E+009;1.771001070737839E-001;-5.980486422777176E-002;3.998251631855965E-003;3.982886206358671E-003;
2.416166666666667E+009;1.774545311927795E-001;-6.016052886843681E-002;4.020385909825563E-003;3.748715622350574E-003;
2.416333333333334E+009;1.773672103881836E-001;-6.049056723713875E-002;4.233656451106072E-003;3.626187564805150E-003;
2.416500000000000E+009;1.772953718900681E-001;-6.093866005539894E-002;4.188567399978638E-003;3.373617306351662E-003;
2.416666666666667E+009;1.770772188901901E-001;-6.109880283474922E-002;4.397125914692879E-003;3.061332041397691E-003;
2.416833333333334E+009;1.769613474607468E-001;-6.152044236660004E-002;4.256726242601872E-003;2.865385031327605E-003;
2.417000000000000E+009;1.763886511325836E-001;-6.170600652694702E-002;4.577958956360817E-003;2.709499327465892E-003;
2.417166666666667E+009;1.760209202766419E-001;-6.165826693177223E-002;4.589354619383812E-003;2.541564637795091E-003;
2.417333333333334E+009;1.756627857685089E-001;-6.191002577543259E-002;4.537298344075680E-003;2.272326964884996E-003;
2.417500000000000E+009;1.750328838825226E-001;-6.222094967961311E-002;4.659620579332113E-003;1.961342524737120E-003;
2.417666666666667E+009;1.744823306798935E-001;-6.238021701574326E-002;4.494360182434320E-003;1.955915009602904E-003;
2.417833333333334E+009;1.736175715923309E-001;-6.256318092346191E-002;4.605812951922417E-003;1.518198056146503E-003;
2.418000000000000E+009;1.728371828794479E-001;-6.292770802974701E-002;4.651462659239769E-003;1.514914794825018E-003;
2.418166666666667E+009;1.719667166471481E-001;-6.306181102991104E-002;4.543682094663382E-003;1.284954836592078E-003;
2.418333333333334E+009;1.710960865020752E-001;-6.352944672107697E-002;4.513214807957411E-003;1.050388906151056E-003;
2.418500000000000E+009;1.700548827648163E-001;-6.386163830757141E-002;4.379807040095329E-003;9.142826311290264E-004;
2.418666666666667E+009;1.690280586481094E-001;-6.433592736721039E-002;4.490693565458059E-003;8.635994745418429E-004;
2.418833333333334E+009;1.678664386272430E-001;-6.478036940097809E-002;4.449685569852591E-003;5.426831194199622E-004;
2.419000000000000E+009;1.667011231184006E-001;-6.527394801378250E-002;4.349726252257824E-003;6.456054979935288E-004;
2.419166666666667E+009;1.654796749353409E-001;-6.598692387342453E-002;4.335755947977305E-003;4.355250857770443E-004;
2.419333333333334E+009;1.642746180295944E-001;-6.661708652973175E-002;4.374519456177950E-003;2.644123742356896E-004;
2.419500000000000E+009;1.631782352924347E-001;-6.749911606311798E-002;4.219167865812779E-003;1.970806915778667E-004;
2.419666666666667E+009;1.619981378316879E-001;-6.839961558580399E-002;4.209916107356548E-003;2.396716299699619E-004;
2.419833333333334E+009;1.607668250799179E-001;-6.915118545293808E-002;4.069944377988577E-003;-5.435963976196945E-005;
2.420000000000000E+009;1.597468852996826E-001;-7.017357647418976E-002;4.174795467406511E-003;-2.212834515376017E-004;
2.420166666666667E+009;1.585884690284729E-001;-7.116003334522247E-002;4.012075718492270E-003;-3.390889032743871E-004;
2.420333333333334E+009;1.574664115905762E-001;-7.251559197902679E-002;4.211186431348324E-003;-2.235046267742291E-004;
2.420500000000000E+009;1.564356684684753E-001;-7.343690097332001E-002;4.161864519119263E-003;-5.054938374087215E-004;
2.420666666666667E+009;1.555072069168091E-001;-7.473856955766678E-002;3.919518087059259E-003;-6.286209682002664E-004;
2.420833333333334E+009;1.545554101467133E-001;-7.609586417675018E-002;3.870778018608689E-003;-6.378312828019261E-004;
2.421000000000000E+009;1.536022722721100E-001;-7.752566784620285E-002;3.930693492293358E-003;-9.190415730699897E-004;
2.421166666666667E+009;1.529553383588791E-001;-7.907745987176895E-002;3.915946930646896E-003;-8.970805210992694E-004;
2.421333333333334E+009;1.522279530763626E-001;-8.070374280214310E-002;3.759397659450769E-003;-1.044111326336861E-003;
2.421500000000000E+009;1.515033096075058E-001;-8.213006705045700E-002;3.789497306570411E-003;-1.112047699280083E-003;
2.421666666666667E+009;1.510152667760849E-001;-8.390822261571884E-002;3.705414244905114E-003;-1.215555705130100E-003;
2.421833333333334E+009;1.503515243530273E-001;-8.546151220798492E-002;3.611908759921789E-003;-1.307406928390265E-003;
2.422000000000000E+009;1.501502394676209E-001;-8.714082092046738E-002;3.507108660414815E-003;-1.617387635633349E-003;
2.422166666666667E+009;1.496952623128891E-001;-8.899886161088944E-002;3.525216830894351E-003;-1.616930589079857E-003;
2.422333333333334E+009;1.494756340980530E-001;-9.059769660234451E-002;3.360155271366239E-003;-1.714012701995671E-003;
2.422500000000000E+009;1.493890583515167E-001;-9.210408478975296E-002;3.244824940338731E-003;-1.724579837173224E-003;
2.422666666666667E+009;1.492063403129578E-001;-9.401149302721024E-002;3.204721258953214E-003;-1.912507577799261E-003;
2.422833333333334E+009;1.493268311023712E-001;-9.580327570438385E-002;3.115057712420821E-003;-1.992295030504465E-003;
2.423000000000000E+009;1.495109200477600E-001;-9.742266684770584E-002;3.035529050976038E-003;-2.125192666426301E-003;
2.423166666666667E+009;1.495812684297562E-001;-9.898389875888825E-002;2.817816566675901E-003;-2.145503414794803E-003;
2.423333333333334E+009;1.498590260744095E-001;-1.004901751875877E-001;2.698654308915138E-003;-2.214741660282016E-003;
2.423500000000000E+009;1.500770300626755E-001;-1.021388620138168E-001;2.467511454597116E-003;-2.406583633273840E-003;
2.423666666666667E+009;1.504349112510681E-001;-1.036698073148727E-001;2.665906678885222E-003;-2.296841004863381E-003;
2.423833333333334E+009;1.508501321077347E-001;-1.051479950547218E-001;2.483045449480414E-003;-2.463489770889282E-003;
2.424000000000000E+009;1.512227803468704E-001;-1.063266396522522E-001;2.230494981631637E-003;-2.514996100217104E-003;
2.424166666666667E+009;1.516660749912262E-001;-1.078197509050369E-001;2.269386546686292E-003;-2.481618896126747E-003;
2.424333333333334E+009;1.522299498319626E-001;-1.089824289083481E-001;2.161395270377398E-003;-2.648717723786831E-003;
2.424500000000000E+009;1.526714712381363E-001;-1.102578118443489E-001;1.909819082356989E-003;-2.660883590579033E-003;
2.424666666666667E+009;1.531844586133957E-001;-1.111595630645752E-001;1.783423125743866E-003;-2.602182095870376E-003;
2.424833333333334E+009;1.534914672374725E-001;-1.122549995779991E-001;1.617707428522408E-003;-2.535640727728605E-003;
2.425000000000000E+009;1.542813777923584E-001;-1.132990494370461E-001;1.456049503758550E-003;-2.591291675344110E-003;
2.425166666666667E+009;1.545218527317047E-001;-1.141732931137085E-001;1.407338539138436E-003;-2.621483989059925E-003;
2.425333333333334E+009;1.549179404973984E-001;-1.148837506771088E-001;1.157525111921132E-003;-2.571775345131755E-003;
2.425500000000000E+009;1.554184705018997E-001;-1.156873703002930E-001;1.137406216003001E-003;-2.532738959416747E-003;
2.425666666666667E+009;1.554926484823227E-001;-1.162895336747170E-001;1.134174759499729E-003;-2.661733655259013E-003;
2.425833333333334E+009;1.558884382247925E-001;-1.168820112943649E-001;9.909826330840588E-004;-2.483325544744730E-003;
2.426000000000000E+009;1.560374349355698E-001;-1.173857226967812E-001;8.701611077412963E-004;-2.492621773853898E-003;
2.426166666666667E+009;1.564663201570511E-001;-1.178105250000954E-001;7.779436418786645E-004;-2.600692911073566E-003;
2.426333333333334E+009;1.563903838396072E-001;-1.182142719626427E-001;7.634820067323744E-004;-2.343859756365418E-003;
2.426500000000000E+009;1.564608812332153E-001;-1.184606775641441E-001;5.770265706814826E-004;-2.531494945287705E-003;
2.426666666666667E+009;1.566531658172607E-001;-1.186141967773438E-001;6.139443721622229E-004;-2.367726294323802E-003;
2.426833333333334E+009;1.562733948230743E-001;-1.189864575862885E-001;4.463971126824617E-004;-2.333410084247589E-003;
2.427000000000000E+009;1.560425460338593E-001;-1.191440448164940E-001;4.480606876313686E-004;-2.246933989226818E-003;
2.427166666666667E+009;1.556376665830612E-001;-1.190855577588081E-001;4.522233211901039E-004;-2.034690231084824E-003;
2.427333333333334E+009;1.551731526851654E-001;-1.192903742194176E-001;3.611509164329618E-004;-2.142671728506684E-003;
2.427500000000000E+009;1.548378467559815E-001;-1.194222047924995E-001;2.920230326708406E-004;-2.084783511236310E-003;
2.427666666666667E+009;1.540858745574951E-001;-1.195204630494118E-001;2.149444335373119E-004;-2.036896068602800E-003;
