# Version 1.00
#
freq[Hz];re:Trc1_S11;im:Trc1_S11;re:Trc2_S21;im:Trc2_S21;
2.400000000000000E+009;1.586521118879318E-001;6.293856352567673E-002;-1.973517006263137E-003;-2.845578128471971E-003;
2.400166666666667E+009;1.584158986806870E-001;6.134329736232758E-002;-2.059261547401547E-003;-2.739264396950603E-003;
2.400333333333334E+009;1.581210047006607E-001;5.946453288197517E-002;-2.117522759363055E-003;-2.902634209021926E-003;
2.400500000000000E+009;1.580280959606171E-001;5.755020305514336E-002;-2.020616782829166E-003;-2.752889879047871E-003;
2.400666666666667E+009;1.578648388385773E-001;5.559501796960831E-002;-2.153185661882162E-003;-2.767267404124141E-003;
2.400833333333334E+009;1.581100672483444E-001;5.378575995564461E-002;-2.110077301040292E-003;-2.935408847406507E-003;
2.401000000000000E+009;1.579900234937668E-001;5.173617973923683E-002;-2.417354378849268E-003;-2.922561485320330E-003;
2.401166666666667E+009;1.582829803228378E-001;4.955480992794037E-002;-2.463950077071786E-003;-2.899502636864781E-003;
2.401333333333334E+009;1.581532359123230E-001;4.750436916947365E-002;-2.454859437420964E-003;-2.796987071633339E-003;
2.401500000000000E+009;1.585073322057724E-001;4.553226754069328E-002;-2.554057631641626E-003;-2.885215915739536E-003;
2.401666666666667E+009;1.587228178977966E-001;4.358699917793274E-002;-2.728277817368507E-003;-2.777371322736144E-003;
2.401833333333334E+009;1.591112166643143E-001;4.150352627038956E-002;-2.741983858868480E-003;-2.916775876656175E-003;
2.402000000000000E+009;1.593700200319290E-001;3.950913622975349E-002;-2.866775495931506E-003;-2.903075423091650E-003;
2.402166666666667E+009;1.599090099334717E-001;3.738270699977875E-002;-2.763258758932352E-003;-2.840931294485927E-003;
2.402333333333334E+009;1.603960990905762E-001;3.547593951225281E-002;-3.107794327661395E-003;-2.915936056524515E-003;
2.402500000000000E+009;1.613133698701859E-001;3.360184282064438E-002;-3.134375903755426E-003;-2.831933554261923E-003;
2.402666666666667E+009;1.617798358201981E-001;3.186077252030373E-002;-3.396863350644708E-003;-2.787396078929305E-003;
2.402833333333334E+009;1.625069826841354E-001;3.027065098285675E-002;-3.668265882879496E-003;-2.820354886353016E-003;
2.403000000000000E+009;1.632418036460877E-001;2.853950671851635E-002;-3.667588112875819E-003;-2.712931949645281E-003;
2.403166666666667E+009;1.641925424337387E-001;2.674689702689648E-002;-3.995129838585854E-003;-2.756631234660745E-003;
2.403333333333334E+009;1.650382727384567E-001;2.520910836756229E-002;-4.205646459013224E-003;-2.595419064164162E-003;
2.403500000000000E+009;1.658064275979996E-001;2.384665980935097E-002;-4.266503266990185E-003;-2.593024866655469E-003;
2.403666666666667E+009;1.667932420969009E-001;2.234521508216858E-002;-4.539981018751860E-003;-2.433725399896503E-003;
2.403833333333334E+009;1.680010706186295E-001;2.083596214652062E-002;-4.739605356007814E-003;-2.358686644583941E-003;
2.404000000000000E+009;1.689862608909607E-001;1.979751512408257E-002;-4.822879564017057E-003;-2.123640850186348E-003;
2.404166666666667E+009;1.697563976049423E-001;1.842691563069820E-002;-5.031727720052004E-003;-1.844734768383205E-003;
2.404333333333334E+009;1.706841886043549E-001;1.748500205576420E-002;-5.291302688419819E-003;-1.653637271374464E-003;
2.404500000000000E+009;1.717203855514526E-001;1.650704443454742E-002;-5.410861689597368E-003;-1.430641743354499E-003;
2.404666666666667E+009;1.727477759122849E-001;1.558802183717489E-002;-5.341279786080122E-003;-1.155875273980200E-003;
2.404833333333334E+009;1.736986041069031E-001;1.488360203802586E-002;-5.528997164219618E-003;-9.045375627465546E-004;
2.405000000000000E+009;1.745395362377167E-001;1.402150094509125E-002;-5.548188928514719E-003;-6.267779390327632E-004;
2.405166666666667E+009;1.754053235054016E-001;1.336930785328150E-002;-5.707344971597195E-003;-3.895342815667391E-004;
2.405333333333334E+009;1.764028221368790E-001;1.261829212307930E-002;-5.746378563344479E-003;-2.024430286837742E-004;
2.405500000000000E+009;1.770184338092804E-001;1.214633230119944E-002;-5.586865358054638E-003;1.791247923392803E-004;
2.405666666666667E+009;1.777101755142212E-001;1.158588286489248E-002;-5.596126895397902E-003;2.606977068353444E-004;
2.405833333333334E+009;1.782543212175369E-001;1.144222449511290E-002;-5.613609682768583E-003;6.501586758531630E-004;
2.406000000000000E+009;1.790255457162857E-001;1.076462585479021E-002;-5.471217446029186E-003;8.856725762598217E-004;
2.406166666666667E+009;1.793658435344696E-001;1.047025248408318E-002;-5.562981590628624E-003;1.150681870058179E-003;
2.406333333333334E+009;1.799736618995667E-001;1.007574796676636E-002;-5.421120207756758E-003;1.391357858665288E-003;
2.406500000000000E+009;1.801532655954361E-001;9.762797504663467E-003;-5.243606865406036E-003;1.334720873273909E-003;
2.406666666666667E+009;1.803972274065018E-001;9.539579972624779E-003;-5.079766735434532E-003;1.628651749342680E-003;
2.406833333333334E+009;1.807023882865906E-001;9.189235046505928E-003;-5.060726776719093E-003;1.856770832091570E-003;
2.407000000000000E+009;1.808418184518814E-001;8.826464414596558E-003;-5.120199639350176E-003;1.940616988576949E-003;
2.407166666666667E+009;1.809811145067215E-001;8.616418577730656E-003;-4.936175420880318E-003;2.079052152112126E-003;
2.407333333333334E+009;1.808586269617081E-001;8.116361685097218E-003;-4.886540584266186E-003;2.384829567745328E-003;
2.407500000000000E+009;1.808254718780518E-001;7.728537544608116E-003;-4.807670600712299E-003;2.459587994962931E-003;
2.407666666666667E+009;1.806923002004623E-001;7.612983696162701E-003;-4.576727282255888E-003;2.675062045454979E-003;
2.407833333333334E+009;1.801217496395111E-001;6.818833295255899E-003;-4.625045228749514E-003;2.795468317344785E-003;
2.408000000000000E+009;1.800110191106796E-001;6.247085984796286E-003;-4.380203783512116E-003;2.819913439452648E-003;
2.408166666666667E+009;1.795341819524765E-001;5.812545306980610E-003;-4.335033707320690E-003;2.955890493467450E-003;
2.408333333333334E+009;1.792169958353043E-001;5.013020243495703E-003;-4.210472106933594E-003;3.071842715144157E-003;
2.408500000000000E+009;1.785255074501038E-001;4.381549078971148E-003;-4.118413664400578E-003;3.304987912997603E-003;
2.408666666666667E+009;1.781947463750839E-001;3.461676882579923E-003;-4.099903162568808E-003;3.508965717628598E-003;
2.408833333333334E+009;1.773725301027298E-001;2.546990755945444E-003;-4.008487332612276E-003;3.486378118395805E-003;
2.409000000000000E+009;1.767369955778122E-001;1.661911257542670E-003;-3.919813781976700E-003;3.660953603684902E-003;
2.409166666666667E+009;1.759379059076309E-001;4.619864339474589E-004;-3.695946652442217E-003;3.632640698924661E-003;
2.409333333333334E+009;1.756003648042679E-001;-6.199352792464197E-004;-3.746889298781753E-003;3.895704867318273E-003;
2.409500000000000E+009;1.746751368045807E-001;-2.110481495037675E-003;-3.426072420552373E-003;3.879082622006536E-003;
2.409666666666667E+009;1.740440726280212E-001;-3.287879517301917E-003;-3.349053906276822E-003;3.940955270081759E-003;
2.409833333333334E+009;1.732712537050247E-001;-4.633581265807152E-003;-3.231596201658249E-003;4.095512907952070E-003;
2.410000000000000E+009;1.727014183998108E-001;-6.049074698239565E-003;-3.182424698024988E-003;4.339387174695730E-003;
2.410166666666667E+009;1.720277965068817E-001;-7.583945058286190E-003;-3.023880533874035E-003;4.414261318743229E-003;
2.410333333333334E+009;1.713657528162003E-001;-9.116424247622490E-003;-2.949480898678303E-003;4.433033987879753E-003;
2.410500000000000E+009;1.709223538637161E-001;-1.079439278692007E-002;-2.888522110879421E-003;4.608927760273218E-003;
2.410666666666667E+009;1.702862977981567E-001;-1.283708866685629E-002;-2.587619703263044E-003;4.591525997966528E-003;
2.410833333333334E+009;1.698479205369949E-001;-1.445476897060871E-002;-2.650866052135825E-003;4.653431940823793E-003;
2.411000000000000E+009;1.692946851253510E-001;-1.625120081007481E-002;-2.353749237954617E-003;4.874917212873697E-003;
2.411166666666667E+009;1.690064370632172E-001;-1.801199652254582E-002;-2.203182317316532E-003;4.906379152089357E-003;
2.411333333333334E+009;1.685848534107208E-001;-2.003253810107708E-002;-2.073811832815409E-003;5.088736303150654E-003;
2.411500000000000E+009;1.683897376060486E-001;-2.198348008096218E-002;-1.906322897411883E-003;5.142954643815756E-003;
2.411666666666667E+009;1.683870553970337E-001;-2.386969327926636E-002;-1.736482605338097E-003;5.231632851064205E-003;
2.411833333333334E+009;1.682537645101547E-001;-2.562932297587395E-002;-1.593942986801267E-003;5.321660544723272E-003;
2.412000000000000E+009;1.682741492986679E-001;-2.791427634656429E-002;-1.481679151766002E-003;5.410333164036274E-003;
2.412166666666667E+009;1.683744043111801E-001;-2.972418814897537E-002;-1.275706803426147E-003;5.306002218276262E-003;
2.412333333333334E+009;1.686318516731262E-001;-3.167849406599999E-002;-1.115403603762388E-003;5.607295781373978E-003;
2.412500000000000E+009;1.685567200183868E-001;-3.354981541633606E-002;-8.773045265115798E-004;5.572608206421137E-003;
2.412666666666667E+009;1.688697785139084E-001;-3.559158369898796E-002;-4.930729628540576E-004;5.600200034677982E-003;
2.412833333333334E+009;1.692196428775787E-001;-3.751039505004883E-002;-3.614560700953007E-004;5.785651039332151E-003;
2.413000000000000E+009;1.696134954690933E-001;-3.913610056042671E-002;-2.064874424831942E-004;5.764273926615715E-003;
2.413166666666667E+009;1.699832677841187E-001;-4.103110358119011E-002;2.435261558275670E-004;5.787329748272896E-003;
2.413333333333334E+009;1.702278703451157E-001;-4.285961389541626E-002;4.560720990411937E-004;5.789738614112139E-003;
2.413500000000000E+009;1.709713041782379E-001;-4.435484856367111E-002;5.347262485884130E-004;5.792509298771620E-003;
2.413666666666667E+009;1.714729815721512E-001;-4.600768908858299E-002;9.531702380627394E-004;5.802289582788944E-003;
2.413833333333334E+009;1.718704700469971E-001;-4.750840365886688E-002;1.018095295876265E-003;5.746892653405666E-003;
2.414000000000000E+009;1.721218377351761E-001;-4.910300299525261E-002;1.350089674815536E-003;5.639374256134033E-003;
2.414166666666667E+009;1.729144901037216E-001;-5.040395259857178E-002;1.680917921476066E-003;5.709588993340731E-003;
2.414333333333334E+009;1.734632849693298E-001;-5.179107189178467E-002;1.976791536435485E-003;5.424581002444029E-003;
2.414500000000000E+009;1.740956306457520E-001;-5.292855948209763E-002;2.066207351163030E-003;5.474027711898089E-003;
2.414666666666667E+009;1.745437383651733E-001;-5.392914637923241E-002;2.288482850417495E-003;5.192370619624853E-003;
2.414833333333334E+009;1.750082671642304E-001;-5.498011037707329E-002;2.658337121829391E-003;5.372641608119011E-003;
2.415000000000000E+009;1.754302829504013E-001;-5.592910945415497E-002;2.714701229706407E-003;5.033671390265226E-003;
2.415166666666667E+009;1.759090572595596E-001;-5.674917250871658E-002;2.970505738630891E-003;4.957335535436869E-003;
2.415333333333334E+009;1.763611882925034E-001;-5.766794458031654E-002;3.306427039206028E-003;4.802689421921969E-003;
2.415500000000000E+009;1.765830516815186E-001;-5.822698026895523E-002;3.330566221848130E-003;4.370276350528002E-003;
2.415666666666667E+009;1.769407540559769E-001;-5.872889980673790E-002;3.564691636711359E-003;4.199125338345766E-003;
2.415833333333334E+009;1.772590279579163E-001;-5.926107987761498E-002;3.902093740180135E-003;4.116546362638474E-003;
2.416000000000000E+009;1.771515756845474E-001;-5.987710505723953E-002;4.076921846717596E-003;3.976370673626661E-003;
2.416166666666667E+009;1.775486171245575E-001;-6.014287099242210E-002;3.995548468083143E-003;3.679076675325632E-003;
2.416333333333334E+009;1.774246245622635E-001;-6.040291488170624E-002;3.969199489802122E-003;3.521336242556572E-003;
2.416500000000000E+009;1.772715747356415E-001;-6.082057207822800E-002;4.016506019979715E-003;3.350381506606937E-003;
2.416666666666667E+009;1.771167963743210E-001;-6.107580661773682E-002;4.306765273213387E-003;3.100613132119179E-003;
2.416833333333334E+009;1.769874840974808E-001;-6.147545948624611E-002;4.390966612845659E-003;2.909766975790262E-003;
2.417000000000000E+009;1.764478683471680E-001;-6.154360622167587E-002;4.337346646934748E-003;2.655731281265616E-003;
2.417166666666667E+009;1.762221157550812E-001;-6.170396134257317E-002;4.397394135594368E-003;2.508803503587842E-003;
2.417333333333334E+009;1.756215691566467E-001;-6.188355758786202E-002;4.493263550102711E-003;2.155721187591553E-003;
2.417500000000000E+009;1.750878393650055E-001;-6.238377839326859E-002;4.433858208358288E-003;1.922297989949584E-003;
2.417666666666667E+009;1.744314283132553E-001;-6.234921142458916E-002;4.524568095803261E-003;1.935139531269670E-003;
2.417833333333334E+009;1.736251115798950E-001;-6.260389089584351E-002;4.506549332290888E-003;1.657906570471823E-003;
2.418000000000000E+009;1.728589087724686E-001;-6.296323984861374E-002;4.629778210073710E-003;1.626238459721208E-003;
2.418166666666667E+009;1.718236058950424E-001;-6.302047520875931E-002;4.561983980238438E-003;1.385005540214479E-003;
2.418333333333334E+009;1.711634248495102E-001;-6.342655420303345E-002;4.470116924494505E-003;1.208902685903013E-003;
2.418500000000000E+009;1.699897348880768E-001;-6.387139856815338E-002;4.400699865072966E-003;1.030166284181178E-003;
2.418666666666667E+009;1.690233945846558E-001;-6.441836059093475E-002;4.469294100999832E-003;8.498660172335804E-004;
2.418833333333334E+009;1.677398085594177E-001;-6.480228900909424E-002;4.342666361480951E-003;8.274446008726955E-004;
2.419000000000000E+009;1.667138636112213E-001;-6.525370478630066E-002;4.283053334802389E-003;5.559838027693331E-004;
2.419166666666667E+009;1.656081825494766E-001;-6.598217785358429E-002;4.171072039753199E-003;3.849651839118451E-004;
2.419333333333334E+009;1.642939597368240E-001;-6.651349365711212E-002;4.352789837867022E-003;3.098821907769889E-004;
2.419500000000000E+009;1.631849855184555E-001;-6.745680421590805E-002;4.380077589303255E-003;-4.160128082730807E-005;
2.419666666666667E+009;1.621375828981400E-001;-6.826896220445633E-002;4.078579600900412E-003;3.033704524568748E-005;
2.419833333333334E+009;1.608648300170898E-001;-6.912957131862640E-002;3.987050615251064E-003;-7.005262159509584E-005;
2.420000000000000E+009;1.597667634487152E-001;-7.016322761774063E-002;3.950875252485275E-003;-2.606351044960320E-004;
2.420166666666667E+009;1.587249636650085E-001;-7.122588902711868E-002;3.968330100178719E-003;-2.471097686793655E-004;
2.420333333333334E+009;1.575839966535568E-001;-7.245710492134094E-002;3.984737209975720E-003;-4.357931320555508E-004;
2.420500000000000E+009;1.565153747797012E-001;-7.350482791662216E-002;4.002808593213558E-003;-5.061483825556934E-004;
2.420666666666667E+009;1.556105315685272E-001;-7.496003061532974E-002;3.964188508689404E-003;-5.901689291931689E-004;
2.420833333333334E+009;1.547909975051880E-001;-7.623132318258286E-002;3.828394692391157E-003;-7.685464224778116E-004;
2.421000000000000E+009;1.536050885915756E-001;-7.761043310165405E-002;3.878278424963355E-003;-8.261679322458804E-004;
2.421166666666667E+009;1.529203206300736E-001;-7.907964289188385E-002;3.773704869672656E-003;-1.072716549970210E-003;
2.421333333333334E+009;1.523034870624542E-001;-8.065668493509293E-002;3.663203446194530E-003;-1.026240643113852E-003;
2.421500000000000E+009;1.515405923128128E-001;-8.229115605354309E-002;3.544396953657270E-003;-1.082870177924633E-003;
2.421666666666667E+009;1.512089967727661E-001;-8.367931842803955E-002;3.524676198139787E-003;-1.186492154374719E-003;
2.421833333333334E+009;1.504767537117004E-001;-8.540689200162888E-002;3.494480159133673E-003;-1.336601446382701E-003;
2.422000000000000E+009;1.500827372074127E-001;-8.714924752712250E-002;3.486211178824306E-003;-1.389367971569300E-003;
2.422166666666667E+009;1.498698592185974E-001;-8.894567191600800E-002;3.248558379709721E-003;-1.492582377977669E-003;
2.422333333333334E+009;1.495673805475235E-001;-9.066593647003174E-002;3.363334108144045E-003;-1.752609387040138E-003;
2.422500000000000E+009;1.493045836687088E-001;-9.218005836009979E-002;3.196411300450563E-003;-1.884020864963532E-003;
2.422666666666667E+009;1.493206322193146E-001;-9.403788298368454E-002;3.149595577269793E-003;-1.795464893803001E-003;
2.422833333333334E+009;1.493569910526276E-001;-9.571977704763413E-002;3.014781046658754E-003;-1.927256467752159E-003;
2.423000000000000E+009;1.494272798299789E-001;-9.727385640144348E-002;3.029797924682498E-003;-2.104620682075620E-003;
2.423166666666667E+009;1.497336626052856E-001;-9.894895553588867E-002;2.875270089134574E-003;-2.117079449817538E-003;
2.423333333333334E+009;1.499531418085098E-001;-1.003714948892593E-001;2.686114283278585E-003;-2.153309993445873E-003;
2.423500000000000E+009;1.501992642879486E-001;-1.020191982388496E-001;2.655552001670003E-003;-2.319457707926631E-003;
2.423666666666667E+009;1.504448205232620E-001;-1.038124114274979E-001;2.464471384882927E-003;-2.432781038805842E-003;
2.423833333333334E+009;1.509661525487900E-001;-1.052243486046791E-001;2.523171249777079E-003;-2.493624109774828E-003;
2.424000000000000E+009;1.512024253606796E-001;-1.065185144543648E-001;2.086401917040348E-003;-2.553780330345035E-003;
2.424166666666667E+009;1.517217159271240E-001;-1.078220829367638E-001;2.085223095491529E-003;-2.441636752337217E-003;
2.424333333333334E+009;1.521658301353455E-001;-1.089780330657959E-001;1.910276594571769E-003;-2.584898611530662E-003;
2.424500000000000E+009;1.526452749967575E-001;-1.103683039546013E-001;1.836444484069943E-003;-2.581314649432898E-003;
2.424666666666667E+009;1.532926112413406E-001;-1.113381087779999E-001;1.714393729344010E-003;-2.603160450235009E-003;
2.424833333333334E+009;1.535892784595490E-001;-1.123042255640030E-001;1.465182867832482E-003;-2.606340451166034E-003;
2.425000000000000E+009;1.541229784488678E-001;-1.132155284285545E-001;1.501876162365079E-003;-2.744421130046248E-003;
2.425166666666667E+009;1.543762832880020E-001;-1.140623241662979E-001;1.450822921469808E-003;-2.560588764026761E-003;
2.425333333333334E+009;1.548719406127930E-001;-1.148060858249664E-001;1.326138037256897E-003;-2.540107583627105E-003;
2.425500000000000E+009;1.552771925926209E-001;-1.156939938664436E-001;1.138779101893306E-003;-2.669211244210601E-003;
2.425666666666667E+009;1.555143296718597E-001;-1.162949651479721E-001;1.161837019026279E-003;-2.614608732983470E-003;
2.425833333333334E+009;1.559096723794937E-001;-1.168736293911934E-001;9.144217474386096E-004;-2.589514944702387E-003;
2.426000000000000E+009;1.560155004262924E-001;-1.174590587615967E-001;9.223364177159965E-004;-2.458179835230112E-003;
2.426166666666667E+009;1.563211679458618E-001;-1.178879067301750E-001;9.079953306354582E-004;-2.433180110529065E-003;
2.426333333333334E+009;1.563825607299805E-001;-1.182291507720947E-001;6.309805321507156E-004;-2.534527098760009E-003;
2.426500000000000E+009;1.565553694963455E-001;-1.185345351696014E-001;5.922854179516435E-004;-2.486479235813022E-003;
2.426666666666667E+009;1.565160155296326E-001;-1.185676231980324E-001;5.286420346237719E-004;-2.300253370776773E-003;
2.426833333333334E+009;1.563353240489960E-001;-1.189732179045677E-001;5.676930304616690E-004;-2.273869933560491E-003;
2.427000000000000E+009;1.560089588165283E-001;-1.191783547401428E-001;3.251129237469286E-004;-2.191334031522274E-003;
2.427166666666667E+009;1.556740254163742E-001;-1.191262304782867E-001;3.909484948962927E-004;-2.104121493175626E-003;
2.427333333333334E+009;1.551809459924698E-001;-1.193877607584000E-001;3.222218074370176E-004;-1.941950060427189E-003;
2.427500000000000E+009;1.546401977539063E-001;-1.194573864340782E-001;3.308808954898268E-004;-1.950823934748769E-003;
2.427666666666667E+009;1.541189849376679E-001;-1.195653378963471E-001;2.420194650767371E-004;-2.059359569102526E-003;
