# Version 1.00
#
freq[Hz];re:Trc1_S11;im:Trc1_S11;re:Trc2_S21;im:Trc2_S21;
2.400000000000000E+009;1.562851369380951E-001;5.952811241149902E-002;-5.126614589244127E-003;-1.663197064772248E-003;
2.400166666666667E+009;1.564476937055588E-001;5.767515301704407E-002;-5.345654208213091E-003;-1.487731351517141E-003;
2.400333333333334E+009;1.565392017364502E-001;5.574729666113854E-002;-5.117393098771572E-003;-1.366237993352115E-003;
2.400500000000000E+009;1.567252725362778E-001;5.370878055691719E-002;-5.366392433643341E-003;-1.256508636288345E-003;
2.400666666666667E+009;1.568478047847748E-001;5.158731713891029E-002;-5.296259187161923E-003;-1.100339810363948E-003;
2.400833333333334E+009;1.573214977979660E-001;4.959191381931305E-002;-5.376581568270922E-003;-8.140539284795523E-004;
2.401000000000000E+009;1.576863974332809E-001;4.750714823603630E-002;-5.423739086836577E-003;-6.280657835304737E-004;
2.401166666666667E+009;1.580536365509033E-001;4.522945731878281E-002;-5.410009995102882E-003;-2.297016908414662E-004;
2.401333333333334E+009;1.585177481174469E-001;4.341826960444450E-002;-5.555206909775734E-003;-6.675142503809184E-005;
2.401500000000000E+009;1.592345237731934E-001;4.134456813335419E-002;-5.506259389221668E-003;2.040982799371705E-004;
2.401666666666667E+009;1.598345190286636E-001;3.942630067467690E-002;-5.278131924569607E-003;2.265797666041181E-004;
2.401833333333334E+009;1.603671163320541E-001;3.751499205827713E-002;-5.589520093053579E-003;5.417212960310280E-004;
2.402000000000000E+009;1.608931273221970E-001;3.576129302382469E-002;-5.309069529175758E-003;6.748098530806601E-004;
2.402166666666667E+009;1.616954058408737E-001;3.387316316366196E-002;-5.284239072352648E-003;1.127227442339063E-003;
2.402333333333334E+009;1.623244583606720E-001;3.235347941517830E-002;-5.093445535749197E-003;1.342091243714094E-003;
2.402500000000000E+009;1.634747385978699E-001;3.062659315764904E-002;-5.128832999616861E-003;1.344198361039162E-003;
2.402666666666667E+009;1.643703877925873E-001;2.925578318536282E-002;-5.003254860639572E-003;1.564302132464945E-003;
2.402833333333334E+009;1.650886982679367E-001;2.765769325196743E-002;-4.762366879731417E-003;1.903878059238195E-003;
2.403000000000000E+009;1.661806553602219E-001;2.630574069917202E-002;-4.745235200971365E-003;1.998916501179338E-003;
2.403166666666667E+009;1.672191172838211E-001;2.492775954306126E-002;-4.528334829956293E-003;2.114395610988140E-003;
2.403333333333334E+009;1.680595278739929E-001;2.388142049312592E-002;-4.411153495311737E-003;2.179984468966723E-003;
2.403500000000000E+009;1.688469946384430E-001;2.258616499602795E-002;-4.315660335123539E-003;2.406091662123799E-003;
2.403666666666667E+009;1.698693782091141E-001;2.153891511261463E-002;-4.181483294814825E-003;2.575124381110072E-003;
2.403833333333334E+009;1.709101051092148E-001;2.066425792872906E-002;-3.888361621648073E-003;2.625694032758474E-003;
2.404000000000000E+009;1.719013154506683E-001;1.958841830492020E-002;-3.773134434595704E-003;2.770419232547283E-003;
2.404166666666667E+009;1.727644056081772E-001;1.892743259668350E-002;-3.687737276777625E-003;2.861461136490107E-003;
2.404333333333334E+009;1.734639555215836E-001;1.803928986191750E-002;-3.447761759161949E-003;3.022008342668414E-003;
2.404500000000000E+009;1.744000315666199E-001;1.743278093636036E-002;-3.230552654713392E-003;2.988085849210620E-003;
2.404666666666667E+009;1.751145869493485E-001;1.692528650164604E-002;-3.298004623502493E-003;2.993470989167690E-003;
2.404833333333334E+009;1.758643686771393E-001;1.630512066185474E-002;-3.001661272719502E-003;3.194021293893457E-003;
2.405000000000000E+009;1.765242367982864E-001;1.576293818652630E-002;-2.832420635968447E-003;3.284575650468469E-003;
2.405166666666667E+009;1.771045029163361E-001;1.541955117136240E-002;-2.547599142417312E-003;3.087620483711362E-003;
2.405333333333334E+009;1.777044087648392E-001;1.491576991975308E-002;-2.576059196144342E-003;3.374576102942228E-003;
2.405500000000000E+009;1.782091706991196E-001;1.474491041153669E-002;-2.437278395518661E-003;3.200824139639735E-003;
2.405666666666667E+009;1.786445677280426E-001;1.437496487051249E-002;-2.308895345777273E-003;3.290662774816155E-003;
2.405833333333334E+009;1.788536161184311E-001;1.412179227918387E-002;-2.163775032386184E-003;3.285220358520746E-003;
2.406000000000000E+009;1.791956275701523E-001;1.366433408111334E-002;-2.027998678386211E-003;3.312512766569853E-003;
2.406166666666667E+009;1.791642010211945E-001;1.365410163998604E-002;-1.903295866213739E-003;3.247231245040894E-003;
2.406333333333334E+009;1.795827001333237E-001;1.325988955795765E-002;-1.944681513123214E-003;3.439441323280335E-003;
2.406500000000000E+009;1.794527769088745E-001;1.314107514917851E-002;-1.759616774506867E-003;3.210407448932529E-003;
2.406666666666667E+009;1.792882978916168E-001;1.273967884480953E-002;-1.633841544389725E-003;3.397677792236209E-003;
2.406833333333334E+009;1.792353838682175E-001;1.241168379783630E-002;-1.449899049475789E-003;3.302930621430278E-003;
2.407000000000000E+009;1.789997816085815E-001;1.193668879568577E-002;-1.516269287094474E-003;3.184953704476357E-003;
2.407166666666667E+009;1.789971292018890E-001;1.151147857308388E-002;-1.313994638621807E-003;3.143034642562270E-003;
2.407333333333334E+009;1.784756034612656E-001;1.094348635524511E-002;-1.279602409340441E-003;3.065939061343670E-003;
2.407500000000000E+009;1.781562268733978E-001;1.043058279901743E-002;-1.193588832393289E-003;3.155225887894630E-003;
2.407666666666667E+009;1.777276545763016E-001;9.946985170245171E-003;-1.052945153787732E-003;3.176866332069039E-003;
2.407833333333334E+009;1.770798712968826E-001;8.956072852015495E-003;-1.084943301975727E-003;3.113279584795237E-003;
2.408000000000000E+009;1.766066849231720E-001;8.199742995202541E-003;-1.060786074958742E-003;3.039115108549595E-003;
2.408166666666667E+009;1.759289652109146E-001;7.550338283181191E-003;-8.779308991506696E-004;3.157183527946472E-003;
2.408333333333334E+009;1.755912154912949E-001;6.418591830879450E-003;-6.884176982566714E-004;3.144073532894254E-003;
2.408500000000000E+009;1.748874634504318E-001;5.237595178186894E-003;-7.136469357647002E-004;3.107212949544191E-003;
2.408666666666667E+009;1.742637008428574E-001;4.127950873225927E-003;-6.069901282899082E-004;3.087723627686501E-003;
2.408833333333334E+009;1.734641194343567E-001;2.874492900446057E-003;-6.498210132122040E-004;2.867602277547121E-003;
2.409000000000000E+009;1.727873682975769E-001;1.687831711024046E-003;-6.572765414603055E-004;2.946587279438973E-003;
2.409166666666667E+009;1.721872091293335E-001;3.048028156626970E-004;-5.169506184756756E-004;3.005762118846178E-003;
2.409333333333334E+009;1.717227399349213E-001;-1.268649240955710E-003;-2.939541882369667E-004;2.790433354675770E-003;
2.409500000000000E+009;1.710487157106400E-001;-2.966802334412932E-003;-3.093063714914024E-004;2.904419787228108E-003;
2.409666666666667E+009;1.702110320329666E-001;-4.442589823156595E-003;-2.951979113277048E-004;2.838888205587864E-003;
2.409833333333334E+009;1.696957349777222E-001;-5.955900996923447E-003;-3.095519496127963E-004;2.995963674038649E-003;
2.410000000000000E+009;1.693803220987320E-001;-7.806492969393730E-003;-2.389987057540566E-004;3.009797306731343E-003;
2.410166666666667E+009;1.689028590917587E-001;-9.694692678749561E-003;-2.555625687818974E-004;2.840577624738216E-003;
2.410333333333334E+009;1.684283763170242E-001;-1.157700922340155E-002;-3.225382242817432E-004;2.867924747988582E-003;
2.410500000000000E+009;1.680582761764526E-001;-1.336845289915800E-002;-1.034187225741334E-004;2.795666689053178E-003;
2.410666666666667E+009;1.676614731550217E-001;-1.533728651702404E-002;-5.164563117432408E-005;2.829129807651043E-003;
2.410833333333334E+009;1.677014231681824E-001;-1.725159958004952E-002;-5.192116805119440E-005;2.835941500961781E-003;
2.411000000000000E+009;1.676124483346939E-001;-1.919965818524361E-002;-6.161285273265094E-005;2.812876831740141E-003;
2.411166666666667E+009;1.673984378576279E-001;-2.127565070986748E-002;1.580810203449801E-004;2.717828145250678E-003;
2.411333333333334E+009;1.674102693796158E-001;-2.306571044027805E-002;7.207517774077132E-005;2.804275369271636E-003;
2.411500000000000E+009;1.676248461008072E-001;-2.516055665910244E-002;3.165762173011899E-004;2.725410275161266E-003;
2.411666666666667E+009;1.678807437419891E-001;-2.723834291100502E-002;3.374702937435359E-004;2.879239153116942E-003;
2.411833333333334E+009;1.681163311004639E-001;-2.877790853381157E-002;3.374427033122629E-004;2.840333851054311E-003;
2.412000000000000E+009;1.683696806430817E-001;-3.081902675330639E-002;3.160655905958265E-004;2.867255359888077E-003;
2.412166666666667E+009;1.686974018812180E-001;-3.269496187567711E-002;5.130584468133748E-004;2.666763961315155E-003;
2.412333333333334E+009;1.693026423454285E-001;-3.442796692252159E-002;5.003736005164683E-004;2.639577025547624E-003;
2.412500000000000E+009;1.697065681219101E-001;-3.627957031130791E-002;6.194906891323626E-004;2.672953531146050E-003;
2.412666666666667E+009;1.701781898736954E-001;-3.826819732785225E-002;8.640977321192622E-004;2.640592167153955E-003;
2.412833333333334E+009;1.708085387945175E-001;-3.983403742313385E-002;7.301389123313129E-004;2.620599232614040E-003;
2.413000000000000E+009;1.714263111352921E-001;-4.138001427054405E-002;7.774827536195517E-004;2.541920635849237E-003;
2.413166666666667E+009;1.721485257148743E-001;-4.303003475070000E-002;6.758738891221583E-004;2.563766436651349E-003;
2.413333333333334E+009;1.725129485130310E-001;-4.447200521826744E-002;8.741082274354994E-004;2.358098514378071E-003;
2.413500000000000E+009;1.732923984527588E-001;-4.590318351984024E-002;9.581213234923780E-004;2.290444215759635E-003;
2.413666666666667E+009;1.738909035921097E-001;-4.739351198077202E-002;9.097958682104945E-004;2.267504343762994E-003;
2.413833333333334E+009;1.744517236948013E-001;-4.843966290354729E-002;9.649061248637736E-004;2.382700564339757E-003;
2.414000000000000E+009;1.750418692827225E-001;-4.962431639432907E-002;9.077385766431689E-004;2.372643211856484E-003;
2.414166666666667E+009;1.757282614707947E-001;-5.072909593582153E-002;8.624892798252404E-004;2.252173842862248E-003;
2.414333333333334E+009;1.761863529682159E-001;-5.168014764785767E-002;1.102847512811422E-003;2.288892399519682E-003;
2.414500000000000E+009;1.769205331802368E-001;-5.260528624057770E-002;1.128330943174660E-003;2.340600825846195E-003;
2.414666666666667E+009;1.772768944501877E-001;-5.335697904229164E-002;1.175548182800412E-003;2.289268421009183E-003;
2.414833333333334E+009;1.776301562786102E-001;-5.426014587283135E-002;1.108584925532341E-003;2.251764992251992E-003;
2.415000000000000E+009;1.779719442129135E-001;-5.477344617247582E-002;1.020421623252332E-003;2.244647825136781E-003;
2.415166666666667E+009;1.783597618341446E-001;-5.545533075928688E-002;1.205469015985727E-003;2.350386232137680E-003;
2.415333333333334E+009;1.786948144435883E-001;-5.600586161017418E-002;1.088689430616796E-003;2.183739794418216E-003;
2.415500000000000E+009;1.787792742252350E-001;-5.632250756025314E-002;1.128955977037549E-003;2.285614376887679E-003;
2.415666666666667E+009;1.787873506546021E-001;-5.661115050315857E-002;1.225235289894044E-003;2.246094169095159E-003;
2.415833333333334E+009;1.788742244243622E-001;-5.710468813776970E-002;1.331523526459932E-003;2.170408144593239E-003;
2.416000000000000E+009;1.785802841186523E-001;-5.736846476793289E-002;1.233417890034616E-003;2.366696018725634E-003;
2.416166666666667E+009;1.786874532699585E-001;-5.765100196003914E-002;1.480194507166743E-003;2.283589681610465E-003;
2.416333333333334E+009;1.783856600522995E-001;-5.781058222055435E-002;1.408392097800970E-003;2.323182299733162E-003;
2.416500000000000E+009;1.780004054307938E-001;-5.800285562872887E-002;1.477009151130915E-003;2.372539369389415E-003;
2.416666666666667E+009;1.774902641773224E-001;-5.813170224428177E-002;1.594973378814757E-003;2.445365302264690E-003;
2.416833333333334E+009;1.770256012678146E-001;-5.856121331453323E-002;1.555888098664582E-003;2.550074597820640E-003;
2.417000000000000E+009;1.763339340686798E-001;-5.877648293972015E-002;1.762164407409728E-003;2.272001933306456E-003;
2.417166666666667E+009;1.755703240633011E-001;-5.889060348272324E-002;1.652011414989829E-003;2.292646327987313E-003;
2.417333333333334E+009;1.749435961246491E-001;-5.911745131015778E-002;1.738014747388661E-003;2.324663801118732E-003;
2.417500000000000E+009;1.739546954631805E-001;-5.956706404685974E-002;1.985756680369377E-003;2.221660222858191E-003;
2.417666666666667E+009;1.730259805917740E-001;-5.979700386524200E-002;1.993692712858319E-003;2.337264362722635E-003;
2.417833333333334E+009;1.721194535493851E-001;-6.016660481691361E-002;2.186337951570749E-003;2.222484443336725E-003;
2.418000000000000E+009;1.708668917417526E-001;-6.067796424031258E-002;2.107612323015928E-003;2.193978056311607E-003;
2.418166666666667E+009;1.698020100593567E-001;-6.099167466163635E-002;2.394058508798480E-003;2.193189458921552E-003;
2.418333333333334E+009;1.689333617687225E-001;-6.175331771373749E-002;2.454060595482588E-003;2.106248866766691E-003;
2.418500000000000E+009;1.675276309251785E-001;-6.222046539187431E-002;2.467270940542221E-003;2.021170221269131E-003;
2.418666666666667E+009;1.664555370807648E-001;-6.300351023674011E-002;2.550753066316247E-003;1.905184937641025E-003;
2.418833333333334E+009;1.649611443281174E-001;-6.372810900211334E-002;2.718718955293298E-003;1.928765093907714E-003;
2.419000000000000E+009;1.636364459991455E-001;-6.452550739049912E-002;2.784440759569407E-003;2.060982398688793E-003;
2.419166666666667E+009;1.624734550714493E-001;-6.539130210876465E-002;2.787658246234059E-003;1.828981097787619E-003;
2.419333333333334E+009;1.611630320549011E-001;-6.629313528537750E-002;2.805655822157860E-003;1.728212926536799E-003;
2.419500000000000E+009;1.600011438131332E-001;-6.736057996749878E-002;2.857160987332463E-003;1.791994320228696E-003;
2.419666666666667E+009;1.589315235614777E-001;-6.857099384069443E-002;3.038170048967004E-003;1.448656897991896E-003;
2.419833333333334E+009;1.576758623123169E-001;-6.972466409206390E-002;3.126145107671619E-003;1.640551607124507E-003;
2.420000000000000E+009;1.567478626966476E-001;-7.090483605861664E-002;3.301843069493771E-003;1.370123005472124E-003;
2.420166666666667E+009;1.555026769638062E-001;-7.238746434450150E-002;3.308350453153253E-003;1.209101756103337E-003;
2.420333333333334E+009;1.546599566936493E-001;-7.369632273912430E-002;3.383548697456718E-003;1.208046800456941E-003;
2.420500000000000E+009;1.538281291723251E-001;-7.507456839084625E-002;3.480756189674139E-003;9.562663035467267E-004;
2.420666666666667E+009;1.529324054718018E-001;-7.639670372009277E-002;3.628100501373410E-003;9.206809918396175E-004;
2.420833333333334E+009;1.522301733493805E-001;-7.820674777030945E-002;3.500497667118907E-003;7.932903827168047E-004;
2.421000000000000E+009;1.514794081449509E-001;-7.970076054334641E-002;3.546436084434390E-003;6.965767825022340E-004;
2.421166666666667E+009;1.507606506347656E-001;-8.127563446760178E-002;3.662052098661661E-003;5.102209397591651E-004;
2.421333333333334E+009;1.505127847194672E-001;-8.305095881223679E-002;3.640146926045418E-003;2.929368056356907E-004;
2.421500000000000E+009;1.500928699970245E-001;-8.462681621313095E-002;3.560666926205158E-003;1.778035511961207E-004;
2.421666666666667E+009;1.496426314115524E-001;-8.639387786388397E-002;3.553442424163222E-003;9.264894470106810E-005;
2.421833333333334E+009;1.495937556028366E-001;-8.801433444023132E-002;3.697261447086930E-003;-6.210582796484232E-005;
2.422000000000000E+009;1.492413431406021E-001;-8.958411216735840E-002;3.499377984553576E-003;-1.193486605188809E-004;
2.422166666666667E+009;1.491898298263550E-001;-9.162894636392593E-002;3.550419351086021E-003;-5.254365387372673E-004;
2.422333333333334E+009;1.493729948997498E-001;-9.312745183706284E-002;3.399334847927094E-003;-5.180197767913342E-004;
2.422500000000000E+009;1.494142711162567E-001;-9.465106576681137E-002;3.467517206445336E-003;-6.399187841452658E-004;
2.422666666666667E+009;1.494459062814713E-001;-9.637932479381561E-002;3.339566523209214E-003;-9.166511008515954E-004;
2.422833333333334E+009;1.497943401336670E-001;-9.794520586729050E-002;3.243844723328948E-003;-1.160146552138031E-003;
2.423000000000000E+009;1.500201672315598E-001;-9.936355054378510E-002;3.031027037650347E-003;-1.067813136614859E-003;
2.423166666666667E+009;1.506687253713608E-001;-1.009290292859078E-001;3.013830166310072E-003;-1.111341407522559E-003;
2.423333333333334E+009;1.511383950710297E-001;-1.021743491292000E-001;3.088851924985647E-003;-1.238453085534275E-003;
2.423500000000000E+009;1.513303518295288E-001;-1.037319451570511E-001;2.967874286696315E-003;-1.180550549179316E-003;
2.423666666666667E+009;1.516942977905273E-001;-1.050611361861229E-001;2.762758173048496E-003;-1.362697454169393E-003;
2.423833333333334E+009;1.524111032485962E-001;-1.062967628240585E-001;2.526008291170001E-003;-1.354561070911586E-003;
2.424000000000000E+009;1.528019011020660E-001;-1.072444319725037E-001;2.586433198302984E-003;-1.407092553563416E-003;
2.424166666666667E+009;1.532422453165054E-001;-1.084558367729187E-001;2.719801850616932E-003;-1.350719365291297E-003;
2.424333333333334E+009;1.539281010627747E-001;-1.093863248825073E-001;2.459174254909158E-003;-1.499492791481316E-003;
2.424500000000000E+009;1.544556915760040E-001;-1.105429604649544E-001;2.486604731529951E-003;-1.543729100376368E-003;
2.424666666666667E+009;1.550780087709427E-001;-1.111164167523384E-001;2.258050255477428E-003;-1.500750076957047E-003;
2.424833333333334E+009;1.554312556982040E-001;-1.119499653577805E-001;2.303745830431581E-003;-1.387601019814611E-003;
2.425000000000000E+009;1.558376550674439E-001;-1.127274036407471E-001;2.124057617038488E-003;-1.544673577882350E-003;
2.425166666666667E+009;1.560340821743012E-001;-1.133409440517426E-001;2.183641307055950E-003;-1.413523801602423E-003;
2.425333333333334E+009;1.564746201038361E-001;-1.137779206037521E-001;2.031745389103890E-003;-1.496349927037954E-003;
2.425500000000000E+009;1.568369418382645E-001;-1.143817156553268E-001;2.182074123993516E-003;-1.454331679269671E-003;
2.425666666666667E+009;1.567940711975098E-001;-1.146865710616112E-001;2.017103368416429E-003;-1.618659240193665E-003;
2.425833333333334E+009;1.570329517126083E-001;-1.151911616325378E-001;2.106197411194444E-003;-1.636175322346389E-003;
2.426000000000000E+009;1.570295393466950E-001;-1.155660450458527E-001;1.899761497043073E-003;-1.556052360683680E-003;
2.426166666666667E+009;1.572203338146210E-001;-1.158154532313347E-001;2.081839833408594E-003;-1.557059236802161E-003;
2.426333333333334E+009;1.568687260150909E-001;-1.160099878907204E-001;1.919887494295836E-003;-1.556919538415968E-003;
2.426500000000000E+009;1.568285673856735E-001;-1.160578355193138E-001;1.909103710204363E-003;-1.592117827385664E-003;
2.426666666666667E+009;1.566907018423080E-001;-1.161272823810577E-001;1.992677571251988E-003;-1.677615102380514E-003;
2.426833333333334E+009;1.562761664390564E-001;-1.162893176078796E-001;1.952507882378995E-003;-1.735680620186031E-003;
2.427000000000000E+009;1.555969268083572E-001;-1.164477616548538E-001;1.836976385675371E-003;-1.726044574752450E-003;
2.427166666666667E+009;1.551247239112854E-001;-1.164816394448280E-001;2.006038790568709E-003;-1.722359796985984E-003;
2.427333333333334E+009;1.544363647699356E-001;-1.167947128415108E-001;1.970802899450064E-003;-1.885815639980137E-003;
2.427500000000000E+009;1.538267135620117E-001;-1.169426739215851E-001;2.026733942329884E-003;-1.955908257514238E-003;
2.427666666666667E+009;1.528387963771820E-001;-1.171161979436874E-001;1.957537839189172E-003;-1.966504147276282E-003;
2.427833333333334E+009;1.518984884023666E-001;-1.172441095113754E-001;2.004855545237660E-003;-1.984870061278343E-003;
