# Version 1.00
#
freq[Hz];re:Trc1_S11;im:Trc1_S11;re:Trc2_S21;im:Trc2_S21;
2.400000000000000E+009;1.560348570346832E-001;5.949647724628449E-002;-4.944949876517057E-003;-1.726093003526330E-003;
2.400166666666667E+009;1.561637222766876E-001;5.765691027045250E-002;-5.176796577870846E-003;-1.543460763059557E-003;
2.400333333333334E+009;1.563122719526291E-001;5.570444464683533E-002;-5.294902715831995E-003;-1.263220328837633E-003;
2.400500000000000E+009;1.565924137830734E-001;5.375564843416214E-002;-5.296049173921347E-003;-1.206218614242971E-003;
2.400666666666667E+009;1.567357927560806E-001;5.147006362676621E-002;-5.447410978376865E-003;-9.549352689646184E-004;
2.400833333333334E+009;1.573035866022110E-001;4.963134229183197E-002;-5.518286488950253E-003;-8.271068800240755E-004;
2.401000000000000E+009;1.576623916625977E-001;4.741693288087845E-002;-5.450560711324215E-003;-5.361370276659727E-004;
2.401166666666667E+009;1.580447703599930E-001;4.534568637609482E-002;-5.416774656623602E-003;-2.798653731588274E-004;
2.401333333333334E+009;1.584673523902893E-001;4.340984299778938E-002;-5.594302900135517E-003;-7.030822416709270E-006;
2.401500000000000E+009;1.592687964439392E-001;4.124429449439049E-002;-5.490054376423359E-003;2.550827921368182E-004;
2.401666666666667E+009;1.598307788372040E-001;3.963855654001236E-002;-5.547032691538334E-003;5.398545763455331E-004;
2.401833333333334E+009;1.605156213045120E-001;3.744560852646828E-002;-5.454154219478369E-003;6.472341483458877E-004;
2.402000000000000E+009;1.608957201242447E-001;3.575460985302925E-002;-5.231614690274000E-003;6.735164788551629E-004;
2.402166666666667E+009;1.616046577692032E-001;3.388555720448494E-002;-5.341185722500086E-003;1.117071369662881E-003;
2.402333333333334E+009;1.625279337167740E-001;3.205198794603348E-002;-5.156956613063812E-003;1.399724977090955E-003;
2.402500000000000E+009;1.635951846837997E-001;3.049706295132637E-002;-5.136365070939064E-003;1.381652895361185E-003;
2.402666666666667E+009;1.643652170896530E-001;2.910581044852734E-002;-5.021275952458382E-003;1.631812541745603E-003;
2.402833333333334E+009;1.652340292930603E-001;2.759147994220257E-002;-4.802186973392963E-003;1.809128327295184E-003;
2.403000000000000E+009;1.661159843206406E-001;2.614266052842140E-002;-4.656210541725159E-003;2.078265184536576E-003;
2.403166666666667E+009;1.671013087034226E-001;2.495005540549755E-002;-4.523361567407847E-003;2.210843842476606E-003;
2.403333333333334E+009;1.679252535104752E-001;2.376828715205193E-002;-4.467815626412630E-003;2.480219118297100E-003;
2.403500000000000E+009;1.689203977584839E-001;2.259648405015469E-002;-4.225705284625292E-003;2.592732431367040E-003;
2.403666666666667E+009;1.698318421840668E-001;2.153248339891434E-002;-4.128887783735991E-003;2.499034861102700E-003;
2.403833333333334E+009;1.709126681089401E-001;2.054080553352833E-002;-3.803553758189082E-003;2.842624206095934E-003;
2.404000000000000E+009;1.718411445617676E-001;1.969882473349571E-002;-3.754106350243092E-003;2.796783344820142E-003;
2.404166666666667E+009;1.726333051919937E-001;1.874275319278240E-002;-3.532796166837215E-003;2.858260646462441E-003;
2.404333333333334E+009;1.735366731882095E-001;1.815649867057800E-002;-3.371005179360509E-003;2.965860301628709E-003;
2.404500000000000E+009;1.741458177566528E-001;1.735694333910942E-002;-3.284516744315624E-003;3.066558623686433E-003;
2.404666666666667E+009;1.750987768173218E-001;1.688257232308388E-002;-3.179182996973395E-003;3.225983353331685E-003;
2.404833333333334E+009;1.758958697319031E-001;1.625720970332623E-002;-3.137972205877304E-003;3.200104227289558E-003;
2.405000000000000E+009;1.764518618583679E-001;1.590103842318058E-002;-2.765743527561426E-003;3.206128254532814E-003;
2.405166666666667E+009;1.771669834852219E-001;1.541894767433405E-002;-2.583644120022655E-003;3.241338068619371E-003;
2.405333333333334E+009;1.776400953531265E-001;1.493067201226950E-002;-2.459804294630885E-003;3.446944989264011E-003;
2.405500000000000E+009;1.782467961311340E-001;1.477071549743414E-002;-2.367769367992878E-003;3.382661845535040E-003;
2.405666666666667E+009;1.785518825054169E-001;1.451847888529301E-002;-2.285331953316927E-003;3.137920051813126E-003;
2.405833333333334E+009;1.786583960056305E-001;1.431854814291000E-002;-2.057869452983141E-003;3.224281826987863E-003;
2.406000000000000E+009;1.790899932384491E-001;1.382987387478352E-002;-1.966510666534305E-003;3.146264236420393E-003;
2.406166666666667E+009;1.791671067476273E-001;1.373502146452665E-002;-1.879494404420257E-003;3.315878333523870E-003;
2.406333333333334E+009;1.794036477804184E-001;1.338332518935204E-002;-1.790210604667664E-003;3.310647560283542E-003;
2.406500000000000E+009;1.794132143259049E-001;1.306310389190912E-002;-1.682977657765150E-003;3.251636400818825E-003;
2.406666666666667E+009;1.791797429323196E-001;1.263103913515806E-002;-1.680681831203401E-003;3.446541028097272E-003;
2.406833333333334E+009;1.793255954980850E-001;1.235040370374918E-002;-1.499993959441781E-003;3.246802836656570E-003;
2.407000000000000E+009;1.791118681430817E-001;1.198092754930258E-002;-1.475345459766686E-003;3.273520618677139E-003;
2.407166666666667E+009;1.788811534643173E-001;1.162196416407824E-002;-1.269871136173606E-003;3.295375034213066E-003;
2.407333333333334E+009;1.785035729408264E-001;1.085317600518465E-002;-1.153365010395646E-003;3.218581900000572E-003;
2.407500000000000E+009;1.781121343374252E-001;1.056098379194737E-002;-1.189145608805120E-003;3.151545999571681E-003;
2.407666666666667E+009;1.777314543724060E-001;9.951246902346611E-003;-1.229545334354043E-003;3.105224575847387E-003;
2.407833333333334E+009;1.770749837160111E-001;9.089328348636627E-003;-1.080478192307055E-003;2.993430010974407E-003;
2.408000000000000E+009;1.765898913145065E-001;8.111793547868729E-003;-8.960775448940694E-004;3.216239158064127E-003;
2.408166666666667E+009;1.760666221380234E-001;7.529807277023792E-003;-9.293874609284103E-004;2.995152026414871E-003;
2.408333333333334E+009;1.755605190992355E-001;6.400938145816326E-003;-7.835775031708181E-004;3.023908240720630E-003;
2.408500000000000E+009;1.748647242784500E-001;5.313517060130835E-003;-8.414894691668451E-004;3.102894173935056E-003;
2.408666666666667E+009;1.742462217807770E-001;4.171385429799557E-003;-6.806718301959336E-004;2.910554409027100E-003;
2.408833333333334E+009;1.733902692794800E-001;2.946681343019009E-003;-6.577847525477409E-004;3.057796740904450E-003;
2.409000000000000E+009;1.727580428123474E-001;1.778904348611832E-003;-7.023331127129495E-004;3.089701291173697E-003;
2.409166666666667E+009;1.721381992101669E-001;2.544875605963171E-004;-5.859824013896287E-004;2.827648073434830E-003;
2.409333333333334E+009;1.717155873775482E-001;-1.364144263789058E-003;-4.526572301983833E-004;3.093378152698278E-003;
2.409500000000000E+009;1.709437519311905E-001;-2.886113245040178E-003;-3.566951781976968E-004;2.899390412494540E-003;
2.409666666666667E+009;1.703283637762070E-001;-4.592001438140869E-003;-2.884962013922632E-004;2.971173496916890E-003;
2.409833333333334E+009;1.696667075157166E-001;-6.052345968782902E-003;-2.213593252236024E-004;3.001117845997214E-003;
2.410000000000000E+009;1.693946272134781E-001;-7.904018275439739E-003;-2.533314400352538E-004;2.795942127704620E-003;
2.410166666666667E+009;1.688381880521774E-001;-9.812105447053909E-003;-2.121272555086762E-004;2.813311992213130E-003;
2.410333333333334E+009;1.684305965900421E-001;-1.142739225178957E-002;-3.051254025194794E-004;2.938041929155588E-003;
2.410500000000000E+009;1.682023853063583E-001;-1.339549757540226E-002;-8.158042328432202E-005;2.977774245664477E-003;
2.410666666666667E+009;1.677880734205246E-001;-1.549081970006228E-002;-5.023378616897389E-005;2.828734461218119E-003;
2.410833333333334E+009;1.675792336463928E-001;-1.707117818295956E-002;1.142013643402606E-004;2.797326771542430E-003;
2.411000000000000E+009;1.675894409418106E-001;-1.908420957624912E-002;1.535420888103545E-004;3.012231783941388E-003;
2.411166666666667E+009;1.675380319356918E-001;-2.108162827789784E-002;1.651214006415103E-005;2.861875109374523E-003;
2.411333333333334E+009;1.675155758857727E-001;-2.318348176777363E-002;2.305486668774393E-005;2.827871823683381E-003;
2.411500000000000E+009;1.675694137811661E-001;-2.520576119422913E-002;1.436395396012813E-004;2.857455750927329E-003;
2.411666666666667E+009;1.679020524024963E-001;-2.707190252840519E-002;4.132178728468716E-004;2.836839528754354E-003;
2.411833333333334E+009;1.681236326694489E-001;-2.895370870828629E-002;3.649483551271260E-004;3.039477160200477E-003;
2.412000000000000E+009;1.683107018470764E-001;-3.082606755197048E-002;3.911326057277620E-004;2.795649692416191E-003;
2.412166666666667E+009;1.686005145311356E-001;-3.280612081289291E-002;4.113322938792408E-004;2.699322998523712E-003;
2.412333333333334E+009;1.692039966583252E-001;-3.456176072359085E-002;5.627843202091754E-004;2.742604585364461E-003;
2.412500000000000E+009;1.697590053081513E-001;-3.626880794763565E-002;5.938155227340758E-004;2.621890977025032E-003;
2.412666666666667E+009;1.702232658863068E-001;-3.813321888446808E-002;6.046314956620336E-004;2.802606206387281E-003;
2.412833333333334E+009;1.706739366054535E-001;-3.989839926362038E-002;7.148649892769754E-004;2.552359597757459E-003;
2.413000000000000E+009;1.713649034500122E-001;-4.151395335793495E-002;7.766987546347082E-004;2.597097773104906E-003;
2.413166666666667E+009;1.720807403326035E-001;-4.302497580647469E-002;9.163917275145650E-004;2.616490935906768E-003;
2.413333333333334E+009;1.724589020013809E-001;-4.442301765084267E-002;7.766315247863531E-004;2.451044972985983E-003;
2.413500000000000E+009;1.731529980897903E-001;-4.581615328788757E-002;9.158001630567014E-004;2.388489898294210E-003;
2.413666666666667E+009;1.738880276679993E-001;-4.718178510665894E-002;8.440242963843048E-004;2.420095261186361E-003;
2.413833333333334E+009;1.743587255477905E-001;-4.842018708586693E-002;1.072427956387401E-003;2.425177954137325E-003;
2.414000000000000E+009;1.749177575111389E-001;-4.961356520652771E-002;9.417097317054868E-004;2.361372811719775E-003;
2.414166666666667E+009;1.755940020084381E-001;-5.047407373785973E-002;1.033086329698563E-003;2.380719641223550E-003;
2.414333333333334E+009;1.761692166328430E-001;-5.159735307097435E-002;1.038969610817730E-003;2.328000729903579E-003;
2.414500000000000E+009;1.768462359905243E-001;-5.246245861053467E-002;9.689975413493812E-004;2.267243806272745E-003;
2.414666666666667E+009;1.773451417684555E-001;-5.331169441342354E-002;8.823265088722110E-004;2.265653107315302E-003;
2.414833333333334E+009;1.776237189769745E-001;-5.414294451475143E-002;1.194287324324250E-003;2.447041682898998E-003;
2.415000000000000E+009;1.781179159879684E-001;-5.468568205833435E-002;1.146263908594847E-003;2.216423861682415E-003;
2.415166666666667E+009;1.782428473234177E-001;-5.526791140437126E-002;1.117967534810305E-003;2.159333089366555E-003;
2.415333333333334E+009;1.785687655210495E-001;-5.590154975652695E-002;1.055207336321473E-003;2.287492156028748E-003;
2.415500000000000E+009;1.788179129362106E-001;-5.624677613377571E-002;1.192581490613520E-003;2.313614590093494E-003;
2.415666666666667E+009;1.788306236267090E-001;-5.652415379881859E-002;1.235021161846817E-003;2.263431437313557E-003;
2.415833333333334E+009;1.789103597402573E-001;-5.698621273040772E-002;1.352284802123904E-003;2.283590612933040E-003;
2.416000000000000E+009;1.785594969987869E-001;-5.732184275984764E-002;1.405556336976588E-003;2.288018120452762E-003;
2.416166666666667E+009;1.786338835954666E-001;-5.760610848665237E-002;1.371005550026894E-003;2.283562673255801E-003;
2.416333333333334E+009;1.783101707696915E-001;-5.772260949015617E-002;1.456854864954948E-003;2.366223139688373E-003;
2.416500000000000E+009;1.780069470405579E-001;-5.806570872664452E-002;1.480356324464083E-003;2.446252154186368E-003;
2.416666666666667E+009;1.774621307849884E-001;-5.826539173722267E-002;1.540230819955468E-003;2.424496691673994E-003;
2.416833333333334E+009;1.771247684955597E-001;-5.849771201610565E-002;1.458505052141845E-003;2.362816128879786E-003;
2.417000000000000E+009;1.762118488550186E-001;-5.877593159675598E-002;1.718049752525985E-003;2.255002735182643E-003;
2.417166666666667E+009;1.756064593791962E-001;-5.891616269946098E-002;1.864055055193603E-003;2.263508969917893E-003;
2.417333333333334E+009;1.748518943786621E-001;-5.909177288413048E-002;1.822306308895350E-003;2.380449557676911E-003;
2.417500000000000E+009;1.739109158515930E-001;-5.952791124582291E-002;1.887513906694949E-003;2.276983344927430E-003;
2.417666666666667E+009;1.730674058198929E-001;-5.972303822636604E-002;2.007975243031979E-003;2.292635850608349E-003;
2.417833333333334E+009;1.720119267702103E-001;-6.005156412720680E-002;2.199083566665649E-003;2.099391771480441E-003;
2.418000000000000E+009;1.708969324827194E-001;-6.082538887858391E-002;2.164710778743029E-003;2.360415877774358E-003;
2.418166666666667E+009;1.697029322385788E-001;-6.104702502489090E-002;2.209189580753446E-003;2.181797521188855E-003;
2.418333333333334E+009;1.687830388545990E-001;-6.166489049792290E-002;2.364682964980602E-003;2.088943962007761E-003;
2.418500000000000E+009;1.673808842897415E-001;-6.234075129032135E-002;2.605699002742767E-003;2.072390867397189E-003;
2.418666666666667E+009;1.663540154695511E-001;-6.306064873933792E-002;2.483306452631950E-003;2.036228310316801E-003;
2.418833333333334E+009;1.648892462253571E-001;-6.369303911924362E-002;2.670697867870331E-003;1.940781832672656E-003;
2.419000000000000E+009;1.636930704116821E-001;-6.440235674381256E-002;2.753585111349821E-003;1.838913420215249E-003;
2.419166666666667E+009;1.624223738908768E-001;-6.543903797864914E-002;2.865235554054380E-003;1.763931126333773E-003;
2.419333333333334E+009;1.609225124120712E-001;-6.620155274868012E-002;2.956159180030227E-003;1.768233370967209E-003;
2.419500000000000E+009;1.600500792264938E-001;-6.747170537710190E-002;3.115792758762837E-003;1.756192534230650E-003;
2.419666666666667E+009;1.588651239871979E-001;-6.863247603178024E-002;3.058498725295067E-003;1.531056826934218E-003;
2.419833333333334E+009;1.576732546091080E-001;-6.976816058158875E-002;3.146850503981113E-003;1.610467908903956E-003;
2.420000000000000E+009;1.566143929958344E-001;-7.095128297805786E-002;3.293639514595270E-003;1.386387972161174E-003;
2.420166666666667E+009;1.554295569658279E-001;-7.225190848112106E-002;3.250148380175233E-003;1.259577693417668E-003;
2.420333333333334E+009;1.545847505331039E-001;-7.375439256429672E-002;3.515293356031179E-003;1.165022724308074E-003;
2.420500000000000E+009;1.538398265838623E-001;-7.506580650806427E-002;3.511096118018031E-003;1.118474523536861E-003;
2.420666666666667E+009;1.528766155242920E-001;-7.662586867809296E-002;3.495258279144764E-003;9.893558453768492E-004;
2.420833333333334E+009;1.521426290273666E-001;-7.812951505184174E-002;3.621120471507311E-003;7.995858322829008E-004;
2.421000000000000E+009;1.513914018869400E-001;-7.984410971403122E-002;3.634020453318954E-003;6.269052973948419E-004;
2.421166666666667E+009;1.509049981832504E-001;-8.134841918945313E-002;3.585724392905831E-003;5.275799776427448E-004;
2.421333333333334E+009;1.504625976085663E-001;-8.292811363935471E-002;3.714062273502350E-003;3.887522034347057E-004;
2.421500000000000E+009;1.499049961566925E-001;-8.460033684968948E-002;3.554800292477012E-003;3.090486279688776E-004;
2.421666666666667E+009;1.497009247541428E-001;-8.639736473560333E-002;3.702654968947172E-003;1.260672870557755E-004;
2.421833333333334E+009;1.494377255439758E-001;-8.798495680093765E-002;3.523423336446285E-003;-1.597968075657263E-004;
2.422000000000000E+009;1.493410170078278E-001;-8.971146494150162E-002;3.613513428717852E-003;-3.587569517549127E-004;
2.422166666666667E+009;1.491817682981491E-001;-9.148215502500534E-002;3.620737465098500E-003;-3.953694249503315E-004;
2.422333333333334E+009;1.493503153324127E-001;-9.308190643787384E-002;3.447353374212980E-003;-5.805683322250843E-004;
2.422500000000000E+009;1.492927074432373E-001;-9.462162107229233E-002;3.356242319568992E-003;-5.945348530076444E-004;
2.422666666666667E+009;1.494696885347366E-001;-9.625846147537231E-002;3.399193054065108E-003;-8.417766075581312E-004;
2.422833333333334E+009;1.498678624629974E-001;-9.802027791738510E-002;3.282966790720820E-003;-9.490151423960924E-004;
2.423000000000000E+009;1.501798182725906E-001;-9.936967492103577E-002;3.181406995281577E-003;-9.868692141026259E-004;
2.423166666666667E+009;1.504591405391693E-001;-1.009753569960594E-001;3.103529103100300E-003;-9.953961707651615E-004;
2.423333333333334E+009;1.510310918092728E-001;-1.021653786301613E-001;3.041896969079971E-003;-1.240992452949286E-003;
2.423500000000000E+009;1.514057815074921E-001;-1.036640256643295E-001;2.939740894362330E-003;-1.312326989136636E-003;
2.423666666666667E+009;1.517745405435562E-001;-1.049578413367271E-001;2.741611795499921E-003;-1.312538748607040E-003;
2.423833333333334E+009;1.524473130702972E-001;-1.063638404011726E-001;2.657332224771380E-003;-1.261803205125034E-003;
2.424000000000000E+009;1.527836620807648E-001;-1.073715388774872E-001;2.648944733664393E-003;-1.454925513826311E-003;
2.424166666666667E+009;1.534149199724197E-001;-1.084642633795738E-001;2.597043290734291E-003;-1.451505697332323E-003;
2.424333333333334E+009;1.539543718099594E-001;-1.094279661774635E-001;2.321260515600443E-003;-1.497437478974462E-003;
2.424500000000000E+009;1.544512510299683E-001;-1.104376241564751E-001;2.446806523948908E-003;-1.447480753995478E-003;
2.424666666666667E+009;1.550408303737640E-001;-1.111297905445099E-001;2.341999672353268E-003;-1.499044825322926E-003;
2.424833333333334E+009;1.553528755903244E-001;-1.119604036211968E-001;2.363166073337197E-003;-1.473376294597983E-003;
2.425000000000000E+009;1.557006835937500E-001;-1.127154082059860E-001;2.317154547199607E-003;-1.561091397888959E-003;
2.425166666666667E+009;1.559899598360062E-001;-1.133008226752281E-001;2.230939688161016E-003;-1.459906692616642E-003;
2.425333333333334E+009;1.564573496580124E-001;-1.138041764497757E-001;2.197737339884043E-003;-1.526026288047433E-003;
2.425500000000000E+009;1.567558646202087E-001;-1.144585981965065E-001;2.258885418996215E-003;-1.494422089308500E-003;
2.425666666666667E+009;1.568301469087601E-001;-1.148808822035790E-001;2.123305108398199E-003;-1.586747821420431E-003;
2.425833333333334E+009;1.571021229028702E-001;-1.151466369628906E-001;2.134758979082108E-003;-1.652167178690434E-003;
2.426000000000000E+009;1.571079343557358E-001;-1.155234426259995E-001;2.031313255429268E-003;-1.541779492981732E-003;
2.426166666666667E+009;1.572720259428024E-001;-1.159055233001709E-001;1.986628863960505E-003;-1.539055141620338E-003;
2.426333333333334E+009;1.570390611886978E-001;-1.159431189298630E-001;1.966273877769709E-003;-1.547274994663894E-003;
2.426500000000000E+009;1.569234132766724E-001;-1.161566451191902E-001;2.149816835299134E-003;-1.716853352263570E-003;
2.426666666666667E+009;1.566521078348160E-001;-1.162163764238358E-001;2.042892854660749E-003;-1.617982285097241E-003;
2.426833333333334E+009;1.562183797359467E-001;-1.164064034819603E-001;1.927353790961206E-003;-1.808630186133087E-003;
2.427000000000000E+009;1.557787507772446E-001;-1.166559532284737E-001;2.052075928077102E-003;-1.833292306400836E-003;
2.427166666666667E+009;1.551206409931183E-001;-1.165445968508720E-001;1.998389139771462E-003;-1.716569066047669E-003;
2.427333333333334E+009;1.544134914875031E-001;-1.167985647916794E-001;1.910390099510551E-003;-1.779144862666726E-003;
2.427500000000000E+009;1.537553519010544E-001;-1.169530153274536E-001;1.861663069576025E-003;-1.893895328976214E-003;
2.427666666666667E+009;1.527972370386124E-001;-1.171657741069794E-001;1.800660742446780E-003;-2.039830433204770E-003;
2.427833333333334E+009;1.518342494964600E-001;-1.172977611422539E-001;1.935999724082649E-003;-2.072351519018412E-003;
