# Version 1.00
#
freq[Hz];re:Trc1_S11;im:Trc1_S11;re:Trc2_S21;im:Trc2_S21;
2.400000000000000E+009;1.557459086179733E-001;1.077175363898277E-001;-1.620079157873988E-003;-6.995243020355701E-003;
2.400166666666667E+009;1.549879312515259E-001;1.045998930931091E-001;-1.902595977298915E-003;-6.285479757934809E-003;
2.400333333333334E+009;1.550537794828415E-001;1.022217124700546E-001;-2.151164924725890E-003;-6.211869884282351E-003;
2.400500000000000E+009;1.549738347530365E-001;9.950327128171921E-002;-2.444606041535735E-003;-6.120558828115463E-003;
2.400666666666667E+009;1.550617218017578E-001;9.691708534955978E-002;-2.444438636302948E-003;-5.923497490584850E-003;
2.400833333333334E+009;1.548798531293869E-001;9.405224770307541E-002;-2.641514642164111E-003;-5.745358765125275E-003;
2.401000000000000E+009;1.552469432353973E-001;9.141939133405685E-002;-2.781635848805308E-003;-5.489281378686428E-003;
2.401166666666667E+009;1.551279425621033E-001;8.853027224540710E-002;-3.038903465494514E-003;-5.303872749209404E-003;
2.401333333333334E+009;1.557665616273880E-001;8.551237732172012E-002;-2.993233734741807E-003;-5.019108764827251E-003;
2.401500000000000E+009;1.561125069856644E-001;8.261029422283173E-002;-3.053416265174747E-003;-4.966046195477247E-003;
2.401666666666667E+009;1.563633978366852E-001;7.986474782228470E-002;-3.004798898473382E-003;-4.787479527294636E-003;
2.401833333333334E+009;1.569160073995590E-001;7.713337987661362E-002;-3.001939970999956E-003;-4.788701888173819E-003;
2.402000000000000E+009;1.577580869197846E-001;7.418522238731384E-002;-3.139338456094265E-003;-4.775020759552717E-003;
2.402166666666667E+009;1.586190611124039E-001;7.167389988899231E-002;-3.231650916859508E-003;-4.502857103943825E-003;
2.402333333333334E+009;1.596503257751465E-001;6.892400979995728E-002;-3.236952237784863E-003;-4.685781896114349E-003;
2.402500000000000E+009;1.607227176427841E-001;6.639917194843292E-002;-3.260199679061770E-003;-4.626211710274220E-003;
2.402666666666667E+009;1.618671715259552E-001;6.401686370372772E-002;-3.387417411431670E-003;-4.789627622812986E-003;
2.402833333333334E+009;1.632041484117508E-001;6.141971424221993E-002;-3.474603407084942E-003;-4.602331668138504E-003;
2.403000000000000E+009;1.646929234266281E-001;5.915888026356697E-002;-3.831415437161923E-003;-4.534955136477947E-003;
2.403166666666667E+009;1.664348095655441E-001;5.688262358307838E-002;-3.942406270653009E-003;-4.494143184274435E-003;
2.403333333333334E+009;1.677543520927429E-001;5.479994788765907E-002;-4.383336286991835E-003;-5.176675971597433E-003;
2.403500000000000E+009;1.696542203426361E-001;5.265183374285698E-002;-5.122656933963299E-003;-4.609762690961361E-003;
2.403666666666667E+009;1.712314188480377E-001;5.073441937565804E-002;-4.173649009317160E-003;-4.997709300369024E-003;
2.403833333333334E+009;1.730084270238876E-001;4.882459342479706E-002;-5.019886884838343E-003;-4.581882618367672E-003;
2.404000000000000E+009;1.743151843547821E-001;4.692986980080605E-002;-4.609557799994946E-003;-4.215527791529894E-003;
2.404166666666667E+009;1.763894706964493E-001;4.573437571525574E-002;-5.731013603508472E-003;-3.984194248914719E-003;
2.404333333333334E+009;1.780728697776794E-001;4.388881102204323E-002;-6.020876578986645E-003;-2.739467658102512E-003;
2.404500000000000E+009;1.796445995569229E-001;4.247124865651131E-002;-5.840402096509934E-003;-2.756893634796143E-003;
2.404666666666667E+009;1.810938119888306E-001;4.150914773344994E-002;-5.291666369885206E-003;-3.037989605218172E-003;
2.404833333333334E+009;1.826557517051697E-001;4.044683277606964E-002;-5.344594828784466E-003;-3.013452049344778E-003;
2.405000000000000E+009;1.841229945421219E-001;3.985848650336266E-002;-5.800904706120491E-003;-2.340437145903707E-003;
2.405166666666667E+009;1.857048869132996E-001;3.912257775664330E-002;-5.658707115799189E-003;-1.949022524058819E-003;
2.405333333333334E+009;1.870361417531967E-001;3.852740302681923E-002;-5.750095937401056E-003;-1.813964452594519E-003;
2.405500000000000E+009;1.884668618440628E-001;3.819191828370094E-002;-5.664187483489513E-003;-1.405443414114416E-003;
2.405666666666667E+009;1.896827071905136E-001;3.772334754467011E-002;-5.498554091900587E-003;-1.233355607837439E-003;
2.405833333333334E+009;1.909010261297226E-001;3.747368603944778E-002;-5.533175077289343E-003;-1.146372640505433E-003;
2.406000000000000E+009;1.919090151786804E-001;3.732302784919739E-002;-5.392753519117832E-003;-9.618065087124705E-004;
2.406166666666667E+009;1.930376440286636E-001;3.712408617138863E-002;-5.393619649112225E-003;-7.686263998039067E-004;
2.406333333333334E+009;1.938240677118301E-001;3.713564574718475E-002;-5.376770161092281E-003;-6.599897169508040E-004;
2.406500000000000E+009;1.945549696683884E-001;3.719418123364449E-002;-5.231024231761694E-003;-5.299228942021728E-004;
2.406666666666667E+009;1.951444149017334E-001;3.716836124658585E-002;-5.100484006106854E-003;-5.339044146239758E-004;
2.406833333333334E+009;1.956925392150879E-001;3.720502555370331E-002;-4.973249044269323E-003;-3.609972482081503E-004;
2.407000000000000E+009;1.959049999713898E-001;3.748921304941177E-002;-4.899423103779554E-003;-3.666509874165058E-004;
2.407166666666667E+009;1.962283998727799E-001;3.723108768463135E-002;-4.922232590615749E-003;-2.725098456721753E-004;
2.407333333333334E+009;1.963043808937073E-001;3.743418306112289E-002;-4.864007700234652E-003;-3.419078420847654E-004;
2.407500000000000E+009;1.960926949977875E-001;3.757532313466072E-002;-4.853155929595232E-003;-4.188162347418256E-005;
2.407666666666667E+009;1.961000859737396E-001;3.751575946807861E-002;-4.796482622623444E-003;-1.119742519222200E-004;
2.407833333333334E+009;1.956027597188950E-001;3.739205002784729E-002;-4.757621325552464E-003;5.754049561801367E-005;
2.408000000000000E+009;1.954682320356369E-001;3.726539015769959E-002;-4.842948168516159E-003;1.354358537355438E-004;
2.408166666666667E+009;1.948384493589401E-001;3.709589317440987E-002;-4.786080680787563E-003;2.077242388622835E-004;
2.408333333333334E+009;1.943439543247223E-001;3.658866137266159E-002;-4.690954927355051E-003;1.661948190303519E-004;
2.408500000000000E+009;1.936047822237015E-001;3.639204800128937E-002;-4.712489433586597E-003;1.859962649177760E-004;
2.408666666666667E+009;1.930120736360550E-001;3.590985760092735E-002;-4.829485435038805E-003;8.489852189086378E-005;
2.408833333333334E+009;1.922194510698319E-001;3.505180776119232E-002;-4.710515495389700E-003;3.243045066483319E-004;
2.409000000000000E+009;1.912383884191513E-001;3.419231995940208E-002;-4.970507230609655E-003;3.530112444423139E-004;
2.409166666666667E+009;1.902706027030945E-001;3.335358202457428E-002;-5.009512882679701E-003;3.664940013550222E-004;
2.409333333333334E+009;1.893462687730789E-001;3.235583752393723E-002;-4.943270701915026E-003;4.811358812730759E-004;
2.409500000000000E+009;1.882140785455704E-001;3.121649101376534E-002;-5.114302039146423E-003;5.255980649963021E-004;
2.409666666666667E+009;1.873751580715179E-001;2.972630411386490E-002;-5.220637191087008E-003;8.631757809780538E-004;
2.409833333333334E+009;1.862330734729767E-001;2.824950404465199E-002;-5.193568766117096E-003;1.015364192426205E-003;
2.410000000000000E+009;1.853740811347961E-001;2.669874019920826E-002;-5.198590457439423E-003;9.784770663827658E-004;
2.410166666666667E+009;1.843408495187759E-001;2.473276667296886E-002;-5.322683136910200E-003;1.385090872645378E-003;
2.410333333333334E+009;1.834118068218231E-001;2.301801182329655E-002;-5.316833034157753E-003;1.417690422385931E-003;
2.410500000000000E+009;1.824565529823303E-001;2.113397978246212E-002;-5.159894935786724E-003;1.427031820639968E-003;
2.410666666666667E+009;1.815542876720429E-001;1.878536865115166E-002;-5.317999515682459E-003;1.840195152908564E-003;
2.410833333333334E+009;1.808696240186691E-001;1.669029332697392E-002;-5.212300457060337E-003;1.885830424726009E-003;
2.411000000000000E+009;1.800020933151245E-001;1.440134551376104E-002;-4.994114395231009E-003;2.042835578322411E-003;
2.411166666666667E+009;1.794031858444214E-001;1.237847283482552E-002;-4.960632883012295E-003;2.076047938317061E-003;
2.411333333333334E+009;1.789672970771790E-001;9.568702429533005E-003;-4.975012969225645E-003;2.361236605793238E-003;
2.411500000000000E+009;1.785427033901215E-001;7.329944986850023E-003;-4.829688463360071E-003;2.688405103981495E-003;
2.411666666666667E+009;1.784532070159912E-001;4.824936389923096E-003;-4.695550538599491E-003;2.514360938221216E-003;
2.411833333333334E+009;1.781355291604996E-001;2.559250220656395E-003;-4.699199926108122E-003;2.663031686097384E-003;
2.412000000000000E+009;1.782602518796921E-001;9.552316623739898E-005;-4.525791388005018E-003;2.825948409736157E-003;
2.412166666666667E+009;1.783848404884338E-001;-2.407895633950830E-003;-4.374831914901733E-003;2.814068924635649E-003;
2.412333333333334E+009;1.785456538200378E-001;-4.824641626328230E-003;-4.283102229237557E-003;2.867176430299878E-003;
2.412500000000000E+009;1.790724843740463E-001;-7.381889037787914E-003;-4.247912671416998E-003;3.034461988136172E-003;
2.412666666666667E+009;1.793684065341950E-001;-9.904023259878159E-003;-4.175302106887102E-003;3.101901849731803E-003;
2.412833333333334E+009;1.802859157323837E-001;-1.228768844157457E-002;-4.195458721369505E-003;3.167815273627639E-003;
2.413000000000000E+009;1.809825003147125E-001;-1.474378351122141E-002;-4.246492404490709E-003;3.268468892201781E-003;
2.413166666666667E+009;1.817013472318649E-001;-1.694816164672375E-002;-4.062203690409660E-003;3.278049407526851E-003;
2.413333333333334E+009;1.829161047935486E-001;-1.912987604737282E-002;-3.994698636233807E-003;3.601982956752181E-003;
2.413500000000000E+009;1.835345327854157E-001;-2.151629142463207E-002;-4.048691131174564E-003;3.484728280454874E-003;
2.413666666666667E+009;1.850441098213196E-001;-2.382879517972469E-002;-3.838977776467800E-003;3.635233733803034E-003;
2.413833333333334E+009;1.859918385744095E-001;-2.558699809014797E-002;-4.050645045936108E-003;3.768699476495385E-003;
2.414000000000000E+009;1.871444582939148E-001;-2.766428329050541E-002;-3.885505255311728E-003;3.926236182451248E-003;
2.414166666666667E+009;1.883770674467087E-001;-2.949971705675125E-002;-3.963466733694077E-003;4.000309389084578E-003;
2.414333333333334E+009;1.896747946739197E-001;-3.139259666204453E-002;-3.844883758574724E-003;4.277718719094992E-003;
2.414500000000000E+009;1.908805072307587E-001;-3.294092044234276E-002;-3.828458953648806E-003;4.595957696437836E-003;
2.414666666666667E+009;1.921612471342087E-001;-3.440620005130768E-002;-3.681957488879561E-003;4.817207809537649E-003;
2.414833333333334E+009;1.932689398527145E-001;-3.584366664290428E-002;-3.585668047890067E-003;4.941616673022509E-003;
2.415000000000000E+009;1.945047676563263E-001;-3.714826703071594E-002;-3.282984718680382E-003;5.112602841109037E-003;
2.415166666666667E+009;1.957142204046249E-001;-3.825231641530991E-002;-3.266668878495693E-003;5.077703390270472E-003;
2.415333333333334E+009;1.967645436525345E-001;-3.920001909136772E-002;-3.024965990334749E-003;5.334107205271721E-003;
2.415500000000000E+009;1.979078948497772E-001;-3.990558907389641E-002;-2.660808619111776E-003;5.569843109697104E-003;
2.415666666666667E+009;1.990409046411514E-001;-4.087244719266892E-002;-2.545669907703996E-003;5.658961366862059E-003;
2.415833333333334E+009;1.998071074485779E-001;-4.132958874106407E-002;-2.353080781176686E-003;5.735733546316624E-003;
2.416000000000000E+009;2.005263864994049E-001;-4.198816418647766E-002;-2.091184724122286E-003;5.741368979215622E-003;
2.416166666666667E+009;2.013384252786636E-001;-4.250217229127884E-002;-1.956046093255281E-003;5.865009501576424E-003;
2.416333333333334E+009;2.020862549543381E-001;-4.277331754565239E-002;-1.552849658764899E-003;5.974554456770420E-003;
2.416500000000000E+009;2.024264186620712E-001;-4.302436485886574E-002;-1.447672490030527E-003;5.898472853004932E-003;
2.416666666666667E+009;2.027214914560318E-001;-4.338913783431053E-002;-1.088452176190913E-003;6.011891644448042E-003;
2.416833333333334E+009;2.027604281902313E-001;-4.335285723209381E-002;-8.970862836576998E-004;5.977357737720013E-003;
2.417000000000000E+009;2.029772996902466E-001;-4.342780634760857E-002;-7.395470747724176E-004;6.038313731551170E-003;
2.417166666666667E+009;2.026575803756714E-001;-4.342322424054146E-002;-5.611407686956227E-004;6.094184704124928E-003;
2.417333333333334E+009;2.024438381195068E-001;-4.318447783589363E-002;-3.053334075957537E-004;6.064618472009897E-003;
2.417500000000000E+009;2.020602673292160E-001;-4.312133044004440E-002;-7.424111390719190E-005;5.921442061662674E-003;
2.417666666666667E+009;2.016076892614365E-001;-4.279119148850441E-002;1.617100642761216E-004;5.981673020869494E-003;
2.417833333333334E+009;2.011013776063919E-001;-4.257890582084656E-002;2.887861919589341E-004;5.919188726693392E-003;
2.418000000000000E+009;2.005591541528702E-001;-4.238437488675118E-002;3.976199077442288E-004;5.821066442877054E-003;
2.418166666666667E+009;1.996218115091324E-001;-4.230432212352753E-002;7.215124205686152E-004;5.830217618495226E-003;
2.418333333333334E+009;1.987329125404358E-001;-4.218302294611931E-002;9.343186975456774E-004;5.720434710383415E-003;
2.418500000000000E+009;1.977624148130417E-001;-4.225227236747742E-002;1.025556935928762E-003;5.596053320914507E-003;
2.418666666666667E+009;1.967624723911285E-001;-4.215712100267410E-002;1.364998635835946E-003;5.591436754912138E-003;
2.418833333333334E+009;1.955181360244751E-001;-4.226216673851013E-002;1.297620590776205E-003;5.439705681055784E-003;
2.419000000000000E+009;1.941351890563965E-001;-4.246602579951286E-002;1.610018429346383E-003;5.161471664905548E-003;
2.419166666666667E+009;1.928552836179733E-001;-4.275478422641754E-002;1.734214136376977E-003;5.243167281150818E-003;
2.419333333333334E+009;1.913825273513794E-001;-4.326924681663513E-002;1.848877640441060E-003;5.124203860759735E-003;
2.419500000000000E+009;1.900005340576172E-001;-4.360137507319450E-002;2.054401906207204E-003;5.106039345264435E-003;
2.419666666666667E+009;1.882794499397278E-001;-4.459909722208977E-002;2.101006684824824E-003;4.916563630104065E-003;
2.419833333333334E+009;1.866339147090912E-001;-4.525003954768181E-002;2.058406593278050E-003;4.940986633300781E-003;
2.420000000000000E+009;1.850547939538956E-001;-4.621196910738945E-002;2.195231383666396E-003;4.726191982626915E-003;
2.420166666666667E+009;1.834232211112976E-001;-4.717442765831947E-002;2.296280348673463E-003;4.676573444157839E-003;
2.420333333333334E+009;1.818311214447022E-001;-4.831241816282272E-002;2.465932164341211E-003;4.625664558261633E-003;
2.420500000000000E+009;1.800372898578644E-001;-4.974039644002914E-002;2.364225685596466E-003;4.457151051610708E-003;
2.420666666666667E+009;1.784620136022568E-001;-5.077489465475082E-002;2.552537247538567E-003;4.258191213011742E-003;
2.420833333333334E+009;1.768693178892136E-001;-5.227304622530937E-002;2.595189725980163E-003;4.138886462897062E-003;
2.421000000000000E+009;1.751416176557541E-001;-5.381136015057564E-002;2.424448495730758E-003;4.024039953947067E-003;
2.421166666666667E+009;1.737699806690216E-001;-5.555737018585205E-002;2.595675876364112E-003;3.934941254556179E-003;
2.421333333333334E+009;1.720225512981415E-001;-5.700653791427612E-002;2.508289180696011E-003;3.852641442790628E-003;
2.421500000000000E+009;1.707219481468201E-001;-5.907310172915459E-002;2.478289185091853E-003;3.900375682860613E-003;
2.421666666666667E+009;1.696030646562576E-001;-6.069948896765709E-002;2.513368614017963E-003;3.697081468999386E-003;
2.421833333333334E+009;1.683512032032013E-001;-6.263342499732971E-002;2.484105527400971E-003;3.755455138161779E-003;
2.422000000000000E+009;1.673033982515335E-001;-6.438009440898895E-002;2.474328968673945E-003;3.694287268444896E-003;
2.422166666666667E+009;1.663721203804016E-001;-6.662540882825851E-002;2.488801721483469E-003;3.746093716472387E-003;
2.422333333333334E+009;1.653351932764053E-001;-6.877588480710983E-002;2.689201617613435E-003;3.743923502042890E-003;
2.422500000000000E+009;1.645401269197464E-001;-7.053751498460770E-002;2.746431622654200E-003;3.824750194326043E-003;
2.422666666666667E+009;1.638998836278915E-001;-7.274799793958664E-002;2.606529742479324E-003;3.745802678167820E-003;
2.422833333333334E+009;1.634118854999542E-001;-7.463417947292328E-002;2.909723203629255E-003;3.821567399427295E-003;
2.423000000000000E+009;1.629318594932556E-001;-7.668571174144745E-002;3.080016467720270E-003;3.706103889271617E-003;
2.423166666666667E+009;1.625350713729858E-001;-7.865750044584274E-002;3.054612781852484E-003;3.689677687361836E-003;
2.423333333333334E+009;1.622740179300308E-001;-8.065498620271683E-002;3.315580310299993E-003;3.652080195024610E-003;
2.423500000000000E+009;1.622899174690247E-001;-8.248765021562576E-002;3.310690633952618E-003;3.588455729186535E-003;
2.423666666666667E+009;1.623787134885788E-001;-8.445665240287781E-002;3.529993817210197E-003;3.518216079100967E-003;
2.423833333333334E+009;1.623839735984802E-001;-8.617810159921646E-002;3.654814558103681E-003;3.209006041288376E-003;
2.424000000000000E+009;1.624877601861954E-001;-8.803755789995194E-002;3.551177214831114E-003;3.184807719662786E-003;
2.424166666666667E+009;1.625748574733734E-001;-8.951710164546967E-002;3.692633472383022E-003;3.113659098744392E-003;
2.424333333333334E+009;1.628920882940292E-001;-9.106313437223434E-002;3.857468254864216E-003;3.154341829940677E-003;
2.424500000000000E+009;1.633184105157852E-001;-9.283334016799927E-002;3.770958632230759E-003;3.048779210075736E-003;
2.424666666666667E+009;1.633805185556412E-001;-9.410894662141800E-002;3.928265068680048E-003;3.087159711867571E-003;
2.424833333333334E+009;1.640303283929825E-001;-9.534202516078949E-002;4.164051264524460E-003;3.003030316904187E-003;
2.425000000000000E+009;1.644405126571655E-001;-9.657763689756393E-002;4.102102480828762E-003;2.750385785475373E-003;
2.425166666666667E+009;1.648565381765366E-001;-9.771902114152908E-002;4.164665937423706E-003;2.796907210722566E-003;
2.425333333333334E+009;1.652704179286957E-001;-9.862884879112244E-002;4.334040917456150E-003;2.580937230959535E-003;
2.425500000000000E+009;1.657765507698059E-001;-9.960844367742539E-002;4.362825304269791E-003;2.567331539466977E-003;
2.425666666666667E+009;1.662378311157227E-001;-1.002020686864853E-001;4.545344971120358E-003;2.408907981589437E-003;
2.425833333333334E+009;1.664722710847855E-001;-1.011178269982338E-001;4.534868523478508E-003;2.527568023651838E-003;
2.426000000000000E+009;1.668935418128967E-001;-1.015117317438126E-001;4.646784160286188E-003;2.307019662111998E-003;
2.426166666666667E+009;1.674248427152634E-001;-1.020591780543327E-001;4.813773091882467E-003;2.226203912869096E-003;
2.426333333333334E+009;1.674345731735230E-001;-1.024960055947304E-001;4.846271593123674E-003;2.079961588606238E-003;
2.426500000000000E+009;1.678912639617920E-001;-1.027645394206047E-001;4.911499097943306E-003;2.013953169807792E-003;
2.426666666666667E+009;1.681168377399445E-001;-1.030760928988457E-001;5.010298918932676E-003;1.775150769390166E-003;
2.426833333333334E+009;1.683496981859207E-001;-1.032634899020195E-001;5.092731211334467E-003;1.833717455156148E-003;
2.427000000000000E+009;1.683408170938492E-001;-1.034791320562363E-001;5.139755085110664E-003;1.575391856022179E-003;
2.427166666666667E+009;1.683630049228668E-001;-1.035124361515045E-001;5.295888520777226E-003;1.392725971527398E-003;
2.427333333333334E+009;1.682698279619217E-001;-1.037865728139877E-001;5.274091381579638E-003;1.355746993795037E-003;
2.427500000000000E+009;1.681027412414551E-001;-1.038651093840599E-001;5.439937114715576E-003;1.268883934244514E-003;
2.427666666666667E+009;1.677347421646118E-001;-1.039168685674667E-001;5.539801903069019E-003;1.016631373204291E-003;
2.427833333333334E+009;1.673726290464401E-001;-1.041021570563316E-001;5.428005475550890E-003;9.834701195359230E-004;
