# Version 1.00
#
freq[Hz];re:Trc1_S11;im:Trc1_S11;re:Trc2_S21;im:Trc2_S21;
2.400000000000000E+009;1.553752422332764E-001;1.067734807729721E-001;-1.725742011331022E-003;-6.493508350104094E-003;
2.400166666666667E+009;1.549059003591538E-001;1.042665466666222E-001;-1.937620691023767E-003;-6.291065365076065E-003;
2.400333333333334E+009;1.549499779939652E-001;1.019733846187592E-001;-2.299770480021834E-003;-6.180495489388704E-003;
2.400500000000000E+009;1.549904942512512E-001;9.927783161401749E-002;-2.223951509222388E-003;-6.060294341295958E-003;
2.400666666666667E+009;1.549235284328461E-001;9.690664708614349E-002;-2.509216777980328E-003;-5.880155134946108E-003;
2.400833333333334E+009;1.550986319780350E-001;9.387931972742081E-002;-2.733637113124132E-003;-5.499189719557762E-003;
2.401000000000000E+009;1.552322506904602E-001;9.106443077325821E-002;-2.660394646227360E-003;-5.392805673182011E-003;
2.401166666666667E+009;1.552812159061432E-001;8.841972053050995E-002;-2.857284154742956E-003;-5.258205346763134E-003;
2.401333333333334E+009;1.557551622390747E-001;8.549996465444565E-002;-2.951334230601788E-003;-5.124169867485762E-003;
2.401500000000000E+009;1.562531292438507E-001;8.245930075645447E-002;-2.942127641290426E-003;-4.845868330448866E-003;
2.401666666666667E+009;1.565492749214172E-001;7.962740212678909E-002;-2.959239995107055E-003;-4.797017201781273E-003;
2.401833333333334E+009;1.568990349769592E-001;7.690072059631348E-002;-3.084652591496706E-003;-4.711356479674578E-003;
2.402000000000000E+009;1.576938629150391E-001;7.400760054588318E-002;-3.092187223955989E-003;-4.665709100663662E-003;
2.402166666666667E+009;1.587183624505997E-001;7.147768139839172E-002;-3.052787156775594E-003;-4.367275629192591E-003;
2.402333333333334E+009;1.596082895994186E-001;6.878210604190826E-002;-3.304546000435948E-003;-4.626584239304066E-003;
2.402500000000000E+009;1.606368124485016E-001;6.627676635980606E-002;-3.218091791495681E-003;-4.606211557984352E-003;
2.402666666666667E+009;1.620205491781235E-001;6.372198462486267E-002;-3.366936929523945E-003;-4.577293526381254E-003;
2.402833333333334E+009;1.630270928144455E-001;6.130747497081757E-002;-3.593623870983720E-003;-4.652456846088171E-003;
2.403000000000000E+009;1.647536903619766E-001;5.889895930886269E-002;-3.790131304413080E-003;-4.593567457050085E-003;
2.403166666666667E+009;1.663449108600617E-001;5.680141225457192E-002;-3.810082795098424E-003;-4.668503534048796E-003;
2.403333333333334E+009;1.678996682167053E-001;5.458514019846916E-002;-4.087159410119057E-003;-4.473589826375246E-003;
2.403500000000000E+009;1.695756018161774E-001;5.252834782004356E-002;-4.454698413610458E-003;-4.448497202247381E-003;
2.403666666666667E+009;1.712167412042618E-001;5.057855695486069E-002;-4.598105791956186E-003;-4.296629223972559E-003;
2.403833333333334E+009;1.727341562509537E-001;4.873365536332130E-002;-4.936276469379664E-003;-4.122276324778795E-003;
2.404000000000000E+009;1.743984371423721E-001;4.703744500875473E-002;-4.904328845441341E-003;-3.796068020164967E-003;
2.404166666666667E+009;1.760417371988297E-001;4.552287980914116E-002;-5.232014227658510E-003;-3.578078467398882E-003;
2.404333333333334E+009;1.777085214853287E-001;4.385717958211899E-002;-5.505530629307032E-003;-3.526693675667048E-003;
2.404500000000000E+009;1.793683022260666E-001;4.260785505175591E-002;-5.580035503953695E-003;-3.007595194503665E-003;
2.404666666666667E+009;1.810404807329178E-001;4.140986502170563E-002;-5.614458583295345E-003;-2.862289547920227E-003;
2.404833333333334E+009;1.826762855052948E-001;4.040240868926048E-002;-5.589934997260571E-003;-2.640357939526439E-003;
2.405000000000000E+009;1.840414702892304E-001;3.981468454003334E-002;-5.681983195245266E-003;-2.213917672634125E-003;
2.405166666666667E+009;1.854781210422516E-001;3.898384794592857E-002;-5.680019501596689E-003;-2.034282544627786E-003;
2.405333333333334E+009;1.868673115968704E-001;3.841661661863327E-002;-5.650918930768967E-003;-1.683078706264496E-003;
2.405500000000000E+009;1.882789134979248E-001;3.819302469491959E-002;-5.651174578815699E-003;-1.415172824636102E-003;
2.405666666666667E+009;1.895671784877777E-001;3.769404813647270E-002;-5.484104622155428E-003;-1.313181011937559E-003;
2.405833333333334E+009;1.908230930566788E-001;3.743422403931618E-002;-5.420452449470758E-003;-1.299645169638097E-003;
2.406000000000000E+009;1.918934434652329E-001;3.722691163420677E-002;-5.312846973538399E-003;-1.029368489980698E-003;
2.406166666666667E+009;1.928203403949738E-001;3.709714487195015E-002;-5.303231533616781E-003;-7.550343289040029E-004;
2.406333333333334E+009;1.936023682355881E-001;3.713656589388847E-002;-5.104517564177513E-003;-5.505504668690264E-004;
2.406500000000000E+009;1.945012360811234E-001;3.714796528220177E-002;-5.114278290420771E-003;-5.583644961006939E-004;
2.406666666666667E+009;1.950868815183640E-001;3.714478388428688E-002;-5.143655464053154E-003;-4.689932393375784E-004;
2.406833333333334E+009;1.955639272928238E-001;3.725919872522354E-002;-5.097969900816679E-003;-4.472763685043901E-004;
2.407000000000000E+009;1.958385854959488E-001;3.746594116091728E-002;-4.913462791591883E-003;-3.653189342003316E-004;
2.407166666666667E+009;1.962418854236603E-001;3.731455281376839E-002;-4.905806388705969E-003;-4.242519789841026E-004;
2.407333333333334E+009;1.961403638124466E-001;3.741241618990898E-002;-4.773894324898720E-003;-2.836424973793328E-004;
2.407500000000000E+009;1.959616690874100E-001;3.750630095601082E-002;-4.797612316906452E-003;-1.299607683904469E-004;
2.407666666666667E+009;1.959929317235947E-001;3.741496056318283E-002;-4.767511505633593E-003;-9.556851728120819E-005;
2.407833333333334E+009;1.954675912857056E-001;3.740910440683365E-002;-4.730000626295805E-003;-1.432102144462988E-004;
2.408000000000000E+009;1.954251378774643E-001;3.737754002213478E-002;-4.887532442808151E-003;-6.034830948919989E-005;
2.408166666666667E+009;1.947959363460541E-001;3.708758950233460E-002;-4.641601350158453E-003;-6.302638212218881E-005;
2.408333333333334E+009;1.942251622676849E-001;3.669643774628639E-002;-4.792409017682076E-003;1.075844265869819E-004;
2.408500000000000E+009;1.935322135686874E-001;3.631627187132835E-002;-4.850455094128847E-003;9.429523197468370E-005;
2.408666666666667E+009;1.929177790880203E-001;3.578696772456169E-002;-4.760785493999720E-003;1.111220408347435E-004;
2.408833333333334E+009;1.921357661485672E-001;3.511651977896690E-002;-4.874917678534985E-003;1.037048496073112E-004;
2.409000000000000E+009;1.911973506212235E-001;3.425866365432739E-002;-4.950892645865679E-003;2.977789554279298E-004;
2.409166666666667E+009;1.902618408203125E-001;3.336860984563828E-002;-4.974799696356058E-003;2.892496704589576E-004;
2.409333333333334E+009;1.893392354249954E-001;3.239008784294128E-002;-5.026117898523808E-003;4.106227133888751E-004;
2.409500000000000E+009;1.882325708866119E-001;3.116548620164394E-002;-5.118147470057011E-003;5.038428935222328E-004;
2.409666666666667E+009;1.871002167463303E-001;2.964166924357414E-002;-5.111403297632933E-003;6.029361393302679E-004;
2.409833333333334E+009;1.861282438039780E-001;2.816881053149700E-002;-5.152564030140638E-003;8.375435718335211E-004;
2.410000000000000E+009;1.851558834314346E-001;2.669876255095005E-002;-5.043210461735725E-003;9.850262431427836E-004;
2.410166666666667E+009;1.842945814132690E-001;2.486057765781879E-002;-5.273661110550165E-003;1.157339196652174E-003;
2.410333333333334E+009;1.832300722599030E-001;2.310221083462238E-002;-5.244822707027197E-003;1.290765241719782E-003;
2.410500000000000E+009;1.822587251663208E-001;2.109334990382195E-002;-5.255813710391522E-003;1.469609909690917E-003;
2.410666666666667E+009;1.814439743757248E-001;1.889277622103691E-002;-5.237169098109007E-003;1.670544152148068E-003;
2.410833333333334E+009;1.808212995529175E-001;1.673610880970955E-002;-5.125826224684715E-003;1.869135885499418E-003;
2.411000000000000E+009;1.800448745489121E-001;1.462170854210854E-002;-5.112207960337400E-003;2.003128174692392E-003;
2.411166666666667E+009;1.794652044773102E-001;1.223817933350802E-002;-5.108010023832321E-003;2.299737418070436E-003;
2.411333333333334E+009;1.789376437664032E-001;9.877283126115799E-003;-4.921454936265945E-003;2.379329409450293E-003;
2.411500000000000E+009;1.783193200826645E-001;7.321589160710573E-003;-4.810654558241367E-003;2.444977872073650E-003;
2.411666666666667E+009;1.783882081508637E-001;5.105149466544390E-003;-4.641265608370304E-003;2.569821430370212E-003;
2.411833333333334E+009;1.779911369085312E-001;2.493390813469887E-003;-4.673195071518421E-003;2.665229840204120E-003;
2.412000000000000E+009;1.782694607973099E-001;-2.586561640782747E-005;-4.418326076120138E-003;2.744879806414247E-003;
2.412166666666667E+009;1.782527416944504E-001;-2.372585935518146E-003;-4.361907020211220E-003;2.815919462591410E-003;
2.412333333333334E+009;1.784184873104096E-001;-4.791878629475832E-003;-4.330512136220932E-003;2.800658578053117E-003;
2.412500000000000E+009;1.790306121110916E-001;-7.373033557087183E-003;-4.201845731586218E-003;3.089371137320995E-003;
2.412666666666667E+009;1.794109046459198E-001;-9.703830815851688E-003;-4.242321476340294E-003;2.893827157095075E-003;
2.412833333333334E+009;1.800913810729981E-001;-1.222565490752459E-002;-4.097645170986652E-003;3.045686054974794E-003;
2.413000000000000E+009;1.808596849441528E-001;-1.456246525049210E-002;-4.046140704303980E-003;3.237657947465777E-003;
2.413166666666667E+009;1.816744953393936E-001;-1.680427417159081E-002;-4.049825482070446E-003;3.215333214029670E-003;
2.413333333333334E+009;1.827530860900879E-001;-1.909026689827442E-002;-3.910030703991652E-003;3.348255529999733E-003;
2.413500000000000E+009;1.837347298860550E-001;-2.145144902169704E-002;-4.109826870262623E-003;3.425903851166368E-003;
2.413666666666667E+009;1.849431842565537E-001;-2.358043193817139E-002;-4.127855412662029E-003;3.472905838862062E-003;
2.413833333333334E+009;1.861365884542465E-001;-2.561466768383980E-002;-3.891965374350548E-003;3.726576222106814E-003;
2.414000000000000E+009;1.871423274278641E-001;-2.759223803877831E-002;-4.060378763824701E-003;3.878667252138257E-003;
2.414166666666667E+009;1.884618699550629E-001;-2.936899289488792E-002;-3.977518063038588E-003;4.104804247617722E-003;
2.414333333333334E+009;1.895743310451508E-001;-3.139863163232803E-002;-3.868450876325369E-003;4.210553597658873E-003;
2.414500000000000E+009;1.908807158470154E-001;-3.283741697669029E-002;-3.921464551240206E-003;4.372557625174522E-003;
2.414666666666667E+009;1.921968907117844E-001;-3.426963835954666E-002;-3.523538587614894E-003;4.648974630981684E-003;
2.414833333333334E+009;1.931928694248200E-001;-3.575282171368599E-002;-3.457975806668401E-003;4.849764052778482E-003;
2.415000000000000E+009;1.943873167037964E-001;-3.713978454470635E-002;-3.316281829029322E-003;4.865361377596855E-003;
2.415166666666667E+009;1.956422477960587E-001;-3.817856684327126E-002;-3.181365318596363E-003;5.230512470006943E-003;
2.415333333333334E+009;1.969027370214462E-001;-3.910076618194580E-002;-2.997926669195294E-003;5.447782110422850E-003;
2.415500000000000E+009;1.979110240936279E-001;-3.970473259687424E-002;-2.782211638987064E-003;5.501167383044958E-003;
2.415666666666667E+009;1.990243047475815E-001;-4.070919007062912E-002;-2.552086254581809E-003;5.643301643431187E-003;
2.415833333333334E+009;1.997962445020676E-001;-4.124084115028381E-002;-2.418770687654614E-003;5.708215292543173E-003;
2.416000000000000E+009;2.006966322660446E-001;-4.179739952087402E-002;-2.074298914521933E-003;5.827061831951141E-003;
2.416166666666667E+009;2.012984156608582E-001;-4.249272495508194E-002;-1.935860607773066E-003;5.882285069674254E-003;
2.416333333333334E+009;2.020128518342972E-001;-4.261578246951103E-002;-1.531903399154544E-003;5.934749264270067E-003;
2.416500000000000E+009;2.023945897817612E-001;-4.300573095679283E-002;-1.474942779168487E-003;6.042007822543383E-003;
2.416666666666667E+009;2.026783227920532E-001;-4.331328347325325E-002;-1.168688759207726E-003;6.084261462092400E-003;
2.416833333333334E+009;2.027265280485153E-001;-4.327592998743057E-002;-8.911224431358278E-004;6.016988307237625E-003;
2.417000000000000E+009;2.028985619544983E-001;-4.338034614920616E-002;-7.107204874046147E-004;6.073653232306242E-003;
2.417166666666667E+009;2.026095092296600E-001;-4.321031644940376E-002;-4.853250866290182E-004;5.980927497148514E-003;
2.417333333333334E+009;2.023629993200302E-001;-4.307615011930466E-002;-2.073514042422175E-004;6.097466684877873E-003;
2.417500000000000E+009;2.020898312330246E-001;-4.305327683687210E-002;-2.448140912747476E-005;5.942658521234989E-003;
2.417666666666667E+009;2.015509754419327E-001;-4.276845604181290E-002;1.254219241673127E-004;6.102468352764845E-003;
2.417833333333334E+009;2.011171877384186E-001;-4.263927787542343E-002;2.742475480772555E-004;5.809117108583450E-003;
2.418000000000000E+009;2.004998177289963E-001;-4.239396005868912E-002;4.778663569595665E-004;5.963051225990057E-003;
2.418166666666667E+009;1.996871829032898E-001;-4.224010556936264E-002;7.466788520105183E-004;5.783107597380877E-003;
2.418333333333334E+009;1.987459361553192E-001;-4.220398515462875E-002;9.160480694845319E-004;5.652761552482843E-003;
2.418500000000000E+009;1.977413743734360E-001;-4.210639372467995E-002;1.114460406824946E-003;5.532970186322928E-003;
2.418666666666667E+009;1.967607289552689E-001;-4.205295071005821E-002;1.322775962762535E-003;5.548378452658653E-003;
2.418833333333334E+009;1.954450905323029E-001;-4.223340377211571E-002;1.345658907666802E-003;5.341519601643086E-003;
2.419000000000000E+009;1.941112428903580E-001;-4.239625856280327E-002;1.536388066597283E-003;5.264890380203724E-003;
2.419166666666667E+009;1.928021162748337E-001;-4.267145320773125E-002;1.672631828114390E-003;5.181284155696631E-003;
2.419333333333334E+009;1.914159804582596E-001;-4.324572160840035E-002;1.786144101060927E-003;5.011384841054678E-003;
2.419500000000000E+009;1.898461580276489E-001;-4.377190396189690E-002;1.828948734328151E-003;5.064082797616720E-003;
2.419666666666667E+009;1.884435266256332E-001;-4.449917003512383E-002;1.926396857015789E-003;4.842121619731188E-003;
2.419833333333334E+009;1.867464184761047E-001;-4.518628492951393E-002;2.046697773039341E-003;4.671590402722359E-003;
2.420000000000000E+009;1.850774288177490E-001;-4.612001031637192E-002;2.207522280514240E-003;4.580152686685324E-003;
2.420166666666667E+009;1.833313703536987E-001;-4.698101803660393E-002;2.135075861588121E-003;4.602207802236080E-003;
2.420333333333334E+009;1.817272156476975E-001;-4.812065139412880E-002;2.188157755881548E-003;4.402127116918564E-003;
2.420500000000000E+009;1.800599843263626E-001;-4.954842850565910E-002;2.324495231732726E-003;4.404194653034210E-003;
2.420666666666667E+009;1.783424466848373E-001;-5.065705254673958E-002;2.476273337379098E-003;4.217657260596752E-003;
2.420833333333334E+009;1.768034249544144E-001;-5.213160067796707E-002;2.532676560804248E-003;4.129583947360516E-003;
2.421000000000000E+009;1.752873659133911E-001;-5.385431274771690E-002;2.583139343187213E-003;4.060818813741207E-003;
2.421166666666667E+009;1.737848073244095E-001;-5.547405406832695E-002;2.514433348551393E-003;4.022427834570408E-003;
2.421333333333334E+009;1.720692217350006E-001;-5.710106343030930E-002;2.561991102993488E-003;3.897426649928093E-003;
2.421500000000000E+009;1.707792282104492E-001;-5.878670513629913E-002;2.468548249453306E-003;3.738259663805366E-003;
2.421666666666667E+009;1.695741862058640E-001;-6.085184961557388E-002;2.308049239218235E-003;3.730471478775144E-003;
2.421833333333334E+009;1.683323532342911E-001;-6.262330710887909E-002;2.390487585216761E-003;3.693547798320651E-003;
2.422000000000000E+009;1.674520373344421E-001;-6.446766108274460E-002;2.526242518797517E-003;3.748566843569279E-003;
2.422166666666667E+009;1.664077341556549E-001;-6.657031178474426E-002;2.659628633409739E-003;3.743184264749289E-003;
2.422333333333334E+009;1.653804332017899E-001;-6.863988190889359E-002;2.597456565126777E-003;3.676526015624404E-003;
2.422500000000000E+009;1.645689606666565E-001;-7.060332596302033E-002;2.801988739520311E-003;3.783546155318618E-003;
2.422666666666667E+009;1.639281213283539E-001;-7.253381609916687E-002;2.828609431162477E-003;3.769577248021960E-003;
2.422833333333334E+009;1.634919196367264E-001;-7.463142275810242E-002;2.920005004853010E-003;3.720582695677877E-003;
2.423000000000000E+009;1.629267334938049E-001;-7.675737887620926E-002;2.989905420690775E-003;3.762007225304842E-003;
2.423166666666667E+009;1.627036780118942E-001;-7.877014577388763E-002;3.005960490554571E-003;3.693930804729462E-003;
2.423333333333334E+009;1.623282879590988E-001;-8.084156364202499E-002;3.102045971900225E-003;3.537995507940650E-003;
2.423500000000000E+009;1.622530370950699E-001;-8.247746527194977E-002;3.490567207336426E-003;3.661484224721789E-003;
2.423666666666667E+009;1.624609082937241E-001;-8.450555801391602E-002;3.421827685087919E-003;3.397674299776554E-003;
2.423833333333334E+009;1.623932421207428E-001;-8.632284402847290E-002;3.564991755411029E-003;3.453734098002315E-003;
2.424000000000000E+009;1.625015139579773E-001;-8.803112059831619E-002;3.748071379959583E-003;3.307920880615711E-003;
2.424166666666667E+009;1.627979725599289E-001;-8.962709456682205E-002;3.713701153174043E-003;3.209646092727780E-003;
2.424333333333334E+009;1.629641652107239E-001;-9.095398336648941E-002;3.666999517008662E-003;3.035884350538254E-003;
2.424500000000000E+009;1.633207201957703E-001;-9.280309826135635E-002;3.796655684709549E-003;2.911746501922607E-003;
2.424666666666667E+009;1.635250002145767E-001;-9.423089027404785E-002;3.992027137428522E-003;3.020077478140593E-003;
2.424833333333334E+009;1.641184389591217E-001;-9.528861939907074E-002;3.956880886107683E-003;2.838159678503871E-003;
2.425000000000000E+009;1.645134091377258E-001;-9.661619365215302E-002;4.064918030053377E-003;2.703464822843671E-003;
2.425166666666667E+009;1.648210734128952E-001;-9.768124669790268E-002;4.069448914378882E-003;2.717763418331742E-003;
2.425333333333334E+009;1.651420742273331E-001;-9.868170320987701E-002;4.137010313570499E-003;2.524062292650342E-003;
2.425500000000000E+009;1.656720489263535E-001;-9.960824251174927E-002;4.289011936634779E-003;2.558823674917221E-003;
2.425666666666667E+009;1.661234945058823E-001;-1.002976596355438E-001;4.453010857105255E-003;2.535380655899644E-003;
2.425833333333334E+009;1.663936078548431E-001;-1.011108756065369E-001;4.515443928539753E-003;2.415227238088846E-003;
2.426000000000000E+009;1.668580174446106E-001;-1.015491038560867E-001;4.649421200156212E-003;2.286495408043265E-003;
2.426166666666667E+009;1.672101765871048E-001;-1.019067764282227E-001;4.536642692983151E-003;2.095395000651479E-003;
2.426333333333334E+009;1.674732118844986E-001;-1.025102436542511E-001;4.797362256795168E-003;2.152905566617847E-003;
2.426500000000000E+009;1.678698807954788E-001;-1.028222963213921E-001;5.076542031019926E-003;1.919353380799294E-003;
2.426666666666667E+009;1.681470572948456E-001;-1.030835285782814E-001;4.879308864474297E-003;1.877052709460259E-003;
2.426833333333334E+009;1.683720797300339E-001;-1.033444851636887E-001;4.993520677089691E-003;1.715875929221511E-003;
2.427000000000000E+009;1.683079153299332E-001;-1.035232394933701E-001;5.104138981550932E-003;1.668889657594264E-003;
2.427166666666667E+009;1.684202402830124E-001;-1.036275103688240E-001;5.238229874521494E-003;1.607068697921932E-003;
2.427333333333334E+009;1.683021932840347E-001;-1.038522049784660E-001;5.401631817221642E-003;1.447508228011429E-003;
2.427500000000000E+009;1.680045276880264E-001;-1.039841622114182E-001;5.342300049960613E-003;1.222450286149979E-003;
2.427666666666667E+009;1.677311360836029E-001;-1.040285006165505E-001;5.530111026018858E-003;1.063963281922042E-003;
2.427833333333334E+009;1.673851311206818E-001;-1.040502563118935E-001;5.610137246549130E-003;9.341318509541452E-004;
