# Version 1.00
#
freq[Hz];re:Trc1_S11;im:Trc1_S11;re:Trc2_S21;im:Trc2_S21;
2.400000000000000E+009;1.551924198865891E-001;1.067675426602364E-001;-1.659120549447835E-003;-6.434470415115356E-003;
2.400166666666667E+009;1.548972278833389E-001;1.043645218014717E-001;-2.033145399764180E-003;-6.221266463398933E-003;
2.400333333333334E+009;1.549265682697296E-001;1.021684855222702E-001;-2.145211677998304E-003;-6.414686329662800E-003;
2.400500000000000E+009;1.548967510461807E-001;9.940096735954285E-002;-2.343595493584871E-003;-6.041178945451975E-003;
2.400666666666667E+009;1.548907458782196E-001;9.684061259031296E-002;-2.653712639585137E-003;-5.864332895725966E-003;
2.400833333333334E+009;1.549311727285385E-001;9.389011561870575E-002;-2.666921121999621E-003;-5.665490869432688E-003;
2.401000000000000E+009;1.552643030881882E-001;9.120498597621918E-002;-2.904053078964353E-003;-5.596401169896126E-003;
2.401166666666667E+009;1.551136672496796E-001;8.838558942079544E-002;-3.001885255798698E-003;-5.229020956903696E-003;
2.401333333333334E+009;1.556410044431686E-001;8.548582345247269E-002;-2.863907953724265E-003;-5.023934878408909E-003;
2.401500000000000E+009;1.559659391641617E-001;8.260470628738403E-002;-2.919793128967285E-003;-4.986290354281664E-003;
2.401666666666667E+009;1.562888324260712E-001;7.964383065700531E-002;-3.025343408808112E-003;-4.920714069157839E-003;
2.401833333333334E+009;1.568648219108582E-001;7.703968882560730E-002;-3.066902747377753E-003;-4.794860258698463E-003;
2.402000000000000E+009;1.576867252588272E-001;7.414041459560394E-002;-3.006981220096350E-003;-4.744274076074362E-003;
2.402166666666667E+009;1.585581004619598E-001;7.171591371297836E-002;-3.174352692440152E-003;-4.739464726299048E-003;
2.402333333333334E+009;1.594924181699753E-001;6.885974854230881E-002;-3.211397444829345E-003;-4.767069127410650E-003;
2.402500000000000E+009;1.608076542615891E-001;6.620880216360092E-002;-3.380659036338329E-003;-4.615564830601215E-003;
2.402666666666667E+009;1.617836654186249E-001;6.389405578374863E-002;-3.380076028406620E-003;-4.727977328002453E-003;
2.402833333333334E+009;1.631574630737305E-001;6.147900968790054E-002;-3.434494137763977E-003;-4.717404954135418E-003;
2.403000000000000E+009;1.644505858421326E-001;5.898245051503182E-002;-3.661719383671880E-003;-4.561709240078926E-003;
2.403166666666667E+009;1.663040369749069E-001;5.676138028502464E-002;-3.895927686244249E-003;-4.667687229812145E-003;
2.403333333333334E+009;1.677066087722778E-001;5.464859679341316E-002;-4.041657317429781E-003;-4.604530520737171E-003;
2.403500000000000E+009;1.693874150514603E-001;5.255336686968803E-002;-4.454707261174917E-003;-4.433193709701300E-003;
2.403666666666667E+009;1.715234816074371E-001;5.044730380177498E-002;-4.726144485175610E-003;-4.468113183975220E-003;
2.403833333333334E+009;1.728876829147339E-001;4.916260764002800E-002;-4.864181857556105E-003;-4.163166973739862E-003;
2.404000000000000E+009;1.741397380828857E-001;4.695891961455345E-002;-5.080412141978741E-003;-3.854258684441447E-003;
2.404166666666667E+009;1.761518865823746E-001;4.540509358048439E-002;-5.348264239728451E-003;-3.617980517446995E-003;
2.404333333333334E+009;1.777723282575607E-001;4.409357160329819E-002;-5.444124341011047E-003;-3.268523374572396E-003;
2.404500000000000E+009;1.792060881853104E-001;4.266905784606934E-002;-5.732192192226648E-003;-3.051579697057605E-003;
2.404666666666667E+009;1.807549148797989E-001;4.157498478889465E-002;-5.755417048931122E-003;-2.649545902386308E-003;
2.404833333333334E+009;1.826704889535904E-001;4.030527174472809E-002;-5.690476391464472E-003;-2.592481207102537E-003;
2.405000000000000E+009;1.843549311161041E-001;4.027620330452919E-002;-5.585598293691874E-003;-2.231123391538858E-003;
2.405166666666667E+009;1.855231970548630E-001;3.920552507042885E-002;-5.697729997336865E-003;-2.165193203836680E-003;
2.405333333333334E+009;1.868853121995926E-001;3.857510909438133E-002;-5.629830062389374E-003;-1.812329865060747E-003;
2.405500000000000E+009;1.882719695568085E-001;3.811729326844215E-002;-5.507231224328280E-003;-1.406797673553228E-003;
2.405666666666667E+009;1.894807219505310E-001;3.779365867376328E-002;-5.628951825201511E-003;-1.192218740470707E-003;
2.405833333333334E+009;1.908454000949860E-001;3.752745687961578E-002;-5.538353230804205E-003;-1.071835169568658E-003;
2.406000000000000E+009;1.917756199836731E-001;3.732601180672646E-002;-5.385566968470812E-003;-1.108728582039475E-003;
2.406166666666667E+009;1.927677989006043E-001;3.720163553953171E-002;-5.324349272996187E-003;-8.476087241433561E-004;
2.406333333333334E+009;1.936996281147003E-001;3.719643130898476E-002;-5.087383557111025E-003;-6.435022223740816E-004;
2.406500000000000E+009;1.944206357002258E-001;3.727149590849876E-002;-5.119889974594116E-003;-5.437144427560270E-004;
2.406666666666667E+009;1.950055360794067E-001;3.733675181865692E-002;-5.049919709563255E-003;-3.110653196927160E-004;
2.406833333333334E+009;1.955183595418930E-001;3.733000904321671E-002;-5.054427776485682E-003;-4.158917872700840E-004;
2.407000000000000E+009;1.957126408815384E-001;3.750486671924591E-002;-4.991360940039158E-003;-3.800990816671401E-004;
2.407166666666667E+009;1.961292475461960E-001;3.732103109359741E-002;-4.896180238574743E-003;-2.199478185502812E-004;
2.407333333333334E+009;1.961017102003098E-001;3.755120560526848E-002;-4.877106752246618E-003;-2.157511335099116E-004;
2.407500000000000E+009;1.959280669689179E-001;3.776763379573822E-002;-4.704942461103201E-003;-4.754494511871599E-005;
2.407666666666667E+009;1.960052400827408E-001;3.763721510767937E-002;-4.683900624513626E-003;-4.806196375284344E-005;
2.407833333333334E+009;1.954547464847565E-001;3.749151900410652E-002;-4.779372829943895E-003;-6.712903541483684E-006;
2.408000000000000E+009;1.953000873327255E-001;3.745431825518608E-002;-4.699871875345707E-003;6.991725240368396E-005;
2.408166666666667E+009;1.948178112506867E-001;3.715058788657188E-002;-4.851227626204491E-003;4.939113205182366E-005;
2.408333333333334E+009;1.944812685251236E-001;3.697954490780830E-002;-4.792463500052691E-003;1.025962774292566E-004;
2.408500000000000E+009;1.935779452323914E-001;3.623658418655396E-002;-4.709610715508461E-003;2.095748641295359E-004;
2.408666666666667E+009;1.931564211845398E-001;3.584260493516922E-002;-4.833458457142115E-003;4.598713348968886E-005;
2.408833333333334E+009;1.919375509023666E-001;3.545307368040085E-002;-4.813010338693857E-003;2.144237369066104E-004;
2.409000000000000E+009;1.911848485469818E-001;3.422571346163750E-002;-4.932628013193607E-003;3.454280376899988E-004;
2.409166666666667E+009;1.901734173297882E-001;3.329512849450111E-002;-4.905112553387880E-003;3.969822719227523E-004;
2.409333333333334E+009;1.894466429948807E-001;3.286058828234673E-002;-4.959251731634140E-003;3.051292442250997E-004;
2.409500000000000E+009;1.883358210325241E-001;3.099355101585388E-002;-5.230943206697702E-003;5.357399350032210E-004;
2.409666666666667E+009;1.871706992387772E-001;2.978320606052876E-002;-5.193658173084259E-003;6.986340740695596E-004;
2.409833333333334E+009;1.862500160932541E-001;2.818148955702782E-002;-5.224579479545355E-003;8.852939354255796E-004;
2.410000000000000E+009;1.852536350488663E-001;2.680492028594017E-002;-5.228160880506039E-003;9.913002140820026E-004;
2.410166666666667E+009;1.841530799865723E-001;2.504754625260830E-002;-5.169665440917015E-003;1.165075693279505E-003;
2.410333333333334E+009;1.834052056074143E-001;2.332823351025581E-002;-5.067408084869385E-003;1.349240890704095E-003;
2.410500000000000E+009;1.822667121887207E-001;2.117935195565224E-002;-5.249070469290018E-003;1.640192931517959E-003;
2.410666666666667E+009;1.814001947641373E-001;1.905355602502823E-002;-5.185325164347887E-003;1.587005448527634E-003;
2.410833333333334E+009;1.809468567371368E-001;1.682758703827858E-002;-5.141896195709705E-003;1.875728950835764E-003;
2.411000000000000E+009;1.800650358200073E-001;1.455651316791773E-002;-4.981082864105701E-003;2.132444409653544E-003;
2.411166666666667E+009;1.793238222599030E-001;1.236630044877529E-002;-4.835568834096193E-003;2.240339759737253E-003;
2.411333333333334E+009;1.789501905441284E-001;9.733284823596478E-003;-5.100084468722343E-003;2.379506826400757E-003;
2.411500000000000E+009;1.782807111740112E-001;7.421692833304405E-003;-4.689514636993408E-003;2.504552248865366E-003;
2.411666666666667E+009;1.783103048801422E-001;5.177846178412437E-003;-4.709130153059959E-003;2.740659052506089E-003;
2.411833333333334E+009;1.780658215284348E-001;2.710295375436544E-003;-4.619098268449307E-003;2.771156141534448E-003;
2.412000000000000E+009;1.781096756458283E-001;1.147159637184814E-004;-4.612311720848084E-003;2.726638456806541E-003;
2.412166666666667E+009;1.782641708850861E-001;-2.299101091921330E-003;-4.344373475760222E-003;2.720632823184133E-003;
2.412333333333334E+009;1.784647405147553E-001;-4.874584265053272E-003;-4.274068400263786E-003;2.917942358180881E-003;
2.412500000000000E+009;1.788864433765411E-001;-7.205543573945761E-003;-4.200901370495558E-003;3.004170954227448E-003;
2.412666666666667E+009;1.794152557849884E-001;-9.728502482175827E-003;-4.132941830903292E-003;2.976657589897513E-003;
2.412833333333334E+009;1.802463084459305E-001;-1.219693571329117E-002;-4.220229107886553E-003;3.018733346834779E-003;
2.413000000000000E+009;1.808796226978302E-001;-1.450414769351482E-002;-4.114509094506502E-003;3.109059063717723E-003;
2.413166666666667E+009;1.816986799240112E-001;-1.673003286123276E-002;-4.014746751636267E-003;3.166440175846219E-003;
2.413333333333334E+009;1.827802211046219E-001;-1.886719278991222E-002;-4.026159644126892E-003;3.187278984114528E-003;
2.413500000000000E+009;1.837654858827591E-001;-2.139332331717014E-002;-3.996962215751410E-003;3.317869501188397E-003;
2.413666666666667E+009;1.850112974643707E-001;-2.353131026029587E-002;-3.971160855144262E-003;3.586359787732363E-003;
2.413833333333334E+009;1.861746758222580E-001;-2.544021606445313E-002;-3.969120327383280E-003;3.630446270108223E-003;
2.414000000000000E+009;1.872611343860626E-001;-2.761516161262989E-002;-4.041810519993305E-003;3.714015940204263E-003;
2.414166666666667E+009;1.884493678808212E-001;-2.924361824989319E-002;-3.982281778007746E-003;4.042063374072313E-003;
2.414333333333334E+009;1.896688044071198E-001;-3.120578266680241E-002;-3.910277970135212E-003;4.118297249078751E-003;
2.414500000000000E+009;1.909585595130920E-001;-3.277244418859482E-002;-3.805039683356881E-003;4.435498267412186E-003;
2.414666666666667E+009;1.922024637460709E-001;-3.427454456686974E-002;-3.540384350344539E-003;4.726955667138100E-003;
2.414833333333334E+009;1.933605819940567E-001;-3.549240157008171E-002;-3.452217439189553E-003;4.899345804005861E-003;
2.415000000000000E+009;1.943874508142471E-001;-3.688358888030052E-002;-3.260878380388022E-003;4.872371442615986E-003;
2.415166666666667E+009;1.957926154136658E-001;-3.807553276419640E-002;-3.256581025198102E-003;5.137664731591940E-003;
2.415333333333334E+009;1.966987401247025E-001;-3.910797461867333E-002;-2.855886239558458E-003;5.341230891644955E-003;
2.415500000000000E+009;1.980516016483307E-001;-3.969522193074226E-002;-2.834403421729803E-003;5.382318515330553E-003;
2.415666666666667E+009;1.989374458789825E-001;-4.069812595844269E-002;-2.508301520720124E-003;5.545593332499266E-003;
2.415833333333334E+009;1.998495608568192E-001;-4.119076952338219E-002;-2.393490634858608E-003;5.632425658404827E-003;
2.416000000000000E+009;2.006686478853226E-001;-4.179415106773377E-002;-2.132000168785453E-003;5.810257047414780E-003;
2.416166666666667E+009;2.013894319534302E-001;-4.233613610267639E-002;-1.788415131159127E-003;5.991520360112190E-003;
2.416333333333334E+009;2.018866240978241E-001;-4.263757914304733E-002;-1.743652159348130E-003;5.969360005110502E-003;
2.416500000000000E+009;2.023344337940216E-001;-4.294108226895332E-002;-1.349979080259800E-003;5.934674292802811E-003;
2.416666666666667E+009;2.026397585868835E-001;-4.320913925766945E-002;-1.180107821710408E-003;6.122444756329060E-003;
2.416833333333334E+009;2.029162198305130E-001;-4.318670183420181E-002;-9.398121037520468E-004;5.980925168842077E-003;
2.417000000000000E+009;2.029421180486679E-001;-4.333250969648361E-002;-7.849013782106340E-004;5.975844804197550E-003;
2.417166666666667E+009;2.027232497930527E-001;-4.324863478541374E-002;-5.566399777308106E-004;5.956726614385843E-003;
2.417333333333334E+009;2.024962007999420E-001;-4.280979931354523E-002;-2.759479102678597E-004;6.060654763132334E-003;
2.417500000000000E+009;2.022639364004135E-001;-4.298815876245499E-002;-5.881266770302318E-005;5.945833865553141E-003;
2.417666666666667E+009;2.017017751932144E-001;-4.268743842840195E-002;1.326822530245408E-004;5.984961055219173E-003;
2.417833333333334E+009;2.012392729520798E-001;-4.256428033113480E-002;3.135909209959209E-004;5.867872852832079E-003;
2.418000000000000E+009;2.005127966403961E-001;-4.226662218570709E-002;5.401084199547768E-004;5.923147778958082E-003;
2.418166666666667E+009;1.997930407524109E-001;-4.227811470627785E-002;7.456464809365571E-004;5.755270365625620E-003;
2.418333333333334E+009;1.987508833408356E-001;-4.201539605855942E-002;8.955601369962096E-004;5.698388908058405E-003;
2.418500000000000E+009;1.978394389152527E-001;-4.206534847617149E-002;1.007655984722078E-003;5.474433768540621E-003;
2.418666666666667E+009;1.968300938606262E-001;-4.197754338383675E-002;1.240360201336443E-003;5.444745067507029E-003;
2.418833333333334E+009;1.955984234809876E-001;-4.218972846865654E-002;1.358275767415762E-003;5.519513972103596E-003;
2.419000000000000E+009;1.942082196474075E-001;-4.241333901882172E-002;1.708042342215776E-003;5.372278392314911E-003;
2.419166666666667E+009;1.929485797882080E-001;-4.272431135177612E-002;1.541609759442508E-003;5.283219274133444E-003;
2.419333333333334E+009;1.915551424026489E-001;-4.317177459597588E-002;1.775689655914903E-003;4.959421232342720E-003;
2.419500000000000E+009;1.900375485420227E-001;-4.357382282614708E-002;1.860746182501316E-003;5.056509282439947E-003;
2.419666666666667E+009;1.884461492300034E-001;-4.447397962212563E-002;2.016539452597499E-003;4.868302494287491E-003;
2.419833333333334E+009;1.869007349014282E-001;-4.500399902462959E-002;2.006831811740995E-003;4.841169808059931E-003;
2.420000000000000E+009;1.851315498352051E-001;-4.599578306078911E-002;2.253122162073851E-003;4.651230294257402E-003;
2.420166666666667E+009;1.834541112184525E-001;-4.697506502270699E-002;2.275053877383471E-003;4.682724364101887E-003;
2.420333333333334E+009;1.819605827331543E-001;-4.816456511616707E-002;2.391371876001358E-003;4.610800649970770E-003;
2.420500000000000E+009;1.801271140575409E-001;-4.946646094322205E-002;2.367271110415459E-003;4.533930215984583E-003;
2.420666666666667E+009;1.785408705472946E-001;-5.071419477462769E-002;2.539062639698386E-003;4.255392588675022E-003;
2.420833333333334E+009;1.769413948059082E-001;-5.205744504928589E-002;2.435704926028848E-003;4.217172041535378E-003;
2.421000000000000E+009;1.752410233020783E-001;-5.371884256601334E-002;2.389792120084167E-003;4.056047182530165E-003;
2.421166666666667E+009;1.740379631519318E-001;-5.544988065958023E-002;2.659214893355966E-003;3.916022367775440E-003;
2.421333333333334E+009;1.722005456686020E-001;-5.697147175669670E-002;2.511141123250127E-003;3.822516882792115E-003;
2.421500000000000E+009;1.709582507610321E-001;-5.901619419455528E-002;2.360200276598334E-003;3.667609067633748E-003;
2.421666666666667E+009;1.696515083312988E-001;-6.056405231356621E-002;2.435102360323072E-003;3.594228997826576E-003;
2.421833333333334E+009;1.684285104274750E-001;-6.249430030584335E-002;2.459008013829589E-003;3.794035641476512E-003;
2.422000000000000E+009;1.673826873302460E-001;-6.449560075998306E-002;2.388106659054756E-003;3.600782249122858E-003;
2.422166666666667E+009;1.664014160633087E-001;-6.659837067127228E-002;2.500210423022509E-003;3.798820544034243E-003;
2.422333333333334E+009;1.654552966356278E-001;-6.879243999719620E-002;2.586896065622568E-003;3.766997950151563E-003;
2.422500000000000E+009;1.647594720125198E-001;-7.052900642156601E-002;2.677599433809519E-003;3.641381394118071E-003;
2.422666666666667E+009;1.641171574592590E-001;-7.244037836790085E-002;2.672603819519281E-003;3.754867007955909E-003;
2.422833333333334E+009;1.637274473905563E-001;-7.458695024251938E-002;2.808307064697146E-003;3.715694649145007E-003;
2.423000000000000E+009;1.631254553794861E-001;-7.664959877729416E-002;2.871448639780283E-003;3.723471891134977E-003;
2.423166666666667E+009;1.625961065292358E-001;-7.864551991224289E-002;3.005407750606537E-003;3.700360190123320E-003;
2.423333333333334E+009;1.625652015209198E-001;-8.065165579319000E-002;3.299906617030501E-003;3.516519675031304E-003;
2.423500000000000E+009;1.624648422002792E-001;-8.245252817869186E-002;3.222521161660552E-003;3.541292622685432E-003;
2.423666666666667E+009;1.625123172998428E-001;-8.445333689451218E-002;3.371207974851131E-003;3.517523175105453E-003;
2.423833333333334E+009;1.625226289033890E-001;-8.606223762035370E-002;3.318871371448040E-003;3.491052892059088E-003;
2.424000000000000E+009;1.626335680484772E-001;-8.800116926431656E-002;3.482268657535315E-003;3.336432855576277E-003;
2.424166666666667E+009;1.627564728260040E-001;-8.941262215375900E-002;3.452232107520104E-003;3.149423981085420E-003;
2.424333333333334E+009;1.629664003849030E-001;-9.102067351341248E-002;3.605128731578589E-003;3.090029815211892E-003;
2.424500000000000E+009;1.634821295738220E-001;-9.278006851673126E-002;3.871111432090402E-003;3.101368900388479E-003;
2.424666666666667E+009;1.635642945766449E-001;-9.406407922506332E-002;3.810981288552284E-003;2.918638288974762E-003;
2.424833333333334E+009;1.642997413873673E-001;-9.552107006311417E-002;3.845278173685074E-003;2.825951669365168E-003;
2.425000000000000E+009;1.646867096424103E-001;-9.659094363451004E-002;3.867378924041987E-003;2.860715612769127E-003;
2.425166666666667E+009;1.649938374757767E-001;-9.769918024539948E-002;4.039964638650417E-003;2.811320591717959E-003;
2.425333333333334E+009;1.654399782419205E-001;-9.860206395387650E-002;4.303442779928446E-003;2.740283962339163E-003;
2.425500000000000E+009;1.658517122268677E-001;-9.962911158800125E-002;4.319884348660708E-003;2.665663603693247E-003;
2.425666666666667E+009;1.662783920764923E-001;-1.002406775951386E-001;4.393891431391239E-003;2.448841230943799E-003;
2.425833333333334E+009;1.666614562273026E-001;-1.010905578732491E-001;4.542577546089888E-003;2.487038495019078E-003;
2.426000000000000E+009;1.671220958232880E-001;-1.015761122107506E-001;4.465434700250626E-003;2.297335769981146E-003;
2.426166666666667E+009;1.675896942615509E-001;-1.020625978708267E-001;4.637525882571936E-003;2.223101910203695E-003;
2.426333333333334E+009;1.675424873828888E-001;-1.024870872497559E-001;4.869698081165552E-003;2.166001359000802E-003;
2.426500000000000E+009;1.679923385381699E-001;-1.027062237262726E-001;4.896308761090040E-003;2.016459126025438E-003;
2.426666666666667E+009;1.682508587837219E-001;-1.030032858252525E-001;4.983921069651842E-003;1.889552571810782E-003;
2.426833333333334E+009;1.685327291488648E-001;-1.033219099044800E-001;5.155101418495178E-003;1.783410902135074E-003;
2.427000000000000E+009;1.684777587652206E-001;-1.035321056842804E-001;5.202448926866055E-003;1.511073322035372E-003;
2.427166666666667E+009;1.686879396438599E-001;-1.035892590880394E-001;5.165958311408758E-003;1.551957684569061E-003;
2.427333333333334E+009;1.684383898973465E-001;-1.038316562771797E-001;5.302035715430975E-003;1.532821799628437E-003;
2.427500000000000E+009;1.682127267122269E-001;-1.039361804723740E-001;5.231172312051058E-003;1.215400407090783E-003;
2.427666666666667E+009;1.679265350103378E-001;-1.041137948632240E-001;5.344363860785961E-003;1.150308293290436E-003;
2.427833333333334E+009;1.675602495670319E-001;-1.041323989629746E-001;5.567130632698536E-003;9.322304977104068E-004;
