# Version 1.00
#
freq[Hz];re:Trc1_S11;im:Trc1_S11;re:Trc2_S21;im:Trc2_S21;
2.400000000000000E+009;1.500991880893707E-001;1.135179996490479E-001;5.034089088439941E-003;1.835036906413734E-003;
2.400166666666667E+009;1.498039960861206E-001;1.112956404685974E-001;5.284805782139301E-003;1.480966689996421E-003;
2.400333333333334E+009;1.500034630298615E-001;1.089710816740990E-001;5.501999054104090E-003;1.132755423896015E-003;
2.400500000000000E+009;1.498454809188843E-001;1.064529120922089E-001;5.679394584149122E-003;6.017271662130952E-004;
2.400666666666667E+009;1.502760797739029E-001;1.039299517869949E-001;5.755295511335135E-003;2.382421225775033E-004;
2.400833333333334E+009;1.503683924674988E-001;1.011377871036530E-001;5.970684345811606E-003;-1.860963966464624E-004;
2.401000000000000E+009;1.505604237318039E-001;9.852787852287293E-002;6.035965401679277E-003;-9.011877700686455E-004;
2.401166666666667E+009;1.506719291210175E-001;9.578979760408402E-002;5.620507989078760E-003;-1.366443815641105E-003;
2.401333333333334E+009;1.513475030660629E-001;9.300822019577026E-002;5.328875035047531E-003;-1.627283869311214E-003;
2.401500000000000E+009;1.517759114503861E-001;9.012172371149063E-002;5.228701513260603E-003;-2.103681443259120E-003;
2.401666666666667E+009;1.523180902004242E-001;8.737655729055405E-002;4.859918262809515E-003;-2.533400431275368E-003;
2.401833333333334E+009;1.530535370111466E-001;8.470577001571655E-002;4.503074567764998E-003;-2.571176504716277E-003;
2.402000000000000E+009;1.539591997861862E-001;8.202221244573593E-002;4.240314476191998E-003;-3.060145769268274E-003;
2.402166666666667E+009;1.549939364194870E-001;7.946726679801941E-002;3.944033756852150E-003;-3.161286702379584E-003;
2.402333333333334E+009;1.561553627252579E-001;7.675397396087647E-002;3.518946003168821E-003;-3.183563472703099E-003;
2.402500000000000E+009;1.575269550085068E-001;7.432376593351364E-002;3.271888010203838E-003;-3.145137336105108E-003;
2.402666666666667E+009;1.587644070386887E-001;7.189695537090302E-002;2.818674081936479E-003;-3.478604834526777E-003;
2.402833333333334E+009;1.603982746601105E-001;6.955424696207047E-002;2.591178985312581E-003;-3.309212392196059E-003;
2.403000000000000E+009;1.620296537876129E-001;6.714680045843124E-002;2.395506948232651E-003;-3.329441417008638E-003;
2.403166666666667E+009;1.638817489147186E-001;6.511615216732025E-002;2.186845056712627E-003;-3.133316989988089E-003;
2.403333333333334E+009;1.656817346811295E-001;6.279025226831436E-002;1.909325481392443E-003;-3.246580483391881E-003;
2.403500000000000E+009;1.674269437789917E-001;6.076262518763542E-002;1.819198718294501E-003;-3.123074304312468E-003;
2.403666666666667E+009;1.695316433906555E-001;5.880048871040344E-002;1.761518884450197E-003;-2.935171127319336E-003;
2.403833333333334E+009;1.714423447847366E-001;5.679900199174881E-002;1.661353162489831E-003;-3.010302549228072E-003;
2.404000000000000E+009;1.730656474828720E-001;5.498771369457245E-002;1.415904844179750E-003;-3.094427520409226E-003;
2.404166666666667E+009;1.751455813646317E-001;5.338701978325844E-002;1.399417873471975E-003;-2.901089610531926E-003;
2.404333333333334E+009;1.771234124898911E-001;5.182077363133431E-002;1.406571944244206E-003;-2.850987017154694E-003;
2.404500000000000E+009;1.787883639335632E-001;5.045478418469429E-002;1.214593765325844E-003;-2.832164987921715E-003;
2.404666666666667E+009;1.808376163244247E-001;4.943362995982170E-002;1.017998671159148E-003;-3.054640023037791E-003;
2.404833333333334E+009;1.826983243227005E-001;4.815968871116638E-002;9.056803537532687E-004;-2.862834138795734E-003;
2.405000000000000E+009;1.842228323221207E-001;4.743171483278275E-002;9.913294343277812E-004;-2.913936739787459E-003;
2.405166666666667E+009;1.856990456581116E-001;4.658766835927963E-002;7.300109718926251E-004;-2.974556293338537E-003;
2.405333333333334E+009;1.873280256986618E-001;4.617681354284287E-002;5.011967150494456E-004;-2.891337964683771E-003;
2.405500000000000E+009;1.888647079467773E-001;4.552742093801498E-002;5.977748660370708E-004;-3.017245791852474E-003;
2.405666666666667E+009;1.901974081993103E-001;4.523339495062828E-002;3.387957985978574E-004;-3.133337479084730E-003;
2.405833333333334E+009;1.916060447692871E-001;4.487270489335060E-002;3.048749349545687E-004;-3.019703086465597E-003;
2.406000000000000E+009;1.927727013826370E-001;4.451684653759003E-002;-8.438238000962883E-005;-2.929124282673001E-003;
2.406166666666667E+009;1.940159648656845E-001;4.433253780007362E-002;-1.691415236564353E-004;-2.653108676895499E-003;
2.406333333333334E+009;1.950870305299759E-001;4.432097822427750E-002;-1.351885293843225E-004;-2.689554821699858E-003;
2.406500000000000E+009;1.959393173456192E-001;4.422467574477196E-002;-3.959409077651799E-004;-2.605685731396079E-003;
2.406666666666667E+009;1.966252028942108E-001;4.412873089313507E-002;-6.866042967885733E-004;-2.429676940664649E-003;
2.406833333333334E+009;1.972668617963791E-001;4.409152641892433E-002;-6.235581822693348E-004;-2.372359856963158E-003;
2.407000000000000E+009;1.977338343858719E-001;4.433507472276688E-002;-5.511096096597612E-004;-2.098574768751860E-003;
2.407166666666667E+009;1.980756223201752E-001;4.395234957337380E-002;-6.852666265331209E-004;-2.212550723925233E-003;
2.407333333333334E+009;1.980405300855637E-001;4.413822293281555E-002;-6.756546208634973E-004;-1.793168717995286E-003;
2.407500000000000E+009;1.981677114963532E-001;4.400668293237686E-002;-5.379148060455918E-004;-1.728865085169673E-003;
2.407666666666667E+009;1.980849802494049E-001;4.384461417794228E-002;-4.768362559843808E-004;-1.592144370079041E-003;
2.407833333333334E+009;1.975653916597366E-001;4.369474202394486E-002;-4.492615116760135E-004;-1.443571993149817E-003;
2.408000000000000E+009;1.974437385797501E-001;4.350830987095833E-002;-2.015856589423493E-004;-1.496363664045930E-003;
2.408166666666667E+009;1.969411522150040E-001;4.308442398905754E-002;-2.451334439683706E-004;-1.402594847604632E-003;
2.408333333333334E+009;1.962899267673492E-001;4.261478781700134E-002;-4.924783206661232E-005;-1.447092159651220E-003;
2.408500000000000E+009;1.956253647804260E-001;4.232081770896912E-002;-1.918538328027353E-005;-1.266226172447205E-003;
2.408666666666667E+009;1.948743462562561E-001;4.168232157826424E-002;8.251851249951869E-005;-1.298419898375869E-003;
2.408833333333334E+009;1.941204667091370E-001;4.093584418296814E-002;2.075617521768436E-004;-1.288658357225359E-003;
2.409000000000000E+009;1.930535435676575E-001;4.003601521253586E-002;1.978924265131354E-004;-1.494139549322426E-003;
2.409166666666667E+009;1.920673251152039E-001;3.905864804983139E-002;2.911532064899802E-004;-1.447236514650285E-003;
2.409333333333334E+009;1.911318451166153E-001;3.801401704549789E-002;4.555534396786243E-004;-1.555981347337365E-003;
2.409500000000000E+009;1.897694617509842E-001;3.676433116197586E-002;3.962522023357451E-004;-1.503084087744355E-003;
2.409666666666667E+009;1.887826770544052E-001;3.532650321722031E-002;3.965013311244547E-004;-1.760400366038084E-003;
2.409833333333334E+009;1.876952052116394E-001;3.373369202017784E-002;4.127579741179943E-004;-1.889224862679839E-003;
2.410000000000000E+009;1.864687055349350E-001;3.229214996099472E-002;4.428801476024091E-004;-1.998728374019265E-003;
2.410166666666667E+009;1.854702681303024E-001;3.036227449774742E-002;4.631215415429324E-004;-2.066287444904447E-003;
2.410333333333334E+009;1.843317151069641E-001;2.873666584491730E-002;3.423271118663251E-004;-2.351066563278437E-003;
2.410500000000000E+009;1.833305060863495E-001;2.678285725414753E-002;4.465932142920792E-004;-2.435250440612435E-003;
2.410666666666667E+009;1.822627782821655E-001;2.435605786740780E-002;1.631531631574035E-004;-2.308255294337869E-003;
2.410833333333334E+009;1.817895919084549E-001;2.241792529821396E-002;1.172087431768887E-004;-2.603430999442935E-003;
2.411000000000000E+009;1.808540225028992E-001;2.020880207419395E-002;3.303818812128156E-005;-2.602055436000228E-003;
2.411166666666667E+009;1.801234036684036E-001;1.801273971796036E-002;-6.745524297002703E-005;-2.691137604415417E-003;
2.411333333333334E+009;1.795957237482071E-001;1.541118230670691E-002;-1.121975510613993E-004;-2.845817711204290E-003;
2.411500000000000E+009;1.791466325521469E-001;1.312777400016785E-002;-4.646163433790207E-004;-2.723364857956767E-003;
2.411666666666667E+009;1.790468692779541E-001;1.073866523802280E-002;-6.384469452314079E-004;-2.858008723706007E-003;
2.411833333333334E+009;1.785970777273178E-001;8.335575461387634E-003;-6.521558389067650E-004;-2.923602238297463E-003;
2.412000000000000E+009;1.786748915910721E-001;5.495283752679825E-003;-9.188773110508919E-004;-2.867778996005654E-003;
2.412166666666667E+009;1.787776350975037E-001;3.281940938904882E-003;-1.097939210012555E-003;-2.753159962594509E-003;
2.412333333333334E+009;1.789027452468872E-001;8.095058146864176E-004;-1.132353325374425E-003;-2.835979452356696E-003;
2.412500000000000E+009;1.793505847454071E-001;-1.685331342741847E-003;-1.366843120194972E-003;-2.740840893238783E-003;
2.412666666666667E+009;1.799086630344391E-001;-4.109499510377646E-003;-1.262861187569797E-003;-2.684673760086298E-003;
2.412833333333334E+009;1.804846525192261E-001;-6.507638841867447E-003;-1.538319396786392E-003;-2.533270278945565E-003;
2.413000000000000E+009;1.813251823186874E-001;-8.929392322897911E-003;-1.597002032212913E-003;-2.672917209565640E-003;
2.413166666666667E+009;1.820557415485382E-001;-1.126523409038782E-002;-1.802795100957155E-003;-2.530508674681187E-003;
2.413333333333334E+009;1.832098513841629E-001;-1.363025605678558E-002;-1.965705072507262E-003;-2.547615906223655E-003;
2.413500000000000E+009;1.840203851461411E-001;-1.594167947769165E-002;-1.954464009031653E-003;-2.351519418880343E-003;
2.413666666666667E+009;1.852975487709045E-001;-1.815255172550678E-002;-2.069504000246525E-003;-2.272662241011858E-003;
2.413833333333334E+009;1.863554567098618E-001;-2.023436687886715E-002;-2.234385581687093E-003;-2.280181972309947E-003;
2.414000000000000E+009;1.874623298645020E-001;-2.226562611758709E-002;-2.157119568437338E-003;-2.086167922243476E-003;
2.414166666666667E+009;1.887661814689636E-001;-2.400754019618034E-002;-2.321770647540689E-003;-2.065087668597698E-003;
2.414333333333334E+009;1.899803876876831E-001;-2.592489682137966E-002;-2.291190437972546E-003;-2.070295624434948E-003;
2.414500000000000E+009;1.912228763103485E-001;-2.728218026459217E-002;-2.314757788553834E-003;-1.928028999827802E-003;
2.414666666666667E+009;1.925461292266846E-001;-2.875298820436001E-002;-2.484447788447142E-003;-2.032730262726545E-003;
2.414833333333334E+009;1.936264485120773E-001;-3.037029318511486E-002;-2.586358226835728E-003;-2.056854311376810E-003;
2.415000000000000E+009;1.949812769889832E-001;-3.154975548386574E-002;-2.500769449397922E-003;-2.046833047643304E-003;
2.415166666666667E+009;1.962342411279678E-001;-3.268732875585556E-002;-2.856237580999732E-003;-1.910709310323000E-003;
2.415333333333334E+009;1.974128186702728E-001;-3.354365751147270E-002;-2.886522561311722E-003;-1.945935771800578E-003;
2.415500000000000E+009;1.985291391611099E-001;-3.437887132167816E-002;-3.354080952703953E-003;-1.786132808774710E-003;
2.415666666666667E+009;1.995195895433426E-001;-3.520749136805534E-002;-3.496102290228009E-003;-1.648669363930821E-003;
2.415833333333334E+009;2.004256695508957E-001;-3.587240725755692E-002;-3.532038535922766E-003;-1.436069025658071E-003;
2.416000000000000E+009;2.012601196765900E-001;-3.641058132052422E-002;-3.873225767165422E-003;-1.006623380817473E-003;
2.416166666666667E+009;2.019583135843277E-001;-3.695276007056236E-002;-3.693510545417666E-003;-1.026584766805172E-003;
2.416333333333334E+009;2.027524411678314E-001;-3.712197393178940E-002;-4.058700520545244E-003;-6.722272373735905E-004;
2.416500000000000E+009;2.032026946544647E-001;-3.742238506674767E-002;-3.951919265091419E-003;-3.921399184037000E-004;
2.416666666666667E+009;2.036314159631729E-001;-3.769340366125107E-002;-4.025003872811794E-003;-1.679640554357320E-004;
2.416833333333334E+009;2.037881761789322E-001;-3.763281553983688E-002;-4.094434902071953E-003;1.807390362955630E-004;
2.417000000000000E+009;2.040313333272934E-001;-3.771427273750305E-002;-3.874410409480333E-003;4.144571721553803E-004;
2.417166666666667E+009;2.037630230188370E-001;-3.753330186009407E-002;-3.874836722388864E-003;6.314609199762344E-004;
2.417333333333334E+009;2.034887522459030E-001;-3.735897317528725E-002;-3.723241388797760E-003;7.345756748691201E-004;
2.417500000000000E+009;2.033528536558151E-001;-3.728157654404640E-002;-3.534429240971804E-003;1.106698997318745E-003;
2.417666666666667E+009;2.028923630714417E-001;-3.699259087443352E-002;-3.541989251971245E-003;1.099402317777276E-003;
2.417833333333334E+009;2.024941444396973E-001;-3.672800958156586E-002;-3.118048422038555E-003;1.257254276424646E-003;
2.418000000000000E+009;2.019262164831162E-001;-3.639896959066391E-002;-3.098267363384366E-003;1.282829209230840E-003;
2.418166666666667E+009;2.011173218488693E-001;-3.624877706170082E-002;-3.088078461587429E-003;1.481636194512248E-003;
2.418333333333334E+009;2.003792077302933E-001;-3.600297123193741E-002;-2.872076118364930E-003;1.459535444155335E-003;
2.418500000000000E+009;1.993327587842941E-001;-3.598666936159134E-002;-2.710385713726282E-003;1.470702583901584E-003;
2.418666666666667E+009;1.984780132770538E-001;-3.582959249615669E-002;-2.633130410686135E-003;1.537653151899576E-003;
2.418833333333334E+009;1.972498744726181E-001;-3.591299802064896E-002;-2.815811662003398E-003;1.593373017385602E-003;
2.419000000000000E+009;1.960440427064896E-001;-3.613500669598579E-002;-2.686764113605022E-003;1.688306103460491E-003;
2.419166666666667E+009;1.947936266660690E-001;-3.655754774808884E-002;-2.647003857418895E-003;1.701463013887405E-003;
2.419333333333334E+009;1.935537904500961E-001;-3.688612207770348E-002;-2.493322361260653E-003;1.780840801075101E-003;
2.419500000000000E+009;1.920861452817917E-001;-3.727002814412117E-002;-2.577363513410091E-003;1.780859427526593E-003;
2.419666666666667E+009;1.905183643102646E-001;-3.814633190631867E-002;-2.386005362495780E-003;1.979160588234663E-003;
2.419833333333334E+009;1.888660043478012E-001;-3.873402252793312E-002;-2.391709713265300E-003;1.991774188354611E-003;
2.420000000000000E+009;1.873832792043686E-001;-3.969236090779305E-002;-2.300972584635019E-003;2.362877363339067E-003;
2.420166666666667E+009;1.858512908220291E-001;-4.062911868095398E-002;-2.438503084704280E-003;2.405435312539339E-003;
2.420333333333334E+009;1.841446608304977E-001;-4.184016585350037E-002;-2.250945195555687E-003;2.634814241901040E-003;
2.420500000000000E+009;1.825789958238602E-001;-4.331454634666443E-002;-2.268444979563355E-003;2.802919596433640E-003;
2.420666666666667E+009;1.809050589799881E-001;-4.447434097528458E-002;-1.958236563950777E-003;2.892059972509742E-003;
2.420833333333334E+009;1.793019026517868E-001;-4.598646983504295E-002;-1.839666278101504E-003;2.994547830894589E-003;
2.421000000000000E+009;1.777995377779007E-001;-4.765177518129349E-002;-1.530300709418953E-003;3.157705534249544E-003;
2.421166666666667E+009;1.762684583663940E-001;-4.942360520362854E-002;-1.298896269872785E-003;3.310397034510970E-003;
2.421333333333334E+009;1.744383424520493E-001;-5.082399025559425E-002;-9.978464804589748E-004;3.441659966483712E-003;
2.421500000000000E+009;1.732841879129410E-001;-5.283462628722191E-002;-6.554467254318297E-004;3.367316210642457E-003;
2.421666666666667E+009;1.720703840255737E-001;-5.459643527865410E-002;-3.203682135790587E-004;3.366993507370353E-003;
2.421833333333334E+009;1.708394587039948E-001;-5.661833658814430E-002;-1.265212540602079E-005;3.231591545045376E-003;
2.422000000000000E+009;1.696664690971375E-001;-5.842646211385727E-002;3.033622924704105E-004;3.130615223199129E-003;
2.422166666666667E+009;1.687771379947662E-001;-6.039694696664810E-002;5.908575840294361E-004;2.832024823874235E-003;
2.422333333333334E+009;1.678121089935303E-001;-6.253386288881302E-002;6.937645957805216E-004;2.785133896395564E-003;
2.422500000000000E+009;1.669236421585083E-001;-6.448975205421448E-002;8.616566774435341E-004;2.466848120093346E-003;
2.422666666666667E+009;1.661419719457626E-001;-6.640516966581345E-002;1.041777431964874E-003;2.054046839475632E-003;
2.422833333333334E+009;1.658668816089630E-001;-6.858551502227783E-002;1.109094708226621E-003;1.997213112190366E-003;
2.423000000000000E+009;1.653532534837723E-001;-7.055409997701645E-002;1.186377485282719E-003;1.884132972918451E-003;
2.423166666666667E+009;1.651570945978165E-001;-7.273539900779724E-002;1.130737713538110E-003;1.442451728507876E-003;
2.423333333333334E+009;1.648984849452972E-001;-7.453776150941849E-002;1.145919086411595E-003;1.205746084451675E-003;
2.423500000000000E+009;1.648711264133453E-001;-7.636614888906479E-002;1.092388061806560E-003;1.039572758600116E-003;
2.423666666666667E+009;1.649249792098999E-001;-7.838270813226700E-002;9.170767734758556E-004;7.801629253663123E-004;
2.423833333333334E+009;1.650112867355347E-001;-7.997961342334747E-002;8.994099334813654E-004;6.597466999664903E-004;
2.424000000000000E+009;1.649456769227982E-001;-8.191033452749252E-002;5.771802971139550E-004;5.220713792368770E-004;
2.424166666666667E+009;1.652653068304062E-001;-8.355709910392761E-002;5.511005874723196E-004;3.196869511157274E-004;
2.424333333333334E+009;1.655975580215454E-001;-8.499266207218170E-002;3.907643549609929E-004;3.183903463650495E-004;
2.424500000000000E+009;1.659758239984512E-001;-8.666591346263886E-002;1.874359440989792E-004;3.707404830493033E-004;
2.424666666666667E+009;1.662866771221161E-001;-8.810959011316299E-002;6.635928002651781E-005;8.069667092058808E-005;
2.424833333333334E+009;1.671563982963562E-001;-8.939556777477264E-002;-1.175414217868820E-004;1.076389016816393E-004;
2.425000000000000E+009;1.673988997936249E-001;-9.062770009040833E-002;-2.646152279339731E-004;1.381998154101893E-004;
2.425166666666667E+009;1.679893434047699E-001;-9.167218953371048E-002;-3.063963376916945E-004;2.138227573595941E-004;
2.425333333333334E+009;1.683463007211685E-001;-9.260687977075577E-002;-4.546704876702279E-004;3.315738867968321E-004;
2.425500000000000E+009;1.689940840005875E-001;-9.355979412794113E-002;-7.560902740806341E-004;4.465610254555941E-004;
2.425666666666667E+009;1.696309000253677E-001;-9.414812177419663E-002;-6.060356390662491E-004;4.936128389090300E-004;
2.425833333333334E+009;1.700914800167084E-001;-9.514977782964706E-002;-8.294091094285250E-004;7.726177573204041E-004;
2.426000000000000E+009;1.705937683582306E-001;-9.560979157686234E-002;-7.829303503967822E-004;8.485502330586314E-004;
2.426166666666667E+009;1.712293475866318E-001;-9.607914835214615E-002;-9.425962343811989E-004;9.362468263134360E-004;
2.426333333333334E+009;1.714774072170258E-001;-9.667982161045075E-002;-9.327695006504655E-004;1.089265104383230E-003;
2.426500000000000E+009;1.720719933509827E-001;-9.695535898208618E-002;-8.272431441582739E-004;1.157222897745669E-003;
2.426666666666667E+009;1.724459826946259E-001;-9.737800061702728E-002;-6.888745119795203E-004;1.222730730660260E-003;
2.426833333333334E+009;1.728324592113495E-001;-9.767234325408936E-002;-7.391546969301999E-004;1.324444194324315E-003;
2.427000000000000E+009;1.729374527931213E-001;-9.795363992452622E-002;-8.023322443477809E-004;1.634040148928762E-003;
2.427166666666667E+009;1.731593608856201E-001;-9.810570627450943E-002;-7.349309162236750E-004;1.551046152599156E-003;
2.427333333333334E+009;1.731721758842468E-001;-9.842994064092636E-002;-5.693238344974816E-004;1.533318194560707E-003;
2.427500000000000E+009;1.731212139129639E-001;-9.866930544376373E-002;-5.358095513656735E-004;1.716813887469471E-003;
2.427666666666667E+009;1.728648096323013E-001;-9.873217344284058E-002;-5.502928397618234E-004;1.926279626786709E-003;
