# Version 1.00
#
freq[Hz];re:Trc1_S11;im:Trc1_S11;re:Trc2_S21;im:Trc2_S21;
2.400000000000000E+009;1.500564962625504E-001;1.136350855231285E-001;5.056234542280436E-003;1.929439837113023E-003;
2.400166666666667E+009;1.498280465602875E-001;1.112584620714188E-001;5.199220497161150E-003;1.560038886964321E-003;
2.400333333333334E+009;1.500710695981979E-001;1.090869307518005E-001;5.447064060717821E-003;1.096934429369867E-003;
2.400500000000000E+009;1.499850898981094E-001;1.065129786729813E-001;5.577367264777422E-003;7.677420508116484E-004;
2.400666666666667E+009;1.501130014657974E-001;1.038997918367386E-001;5.722515750676394E-003;1.432574645150453E-004;
2.400833333333334E+009;1.501897275447846E-001;1.011690720915794E-001;5.910548381507397E-003;-2.104861923726276E-004;
2.401000000000000E+009;1.506436914205551E-001;9.844803810119629E-002;5.815536715090275E-003;-6.835742969997227E-004;
2.401166666666667E+009;1.509198695421219E-001;9.597334265708923E-002;5.604419391602278E-003;-1.387942000292242E-003;
2.401333333333334E+009;1.513561755418778E-001;9.298224747180939E-002;5.338906776160002E-003;-1.826965832151473E-003;
2.401500000000000E+009;1.519030183553696E-001;9.020823240280151E-002;5.090848542749882E-003;-2.179707400500774E-003;
2.401666666666667E+009;1.523747742176056E-001;8.739568293094635E-002;4.837231710553169E-003;-2.479303162544966E-003;
2.401833333333334E+009;1.530338823795319E-001;8.475752919912338E-002;4.617125261574984E-003;-2.715203212574124E-003;
2.402000000000000E+009;1.539959609508514E-001;8.193589001893997E-002;4.150978289544582E-003;-3.029732266440988E-003;
2.402166666666667E+009;1.550787538290024E-001;7.938501238822937E-002;3.828233573585749E-003;-3.172582713887096E-003;
2.402333333333334E+009;1.562575101852417E-001;7.667693495750427E-002;3.522448241710663E-003;-3.353238571435213E-003;
2.402500000000000E+009;1.574711352586746E-001;7.412405312061310E-002;3.220284823328257E-003;-3.314140951260924E-003;
2.402666666666667E+009;1.587941199541092E-001;7.209422439336777E-002;3.002931596711278E-003;-3.529999172315002E-003;
2.402833333333334E+009;1.601674705743790E-001;6.946714967489243E-002;2.683733589947224E-003;-3.256627824157476E-003;
2.403000000000000E+009;1.619818359613419E-001;6.739363074302673E-002;2.467444865033031E-003;-3.350768703967333E-003;
2.403166666666667E+009;1.639456599950790E-001;6.518041342496872E-002;2.250894671306014E-003;-3.480365267023444E-003;
2.403333333333334E+009;1.655546724796295E-001;6.285754591226578E-002;2.018906874582171E-003;-3.242691280320287E-003;
2.403500000000000E+009;1.675291955471039E-001;6.071268022060394E-002;1.784609048627317E-003;-3.186195623129606E-003;
2.403666666666667E+009;1.695793569087982E-001;5.886350572109222E-002;1.634253538213670E-003;-3.212923416867852E-003;
2.403833333333334E+009;1.714927256107330E-001;5.688931047916412E-002;1.506724976934493E-003;-3.260055091232061E-003;
2.404000000000000E+009;1.731818169355393E-001;5.497586354613304E-002;1.561911543831229E-003;-3.177647711709142E-003;
2.404166666666667E+009;1.752321720123291E-001;5.365430563688278E-002;1.371139776892960E-003;-3.016843693330884E-003;
2.404333333333334E+009;1.770829409360886E-001;5.196966975927353E-002;1.310968305915594E-003;-2.979728626087308E-003;
2.404500000000000E+009;1.788248568773270E-001;5.032126978039742E-002;1.132717821747065E-003;-3.073144936934114E-003;
2.404666666666667E+009;1.805799901485443E-001;4.935111105442047E-002;1.152609125711024E-003;-2.994684269651771E-003;
2.404833333333334E+009;1.826480776071549E-001;4.806731641292572E-002;1.088350312784314E-003;-3.086613258346915E-003;
2.405000000000000E+009;1.841851770877838E-001;4.728380963206291E-002;9.865659521892667E-004;-3.060175804421306E-003;
2.405166666666667E+009;1.859284788370132E-001;4.657689481973648E-002;7.956933113746345E-004;-3.016835078597069E-003;
2.405333333333334E+009;1.872669607400894E-001;4.602375626564026E-002;5.428977310657501E-004;-2.973408438265324E-003;
2.405500000000000E+009;1.889184266328812E-001;4.547313600778580E-002;4.506296536419541E-004;-3.077285364270210E-003;
2.405666666666667E+009;1.902408897876740E-001;4.519753903150559E-002;3.202724910806865E-004;-3.083962481468916E-003;
2.405833333333334E+009;1.918127387762070E-001;4.473633319139481E-002;2.171007217839360E-004;-2.976608229801059E-003;
2.406000000000000E+009;1.928675770759583E-001;4.451341927051544E-002;1.186504960060120E-005;-2.904816996306181E-003;
2.406166666666667E+009;1.942037642002106E-001;4.434967786073685E-002;-1.810462272260338E-004;-2.686971332877874E-003;
2.406333333333334E+009;1.950830072164536E-001;4.424831643700600E-002;-2.032325137406588E-004;-2.633461263030767E-003;
2.406500000000000E+009;1.959515661001205E-001;4.425212740898132E-002;-3.932488325517625E-004;-2.365232910960913E-003;
2.406666666666667E+009;1.967480778694153E-001;4.412452876567841E-002;-4.379785095807165E-004;-2.436226699501276E-003;
2.406833333333334E+009;1.973203569650650E-001;4.412467777729034E-002;-5.439264350570738E-004;-2.270247554406524E-003;
2.407000000000000E+009;1.977019757032394E-001;4.414328932762146E-002;-4.920907085761428E-004;-2.182563068345189E-003;
2.407166666666667E+009;1.982283145189285E-001;4.396170377731323E-002;-6.741631659679115E-004;-1.895987661555409E-003;
2.407333333333334E+009;1.982115954160690E-001;4.404326155781746E-002;-5.652483087033033E-004;-1.752279698848724E-003;
2.407500000000000E+009;1.981454938650131E-001;4.400894418358803E-002;-5.818141507916153E-004;-1.692241872660816E-003;
2.407666666666667E+009;1.981731057167053E-001;4.391351342201233E-002;-3.771670162677765E-004;-1.536957453936338E-003;
2.407833333333334E+009;1.976483166217804E-001;4.379412904381752E-002;-3.924243501387537E-004;-1.638413988985121E-003;
2.408000000000000E+009;1.975390464067459E-001;4.340957105159760E-002;-2.672926057130098E-004;-1.502656727097929E-003;
2.408166666666667E+009;1.968761831521988E-001;4.302487522363663E-002;-2.136863768100739E-004;-1.436041668057442E-003;
2.408333333333334E+009;1.964878290891647E-001;4.260937869548798E-002;-7.859873585402966E-005;-1.392499543726444E-003;
2.408500000000000E+009;1.957842856645584E-001;4.230338335037231E-002;7.349528459599242E-005;-1.296522212214768E-003;
2.408666666666667E+009;1.950171738862991E-001;4.163886979222298E-002;5.623098331852816E-005;-1.360328635200858E-003;
2.408833333333334E+009;1.941091269254684E-001;4.094171524047852E-002;1.784646447049454E-004;-1.340386574156582E-003;
2.409000000000000E+009;1.930350512266159E-001;4.004088044166565E-002;1.754600816639140E-004;-1.454659504815936E-003;
2.409166666666667E+009;1.920638978481293E-001;3.894015029072762E-002;3.245991247240454E-004;-1.506209955550730E-003;
2.409333333333334E+009;1.910846680402756E-001;3.796100243926048E-002;2.715800947044045E-004;-1.547405379824340E-003;
2.409500000000000E+009;1.897296458482742E-001;3.671225532889366E-002;3.130095137748867E-004;-1.497144578024745E-003;
2.409666666666667E+009;1.885619312524796E-001;3.527404740452766E-002;4.914533346891403E-004;-1.815204392187297E-003;
2.409833333333334E+009;1.876734048128128E-001;3.385911509394646E-002;4.722933808807284E-004;-1.866064849309623E-003;
2.410000000000000E+009;1.864054054021835E-001;3.220473974943161E-002;4.022483190055937E-004;-1.946546602994204E-003;
2.410166666666667E+009;1.854078918695450E-001;3.044941090047360E-002;4.764392506331205E-004;-2.005144255235791E-003;
2.410333333333334E+009;1.842598915100098E-001;2.885420061647892E-002;2.827506104949862E-004;-2.177114365622401E-003;
2.410500000000000E+009;1.832603514194489E-001;2.685047872364521E-002;2.074560179607943E-004;-2.274996601045132E-003;
2.410666666666667E+009;1.823353320360184E-001;2.457445673644543E-002;2.157666749553755E-004;-2.500912174582481E-003;
2.410833333333334E+009;1.817517429590225E-001;2.234334684908390E-002;1.214923322550021E-004;-2.502061659470201E-003;
2.411000000000000E+009;1.808961778879166E-001;2.031412348151207E-002;1.237393735209480E-004;-2.652366878464818E-003;
2.411166666666667E+009;1.801754832267761E-001;1.812803186476231E-002;-1.545856212032959E-004;-2.581066451966763E-003;
2.411333333333334E+009;1.794895827770233E-001;1.544884312897921E-002;-3.497466095723212E-004;-2.779012313112617E-003;
2.411500000000000E+009;1.790449321269989E-001;1.316353399306536E-002;-4.241623391862959E-004;-2.712940098717809E-003;
2.411666666666667E+009;1.788117736577988E-001;1.077667437493801E-002;-5.272243870422244E-004;-2.880704123526812E-003;
2.411833333333334E+009;1.785977631807327E-001;8.351029828190804E-003;-9.099419112317264E-004;-2.934152260422707E-003;
2.412000000000000E+009;1.786079108715057E-001;5.644694902002811E-003;-7.890932029113174E-004;-2.840119879692793E-003;
2.412166666666667E+009;1.789371669292450E-001;3.373059444129467E-003;-1.096270396374166E-003;-2.849018201231957E-003;
2.412333333333334E+009;1.787493079900742E-001;7.216255180537701E-004;-1.123345806263387E-003;-2.817058237269521E-003;
2.412500000000000E+009;1.795097589492798E-001;-1.582943368703127E-003;-1.342213712632656E-003;-2.805403666570783E-003;
2.412666666666667E+009;1.796734780073166E-001;-4.094699397683144E-003;-1.508575747720897E-003;-2.650782698765397E-003;
2.412833333333334E+009;1.805376708507538E-001;-6.662604864686728E-003;-1.549633918330073E-003;-2.706371014937758E-003;
2.413000000000000E+009;1.812567114830017E-001;-9.169407188892365E-003;-1.657515647821128E-003;-2.540162531659007E-003;
2.413166666666667E+009;1.820498108863831E-001;-1.125087868422270E-002;-1.757056685164571E-003;-2.557571046054363E-003;
2.413333333333334E+009;1.830950677394867E-001;-1.370711065828800E-002;-2.068358706310391E-003;-2.446697792038322E-003;
2.413500000000000E+009;1.839487999677658E-001;-1.599012874066830E-002;-2.009667456150055E-003;-2.352984854951501E-003;
2.413666666666667E+009;1.851331293582916E-001;-1.813110336661339E-002;-2.136060735210776E-003;-2.493242733180523E-003;
2.413833333333334E+009;1.862245202064514E-001;-2.024197392165661E-002;-2.217394998297095E-003;-2.153133274987340E-003;
2.414000000000000E+009;1.873479932546616E-001;-2.218586392700672E-002;-2.223401796072722E-003;-2.215066226199269E-003;
2.414166666666667E+009;1.887585222721100E-001;-2.401047572493553E-002;-2.231974620372057E-003;-2.103212522342801E-003;
2.414333333333334E+009;1.897828429937363E-001;-2.605048008263111E-002;-2.421753481030464E-003;-2.124111866578460E-003;
2.414500000000000E+009;1.910673528909683E-001;-2.739855833351612E-002;-2.463803393766284E-003;-2.012294717133045E-003;
2.414666666666667E+009;1.924090534448624E-001;-2.898748964071274E-002;-2.387970918789506E-003;-2.009910531342030E-003;
2.414833333333334E+009;1.935386508703232E-001;-3.035319969058037E-002;-2.604610286653042E-003;-2.005005721002817E-003;
2.415000000000000E+009;1.947024911642075E-001;-3.163442388176918E-002;-2.694113645702601E-003;-1.896434579975903E-003;
2.415166666666667E+009;1.960670351982117E-001;-3.275280818343163E-002;-2.843786031007767E-003;-1.800796831957996E-003;
2.415333333333334E+009;1.972595006227493E-001;-3.370311111211777E-002;-2.903999527916312E-003;-1.891089952550829E-003;
2.415500000000000E+009;1.984025239944458E-001;-3.433336690068245E-002;-3.093114821240306E-003;-1.725332345813513E-003;
2.415666666666667E+009;1.994429528713226E-001;-3.522719070315361E-002;-3.426432376727462E-003;-1.683194306679070E-003;
2.415833333333334E+009;2.004550844430924E-001;-3.590499609708786E-002;-3.477326361462474E-003;-1.554308459162712E-003;
2.416000000000000E+009;2.012714296579361E-001;-3.642341867089272E-002;-3.754015779122710E-003;-1.279471092857420E-003;
2.416166666666667E+009;2.019972950220108E-001;-3.686790168285370E-002;-3.810005029663444E-003;-1.077135675586760E-003;
2.416333333333334E+009;2.027684152126312E-001;-3.719713166356087E-002;-3.991254139691591E-003;-6.711636669933796E-004;
2.416500000000000E+009;2.031265348196030E-001;-3.749718517065048E-002;-4.018314648419619E-003;-4.025684902444482E-004;
2.416666666666667E+009;2.035748809576035E-001;-3.760601580142975E-002;-4.050096962600946E-003;-2.406816638540477E-004;
2.416833333333334E+009;2.037959098815918E-001;-3.762061521410942E-002;-3.863698337227106E-003;1.436340098734945E-004;
2.417000000000000E+009;2.039032280445099E-001;-3.768498077988625E-002;-3.795087570324540E-003;3.707034629769623E-004;
2.417166666666667E+009;2.038008719682694E-001;-3.752087429165840E-002;-3.792049596086144E-003;5.851754685863853E-004;
2.417333333333334E+009;2.036272436380386E-001;-3.730072081089020E-002;-3.755477024242282E-003;9.008150664158166E-004;
2.417500000000000E+009;2.032613456249237E-001;-3.730515390634537E-002;-3.641346469521523E-003;9.958419250324369E-004;
2.417666666666667E+009;2.028255909681320E-001;-3.690458834171295E-002;-3.449510084465146E-003;1.107671065256000E-003;
2.417833333333334E+009;2.025005966424942E-001;-3.660804405808449E-002;-3.250317415222526E-003;1.360153313726187E-003;
2.418000000000000E+009;2.018288671970367E-001;-3.637804836034775E-002;-3.071039915084839E-003;1.364703057333827E-003;
2.418166666666667E+009;2.012646794319153E-001;-3.621961921453476E-002;-3.010062268003821E-003;1.376836677081883E-003;
2.418333333333334E+009;2.004328072071075E-001;-3.601189702749252E-002;-2.885406138375402E-003;1.589296152815223E-003;
2.418500000000000E+009;1.993789821863174E-001;-3.603510931134224E-002;-2.811876591295004E-003;1.539784483611584E-003;
2.418666666666667E+009;1.985368132591248E-001;-3.594861179590225E-002;-2.741188276559115E-003;1.572413370013237E-003;
2.418833333333334E+009;1.973422318696976E-001;-3.594877570867539E-002;-2.610264113172889E-003;1.632172148674727E-003;
2.419000000000000E+009;1.960256248712540E-001;-3.612645715475082E-002;-2.573542296886444E-003;1.771629089489579E-003;
2.419166666666667E+009;1.948709934949875E-001;-3.619438782334328E-002;-2.506770426407456E-003;1.709659700281918E-003;
2.419333333333334E+009;1.934715211391449E-001;-3.695201501250267E-002;-2.421977231279016E-003;1.689882716163993E-003;
2.419500000000000E+009;1.921912431716919E-001;-3.730399534106255E-002;-2.505367388948798E-003;1.897969399578869E-003;
2.419666666666667E+009;1.905899643898010E-001;-3.820196911692619E-002;-2.461273455992341E-003;1.915898639708757E-003;
2.419833333333334E+009;1.889792829751968E-001;-3.883098810911179E-002;-2.384524559602141E-003;2.079620724543929E-003;
2.420000000000000E+009;1.874241828918457E-001;-3.968400135636330E-002;-2.431994536891580E-003;2.154137473553419E-003;
2.420166666666667E+009;1.859103441238403E-001;-4.067865014076233E-002;-2.381808590143919E-003;2.401692327111960E-003;
2.420333333333334E+009;1.841779351234436E-001;-4.183934256434441E-002;-2.335177036002278E-003;2.567701507359743E-003;
2.420500000000000E+009;1.824969649314880E-001;-4.331223666667938E-002;-2.202067989856005E-003;2.699422184377909E-003;
2.420666666666667E+009;1.807604879140854E-001;-4.429480805993080E-002;-1.889053732156754E-003;2.905580680817366E-003;
2.420833333333334E+009;1.792469024658203E-001;-4.594844207167625E-002;-1.910972059704363E-003;3.121040994301438E-003;
2.421000000000000E+009;1.777505725622177E-001;-4.751646146178246E-002;-1.481576007790864E-003;3.137847641482949E-003;
2.421166666666667E+009;1.762241870164871E-001;-4.918605834245682E-002;-1.213112846016884E-003;3.488841000944376E-003;
2.421333333333334E+009;1.744858324527741E-001;-5.065900459885597E-002;-8.671314571984112E-004;3.480694489553571E-003;
2.421500000000000E+009;1.733756363391876E-001;-5.272759124636650E-002;-6.225536926649511E-004;3.479196690022945E-003;
2.421666666666667E+009;1.720484644174576E-001;-5.462755635380745E-002;-2.863401314243674E-004;3.232134506106377E-003;
2.421833333333334E+009;1.708960682153702E-001;-5.654352530837059E-002;-1.389713142998517E-004;3.279414027929306E-003;
2.422000000000000E+009;1.695527732372284E-001;-5.830232426524162E-002;2.320378116564825E-004;3.225260181352496E-003;
2.422166666666667E+009;1.687839925289154E-001;-6.048041954636574E-002;4.343779582995921E-004;2.910624025389552E-003;
2.422333333333334E+009;1.677442044019699E-001;-6.261953711509705E-002;6.284411065280438E-004;2.676294883713126E-003;
2.422500000000000E+009;1.669169366359711E-001;-6.440376490354538E-002;8.646341739222407E-004;2.522897440940142E-003;
2.422666666666667E+009;1.663212329149246E-001;-6.648341566324234E-002;9.808515897020698E-004;2.289306838065386E-003;
2.422833333333334E+009;1.658456176519394E-001;-6.847795844078064E-002;1.091150101274252E-003;2.032045740634203E-003;
2.423000000000000E+009;1.653109490871429E-001;-7.061857730150223E-002;1.074004452675581E-003;1.711846794933081E-003;
2.423166666666667E+009;1.650542467832565E-001;-7.251260429620743E-002;1.264419290237129E-003;1.474629971198738E-003;
2.423333333333334E+009;1.648997068405151E-001;-7.441803812980652E-002;1.169877010397613E-003;1.402727444656193E-003;
2.423500000000000E+009;1.648265868425369E-001;-7.643222063779831E-002;9.324820712208748E-004;1.054860535077751E-003;
2.423666666666667E+009;1.648258119821549E-001;-7.823149859905243E-002;9.782870765775442E-004;8.198834257200360E-004;
2.423833333333334E+009;1.650473326444626E-001;-7.998453825712204E-002;7.346234633587301E-004;5.841397796757519E-004;
2.424000000000000E+009;1.650420278310776E-001;-8.184599131345749E-002;7.130688172765076E-004;4.179302195552737E-004;
2.424166666666667E+009;1.654044240713120E-001;-8.354643732309341E-002;5.914770299568772E-004;3.763675922527909E-004;
2.424333333333334E+009;1.657287031412125E-001;-8.498322218656540E-002;3.999789187218994E-004;1.926525583257899E-004;
2.424500000000000E+009;1.660432964563370E-001;-8.679929375648499E-002;1.286449696635827E-004;2.892634365707636E-004;
2.424666666666667E+009;1.664389520883560E-001;-8.805315196514130E-002;2.887268055928871E-005;3.528572960931342E-006;
2.424833333333334E+009;1.670656949281693E-001;-8.932667970657349E-002;-2.445665595587343E-004;1.554454211145639E-004;
2.425000000000000E+009;1.675710380077362E-001;-9.062063694000244E-002;-2.778902417048812E-004;1.251696230610833E-004;
2.425166666666667E+009;1.679713577032089E-001;-9.173622727394104E-002;-3.525213396642357E-004;3.004018217325211E-004;
2.425333333333334E+009;1.683955639600754E-001;-9.271474182605743E-002;-5.677569424733520E-004;3.791830968111754E-004;
2.425500000000000E+009;1.690630316734314E-001;-9.360475093126297E-002;-5.593198002316058E-004;5.090226768516004E-004;
2.425666666666667E+009;1.695854067802429E-001;-9.417051076889038E-002;-7.794558769091964E-004;5.853046895936132E-004;
2.425833333333334E+009;1.700130999088287E-001;-9.516955912113190E-002;-7.882057689130306E-004;8.260292815975845E-004;
2.426000000000000E+009;1.706769168376923E-001;-9.567816555500031E-002;-8.114006486721337E-004;8.810848812572658E-004;
2.426166666666667E+009;1.712445914745331E-001;-9.620482474565506E-002;-8.348076371476054E-004;1.035553985275328E-003;
2.426333333333334E+009;1.714147478342056E-001;-9.670729935169220E-002;-6.968696834519506E-004;1.081741298548877E-003;
2.426500000000000E+009;1.720508933067322E-001;-9.702077507972717E-002;-8.956533274613321E-004;1.216876436956227E-003;
2.426666666666667E+009;1.723094582557678E-001;-9.748004376888275E-002;-7.550142472609878E-004;1.403777394443750E-003;
2.426833333333334E+009;1.727954000234604E-001;-9.773365408182144E-002;-7.235773955471814E-004;1.351015642285347E-003;
2.427000000000000E+009;1.729251444339752E-001;-9.790600091218948E-002;-6.124031497165561E-004;1.524330466054380E-003;
2.427166666666667E+009;1.731896400451660E-001;-9.810191392898560E-002;-6.457263953052461E-004;1.650002435781062E-003;
2.427333333333334E+009;1.731444746255875E-001;-9.849971532821655E-002;-6.198808550834656E-004;1.738711842335761E-003;
2.427500000000000E+009;1.730723232030869E-001;-9.867415577173233E-002;-5.957233952358365E-004;1.641943119466305E-003;
2.427666666666667E+009;1.728572845458984E-001;-9.880492836236954E-002;-5.395040498115122E-004;1.717036240734160E-003;
