# Version 1.00
#
freq[Hz];re:Trc1_S11;im:Trc1_S11;re:Trc2_S21;im:Trc2_S21;
2.400000000000000E+009;1.499025970697403E-001;1.135454624891281E-001;4.745499696582556E-003;1.438841340132058E-003;
2.400166666666667E+009;1.504721194505692E-001;1.108865886926651E-001;5.296039860695601E-003;2.334257122129202E-003;
2.400333333333334E+009;1.504355520009995E-001;1.089130938053131E-001;5.101871211081743E-003;1.505864318460226E-003;
2.400500000000000E+009;1.503437459468842E-001;1.063157618045807E-001;5.460118409246206E-003;9.905270999297500E-004;
2.400666666666667E+009;1.501199752092362E-001;1.038639694452286E-001;5.669232923537493E-003;2.258447930216789E-004;
2.400833333333334E+009;1.503530442714691E-001;1.010646522045136E-001;5.807309411466122E-003;-1.963279064511880E-004;
2.401000000000000E+009;1.506192237138748E-001;9.832314401865006E-002;5.656227003782988E-003;-7.791913230903447E-004;
2.401166666666667E+009;1.508964151144028E-001;9.550031274557114E-002;5.676957312971354E-003;-1.173264696262777E-003;
2.401333333333334E+009;1.513117551803589E-001;9.279680997133255E-002;5.368871148675680E-003;-1.624609576538205E-003;
2.401500000000000E+009;1.517741680145264E-001;8.987466990947723E-002;5.170159507542849E-003;-2.043985296040773E-003;
2.401666666666667E+009;1.525008380413055E-001;8.731099218130112E-002;4.826536402106285E-003;-2.366231987252832E-003;
2.401833333333334E+009;1.530817896127701E-001;8.459281176328659E-002;4.456876311451197E-003;-2.661519218236208E-003;
2.402000000000000E+009;1.539712846279144E-001;8.173428475856781E-002;4.349817987531424E-003;-2.896244870498776E-003;
2.402166666666667E+009;1.550375521183014E-001;7.924555242061615E-002;3.931151703000069E-003;-2.906961599364877E-003;
2.402333333333334E+009;1.561649590730667E-001;7.651899009943008E-002;3.529881592839956E-003;-3.234316129237413E-003;
2.402500000000000E+009;1.575095653533936E-001;7.408397644758225E-002;3.121205605566502E-003;-3.277207957580686E-003;
2.402666666666667E+009;1.588712483644486E-001;7.168826460838318E-002;2.926796209067106E-003;-3.142734756693244E-003;
2.402833333333334E+009;1.602942645549774E-001;6.913307309150696E-002;2.640081569552422E-003;-3.323127049952745E-003;
2.403000000000000E+009;1.619651466608048E-001;6.700885295867920E-002;2.410592045634985E-003;-3.338785842061043E-003;
2.403166666666667E+009;1.639059185981751E-001;6.475481390953064E-002;2.085594227537513E-003;-3.253630129620433E-003;
2.403333333333334E+009;1.655275821685791E-001;6.257724761962891E-002;1.919161877594888E-003;-3.163085784763098E-003;
2.403500000000000E+009;1.675490140914917E-001;6.055364385247231E-002;1.760409097187221E-003;-3.227982902899385E-003;
2.403666666666667E+009;1.694900542497635E-001;5.861015245318413E-002;1.728081959299743E-003;-3.072513500228524E-003;
2.403833333333334E+009;1.713848263025284E-001;5.678271129727364E-002;1.645238022319973E-003;-3.076678840443492E-003;
2.404000000000000E+009;1.732398420572281E-001;5.491144582629204E-002;1.365837291814387E-003;-2.955019008368254E-003;
2.404166666666667E+009;1.751756668090820E-001;5.336123332381249E-002;1.333135063759983E-003;-2.970069414004684E-003;
2.404333333333334E+009;1.769004911184311E-001;5.170174315571785E-002;1.221716520376504E-003;-3.066025208681822E-003;
2.404500000000000E+009;1.788751184940338E-001;5.034881085157394E-002;1.283377176150680E-003;-2.964993473142386E-003;
2.404666666666667E+009;1.805594861507416E-001;4.908566549420357E-002;1.140769803896546E-003;-3.051764564588666E-003;
2.404833333333334E+009;1.824910789728165E-001;4.783519729971886E-002;8.840349037200213E-004;-3.027667989954352E-003;
2.405000000000000E+009;1.839739531278610E-001;4.727409407496452E-002;8.976278477348387E-004;-3.041489282622933E-003;
2.405166666666667E+009;1.856307238340378E-001;4.640898481011391E-002;6.843228475190699E-004;-3.128066426143050E-003;
2.405333333333334E+009;1.872164607048035E-001;4.591367393732071E-002;6.056281854398549E-004;-3.065903205424547E-003;
2.405500000000000E+009;1.889881640672684E-001;4.527867585420609E-002;3.877684939652681E-004;-2.992120804265142E-003;
2.405666666666667E+009;1.901859641075134E-001;4.475404322147369E-002;4.543945251498371E-004;-3.071241313591600E-003;
2.405833333333334E+009;1.916853934526444E-001;4.456082731485367E-002;1.397346059093252E-004;-2.954305848106742E-003;
2.406000000000000E+009;1.926928162574768E-001;4.438029602169991E-002;8.818804053589702E-005;-2.821229631081224E-003;
2.406166666666667E+009;1.939194053411484E-001;4.406129941344261E-002;-1.904985110741109E-004;-2.939411671832204E-003;
2.406333333333334E+009;1.949206292629242E-001;4.394263774156570E-002;-2.907321031671017E-004;-2.751718508079648E-003;
2.406500000000000E+009;1.958672851324081E-001;4.398036748170853E-002;-3.933259868063033E-004;-2.553797326982021E-003;
2.406666666666667E+009;1.966529935598373E-001;4.403329268097878E-002;-4.510269500315189E-004;-2.453263616189361E-003;
2.406833333333334E+009;1.972685605287552E-001;4.389305412769318E-002;-4.969245637767017E-004;-2.298268722370267E-003;
2.407000000000000E+009;1.976603120565414E-001;4.404608905315399E-002;-6.290358141995966E-004;-2.029394963756204E-003;
2.407166666666667E+009;1.980354338884354E-001;4.366594552993774E-002;-5.266787484288216E-004;-2.080352045595646E-003;
2.407333333333334E+009;1.980666220188141E-001;4.378901794552803E-002;-5.172678502276540E-004;-1.709788222797215E-003;
2.407500000000000E+009;1.979718357324600E-001;4.382215067744255E-002;-6.106479559093714E-004;-1.627846737392247E-003;
2.407666666666667E+009;1.979534476995468E-001;4.365940392017365E-002;-5.458438536152244E-004;-1.555522670969367E-003;
2.407833333333334E+009;1.974773108959198E-001;4.342627897858620E-002;-5.680260946974158E-004;-1.612593885511160E-003;
2.408000000000000E+009;1.973405033349991E-001;4.323948174715042E-002;-2.562677254900336E-004;-1.474943011999130E-003;
2.408166666666667E+009;1.967216581106186E-001;4.303410649299622E-002;-2.180626470362768E-004;-1.307878410443664E-003;
2.408333333333334E+009;1.962255835533142E-001;4.232574999332428E-002;-8.685701322974637E-005;-1.373899285681546E-003;
2.408500000000000E+009;1.953448504209518E-001;4.199420660734177E-002;-9.419327398063615E-005;-1.268621650524437E-003;
2.408666666666667E+009;1.947989165782929E-001;4.150059446692467E-002;6.401136488420889E-005;-1.331665203906596E-003;
2.408833333333334E+009;1.939420104026794E-001;4.067554324865341E-002;1.744226901791990E-004;-1.396238221786916E-003;
2.409000000000000E+009;1.928819119930267E-001;3.974931314587593E-002;3.012118104379624E-004;-1.439581275917590E-003;
2.409166666666667E+009;1.919131726026535E-001;3.873290866613388E-002;4.517357738222927E-004;-1.372416852973402E-003;
2.409333333333334E+009;1.908832043409348E-001;3.776353970170021E-002;4.707724147010595E-004;-1.394691760651767E-003;
2.409500000000000E+009;1.895611137151718E-001;3.662095591425896E-002;6.152082933112979E-004;-1.542101963423193E-003;
2.409666666666667E+009;1.885427087545395E-001;3.503611311316490E-002;5.920720868743956E-004;-1.631676102988422E-003;
2.409833333333334E+009;1.875423789024353E-001;3.374446183443070E-002;5.751107819378376E-004;-1.848154468461871E-003;
2.410000000000000E+009;1.863787919282913E-001;3.200995922088623E-002;5.224768538028002E-004;-2.092474373057485E-003;
2.410166666666667E+009;1.852076947689056E-001;3.021629154682159E-002;4.202408308628947E-004;-2.111760666593909E-003;
2.410333333333334E+009;1.841058880090714E-001;2.854238823056221E-002;6.029669311828911E-004;-2.089727669954300E-003;
2.410500000000000E+009;1.830061525106430E-001;2.676138468086720E-002;4.023083602078259E-004;-2.326557412743568E-003;
2.410666666666667E+009;1.821693629026413E-001;2.430285885930061E-002;3.284350968897343E-004;-2.395051997154951E-003;
2.410833333333334E+009;1.813495606184006E-001;2.231352031230927E-002;1.778711593942717E-004;-2.426581922918558E-003;
2.411000000000000E+009;1.805192828178406E-001;2.008700184524059E-002;1.673507940722629E-004;-2.747878665104508E-003;
2.411166666666667E+009;1.800199002027512E-001;1.801190711557865E-002;7.241668936330825E-005;-2.785491291433573E-003;
2.411333333333334E+009;1.791726499795914E-001;1.549959927797318E-002;-1.809472742024809E-004;-2.993070520460606E-003;
2.411500000000000E+009;1.789494901895523E-001;1.298023946583271E-002;-3.326279693283141E-004;-2.889322815462947E-003;
2.411666666666667E+009;1.786195635795593E-001;1.054916158318520E-002;-5.960465059615672E-004;-3.032932290807366E-003;
2.411833333333334E+009;1.782887428998947E-001;8.272767066955566E-003;-6.758111994713545E-004;-3.036925336346030E-003;
2.412000000000000E+009;1.786168664693832E-001;5.588284227997065E-003;-9.583012433722615E-004;-2.936910605058074E-003;
2.412166666666667E+009;1.784685850143433E-001;3.436485305428505E-003;-8.977108518593013E-004;-2.987337298691273E-003;
2.412333333333334E+009;1.787793487310410E-001;8.417565841227770E-004;-1.280309748835862E-003;-2.895631827414036E-003;
2.412500000000000E+009;1.789760738611221E-001;-1.531704212538898E-003;-1.252930262126029E-003;-3.016406437382102E-003;
2.412666666666667E+009;1.795094609260559E-001;-4.155863542109728E-003;-1.516894670203328E-003;-2.708194544538856E-003;
2.412833333333334E+009;1.803281307220459E-001;-6.633264943957329E-003;-1.606289413757622E-003;-2.754006534814835E-003;
2.413000000000000E+009;1.812095642089844E-001;-9.232355281710625E-003;-1.636871020309627E-003;-2.671276219189167E-003;
2.413166666666667E+009;1.818540543317795E-001;-1.130807586014271E-002;-1.799849444068968E-003;-2.709106076508761E-003;
2.413333333333334E+009;1.828798800706863E-001;-1.369967032223940E-002;-1.913448446430266E-003;-2.552810125052929E-003;
2.413500000000000E+009;1.838488429784775E-001;-1.594841666519642E-002;-1.966527197510004E-003;-2.533009042963386E-003;
2.413666666666667E+009;1.848945766687393E-001;-1.806862279772759E-002;-2.099672798067331E-003;-2.391016343608499E-003;
2.413833333333334E+009;1.859968602657318E-001;-2.023917622864246E-002;-2.244337461888790E-003;-2.416454488411546E-003;
2.414000000000000E+009;1.870654821395874E-001;-2.225742861628532E-002;-2.150279469788075E-003;-2.167820930480957E-003;
2.414166666666667E+009;1.885689646005631E-001;-2.396299131214619E-002;-2.154750516638160E-003;-2.131010871380568E-003;
2.414333333333334E+009;1.897332221269608E-001;-2.599267661571503E-002;-2.309727948158979E-003;-2.255278406664729E-003;
2.414500000000000E+009;1.908759921789169E-001;-2.736901491880417E-002;-2.444664482027292E-003;-2.178371883928776E-003;
2.414666666666667E+009;1.921369284391403E-001;-2.899558097124100E-002;-2.583281835541129E-003;-2.113447990268469E-003;
2.414833333333334E+009;1.933557242155075E-001;-3.028877265751362E-002;-2.629411173984408E-003;-2.172140404582024E-003;
2.415000000000000E+009;1.946120709180832E-001;-3.152746334671974E-002;-2.826789161190391E-003;-2.012193901464343E-003;
2.415166666666667E+009;1.958137303590775E-001;-3.264610096812248E-002;-2.885410096496344E-003;-2.086028689518571E-003;
2.415333333333334E+009;1.970831453800201E-001;-3.377209976315498E-002;-3.084412310272455E-003;-1.949021359905601E-003;
2.415500000000000E+009;1.983196586370468E-001;-3.434624522924423E-002;-3.359142458066344E-003;-1.925274613313377E-003;
2.415666666666667E+009;1.992790997028351E-001;-3.517521545290947E-002;-3.554035676643252E-003;-1.658240449614823E-003;
2.415833333333334E+009;2.001895308494568E-001;-3.575623035430908E-002;-3.676041495054960E-003;-1.478380989283323E-003;
2.416000000000000E+009;2.009565532207489E-001;-3.628817945718765E-002;-3.851370420306921E-003;-1.206237240694463E-003;
2.416166666666667E+009;2.017393261194229E-001;-3.692748770117760E-002;-3.936165478080511E-003;-1.085551688447595E-003;
2.416333333333334E+009;2.025145441293716E-001;-3.712464496493340E-002;-4.062440246343613E-003;-7.804879569448531E-004;
2.416500000000000E+009;2.029775679111481E-001;-3.728185966610909E-002;-4.085074644535780E-003;-4.665703163482249E-004;
2.416666666666667E+009;2.032718658447266E-001;-3.757478669285774E-002;-4.213390406221151E-003;-2.167705242754892E-004;
2.416833333333334E+009;2.035625427961350E-001;-3.750957176089287E-002;-4.093172494322062E-003;1.843941136030480E-004;
2.417000000000000E+009;2.038040012121201E-001;-3.764048591256142E-002;-4.037817008793354E-003;4.893527948297560E-004;
2.417166666666667E+009;2.034875154495239E-001;-3.747609257698059E-002;-3.817459801211953E-003;7.104011601768434E-004;
2.417333333333334E+009;2.033633887767792E-001;-3.716760501265526E-002;-3.711273893713951E-003;9.025796898640692E-004;
2.417500000000000E+009;2.031056433916092E-001;-3.712030127644539E-002;-3.642159979790449E-003;1.024955650791526E-003;
2.417666666666667E+009;2.026820182800293E-001;-3.681928664445877E-002;-3.467561211436987E-003;1.181021565571427E-003;
2.417833333333334E+009;2.022474110126495E-001;-3.658692911267281E-002;-3.372713457792997E-003;1.283885096199811E-003;
2.418000000000000E+009;2.017477303743362E-001;-3.626730293035507E-002;-3.241121303290129E-003;1.497590099461377E-003;
2.418166666666667E+009;2.009667754173279E-001;-3.610006719827652E-002;-2.926049754023552E-003;1.280107535421848E-003;
2.418333333333334E+009;2.000426352024078E-001;-3.590946272015572E-002;-2.875162521377206E-003;1.412539742887020E-003;
2.418500000000000E+009;1.991940587759018E-001;-3.579781204462051E-002;-2.828952157869935E-003;1.577684306539595E-003;
2.418666666666667E+009;1.983109861612320E-001;-3.563515096902847E-002;-2.757123671472073E-003;1.743858912959695E-003;
2.418833333333334E+009;1.971756666898727E-001;-3.576707467436791E-002;-2.599184168502688E-003;1.646986929699779E-003;
2.419000000000000E+009;1.959385424852371E-001;-3.595355898141861E-002;-2.758281538262963E-003;1.635960768908262E-003;
2.419166666666667E+009;1.946660727262497E-001;-3.619594499468803E-002;-2.717742929235101E-003;1.767338835634291E-003;
2.419333333333334E+009;1.933776140213013E-001;-3.668120875954628E-002;-2.631289884448052E-003;1.804266590625048E-003;
2.419500000000000E+009;1.921156942844391E-001;-3.708592802286148E-002;-2.475099172443152E-003;2.030383795499802E-003;
2.419666666666667E+009;1.904688328504562E-001;-3.796718642115593E-002;-2.643656451255083E-003;1.994046848267317E-003;
2.419833333333334E+009;1.888954639434815E-001;-3.860151395201683E-002;-2.519040135666728E-003;2.093627583235502E-003;
2.420000000000000E+009;1.874320060014725E-001;-3.952943161129952E-002;-2.501695184037089E-003;2.259818371385336E-003;
2.420166666666667E+009;1.857103854417801E-001;-4.048795998096466E-002;-2.504530828446150E-003;2.402739133685827E-003;
2.420333333333334E+009;1.841286569833756E-001;-4.185606166720390E-002;-2.315090969204903E-003;2.474693115800619E-003;
2.420500000000000E+009;1.824137866497040E-001;-4.311981797218323E-002;-2.205296186730266E-003;2.916746772825718E-003;
2.420666666666667E+009;1.809446811676025E-001;-4.427384212613106E-002;-2.016697311773896E-003;2.959334291517735E-003;
2.420833333333334E+009;1.792288720607758E-001;-4.579786211252213E-002;-1.729636802338064E-003;3.108422737568617E-003;
2.421000000000000E+009;1.777486503124237E-001;-4.753481969237328E-002;-1.526859705336392E-003;3.204314969480038E-003;
2.421166666666667E+009;1.762071400880814E-001;-4.919793829321861E-002;-1.280024880543351E-003;3.313444321975112E-003;
2.421333333333334E+009;1.745438128709793E-001;-5.062719434499741E-002;-9.054435649886727E-004;3.594745881855488E-003;
2.421500000000000E+009;1.732034087181091E-001;-5.263504385948181E-002;-6.370294722728431E-004;3.419848857447505E-003;
2.421666666666667E+009;1.720268279314041E-001;-5.452140420675278E-002;-3.419227432459593E-004;3.508426481857896E-003;
2.421833333333334E+009;1.707184612751007E-001;-5.641576647758484E-002;-7.617560913786292E-005;3.330256789922714E-003;
2.422000000000000E+009;1.696811616420746E-001;-5.829068273305893E-002;1.577930670464411E-004;3.183103166520596E-003;
2.422166666666667E+009;1.688325554132462E-001;-6.045553833246231E-002;4.624395805876702E-004;3.038348630070686E-003;
2.422333333333334E+009;1.678309291601181E-001;-6.231346353888512E-002;7.985456613823772E-004;2.808553632348776E-003;
2.422500000000000E+009;1.670539826154709E-001;-6.427806615829468E-002;9.699712391011417E-004;2.626830246299505E-003;
2.422666666666667E+009;1.664443165063858E-001;-6.640898436307907E-002;8.542016730643809E-004;2.373693510890007E-003;
2.422833333333334E+009;1.658803224563599E-001;-6.845546513795853E-002;1.029505860060453E-003;2.056782133877277E-003;
2.423000000000000E+009;1.653523892164230E-001;-7.041931897401810E-002;1.225388958118856E-003;1.894209068268538E-003;
2.423166666666667E+009;1.649781316518784E-001;-7.242215424776077E-002;1.149982097558677E-003;1.697450643405318E-003;
2.423333333333334E+009;1.647397130727768E-001;-7.447031885385513E-002;1.187375513836741E-003;1.237431075423956E-003;
2.423500000000000E+009;1.648511588573456E-001;-7.622696459293366E-002;1.135520637035370E-003;1.195288728922606E-003;
2.423666666666667E+009;1.648337692022324E-001;-7.810124754905701E-002;9.642991353757680E-004;8.634091936983168E-004;
2.423833333333334E+009;1.648791730403900E-001;-7.978780567646027E-002;8.687818772159517E-004;5.962275899946690E-004;
2.424000000000000E+009;1.650222092866898E-001;-8.179029077291489E-002;6.767142331227660E-004;7.159155211411417E-004;
2.424166666666667E+009;1.652969121932983E-001;-8.331049233675003E-002;5.009323940612376E-004;3.812602080870420E-004;
2.424333333333334E+009;1.655180305242539E-001;-8.491072803735733E-002;4.903041408397257E-004;3.229576395824552E-004;
2.424500000000000E+009;1.658633053302765E-001;-8.660197257995606E-002;2.404406404821202E-004;2.478431561030448E-004;
2.424666666666667E+009;1.662333309650421E-001;-8.786763250827789E-002;1.335189008386806E-004;3.668510180432349E-004;
2.424833333333334E+009;1.670037060976028E-001;-8.922076225280762E-002;6.176886381581426E-005;2.332487492822111E-004;
2.425000000000000E+009;1.674942821264267E-001;-9.044384956359863E-002;-2.045495966740418E-005;3.149666299577802E-004;
2.425166666666667E+009;1.678968071937561E-001;-9.148876368999481E-002;-3.439338470343500E-004;2.972453366965056E-004;
2.425333333333334E+009;1.684397608041763E-001;-9.254883974790573E-002;-4.864629299845547E-004;3.192951844539493E-004;
2.425500000000000E+009;1.690001040697098E-001;-9.338148683309555E-002;-5.435792263597250E-004;4.264509188942611E-004;
2.425666666666667E+009;1.695370078086853E-001;-9.407094120979309E-002;-6.736595532856882E-004;5.801880033686757E-004;
2.425833333333334E+009;1.700249314308167E-001;-9.490267187356949E-002;-7.229395559988916E-004;7.259267149493098E-004;
2.426000000000000E+009;1.706267148256302E-001;-9.544863551855087E-002;-7.511766161769629E-004;7.046507089398801E-004;
2.426166666666667E+009;1.712194234132767E-001;-9.598554670810700E-002;-7.970931474119425E-004;1.043761963956058E-003;
2.426333333333334E+009;1.713984161615372E-001;-9.649831056594849E-002;-6.799137336201966E-004;1.126276794821024E-003;
2.426500000000000E+009;1.720317602157593E-001;-9.672897309064865E-002;-8.968909969553351E-004;1.208619331009686E-003;
2.426666666666667E+009;1.723703742027283E-001;-9.726271778345108E-002;-7.751169614493847E-004;1.409789198078215E-003;
2.426833333333334E+009;1.727638989686966E-001;-9.751576185226440E-002;-7.427825476042926E-004;1.597940921783447E-003;
2.427000000000000E+009;1.730253994464874E-001;-9.781432896852493E-002;-6.268906290642917E-004;1.447746297344565E-003;
2.427166666666667E+009;1.731187105178833E-001;-9.793928265571594E-002;-6.362698622979224E-004;1.501657301560044E-003;
2.427333333333334E+009;1.732042580842972E-001;-9.821230918169022E-002;-5.994127131998539E-004;1.640313770622015E-003;
2.427500000000000E+009;1.732185333967209E-001;-9.851342439651489E-002;-4.883886431343854E-004;1.765693421475589E-003;
2.427666666666667E+009;1.728393882513046E-001;-9.856001287698746E-002;-4.985863924957812E-004;1.724804053083062E-003;
