# Version 1.00
#
freq[Hz];re:Trc1_S11;im:Trc1_S11;re:Trc2_S21;im:Trc2_S21;
2.400000000000000E+009;1.499089300632477E-001;1.135969161987305E-001;5.067545920610428E-003;1.919180271215737E-003;
2.400166666666667E+009;1.496738642454147E-001;1.112815290689468E-001;5.336035974323750E-003;1.414165715686977E-003;
2.400333333333334E+009;1.498508006334305E-001;1.090020388364792E-001;5.492701195180416E-003;1.213152776472271E-003;
2.400500000000000E+009;1.499261111021042E-001;1.064875721931458E-001;5.748823285102844E-003;6.222258089110255E-004;
2.400666666666667E+009;1.502020508050919E-001;1.038927435874939E-001;5.960743874311447E-003;1.637072855373845E-004;
2.400833333333334E+009;1.502715200185776E-001;1.012413352727890E-001;5.856896750628948E-003;-2.874603378586471E-004;
2.401000000000000E+009;1.505349278450012E-001;9.833885729312897E-002;5.862792022526264E-003;-7.511095027439296E-004;
2.401166666666667E+009;1.506763249635696E-001;9.592401981353760E-002;5.743056535720825E-003;-1.160027226433158E-003;
2.401333333333334E+009;1.514347940683365E-001;9.299094229936600E-002;5.538358818739653E-003;-1.636894419789314E-003;
2.401500000000000E+009;1.519606262445450E-001;9.015804529190064E-002;5.155256949365139E-003;-2.076038392260671E-003;
2.401666666666667E+009;1.524087935686112E-001;8.737214654684067E-002;4.902508109807968E-003;-2.304036868736148E-003;
2.401833333333334E+009;1.531056165695190E-001;8.469378948211670E-002;4.507021978497505E-003;-2.674547256901860E-003;
2.402000000000000E+009;1.540344804525375E-001;8.204210549592972E-002;4.133465699851513E-003;-3.015574533492327E-003;
2.402166666666667E+009;1.552430987358093E-001;7.946857810020447E-002;3.872232511639595E-003;-3.096500411629677E-003;
2.402333333333334E+009;1.562502086162567E-001;7.686774432659149E-002;3.725214162841439E-003;-3.200407838448882E-003;
2.402500000000000E+009;1.576152294874191E-001;7.455268502235413E-002;3.009517909958959E-003;-3.564462531358004E-003;
2.402666666666667E+009;1.588865667581558E-001;7.170014083385468E-002;2.874901751056314E-003;-3.097414504736662E-003;
2.402833333333334E+009;1.605316251516342E-001;6.975148618221283E-002;2.288265852257609E-003;-3.604038152843714E-003;
2.403000000000000E+009;1.625163406133652E-001;6.725772470235825E-002;1.763331936672330E-003;-3.053532913327217E-003;
2.403166666666667E+009;1.640475243330002E-001;6.502383947372437E-002;2.392492722719908E-003;-3.213048214092851E-003;
2.403333333333334E+009;1.655585914850235E-001;6.280987709760666E-002;2.172179520130158E-003;-3.214525291696191E-003;
2.403500000000000E+009;1.674278378486633E-001;6.070380657911301E-002;2.190915402024984E-003;-3.204344538971782E-003;
2.403666666666667E+009;1.693002581596375E-001;5.868127197027206E-002;2.107999753206968E-003;-2.791150007396936E-003;
2.403833333333334E+009;1.717345863580704E-001;5.661486089229584E-002;1.277486095204949E-003;-2.899718703702092E-003;
2.404000000000000E+009;1.732695102691650E-001;5.509876832365990E-002;1.351634506136179E-003;-2.911225426942110E-003;
2.404166666666667E+009;1.753823608160019E-001;5.347852781414986E-002;1.339133596047759E-003;-2.864937763661146E-003;
2.404333333333334E+009;1.771196275949478E-001;5.203282088041306E-002;1.262880279682577E-003;-2.935178810730577E-003;
2.404500000000000E+009;1.791494190692902E-001;5.037956312298775E-002;1.113638398237526E-003;-2.862846711650491E-003;
2.404666666666667E+009;1.808655112981796E-001;4.924465343356133E-002;1.148294308222830E-003;-2.871373668313026E-003;
2.404833333333334E+009;1.826625019311905E-001;4.816623404622078E-002;1.048242324031889E-003;-2.920764964073896E-003;
2.405000000000000E+009;1.841998249292374E-001;4.734711349010468E-002;8.652754477225244E-004;-3.004691796377301E-003;
2.405166666666667E+009;1.858416646718979E-001;4.663961380720139E-002;7.851417758502066E-004;-2.920140279456973E-003;
2.405333333333334E+009;1.874524205923080E-001;4.592629522085190E-002;5.521663115359843E-004;-2.940300386399031E-003;
2.405500000000000E+009;1.889784485101700E-001;4.536410421133041E-002;5.921922856941819E-004;-2.922642277553678E-003;
2.405666666666667E+009;1.904522329568863E-001;4.494832828640938E-002;3.490712260827422E-004;-2.889489056542516E-003;
2.405833333333334E+009;1.918477267026901E-001;4.480162635445595E-002;2.791902807075530E-004;-2.818495733663440E-003;
2.406000000000000E+009;1.930165141820908E-001;4.447640851140022E-002;2.277707972098142E-005;-2.905790926888585E-003;
2.406166666666667E+009;1.942037194967270E-001;4.419429972767830E-002;-1.298212009714916E-004;-2.833485137671232E-003;
2.406333333333334E+009;1.951441466808319E-001;4.415645450353622E-002;-1.303689787164331E-004;-2.669493202120066E-003;
2.406500000000000E+009;1.960198134183884E-001;4.421972110867500E-002;-2.604397013783455E-004;-2.524663228541613E-003;
2.406666666666667E+009;1.967093944549561E-001;4.405043646693230E-002;-4.151918401475996E-004;-2.495372900739312E-003;
2.406833333333334E+009;1.974193304777145E-001;4.407406970858574E-002;-5.655278218910098E-004;-2.162932651117444E-003;
2.407000000000000E+009;1.977167874574661E-001;4.409351572394371E-002;-4.680283891502768E-004;-2.035411773249507E-003;
2.407166666666667E+009;1.980810910463333E-001;4.398438706994057E-002;-6.280702073127031E-004;-1.901260111480951E-003;
2.407333333333334E+009;1.980713605880737E-001;4.398818314075470E-002;-4.564192495308816E-004;-1.787738292478025E-003;
2.407500000000000E+009;1.980737447738648E-001;4.402054473757744E-002;-3.315373614896089E-004;-1.625949982553721E-003;
2.407666666666667E+009;1.981464028358460E-001;4.394222423434258E-002;-4.747005295939744E-004;-1.628909609280527E-003;
2.407833333333334E+009;1.976016610860825E-001;4.358489811420441E-002;-3.095594001933932E-004;-1.524371677078307E-003;
2.408000000000000E+009;1.975671947002411E-001;4.345842823386192E-002;-1.840757613535970E-004;-1.352920546196401E-003;
2.408166666666667E+009;1.969594657421112E-001;4.306824877858162E-002;-1.059870264725760E-004;-1.449620467610657E-003;
2.408333333333334E+009;1.964242607355118E-001;4.251071065664291E-002;-2.738821603998076E-005;-1.408506068401039E-003;
2.408500000000000E+009;1.956053376197815E-001;4.210521653294563E-002;-1.260582212125883E-005;-1.380904810503125E-003;
2.408666666666667E+009;1.949018836021423E-001;4.152005538344383E-002;-1.633910324017052E-005;-1.399073633365333E-003;
2.408833333333334E+009;1.940764486789703E-001;4.076702147722244E-002;1.983130059670657E-004;-1.421548193320632E-003;
2.409000000000000E+009;1.931651681661606E-001;3.984198346734047E-002;1.344632910331711E-004;-1.361902337521315E-003;
2.409166666666667E+009;1.920212507247925E-001;3.887372091412544E-002;2.813733590301126E-004;-1.502270228229463E-003;
2.409333333333334E+009;1.910702586174011E-001;3.795310109853745E-002;2.412635512882844E-004;-1.544677768833935E-003;
2.409500000000000E+009;1.897924393415451E-001;3.654688224196434E-002;5.318389739841223E-004;-1.642674556933343E-003;
2.409666666666667E+009;1.888337284326553E-001;3.518169000744820E-002;5.101358401589096E-004;-1.775171491317451E-003;
2.409833333333334E+009;1.875206381082535E-001;3.372169658541679E-002;5.343669326975942E-004;-1.796031720004976E-003;
2.410000000000000E+009;1.863718777894974E-001;3.206584975123406E-002;6.231797742657363E-004;-2.055271528661251E-003;
2.410166666666667E+009;1.854218840599060E-001;3.028004430234432E-002;4.909077542833984E-004;-2.156791044399142E-003;
2.410333333333334E+009;1.842734813690186E-001;2.865145541727543E-002;5.132898222655058E-004;-2.268839161843061E-003;
2.410500000000000E+009;1.832967847585678E-001;2.662433125078678E-002;2.157964190701023E-004;-2.305342350155115E-003;
2.410666666666667E+009;1.824105978012085E-001;2.429672703146935E-002;2.803625538945198E-004;-2.603730885311961E-003;
2.410833333333334E+009;1.816521137952805E-001;2.238412573933601E-002;1.181103871203959E-004;-2.584603382274509E-003;
2.411000000000000E+009;1.808011978864670E-001;1.993642374873161E-002;1.090258301701397E-004;-2.731801243498921E-003;
2.411166666666667E+009;1.800655126571655E-001;1.785038225352764E-002;-1.547063293401152E-004;-2.763593336567283E-003;
2.411333333333334E+009;1.795148402452469E-001;1.526839565485716E-002;-1.869757543317974E-004;-2.944205887615681E-003;
2.411500000000000E+009;1.790301948785782E-001;1.284165494143963E-002;-3.305208520032466E-004;-3.147451905533671E-003;
2.411666666666667E+009;1.789103299379349E-001;1.056017540395260E-002;-5.440436652861536E-004;-2.858949359506369E-003;
2.411833333333334E+009;1.785403937101364E-001;8.062467910349369E-003;-6.272286991588771E-004;-2.973993541672826E-003;
2.412000000000000E+009;1.786045283079147E-001;5.484322551637888E-003;-9.419822599738836E-004;-3.183953696861863E-003;
2.412166666666667E+009;1.786338537931442E-001;3.109622048214078E-003;-9.632951696403325E-004;-2.981606638059020E-003;
2.412333333333334E+009;1.790407150983810E-001;6.709267618134618E-004;-1.257940893992782E-003;-2.925999928265810E-003;
2.412500000000000E+009;1.792396754026413E-001;-1.804878585971892E-003;-1.322588999755681E-003;-3.089392790570855E-003;
2.412666666666667E+009;1.797041594982147E-001;-4.446753766387701E-003;-1.339050242677331E-003;-2.884267130866647E-003;
2.412833333333334E+009;1.804291903972626E-001;-6.888113450258970E-003;-1.718575367704034E-003;-2.920674160122871E-003;
2.413000000000000E+009;1.812152862548828E-001;-9.100525639951229E-003;-1.705528819002211E-003;-2.786745550110936E-003;
2.413166666666667E+009;1.819528341293335E-001;-1.143084187060595E-002;-1.760754501447082E-003;-2.683569211512804E-003;
2.413333333333334E+009;1.830275356769562E-001;-1.382505055516958E-002;-1.889264443889260E-003;-2.536258660256863E-003;
2.413500000000000E+009;1.838720887899399E-001;-1.608768291771412E-002;-1.965755829587579E-003;-2.376105170696974E-003;
2.413666666666667E+009;1.850698441267014E-001;-1.836826652288437E-002;-2.147779101505876E-003;-2.352760639041662E-003;
2.413833333333334E+009;1.862037926912308E-001;-2.019256725907326E-002;-2.215983346104622E-003;-2.180929994210601E-003;
2.414000000000000E+009;1.872612833976746E-001;-2.218408882617950E-002;-2.328514819964767E-003;-2.231710590422154E-003;
2.414166666666667E+009;1.886506378650665E-001;-2.408831194043160E-002;-2.355864038690925E-003;-2.152159577235580E-003;
2.414333333333334E+009;1.897806823253632E-001;-2.602173946797848E-002;-2.288901014253497E-003;-2.147063147276640E-003;
2.414500000000000E+009;1.910897195339203E-001;-2.747540175914764E-002;-2.411853289231658E-003;-2.112214686349034E-003;
2.414666666666667E+009;1.922507435083389E-001;-2.891398034989834E-002;-2.509485464543104E-003;-2.033106284216046E-003;
2.414833333333334E+009;1.934994310140610E-001;-3.033307753503323E-002;-2.605906222015619E-003;-2.021232154220343E-003;
2.415000000000000E+009;1.948680430650711E-001;-3.160890936851502E-002;-2.789099235087633E-003;-2.021638443693519E-003;
2.415166666666667E+009;1.961040943861008E-001;-3.282757475972176E-002;-2.921483479440212E-003;-2.073173411190510E-003;
2.415333333333334E+009;1.972581446170807E-001;-3.363420814275742E-002;-3.040081821382046E-003;-1.845735474489629E-003;
2.415500000000000E+009;1.983561962842941E-001;-3.445974737405777E-002;-3.082106122747064E-003;-1.867659506388009E-003;
2.415666666666667E+009;1.994383633136749E-001;-3.528178110718727E-002;-3.330768784508109E-003;-1.710092066787183E-003;
2.415833333333334E+009;2.003118842840195E-001;-3.583972901105881E-002;-3.603595774620771E-003;-1.453324337489903E-003;
2.416000000000000E+009;2.011570036411285E-001;-3.641258925199509E-002;-3.870699089020491E-003;-1.285794540308416E-003;
2.416166666666667E+009;2.018936127424240E-001;-3.696205839514732E-002;-3.804763313382864E-003;-9.905756451189518E-004;
2.416333333333334E+009;2.026953250169754E-001;-3.715264052152634E-002;-4.000391345471144E-003;-6.904295296408236E-004;
2.416500000000000E+009;2.030181437730789E-001;-3.741404414176941E-002;-3.989921882748604E-003;-4.406557127367705E-004;
2.416666666666667E+009;2.033819407224655E-001;-3.762223571538925E-002;-4.135983064770699E-003;-4.016351886093617E-005;
2.416833333333334E+009;2.036467492580414E-001;-3.756927326321602E-002;-4.211628809571266E-003;-8.718280878383666E-005;
2.417000000000000E+009;2.037522047758102E-001;-3.768192604184151E-002;-4.005295224487782E-003;4.054468008689582E-004;
2.417166666666667E+009;2.035713940858841E-001;-3.754604235291481E-002;-3.762772306799889E-003;5.540482234209776E-004;
2.417333333333334E+009;2.033924758434296E-001;-3.726890683174133E-002;-3.753189928829670E-003;8.061670814640820E-004;
2.417500000000000E+009;2.031151205301285E-001;-3.719832375645638E-002;-3.633485641330481E-003;8.325419621542096E-004;
2.417666666666667E+009;2.027754783630371E-001;-3.681560605764389E-002;-3.497392404824495E-003;1.019863411784172E-003;
2.417833333333334E+009;2.022444754838944E-001;-3.662888333201408E-002;-3.372837556526065E-003;1.291087479330599E-003;
2.418000000000000E+009;2.016504704952240E-001;-3.624711558222771E-002;-3.206003922969103E-003;1.324175391346216E-003;
2.418166666666667E+009;2.009367495775223E-001;-3.615821525454521E-002;-2.983668586239219E-003;1.485651591792703E-003;
2.418333333333334E+009;2.000944018363953E-001;-3.600810468196869E-002;-3.085009055212140E-003;1.524461084045470E-003;
2.418500000000000E+009;1.990766823291779E-001;-3.595186397433281E-002;-2.881261054426432E-003;1.684590126387775E-003;
2.418666666666667E+009;1.983336657285690E-001;-3.581734374165535E-002;-2.844305243343115E-003;1.442779903300107E-003;
2.418833333333334E+009;1.970448791980743E-001;-3.595790639519692E-002;-2.748460974544287E-003;1.633910345844924E-003;
2.419000000000000E+009;1.958784162998200E-001;-3.595957532525063E-002;-2.579955384135246E-003;1.687693758867681E-003;
2.419166666666667E+009;1.946683526039124E-001;-3.642178699374199E-002;-2.663714112713933E-003;1.672948943451047E-003;
2.419333333333334E+009;1.934315860271454E-001;-3.671181574463844E-002;-2.666174899786711E-003;1.775069278664887E-003;
2.419500000000000E+009;1.918750256299973E-001;-3.724877163767815E-002;-2.642805920913816E-003;1.920899958349764E-003;
2.419666666666667E+009;1.902787387371063E-001;-3.792349994182587E-002;-2.526008291170001E-003;2.080143429338932E-003;
2.419833333333334E+009;1.887673288583756E-001;-3.863720595836639E-002;-2.568903146311641E-003;2.183134434744716E-003;
2.420000000000000E+009;1.872147917747498E-001;-3.963555395603180E-002;-2.477739239111543E-003;2.274130703881383E-003;
2.420166666666667E+009;1.857334375381470E-001;-4.052813351154327E-002;-2.467078389599919E-003;2.416356932371855E-003;
2.420333333333334E+009;1.841020137071610E-001;-4.174113646149635E-002;-2.289131982252002E-003;2.518192166462541E-003;
2.420500000000000E+009;1.823965460062027E-001;-4.317383468151093E-002;-2.226073527708650E-003;2.733316272497177E-003;
2.420666666666667E+009;1.807794868946075E-001;-4.427398741245270E-002;-1.919403090141714E-003;2.845658920705319E-003;
2.420833333333334E+009;1.790891140699387E-001;-4.582284390926361E-002;-1.781219732947648E-003;3.101799869909883E-003;
2.421000000000000E+009;1.775874197483063E-001;-4.740465059876442E-002;-1.621550647541881E-003;3.205428598448634E-003;
2.421166666666667E+009;1.763283312320709E-001;-4.903199151158333E-002;-1.352122286334634E-003;3.482374828308821E-003;
2.421333333333334E+009;1.745007336139679E-001;-5.053048208355904E-002;-1.047374214977026E-003;3.398243570700288E-003;
2.421500000000000E+009;1.731566637754440E-001;-5.261079221963882E-002;-6.374169024638832E-004;3.366016549989581E-003;
2.421666666666667E+009;1.720494031906128E-001;-5.458290129899979E-002;-3.577531024347991E-004;3.405779134482145E-003;
2.421833333333334E+009;1.707156896591187E-001;-5.633306130766869E-002;-5.047725153417559E-006;3.350463230162859E-003;
2.422000000000000E+009;1.695612370967865E-001;-5.833540856838226E-002;2.722345234360546E-004;3.195647615939379E-003;
2.422166666666667E+009;1.686754673719406E-001;-6.036809831857681E-002;5.062024574726820E-004;2.971020992845297E-003;
2.422333333333334E+009;1.677612513303757E-001;-6.240295246243477E-002;6.623866502195597E-004;2.859132131561637E-003;
2.422500000000000E+009;1.669733524322510E-001;-6.431881338357925E-002;7.697058026678860E-004;2.568187657743692E-003;
2.422666666666667E+009;1.662905216217041E-001;-6.632861495018005E-002;9.812497301027179E-004;2.155140740796924E-003;
2.422833333333334E+009;1.658445596694946E-001;-6.854549050331116E-002;9.513399563729763E-004;2.078394172713161E-003;
2.423000000000000E+009;1.652644127607346E-001;-7.054416090250015E-002;1.217767130583525E-003;1.754037686623633E-003;
2.423166666666667E+009;1.650325953960419E-001;-7.258702814579010E-002;1.222998602315784E-003;1.544830854982138E-003;
2.423333333333334E+009;1.647351235151291E-001;-7.450632005929947E-002;1.123964670114219E-003;1.466094749048352E-003;
2.423500000000000E+009;1.648986935615540E-001;-7.630214095115662E-002;1.009355997666717E-003;1.221880433149636E-003;
2.423666666666667E+009;1.648693382740021E-001;-7.821233570575714E-002;1.163741922937334E-003;9.983885101974011E-004;
2.423833333333334E+009;1.650054007768631E-001;-8.008969575166702E-002;6.631974247284234E-004;7.124309195205569E-004;
2.424000000000000E+009;1.651077866554260E-001;-8.184994012117386E-002;7.777806022204459E-004;5.238065496087074E-004;
2.424166666666667E+009;1.651848852634430E-001;-8.339297771453857E-002;6.382383871823549E-004;4.652542702388018E-004;
2.424333333333334E+009;1.655858457088471E-001;-8.504331856966019E-002;4.394102143123746E-004;3.956069413106889E-004;
2.424500000000000E+009;1.660144180059433E-001;-8.668805658817291E-002;2.878924424294382E-004;2.286045491928235E-004;
2.424666666666667E+009;1.663898080587387E-001;-8.811938762664795E-002;1.894312445074320E-004;4.188467864878476E-004;
2.424833333333334E+009;1.669823080301285E-001;-8.929086476564407E-002;-6.945643690414727E-005;2.493289648555219E-004;
2.425000000000000E+009;1.674751192331314E-001;-9.055675566196442E-002;-7.635028305230662E-005;3.525349893607199E-004;
2.425166666666667E+009;1.678688824176788E-001;-9.160757809877396E-002;-4.778662405442447E-004;4.058560880366713E-004;
2.425333333333334E+009;1.683156341314316E-001;-9.251309186220169E-002;-4.997693467885256E-004;4.868828691542149E-004;
2.425500000000000E+009;1.689785420894623E-001;-9.353627264499664E-002;-6.464268662966788E-004;5.914860521443188E-004;
2.425666666666667E+009;1.695447564125061E-001;-9.412971138954163E-002;-5.780656938441098E-004;6.570650148205459E-004;
2.425833333333334E+009;1.699829697608948E-001;-9.489658474922180E-002;-8.096998208202422E-004;5.991543876007199E-004;
2.426000000000000E+009;1.706523448228836E-001;-9.555702656507492E-002;-8.659543818794191E-004;9.025925537571311E-004;
2.426166666666667E+009;1.712210327386856E-001;-9.599427878856659E-002;-8.875138009898365E-004;1.120957429520786E-003;
2.426333333333334E+009;1.714809685945511E-001;-9.651279449462891E-002;-6.979319150559604E-004;1.010662526823580E-003;
2.426500000000000E+009;1.719982922077179E-001;-9.686097502708435E-002;-8.242941694334149E-004;1.179695012979209E-003;
2.426666666666667E+009;1.723654121160507E-001;-9.725029766559601E-002;-7.559205405414105E-004;1.291159191168845E-003;
2.426833333333334E+009;1.727343797683716E-001;-9.743449836969376E-002;-6.583000067621470E-004;1.376448664814234E-003;
2.427000000000000E+009;1.729597598314285E-001;-9.778493642807007E-002;-6.623351364396513E-004;1.391859725117683E-003;
2.427166666666667E+009;1.731037944555283E-001;-9.794013947248459E-002;-6.468950305134058E-004;1.544694299809635E-003;
2.427333333333334E+009;1.731222569942474E-001;-9.823857992887497E-002;-6.477941060438752E-004;1.525279716588557E-003;
2.427500000000000E+009;1.730072945356369E-001;-9.844058752059937E-002;-6.007565534673631E-004;1.771950279362500E-003;
2.427666666666667E+009;1.729273051023483E-001;-9.865344315767288E-002;-5.305134691298008E-004;1.668798387981951E-003;
