# Version 1.00
#
freq[Hz];re:Trc1_S11;im:Trc1_S11;re:Trc2_S21;im:Trc2_S21;
2.400000000000000E+009;1.499862372875214E-001;1.135322302579880E-001;4.994875751435757E-003;1.870723091997206E-003;
2.400166666666667E+009;1.498263925313950E-001;1.113598123192787E-001;5.309273023158312E-003;1.509167021140456E-003;
2.400333333333334E+009;1.499390304088593E-001;1.091248020529747E-001;5.584319122135639E-003;1.180600840598345E-003;
2.400500000000000E+009;1.499808281660080E-001;1.064733043313026E-001;5.810531787574291E-003;7.735249237157404E-004;
2.400666666666667E+009;1.501031219959259E-001;1.039606109261513E-001;5.896794144064188E-003;2.898110833484680E-004;
2.400833333333334E+009;1.503411531448364E-001;1.012910604476929E-001;5.808002315461636E-003;-3.049452207051218E-004;
2.401000000000000E+009;1.506754159927368E-001;9.851323813199997E-002;5.765494890511036E-003;-7.259831763803959E-004;
2.401166666666667E+009;1.507928818464279E-001;9.584476053714752E-002;5.762788001447916E-003;-1.217094133608043E-003;
2.401333333333334E+009;1.514115184545517E-001;9.317285567522049E-002;5.424239207059145E-003;-1.681343186646700E-003;
2.401500000000000E+009;1.518009454011917E-001;9.021797031164169E-002;5.299799609929323E-003;-2.032564952969551E-003;
2.401666666666667E+009;1.523296386003494E-001;8.734744042158127E-002;4.966567736119032E-003;-2.474860288202763E-003;
2.401833333333334E+009;1.529902815818787E-001;8.467990905046463E-002;4.467278718948364E-003;-2.841864479705691E-003;
2.402000000000000E+009;1.540619432926178E-001;8.208958059549332E-002;4.194461274892092E-003;-2.883216831833124E-003;
2.402166666666667E+009;1.550122946500778E-001;7.948392629623413E-002;3.804649924859405E-003;-3.115838160738349E-003;
2.402333333333334E+009;1.562104821205139E-001;7.666444778442383E-002;3.610056126490235E-003;-3.191756084561348E-003;
2.402500000000000E+009;1.576025336980820E-001;7.417847216129303E-002;3.262214828282595E-003;-3.337220987305045E-003;
2.402666666666667E+009;1.587592065334320E-001;7.191330194473267E-002;3.007480408996344E-003;-3.422174602746964E-003;
2.402833333333334E+009;1.601748615503311E-001;6.961996108293533E-002;2.653650008141995E-003;-3.375996137037873E-003;
2.403000000000000E+009;1.620016843080521E-001;6.721065193414688E-002;2.363160019740462E-003;-3.388410434126854E-003;
2.403166666666667E+009;1.639810204505920E-001;6.501416116952896E-002;2.143427496775985E-003;-3.268878441303968E-003;
2.403333333333334E+009;1.656355112791061E-001;6.292062997817993E-002;1.964672701433301E-003;-3.253863425925374E-003;
2.403500000000000E+009;1.676936298608780E-001;6.064012274146080E-002;2.059453167021275E-003;-3.072208492085338E-003;
2.403666666666667E+009;1.696706265211105E-001;5.882145464420319E-002;1.646315795369446E-003;-3.085382049903274E-003;
2.403833333333334E+009;1.714691221714020E-001;5.703616887331009E-002;1.510346191935241E-003;-3.058088477700949E-003;
2.404000000000000E+009;1.731180548667908E-001;5.498983338475227E-002;1.547560095787048E-003;-2.927162684500217E-003;
2.404166666666667E+009;1.752723008394241E-001;5.352191254496574E-002;1.515142503194511E-003;-2.907161368057132E-003;
2.404333333333334E+009;1.771139204502106E-001;5.198528245091438E-002;1.290816930122674E-003;-3.036225680261850E-003;
2.404500000000000E+009;1.787634491920471E-001;5.050896480679512E-002;1.165563357062638E-003;-2.891215961426497E-003;
2.404666666666667E+009;1.808062642812729E-001;4.919581487774849E-002;1.140640350058675E-003;-2.907754387706518E-003;
2.404833333333334E+009;1.827657669782639E-001;4.811363294720650E-002;9.425773750990629E-004;-2.886356553062797E-003;
2.405000000000000E+009;1.840987354516983E-001;4.731738939881325E-002;8.733041468076408E-004;-2.985055325552821E-003;
2.405166666666667E+009;1.859026104211807E-001;4.655273258686066E-002;6.693344912491739E-004;-3.013915149495006E-003;
2.405333333333334E+009;1.874126344919205E-001;4.612539336085320E-002;5.001310491934419E-004;-3.016050672158599E-003;
2.405500000000000E+009;1.890736222267151E-001;4.546864330768585E-002;4.547551216091961E-004;-3.052736865356565E-003;
2.405666666666667E+009;1.902765780687332E-001;4.506028443574905E-002;3.478815197013319E-004;-3.115785541012883E-003;
2.405833333333334E+009;1.916639357805252E-001;4.474537819623947E-002;2.916238736361265E-004;-2.928725210949779E-003;
2.406000000000000E+009;1.929397284984589E-001;4.455752298235893E-002;1.105434785131365E-004;-2.835549879819155E-003;
2.406166666666667E+009;1.940619349479675E-001;4.422649741172791E-002;-2.762635995168239E-005;-2.796082757413387E-003;
2.406333333333334E+009;1.950622051954269E-001;4.425949975848198E-002;-2.239140594610944E-004;-2.665476873517036E-003;
2.406500000000000E+009;1.960081309080124E-001;4.419215023517609E-002;-3.850393404718489E-004;-2.511691302061081E-003;
2.406666666666667E+009;1.966509073972702E-001;4.411151260137558E-002;-5.246092914603651E-004;-2.322040498256683E-003;
2.406833333333334E+009;1.974082440137863E-001;4.407595470547676E-002;-6.162872305139899E-004;-2.064236672595143E-003;
2.407000000000000E+009;1.976691186428070E-001;4.429652914404869E-002;-4.868327232543379E-004;-2.063014544546604E-003;
2.407166666666667E+009;1.980403810739517E-001;4.398587346076965E-002;-5.734650767408311E-004;-1.920085516758263E-003;
2.407333333333334E+009;1.981499791145325E-001;4.402121901512146E-002;-6.013576057739556E-004;-1.850361120887101E-003;
2.407500000000000E+009;1.980747282505035E-001;4.411993548274040E-002;-6.183151854202151E-004;-1.746105495840311E-003;
2.407666666666667E+009;1.980284601449966E-001;4.397156834602356E-002;-4.060148203279823E-004;-1.540611498057842E-003;
2.407833333333334E+009;1.975840032100678E-001;4.373416677117348E-002;-5.213300464674830E-004;-1.552120316773653E-003;
2.408000000000000E+009;1.974703669548035E-001;4.353923723101616E-002;-4.068780399393290E-004;-1.471312018111348E-003;
2.408166666666667E+009;1.968940198421478E-001;4.324856027960777E-002;-2.590004587545991E-004;-1.437138067558408E-003;
2.408333333333334E+009;1.962701231241226E-001;4.268910735845566E-002;-1.616137888049707E-004;-1.389768905937672E-003;
2.408500000000000E+009;1.956085115671158E-001;4.240189120173454E-002;-5.101302917864814E-007;-1.374959712848067E-003;
2.408666666666667E+009;1.948539763689041E-001;4.169772937893868E-002;-2.549465420997876E-007;-1.397978863678873E-003;
2.408833333333334E+009;1.940724849700928E-001;4.102645814418793E-002;6.320311513263732E-005;-1.299957511946559E-003;
2.409000000000000E+009;1.930520236492157E-001;3.993994370102882E-002;2.335989265702665E-004;-1.423296169377863E-003;
2.409166666666667E+009;1.918905973434448E-001;3.910880908370018E-002;2.279272594023496E-004;-1.542335725389421E-003;
2.409333333333334E+009;1.909758746623993E-001;3.802787512540817E-002;4.654608492273837E-004;-1.638132962398231E-003;
2.409500000000000E+009;1.898114085197449E-001;3.675821051001549E-002;5.550605128519237E-004;-1.511261216364801E-003;
2.409666666666667E+009;1.887062638998032E-001;3.528682887554169E-002;5.284759681671858E-004;-1.762737520039082E-003;
2.409833333333334E+009;1.875686347484589E-001;3.389052674174309E-002;5.397063796408474E-004;-1.831172150559723E-003;
2.410000000000000E+009;1.863795220851898E-001;3.233283758163452E-002;4.968428984284401E-004;-2.043515676632524E-003;
2.410166666666667E+009;1.853765398263931E-001;3.052409179508686E-002;3.547232481651008E-004;-2.149063162505627E-003;
2.410333333333334E+009;1.843577474355698E-001;2.879705093801022E-002;3.940518072340637E-004;-2.225872594863176E-003;
2.410500000000000E+009;1.832289695739746E-001;2.681632526218891E-002;2.985391765832901E-004;-2.436633920297027E-003;
2.410666666666667E+009;1.823307126760483E-001;2.461091801524162E-002;2.810563892126083E-004;-2.585974754765630E-003;
2.410833333333334E+009;1.816380918025971E-001;2.233674563467503E-002;1.575416172272526E-005;-2.614573575556278E-003;
2.411000000000000E+009;1.808997243642807E-001;2.006910182535648E-002;1.037924448610283E-004;-2.559892134740949E-003;
2.411166666666667E+009;1.799856424331665E-001;1.807391457259655E-002;-1.480611081206007E-005;-2.759724855422974E-003;
2.411333333333334E+009;1.796104013919830E-001;1.544810272753239E-002;-2.701357007026672E-004;-2.959051867946982E-003;
2.411500000000000E+009;1.791829466819763E-001;1.307526975870132E-002;-4.294991667848080E-004;-2.885852009057999E-003;
2.411666666666667E+009;1.789527237415314E-001;1.059697847813368E-002;-4.215139488223940E-004;-2.722716424614191E-003;
2.411833333333334E+009;1.786360740661621E-001;8.224829100072384E-003;-6.907461211085320E-004;-2.799784298986197E-003;
2.412000000000000E+009;1.788007616996765E-001;5.599317140877247E-003;-8.752937428653240E-004;-2.972531830891967E-003;
2.412166666666667E+009;1.788373142480850E-001;3.412932390347123E-003;-9.170035482384265E-004;-2.848878968507052E-003;
2.412333333333334E+009;1.788857579231262E-001;6.339391111396253E-004;-1.168686081655324E-003;-2.813605358824134E-003;
2.412500000000000E+009;1.793220788240433E-001;-1.769837457686663E-003;-1.322401687502861E-003;-2.871308010071516E-003;
2.412666666666667E+009;1.797854155302048E-001;-4.152717534452677E-003;-1.370825571939349E-003;-2.694864990189672E-003;
2.412833333333334E+009;1.804463416337967E-001;-6.691162008792162E-003;-1.601229188963771E-003;-2.735920716077089E-003;
2.413000000000000E+009;1.812596023082733E-001;-9.167958050966263E-003;-1.706677838228643E-003;-2.696718554943800E-003;
2.413166666666667E+009;1.821167320013046E-001;-1.123149693012238E-002;-1.849468564614654E-003;-2.532238140702248E-003;
2.413333333333334E+009;1.831069886684418E-001;-1.375628635287285E-002;-1.979250693693757E-003;-2.513468731194735E-003;
2.413500000000000E+009;1.840210407972336E-001;-1.597819849848747E-002;-1.939991489052773E-003;-2.380573889240623E-003;
2.413666666666667E+009;1.852600723505020E-001;-1.814398355782032E-002;-2.250102348625660E-003;-2.393445465713739E-003;
2.413833333333334E+009;1.862325519323349E-001;-2.014650404453278E-002;-2.280270215123892E-003;-2.286066068336368E-003;
2.414000000000000E+009;1.874414831399918E-001;-2.194954454898834E-002;-2.302449429407716E-003;-2.117366762831807E-003;
2.414166666666667E+009;1.887088865041733E-001;-2.401505783200264E-002;-2.365489723160863E-003;-2.074416028335691E-003;
2.414333333333334E+009;1.897836774587631E-001;-2.591994218528271E-002;-2.288006478920579E-003;-2.120661083608866E-003;
2.414500000000000E+009;1.912071704864502E-001;-2.735552191734314E-002;-2.417751820757985E-003;-1.986509421840310E-003;
2.414666666666667E+009;1.924171298742294E-001;-2.880926430225372E-002;-2.483751857653260E-003;-1.931117731146514E-003;
2.414833333333334E+009;1.938219070434570E-001;-3.022087737917900E-002;-2.550732344388962E-003;-1.999939791858196E-003;
2.415000000000000E+009;1.948321759700775E-001;-3.162199258804321E-002;-2.678275108337402E-003;-1.855933573096991E-003;
2.415166666666667E+009;1.961015164852142E-001;-3.287385776638985E-002;-2.900611842051148E-003;-1.806865446269512E-003;
2.415333333333334E+009;1.973146945238113E-001;-3.363653272390366E-002;-2.931717084720731E-003;-1.936175045557320E-003;
2.415500000000000E+009;1.985870748758316E-001;-3.442046418786049E-002;-3.127310192212462E-003;-1.844146987423301E-003;
2.415666666666667E+009;1.994877457618713E-001;-3.518883138895035E-002;-3.371722530573607E-003;-1.655914587900043E-003;
2.415833333333334E+009;2.005839198827744E-001;-3.574308380484581E-002;-3.590225940570235E-003;-1.433206722140312E-003;
2.416000000000000E+009;2.011432796716690E-001;-3.642340749502182E-002;-3.702993039041758E-003;-1.212534494698048E-003;
2.416166666666667E+009;2.018952369689941E-001;-3.682598099112511E-002;-3.843189682811499E-003;-9.612376452423632E-004;
2.416333333333334E+009;2.027148604393005E-001;-3.722432628273964E-002;-3.950120415538549E-003;-7.039909251034260E-004;
2.416500000000000E+009;2.034063190221787E-001;-3.732458502054215E-002;-4.146390594542027E-003;-4.148415173403919E-004;
2.416666666666667E+009;2.035947144031525E-001;-3.763510286808014E-002;-3.973681945353746E-003;-7.886870298534632E-005;
2.416833333333334E+009;2.038006186485291E-001;-3.760429099202156E-002;-4.098733887076378E-003;2.361661754548550E-004;
2.417000000000000E+009;2.040267437696457E-001;-3.771245479583740E-002;-3.934109583497047E-003;3.873068781103939E-004;
2.417166666666667E+009;2.037409096956253E-001;-3.746370226144791E-002;-3.724589478224516E-003;6.493253749795258E-004;
2.417333333333334E+009;2.034756839275360E-001;-3.731838986277580E-002;-3.671094542369247E-003;8.108206093311310E-004;
2.417500000000000E+009;2.033227682113648E-001;-3.721768036484718E-002;-3.570253727957606E-003;1.079485053196549E-003;
2.417666666666667E+009;2.028143405914307E-001;-3.697512671351433E-002;-3.432876197621226E-003;1.060893177054822E-003;
2.417833333333334E+009;2.025193870067596E-001;-3.662354126572609E-002;-3.309175372123718E-003;1.157734659500420E-003;
2.418000000000000E+009;2.018511295318604E-001;-3.635047748684883E-002;-3.089334815740585E-003;1.297830720432103E-003;
2.418166666666667E+009;2.010656297206879E-001;-3.627758473157883E-002;-2.978909527882934E-003;1.403157366439700E-003;
2.418333333333334E+009;2.003180533647537E-001;-3.598448634147644E-002;-2.908405149355531E-003;1.514429342932999E-003;
2.418500000000000E+009;1.993532925844193E-001;-3.593975678086281E-002;-2.844356931746006E-003;1.602139906026423E-003;
2.418666666666667E+009;1.984318941831589E-001;-3.583306446671486E-002;-2.816936234012246E-003;1.501831691712141E-003;
2.418833333333334E+009;1.972541511058807E-001;-3.601822629570961E-002;-2.576126251369715E-003;1.653242274187505E-003;
2.419000000000000E+009;1.959998756647110E-001;-3.614727035164833E-002;-2.666602609679103E-003;1.708313007839024E-003;
2.419166666666667E+009;1.949303597211838E-001;-3.639236092567444E-002;-2.576658036559820E-003;1.745330053381622E-003;
2.419333333333334E+009;1.934186518192291E-001;-3.692141175270081E-002;-2.542830072343350E-003;1.756974146701396E-003;
2.419500000000000E+009;1.920578777790070E-001;-3.727412223815918E-002;-2.457963535562158E-003;1.888026483356953E-003;
2.419666666666667E+009;1.903517693281174E-001;-3.811874613165855E-002;-2.398807089775801E-003;1.982041867449880E-003;
2.419833333333334E+009;1.888606995344162E-001;-3.880911692976952E-002;-2.462747506797314E-003;2.113059395924211E-003;
2.420000000000000E+009;1.874190568923950E-001;-3.953197598457336E-002;-2.494108630344272E-003;2.257380401715636E-003;
2.420166666666667E+009;1.856446564197540E-001;-4.062274098396301E-002;-2.371237846091390E-003;2.373998984694481E-003;
2.420333333333334E+009;1.841074675321579E-001;-4.186192899942398E-002;-2.311394084244967E-003;2.484618918970227E-003;
2.420500000000000E+009;1.825284659862518E-001;-4.311324283480644E-002;-2.076413948088884E-003;2.589488867670298E-003;
2.420666666666667E+009;1.808273047208786E-001;-4.436938837170601E-002;-2.097863471135497E-003;3.046897938475013E-003;
2.420833333333334E+009;1.792484372854233E-001;-4.595473408699036E-002;-1.848048530519009E-003;3.156624268740416E-003;
2.421000000000000E+009;1.777486503124237E-001;-4.742406308650971E-002;-1.499327132478356E-003;3.163114888593555E-003;
2.421166666666667E+009;1.763333082199097E-001;-4.925031214952469E-002;-1.359918969683349E-003;3.273781156167388E-003;
2.421333333333334E+009;1.745953559875488E-001;-5.091350525617600E-002;-1.133593264967203E-003;3.471126779913902E-003;
2.421500000000000E+009;1.731729209423065E-001;-5.283589288592339E-002;-6.633640150539577E-004;3.617855487391353E-003;
2.421666666666667E+009;1.719796806573868E-001;-5.462213605642319E-002;-3.722131368704140E-004;3.307960461825132E-003;
2.421833333333334E+009;1.708761751651764E-001;-5.641080811619759E-002;-6.090087117627263E-005;3.285267390310764E-003;
2.422000000000000E+009;1.697974205017090E-001;-5.844677239656448E-002;1.612620690139011E-004;3.146790433675051E-003;
2.422166666666667E+009;1.687010228633881E-001;-6.041644513607025E-002;4.289798962417990E-004;2.949029905721545E-003;
2.422333333333334E+009;1.678323298692703E-001;-6.251638382673264E-002;5.965596647001803E-004;2.663466148078442E-003;
2.422500000000000E+009;1.670057624578476E-001;-6.438950449228287E-002;8.742100908420980E-004;2.584603847935796E-003;
2.422666666666667E+009;1.664446890354157E-001;-6.659393757581711E-002;9.102799813263118E-004;2.315528457984328E-003;
2.422833333333334E+009;1.658691465854645E-001;-6.873076409101486E-002;1.130809774622321E-003;2.033067867159843E-003;
2.423000000000000E+009;1.653681397438049E-001;-7.053152471780777E-002;1.173035474494100E-003;1.622301642782986E-003;
2.423166666666667E+009;1.650422066450119E-001;-7.258829474449158E-002;1.302352058701217E-003;1.541319186799228E-003;
2.423333333333334E+009;1.648504734039307E-001;-7.463472336530685E-002;1.149861724115908E-003;1.261899247765541E-003;
2.423500000000000E+009;1.648300588130951E-001;-7.644771784543991E-002;1.133956597186625E-003;1.043943339027464E-003;
2.423666666666667E+009;1.649692803621292E-001;-7.845062017440796E-002;9.134691208600998E-004;7.403010386042297E-004;
2.423833333333334E+009;1.647231429815292E-001;-8.011576533317566E-002;8.606755873188376E-004;7.296023541130126E-004;
2.424000000000000E+009;1.650518178939819E-001;-8.187140524387360E-002;7.551582530140877E-004;5.476828664541245E-004;
2.424166666666667E+009;1.653446406126022E-001;-8.361522108316422E-002;6.475254776887596E-004;3.879673895426095E-004;
2.424333333333334E+009;1.656368970870972E-001;-8.510053157806397E-002;4.761103191412985E-004;3.318147500976920E-004;
2.424500000000000E+009;1.660596281290054E-001;-8.687983453273773E-002;3.041052841581404E-004;3.345905279275030E-004;
2.424666666666667E+009;1.664385497570038E-001;-8.821786195039749E-002;1.705703471088782E-004;3.049049992114306E-004;
2.424833333333334E+009;1.670767217874527E-001;-8.947217464447022E-002;-1.799792516976595E-005;2.575745456852019E-004;
2.425000000000000E+009;1.675685495138168E-001;-9.061095118522644E-002;-1.975284103536978E-004;1.932297891471535E-004;
2.425166666666667E+009;1.680125445127487E-001;-9.151794016361237E-002;-3.648297861218453E-004;3.941982577089220E-004;
2.425333333333334E+009;1.684456765651703E-001;-9.272560477256775E-002;-4.525123513303697E-004;3.690485609695315E-004;
2.425500000000000E+009;1.690550744533539E-001;-9.366063028573990E-002;-5.938069662079215E-004;5.749510601162911E-004;
2.425666666666667E+009;1.696120798587799E-001;-9.431140869855881E-002;-7.691145292483270E-004;6.130788824521005E-004;
2.425833333333334E+009;1.700818836688995E-001;-9.516169875860214E-002;-8.261471521109343E-004;6.119334138929844E-004;
2.426000000000000E+009;1.706763058900833E-001;-9.555304050445557E-002;-8.695104042999446E-004;8.885311544872820E-004;
2.426166666666667E+009;1.711841821670532E-001;-9.613457322120667E-002;-8.869986049830914E-004;9.684011456556618E-004;
2.426333333333334E+009;1.714572757482529E-001;-9.662055224180222E-002;-7.828701636753976E-004;1.087937620468438E-003;
2.426500000000000E+009;1.720837801694870E-001;-9.688808768987656E-002;-6.097366567701101E-004;1.300761708989739E-003;
2.426666666666667E+009;1.724593341350555E-001;-9.735688567161560E-002;-8.215853013098240E-004;1.377352746203542E-003;
2.426833333333334E+009;1.728530377149582E-001;-9.758681803941727E-002;-7.504004752263427E-004;1.470941235311329E-003;
2.427000000000000E+009;1.730368882417679E-001;-9.786938875913620E-002;-6.727318395860493E-004;1.570587279275060E-003;
2.427166666666667E+009;1.731318384408951E-001;-9.809078276157379E-002;-5.780317587777972E-004;1.588563318364322E-003;
2.427333333333334E+009;1.732370704412460E-001;-9.836711734533310E-002;-6.084206979721785E-004;1.703600632026792E-003;
2.427500000000000E+009;1.731610149145126E-001;-9.865729510784149E-002;-5.813175230287015E-004;1.717602019198239E-003;
2.427666666666667E+009;1.728470474481583E-001;-9.867744147777557E-002;-4.272978403605521E-004;1.644598902203143E-003;
